Data from 20171114-ORNL-Ar_H_NY_Subt18_08-06-30-836.txt Node
Date: Tue Nov 14 08:06:30 EST 2017
User: Ender
Spectrometer: HR+D1039
Trigger mode: 0
Integration Time (sec): 2.730000E-2
Scans to average: 10
Electric dark correction enabled: true
Nonlinearity correction enabled: false
Boxcar width: 0
XAxis mode: Wavelengths
Number of Pixels in Spectrum: 2048
>>>>>Begin Spectral Data<<<<<
187.836	-2.77
188.309	-2.77
188.782	-2.77
189.255	-3.47
189.728	-0.57
190.201	6.63
190.674	-0.57
191.147	3.53
191.619	-11.27
192.092	-0.47
192.565	4.43
193.038	0.53
193.511	4.03
193.984	0.63
194.456	-5.87
194.929	0.83
195.402	-0.07
195.874	4.43
196.347	-4.97
196.82	-9.37
197.292	3.43
197.765	0.93
198.237	-5.37
198.71	-1.87
199.182	1.93
199.655	3.63
200.127	4.03
200.6	0.63
201.072	-3.57
201.544	-1.57
202.017	-0.67
202.489	2.53
202.961	0.43
203.433	-4.07
203.906	-10.17
204.378	-5.77
204.85	-4.07
205.322	-8.37
205.794	-1.87
206.266	-6.77
206.739	-11.77
207.211	1.03
207.683	-6.17
208.155	-1.77
208.627	-4.27
209.099	-4.47
209.57	-9.07
210.042	-4.27
210.514	-2.87
210.986	3.63
211.458	-11.87
211.93	0.43
212.402	0.63
212.873	-7.27
213.345	-10.97
213.817	-10.77
214.288	-5.87
214.76	-8.27
215.232	-4.37
215.703	-6.47
216.175	0.43
216.646	-1.17
217.118	-3.67
217.589	-5.17
218.061	1.33
218.532	-6.27
219.004	-2.67
219.475	-5.67
219.946	0.03
220.418	-5.57
220.889	2.43
221.36	5.03
221.832	-4.67
222.303	1.93
222.774	1.43
223.245	-14.77
223.717	-11.37
224.188	-6.57
224.659	-7.27
225.13	-6.07
225.601	-6.17
226.072	1.23
226.543	-0.37
227.014	-4.57
227.485	-3.77
227.956	-7.37
228.427	-7.87
228.898	-1.27
229.369	5.43
229.839	-0.97
230.31	-8.17
230.781	-1.87
231.252	0.63
231.722	-1.67
232.193	-0.37
232.664	-1.87
233.135	2.93
233.605	-2.77
234.076	-1.77
234.546	2.73
235.017	2.03
235.487	-1.37
235.958	4.93
236.428	-3.97
236.899	9.33
237.369	3.53
237.84	-5.27
238.31	2.23
238.78	-0.67
239.251	-3.57
239.721	3.23
240.191	2.93
240.662	2.43
241.132	1.83
241.602	-2.47
242.072	-3.67
242.542	6.53
243.013	-2.17
243.483	8.23
243.953	1.23
244.423	2.43
244.893	2.23
245.363	7.73
245.833	6.73
246.303	4.33
246.773	3.83
247.243	5.13
247.712	10.63
248.182	13.73
248.652	3.53
249.122	-5.97
249.592	11.03
250.061	20.53
250.531	32.03
251.001	23.33
251.471	19.93
251.94	23.53
252.41	11.63
252.879	6.13
253.349	18.83
253.818	6.23
254.288	9.83
254.757	3.03
255.227	9.93
255.696	8.03
256.166	7.83
256.635	7.93
257.105	8.83
257.574	3.03
258.043	14.53
258.513	15.73
258.982	19.13
259.451	12.33
259.92	13.03
260.389	11.33
260.859	14.53
261.328	12.23
261.797	24.03
262.266	11.03
262.735	13.03
263.204	5.73
263.673	-1.37
264.142	10.03
264.611	5.13
265.08	-1.47
265.549	4.03
266.018	7.23
266.487	-1.27
266.955	-0.47
267.424	3.03
267.893	7.33
268.362	1.23
268.83	-3.77
269.299	11.03
269.768	11.73
270.236	7.53
270.705	2.93
271.174	10.93
271.642	8.93
272.111	7.63
272.579	16.93
273.048	26.33
273.516	27.93
273.985	28.33
274.453	24.83
274.922	17.03
275.39	7.83
275.858	11.03
276.327	12.53
276.795	14.83
277.263	10.33
277.731	31.53
278.2	55.83
278.668	62.33
279.136	48.13
279.604	23.53
280.072	22.83
280.54	12.13
281.008	10.13
281.477	14.13
281.945	7.33
282.413	18.13
282.881	13.73
283.348	10.93
283.816	11.33
284.284	14.83
284.752	29.03
285.22	10.63
285.688	18.63
286.156	23.63
286.623	44.73
287.091	56.83
287.559	30.23
288.026	20.73
288.494	13.63
288.962	7.23
289.429	14.43
289.897	26.93
290.364	20.03
290.832	15.73
291.3	18.13
291.767	18.43
292.234	25.33
292.702	14.23
293.169	24.23
293.637	22.43
294.104	21.73
294.571	9.23
295.039	17.83
295.506	11.43
295.973	18.73
296.44	18.33
296.908	20.03
297.375	15.93
297.842	22.43
298.309	16.03
298.776	16.73
299.243	20.53
299.71	9.53
300.177	19.83
300.644	24.93
301.111	23.23
301.578	20.73
302.045	14.83
302.512	19.03
302.979	25.73
303.446	24.63
303.913	14.73
304.379	18.23
304.846	33.13
305.313	28.33
305.78	24.03
306.246	29.83
306.713	32.13
307.18	28.33
307.646	28.33
308.113	26.43
308.579	24.23
309.046	23.23
309.512	32.33
309.979	23.43
310.445	20.43
310.912	23.33
311.378	37.73
311.845	30.73
312.311	31.93
312.777	40.23
313.244	31.03
313.71	39.53
314.176	34.33
314.642	29.53
315.109	35.03
315.575	33.93
316.041	45.33
316.507	34.63
316.973	42.53
317.439	33.43
317.905	34.63
318.371	37.03
318.837	35.63
319.303	38.23
319.769	39.33
320.235	37.33
320.701	29.73
321.167	31.83
321.633	36.73
322.099	42.33
322.564	48.03
323.03	42.93
323.496	38.13
323.962	43.13
324.427	38.43
324.893	41.43
325.359	38.23
325.824	40.13
326.29	37.93
326.755	34.93
327.221	44.63
327.686	41.83
328.152	46.13
328.617	44.53
329.083	46.63
329.548	46.43
330.014	49.13
330.479	51.73
330.944	49.33
331.41	41.93
331.875	47.83
332.34	47.73
332.805	45.43
333.271	50.83
333.736	46.43
334.201	54.83
334.666	51.53
335.131	51.73
335.596	53.83
336.061	52.53
336.526	44.43
336.991	45.53
337.456	52.33
337.921	50.33
338.386	53.43
338.851	47.43
339.316	51.93
339.781	45.63
340.246	53.13
340.711	47.43
341.175	54.33
341.64	46.53
342.105	52.13
342.569	59.73
343.034	63.53
343.499	56.33
343.963	64.93
344.428	73.73
344.893	65.53
345.357	62.23
345.822	66.93
346.286	66.63
346.751	79.23
347.215	71.33
347.679	82.43
348.144	93.03
348.608	86.03
349.073	75.13
349.537	77.33
350.001	83.33
350.465	87.93
350.93	82.93
351.394	82.53
351.858	76.53
352.322	94.13
352.786	86.23
353.25	105.83
353.715	116.13
354.179	106.03
354.643	128.23
355.107	125.23
355.571	111.83
356.035	110.93
356.498	124.03
356.962	130.83
357.426	134.93
357.89	116.53
358.354	91.83
358.818	87.03
359.281	80.53
359.745	80.03
360.209	70.43
360.673	84.73
361.136	84.03
361.6	91.83
362.064	88.83
362.527	88.03
362.991	95.33
363.454	88.23
363.918	83.03
364.381	74.83
364.845	95.43
365.308	92.03
365.772	94.03
366.235	88.13
366.698	85.83
367.162	93.33
367.625	93.93
368.088	93.93
368.552	90.83
369.015	95.13
369.478	97.33
369.941	109.33
370.404	96.93
370.867	107.23
371.331	113.13
371.794	118.03
372.257	113.83
372.72	129.33
373.183	118.63
373.646	102.53
374.109	112.43
374.572	119.33
375.035	112.93
375.497	116.43
375.96	110.03
376.423	109.63
376.886	111.43
377.349	109.23
377.811	104.63
378.274	108.03
378.737	105.43
379.199	121.13
379.662	123.13
380.125	132.03
380.587	115.73
381.05	129.23
381.512	138.23
381.975	144.43
382.437	136.43
382.9	131.23
383.362	139.63
383.825	144.43
384.287	154.93
384.75	153.73
385.212	149.83
385.674	143.93
386.136	142.83
386.599	133.93
387.061	126.53
387.523	134.53
387.985	145.63
388.447	150.63
388.91	155.23
389.372	173.23
389.834	156.03
390.296	148.93
390.758	163.93
391.22	169.23
391.682	217.63
392.144	303.73
392.606	245.03
393.068	172.63
393.529	177.43
393.991	163.03
394.453	153.63
394.915	162.03
395.377	193.83
395.838	228.23
396.3	169.73
396.762	149.43
397.224	145.23
397.685	137.93
398.147	145.23
398.608	137.43
399.07	134.23
399.531	136.43
399.993	148.33
400.454	160.43
400.916	150.43
401.377	151.93
401.839	162.63
402.3	156.53
402.762	177.23
403.223	196.33
403.684	184.33
404.145	167.43
404.607	166.13
405.068	173.33
405.529	174.93
405.99	199.63
406.451	188.63
406.913	181.23
407.374	169.53
407.835	170.33
408.296	175.53
408.757	184.53
409.218	201.73
409.679	193.13
410.14	185.63
410.601	182.03
411.062	189.43
411.522	202.83
411.983	197.83
412.444	186.13
412.905	194.33
413.366	191.83
413.826	207.33
414.287	230.13
414.748	273.13
415.208	262.03
415.669	227.03
416.13	218.93
416.59	211.63
417.051	221.43
417.511	231.33
417.972	249.93
418.432	261.93
418.893	306.03
419.353	268.13
419.814	209.23
420.274	195.53
420.734	196.03
421.195	218.43
421.655	214.53
422.115	208.93
422.576	200.23
423.036	208.43
423.496	216.83
423.956	227.93
424.416	241.53
424.876	277.93
425.336	270.23
425.797	277.73
426.257	270.83
426.717	256.03
427.177	250.43
427.637	232.13
428.097	246.83
428.556	256.93
429.016	281.43
429.476	273.23
429.936	288.93
430.396	288.33
430.856	304.83
431.315	335.83
431.775	367.23
432.235	390.23
432.694	369.33
433.154	377.03
433.614	413.73
434.073	354.83
434.533	302.33
434.993	285.83
435.452	294.13
435.912	308.33
436.371	302.73
436.83	301.33
437.29	283.23
437.749	267.03
438.209	261.23
438.668	288.23
439.127	302.93
439.587	281.03
440.046	263.03
440.505	275.63
440.964	292.73
441.424	340.93
441.883	330.33
442.342	275.83
442.801	240.43
443.26	235.03
443.719	228.13
444.178	232.13
444.637	231.13
445.096	232.63
445.555	232.63
446.014	235.73
446.473	232.23
446.932	241.83
447.391	236.63
447.849	242.03
448.308	228.73
448.767	245.13
449.226	254.63
449.685	247.73
450.143	258.53
450.602	248.23
451.061	238.43
451.519	243.43
451.978	244.13
452.436	244.03
452.895	250.33
453.353	269.63
453.812	250.33
454.27	248.83
454.729	251.63
455.187	254.43
455.646	260.33
456.104	256.43
456.562	272.53
457.021	282.53
457.479	280.43
457.937	287.43
458.395	273.83
458.854	266.63
459.312	273.33
459.77	288.73
460.228	270.03
460.686	257.93
461.144	257.73
461.602	246.03
462.06	255.13
462.518	269.63
462.976	268.43
463.434	268.13
463.892	275.13
464.35	291.03
464.808	305.63
465.266	284.93
465.724	281.93
466.181	286.23
466.639	285.73
467.097	306.83
467.555	309.03
468.012	320.83
468.47	322.23
468.928	348.23
469.385	365.43
469.843	370.93
470.3	375.83
470.758	382.53
471.215	411.83
471.673	434.43
472.13	433.33
472.588	443.63
473.045	399.13
473.503	397.33
473.96	418.73
474.417	421.73
474.875	448.43
475.332	492.33
475.789	484.73
476.246	487.03
476.704	520.73
477.161	540.73
477.618	543.43
478.075	591.03
478.532	635.63
478.989	725.93
479.446	846.33
479.903	806.83
480.36	845.93
480.817	908.73
481.274	1016.23
481.731	1121.53
482.188	1211.93
482.645	1352.23
483.102	1457.53
483.558	1607.63
484.015	1664.73
484.472	1650.03
484.929	1592.53
485.385	1535.13
485.842	1477.93
486.299	1420.23
486.755	1349.33
487.212	1146.23
487.668	972.03
488.125	892.43
488.582	818.13
489.038	780.33
489.494	746.03
489.951	718.23
490.407	699.43
490.864	679.33
491.32	685.53
491.776	679.43
492.233	681.33
492.689	651.83
493.145	633.63
493.602	629.23
494.058	635.03
494.514	636.73
494.97	679.13
495.426	673.53
495.882	648.73
496.338	642.73
496.794	655.63
497.251	644.03
497.707	665.93
498.163	655.63
498.618	674.53
499.074	672.23
499.53	707.63
499.986	709.13
500.442	690.83
500.898	661.63
501.354	656.03
501.809	671.53
502.265	676.13
502.721	685.33
503.177	700.93
503.632	692.23
504.088	700.93
504.543	746.33
504.999	749.43
505.455	687.63
505.91	665.03
506.366	651.23
506.821	661.53
507.277	655.23
507.732	649.33
508.187	644.63
508.643	655.23
509.098	662.33
509.553	682.83
510.009	698.53
510.464	700.83
510.919	723.83
511.375	725.93
511.83	741.33
512.285	757.03
512.74	798.23
513.195	814.33
513.65	799.13
514.105	815.93
514.56	816.63
515.015	824.83
515.47	838.23
515.925	830.53
516.38	824.63
516.835	838.03
517.29	814.43
517.745	811.53
518.2	807.53
518.655	782.53
519.109	784.83
519.564	774.93
520.019	760.13
520.474	752.43
520.928	753.83
521.383	751.53
521.838	745.23
522.292	746.03
522.747	739.73
523.201	740.03
523.656	734.53
524.11	736.03
524.565	729.33
525.019	723.03
525.474	739.73
525.928	736.63
526.382	732.33
526.837	723.63
527.291	730.53
527.745	718.73
528.2	725.63
528.654	711.63
529.108	717.13
529.562	711.33
530.016	720.63
530.47	719.63
530.925	717.83
531.379	730.23
531.833	732.03
532.287	728.63
532.741	724.53
533.195	729.93
533.649	739.63
534.103	752.23
534.556	738.63
535.01	740.73
535.464	740.03
535.918	749.93
536.372	747.83
536.826	741.93
537.279	740.33
537.733	741.03
538.187	744.63
538.64	741.53
539.094	762.43
539.548	762.53
540.001	758.93
540.455	755.93
540.908	758.93
541.362	764.93
541.815	777.03
542.269	797.23
542.722	799.73
543.175	786.33
543.629	807.03
544.082	809.93
544.536	814.53
544.989	808.73
545.442	819.33
545.895	826.33
546.349	825.93
546.802	819.83
547.255	825.83
547.708	837.53
548.161	856.43
548.614	862.23
549.067	867.43
549.52	854.73
549.973	834.03
550.426	827.43
550.879	824.83
551.332	841.53
551.785	837.83
552.238	844.03
552.691	846.43
553.144	872.73
553.596	884.63
554.049	907.93
554.502	933.53
554.955	941.43
555.407	935.93
555.86	927.83
556.313	937.23
556.765	905.23
557.218	921.43
557.67	909.43
558.123	919.33
558.576	906.83
559.028	909.83
559.48	913.43
559.933	906.23
560.385	883.13
560.838	841.83
561.29	811.13
561.742	807.23
562.195	798.73
562.647	789.43
563.099	804.23
563.551	807.43
564.004	817.53
564.456	798.73
564.908	791.13
565.36	777.23
565.812	767.63
566.264	756.63
566.716	746.63
567.168	752.73
567.62	754.53
568.072	729.63
568.524	724.03
568.976	722.53
569.428	705.23
569.88	694.83
570.332	713.03
570.784	709.93
571.235	714.13
571.687	718.93
572.139	727.13
572.59	735.23
573.042	737.63
573.494	733.93
573.945	729.03
574.397	706.33
574.849	723.53
575.3	724.83
575.752	714.73
576.203	710.83
576.655	718.13
577.106	705.13
577.557	686.13
578.009	698.53
578.46	688.93
578.912	689.63
579.363	694.23
579.814	698.73
580.265	686.03
580.717	700.13
581.168	701.23
581.619	710.53
582.07	704.73
582.521	701.13
582.972	706.53
583.423	700.03
583.875	710.73
584.326	731.93
584.777	762.03
585.227	855.83
585.678	937.03
586.129	1030.03
586.58	1111.53
587.031	1183.13
587.482	1331.33
587.933	1515.63
588.384	1324.33
588.834	1004.23
589.285	834.43
589.736	810.53
590.186	809.13
590.637	791.23
591.088	765.13
591.538	769.03
591.989	750.83
592.439	754.53
592.89	747.53
593.34	742.93
593.791	738.83
594.241	727.43
594.692	733.53
595.142	725.33
595.593	722.33
596.043	727.33
596.493	745.93
596.943	746.73
597.394	747.03
597.844	736.73
598.294	756.03
598.744	771.53
599.195	795.53
599.645	847.63
600.095	894.63
600.545	956.33
600.995	999.03
601.445	1060.93
601.895	1123.13
602.345	1176.93
602.795	1146.43
603.245	1100.63
603.695	1040.43
604.145	995.23
604.594	942.03
605.044	886.13
605.494	830.03
605.944	788.53
606.393	772.43
606.843	750.43
607.293	758.33
607.743	750.53
608.192	781.63
608.642	789.53
609.091	789.83
609.541	794.63
609.99	793.03
610.44	789.13
610.889	749.03
611.339	725.93
611.788	701.93
612.238	719.93
612.687	744.53
613.136	738.93
613.586	760.63
614.035	755.13
614.484	782.53
614.933	786.23
615.383	772.43
615.832	765.23
616.281	747.53
616.73	701.53
617.179	690.63
617.628	667.33
618.077	652.53
618.526	648.13
618.975	639.63
619.424	634.83
619.873	635.93
620.322	633.13
620.771	630.13
621.22	623.63
621.669	622.73
622.118	611.13
622.567	591.13
623.015	582.53
623.464	582.73
623.913	586.83
624.361	572.03
624.81	578.63
625.259	577.63
625.707	577.03
626.156	573.33
626.604	583.53
627.053	586.03
627.501	589.23
627.95	586.03
628.398	593.03
628.847	582.23
629.295	582.13
629.744	589.73
630.192	581.03
630.64	585.33
631.089	586.73
631.537	601.23
631.985	607.83
632.433	624.43
632.881	630.23
633.33	678.53
633.778	660.33
634.226	580.53
634.674	594.73
635.122	598.73
635.57	609.73
636.018	643.63
636.466	594.73
636.914	571.23
637.362	586.23
637.81	594.13
638.258	606.73
638.705	601.33
639.153	623.43
639.601	640.93
640.049	667.43
640.497	690.53
640.944	715.83
641.392	664.13
641.84	638.73
642.287	606.33
642.735	592.33
643.182	589.83
643.63	593.53
644.078	593.53
644.525	607.63
644.973	621.83
645.42	631.23
645.867	648.63
646.315	655.03
646.762	684.03
647.21	717.03
647.657	738.53
648.104	781.23
648.551	790.93
648.999	862.23
649.446	946.03
649.893	1039.03
650.34	1185.83
650.787	1434.93
651.234	1781.93
651.682	2333.33
652.129	3184.13
652.576	4572.43
653.023	6741.73
653.47	9257.53
653.917	11569.23
654.363	13282.43
654.81	14691.93
655.257	13987.53
655.704	9180.43
656.151	5429.43
656.598	3528.73
657.044	2494.43
657.491	1914.83
657.938	1525.43
658.385	1287.83
658.831	1117.23
659.278	985.43
659.724	885.53
660.171	817.83
660.618	736.63
661.064	706.13
661.511	679.93
661.957	672.73
662.404	671.63
662.85	663.73
663.296	644.03
663.743	573.13
664.189	557.33
664.635	552.13
665.082	541.53
665.528	545.83
665.974	532.23
666.42	524.73
666.867	519.93
667.313	505.73
667.759	492.53
668.205	489.03
668.651	501.83
669.097	494.03
669.543	519.83
669.989	483.53
670.435	459.43
670.881	466.93
671.327	463.43
671.773	483.63
672.219	503.13
672.665	561.03
673.11	593.33
673.556	641.63
674.002	686.33
674.448	673.53
674.893	563.83
675.339	488.93
675.785	447.13
676.23	431.43
676.676	402.83
677.122	394.63
677.567	378.83
678.013	382.93
678.458	365.93
678.904	368.33
679.349	365.13
679.794	355.13
680.24	366.73
680.685	356.63
681.131	358.43
681.576	352.43
682.021	370.33
682.466	358.63
682.912	365.83
683.357	361.53
683.802	391.13
684.247	424.03
684.692	462.63
685.137	509.03
685.583	547.33
686.028	574.43
686.473	526.23
686.918	457.93
687.363	426.13
687.807	397.33
688.252	371.73
688.697	363.13
689.142	353.53
689.587	344.33
690.032	331.73
690.477	349.83
690.921	356.13
691.366	389.23
691.811	416.03
692.255	430.63
692.7	469.53
693.145	512.23
693.589	714.93
694.034	1154.33
694.478	1564.23
694.923	1772.73
695.367	2323.63
695.812	1222.73
696.256	508.13
696.701	381.63
697.145	359.13
697.59	345.73
698.034	339.53
698.478	334.73
698.922	337.23
699.367	340.33
699.811	348.33
700.255	362.83
700.699	395.83
701.143	434.93
701.588	498.03
702.032	534.33
702.476	527.63
702.92	497.33
703.364	489.83
703.808	648.93
704.252	1051.03
704.696	1481.03
705.14	1703.03
705.584	2164.83
706.027	1080.63
706.471	532.03
706.915	408.93
707.359	362.33
707.803	332.63
708.246	324.33
708.69	326.23
709.134	315.13
709.577	319.13
710.021	318.53
710.465	313.03
710.908	312.83
711.352	312.43
711.795	325.63
712.239	355.73
712.682	393.93
713.126	428.53
713.569	482.83
714.012	377.63
714.456	327.33
714.899	312.43
715.342	282.93
715.786	268.93
716.229	261.63
716.672	261.33
717.115	254.03
717.558	258.43
718.002	263.13
718.445	266.93
718.888	289.63
719.331	297.53
719.774	312.43
720.217	312.73
720.66	288.13
721.103	275.73
721.546	258.43
721.989	257.63
722.432	238.43
722.874	245.43
723.317	240.03
723.76	240.73
724.203	264.43
724.645	324.43
725.088	458.53
725.531	582.33
725.974	657.13
726.416	562.63
726.859	313.83
727.301	256.43
727.744	238.33
728.187	241.23
728.629	240.53
729.071	246.23
729.514	271.63
729.956	282.63
730.399	291.43
730.841	296.13
731.283	279.23
731.726	276.93
732.168	272.73
732.61	273.43
733.053	291.73
733.495	323.03
733.937	364.63
734.379	409.33
734.821	451.63
735.263	563.03
735.705	848.13
736.148	1591.23
736.59	2616.13
737.032	3127.13
737.474	2521.93
737.916	819.13
738.357	434.53
738.799	333.43
739.241	309.73
739.683	287.23
740.125	293.63
740.567	303.23
741.008	321.53
741.45	317.13
741.892	329.83
742.334	361.13
742.775	368.93
743.217	350.63
743.658	284.63
744.1	263.33
744.542	263.13
744.983	319.13
745.425	351.03
745.866	351.13
746.307	291.63
746.749	287.83
747.19	332.03
747.632	462.73
748.073	888.33
748.514	1906.73
748.956	2891.53
749.397	3630.93
749.838	3015.13
750.279	3028.83
750.72	1537.13
751.162	556.33
751.603	327.43
752.044	258.63
752.485	221.73
752.926	215.13
753.367	202.23
753.808	207.23
754.249	197.43
754.69	184.73
755.131	183.03
755.572	189.23
756.013	184.23
756.453	193.23
756.894	191.03
757.335	188.53
757.776	204.33
758.216	199.93
758.657	203.63
759.098	203.23
759.538	225.53
759.979	275.43
760.42	381.43
760.86	709.43
761.301	1827.23
761.741	4496.93
762.182	6556.83
762.622	4590.03
763.063	1330.73
763.503	556.43
763.943	358.63
764.384	345.63
764.824	406.23
765.264	442.63
765.705	310.23
766.145	213.73
766.585	191.83
767.025	182.13
767.465	190.33
767.906	244.23
768.346	321.13
768.786	341.73
769.226	271.83
769.666	321.53
770.106	637.23
770.546	1575.93
770.986	2689.63
771.426	2404.53
771.866	804.53
772.306	334.53
772.745	215.43
773.185	178.83
773.625	174.73
774.065	171.73
774.505	205.03
774.944	313.53
775.384	673.23
775.824	1215.63
776.263	1187.13
776.703	503.63
777.142	222.03
777.582	164.63
778.021	145.73
778.461	147.63
778.9	145.93
779.34	138.43
779.779	126.93
780.219	115.33
780.658	111.53
781.097	115.33
781.537	117.83
781.976	110.23
782.415	105.33
782.855	107.43
783.294	105.23
783.733	105.23
784.172	123.33
784.611	110.63
785.05	107.43
785.489	115.53
785.928	114.93
786.367	124.03
786.806	117.53
787.245	131.23
787.684	137.93
788.123	153.83
788.562	139.53
789.001	133.93
789.44	122.33
789.879	125.63
790.317	119.43
790.756	131.23
791.195	135.63
791.634	150.23
792.072	206.33
792.511	364.63
792.95	1020.43
793.388	2184.63
793.827	1968.13
794.265	683.53
794.704	288.23
795.142	188.53
795.581	151.83
796.019	139.63
796.458	127.63
796.896	125.83
797.334	131.83
797.773	157.33
798.211	224.53
798.649	444.83
799.087	1034.03
799.526	1623.53
799.964	2054.13
800.402	2046.03
800.84	777.23
801.278	310.73
801.716	187.23
802.154	156.33
802.592	150.53
803.03	143.23
803.468	136.53
803.906	148.63
804.344	146.23
804.782	142.43
805.22	137.53
805.658	130.73
806.096	148.83
806.533	157.53
806.971	186.23
807.409	222.63
807.847	323.13
808.284	677.43
808.722	1886.83
809.16	3329.63
809.597	3169.43
810.035	5505.43
810.472	5863.13
810.91	2108.93
811.347	811.03
811.785	404.63
812.222	253.03
812.66	196.93
813.097	166.23
813.535	143.53
813.972	133.23
814.409	130.23
814.846	116.23
815.284	110.93
815.721	108.13
816.158	109.73
816.595	122.93
817.032	175.73
817.47	204.23
817.907	176.13
818.344	148.63
818.781	114.73
819.218	106.83
819.655	124.53
820.092	184.23
820.529	217.43
820.966	178.73
821.403	138.73
821.839	113.23
822.276	113.63
822.713	127.33
823.15	135.43
823.587	120.33
824.023	148.93
824.46	304.63
824.897	905.13
825.333	1370.93
825.77	589.73
826.206	231.93
826.643	138.83
827.08	102.33
827.516	83.73
827.953	83.63
828.389	91.73
828.825	77.83
829.262	73.43
829.698	66.33
830.135	63.13
830.571	65.23
831.007	68.03
831.443	67.33
831.88	63.53
832.316	65.83
832.752	67.03
833.188	65.73
833.624	71.83
834.06	64.53
834.497	70.83
834.933	74.33
835.369	84.23
835.805	72.53
836.241	76.93
836.677	83.23
837.112	86.13
837.548	101.63
837.984	134.73
838.42	204.93
838.856	508.13
839.292	1539.33
839.727	2343.13
840.163	1084.33
840.599	939.13
841.034	2054.03
841.47	2159.23
841.906	788.13
842.341	342.73
842.777	235.93
843.212	321.53
843.648	318.23
844.083	148.63
844.519	100.63
844.954	77.13
845.39	66.73
845.825	63.23
846.261	60.83
846.696	57.63
847.131	54.23
847.566	62.03
848.002	51.53
848.437	58.83
848.872	67.63
849.307	62.43
849.742	87.53
850.177	177.63
850.613	558.63
851.048	902.33
851.483	388.53
851.918	153.73
852.353	86.53
852.788	60.93
853.223	57.33
853.657	59.03
854.092	43.13
854.527	46.23
854.962	45.73
855.397	44.33
855.832	53.03
856.266	48.13
856.701	38.93
857.136	39.83
857.57	42.73
858.005	57.43
858.44	63.43
858.874	52.43
859.309	55.63
859.743	41.33
860.178	49.33
860.612	42.33
861.047	55.03
861.481	76.73
861.915	68.03
862.35	51.93
862.784	35.83
863.218	40.83
863.653	35.33
864.087	47.63
864.521	61.63
864.955	71.93
865.39	159.93
865.824	176.03
866.258	117.53
866.692	161.83
867.126	181.23
867.56	105.33
867.994	52.23
868.428	35.13
868.862	51.53
869.296	58.93
869.73	58.63
870.164	52.93
870.598	50.73
871.031	35.33
871.465	29.93
871.899	28.73
872.333	24.63
872.766	24.93
873.2	25.23
873.634	28.93
874.067	33.73
874.501	23.83
874.935	34.03
875.368	34.63
875.802	31.63
876.235	25.23
876.669	26.13
877.102	27.93
877.535	27.43
877.969	25.93
878.402	25.73
878.836	18.73
879.269	22.93
879.702	26.03
880.135	25.63
880.569	25.53
881.002	26.93
881.435	23.83
881.868	20.63
882.301	28.53
882.734	22.33
883.167	25.23
883.601	19.73
884.034	23.63
884.467	18.13
884.899	21.63
885.332	13.43
885.765	18.63
886.198	19.23
886.631	14.33
887.064	18.13
887.497	19.43
887.929	28.13
888.362	13.83
888.795	11.93
889.228	14.43
889.66	19.33
890.093	17.43
890.526	18.53
890.958	12.23
891.391	20.13
891.823	22.23
892.256	20.03
892.688	12.83
893.121	20.63
893.553	12.73
893.985	26.23
894.418	16.73
894.85	17.83
895.282	15.33
895.715	16.73
896.147	28.23
896.579	18.93
897.011	15.63
897.444	18.93
897.876	16.43
898.308	12.93
898.74	15.43
899.172	12.93
899.604	25.23
900.036	21.13
900.468	13.73
900.9	18.93
901.332	19.63
901.764	12.73
902.196	15.53
902.628	17.03
903.06	15.43
903.491	28.13
903.923	22.43
904.355	28.93
904.787	30.63
905.218	27.53
905.65	21.13
906.082	11.13
906.513	17.53
906.945	15.83
907.376	16.53
907.808	14.83
908.239	26.73
908.671	20.73
909.102	23.33
909.534	24.43
909.965	48.33
910.397	98.93
910.828	317.53
911.259	473.33
911.691	219.93
912.122	109.33
912.553	54.53
912.984	38.73
913.415	25.03
913.847	25.33
914.278	21.43
914.709	18.33
915.14	20.43
915.571	16.53
916.002	13.03
916.433	15.83
916.864	17.43
917.295	16.83
917.726	27.43
918.157	18.33
918.587	30.53
919.018	25.23
919.449	24.63
919.88	29.33
920.311	36.23
920.741	50.53
921.172	175.33
921.603	155.83
922.033	73.93
922.464	45.53
922.895	22.43
923.325	23.23
923.756	17.53
924.186	15.63
924.617	25.53
925.047	43.53
925.478	55.13
925.908	49.93
926.338	29.83
926.769	22.43
927.199	21.43
927.629	11.23
928.06	20.43
928.49	14.93
928.92	9.63
929.35	9.83
929.78	11.33
930.21	12.13
930.641	8.63
931.071	15.33
931.501	4.83
931.931	7.03
932.361	10.33
932.791	6.63
933.221	8.63
933.651	4.13
934.08	14.93
934.51	33.53
934.94	12.93
935.37	7.13
935.8	11.53
936.229	9.33
936.659	11.83
937.089	6.33
937.519	12.13
937.948	26.43
938.378	15.73
938.807	2.23
939.237	9.43
939.666	10.93
940.096	-5.07
940.525	4.03
940.955	-2.77
941.384	5.63
941.814	-1.27
942.243	-2.47
942.672	3.73
943.102	-0.37
943.531	1.23
943.96	5.53
944.39	0.93
944.819	3.93
945.248	5.73
945.677	-1.07
946.106	2.03
946.535	3.03
946.964	8.03
947.393	7.33
947.822	0.03
948.251	-6.07
948.68	2.73
949.109	6.53
949.538	6.43
949.967	-2.27
950.396	-0.47
950.825	1.73
951.254	2.13
951.682	-2.27
952.111	12.73
952.54	8.03
952.969	-3.77
953.397	-0.97
953.826	-0.17
954.254	-2.17
954.683	4.23
955.112	-4.07
955.54	1.53
955.969	-0.87
956.397	0.53
956.826	1.13
957.254	5.73
957.682	2.73
958.111	14.73
958.539	1.43
958.967	2.33
959.396	4.73
959.824	6.83
960.252	5.53
960.68	4.83
961.109	1.33
961.537	-3.47
961.965	-2.77
962.393	1.73
962.821	-10.17
963.249	4.23
963.677	4.03
964.105	3.43
964.533	43.13
964.961	46.93
965.389	17.53
965.817	9.83
966.245	-0.17
966.672	3.83
967.1	-8.37
967.528	2.63
967.956	-2.37
968.383	5.33
968.811	-3.77
969.239	0.83
969.666	-4.97
970.094	1.33
970.522	-3.57
970.949	3.13
971.377	-7.27
971.804	-1.87
972.232	-3.67
972.659	1.33
973.087	-5.17
973.514	-0.87
973.941	-7.07
974.369	1.93
974.796	3.53
975.223	1.63
975.651	-0.77
976.078	1.43
976.505	-0.87
976.932	5.13
977.359	14.03
977.786	12.53
978.214	-2.37
978.641	-4.87
979.068	-1.37
979.495	-4.87
979.922	-4.57
980.349	-7.37
980.776	5.53
981.202	-6.77
981.629	5.13
982.056	4.93
982.483	3.83
982.91	-0.57
983.337	-10.07
983.763	-0.37
984.19	-7.07
984.617	0.93
985.043	-7.37
985.47	-0.87
985.897	-1.47
986.323	-3.77
986.75	3.33
987.176	-3.07
987.603	-0.77
988.029	5.53
988.456	-6.37
988.882	2.33
989.308	-7.67
989.735	-6.57
990.161	1.83
990.587	-1.07
991.014	-0.67
991.44	3.53
991.866	-4.77
992.292	-4.67
992.719	-4.67
993.145	7.93
993.571	-2.27
993.997	-3.77
994.423	-7.37
994.849	-7.27
995.275	3.23
995.701	4.23
996.127	-2.97
996.553	2.03
996.979	-1.57
997.405	4.93
997.83	-2.37
998.256	-8.67
998.682	-5.67
999.108	-9.37
999.534	-5.87
999.959	-4.07
1000.385	-3.07
1000.811	0.63
1001.236	-8.57
1001.662	-9.27
1002.087	-11.17
1002.513	4.43
1002.938	3.03
1003.364	-4.87
1003.789	-1.37
1004.215	7.23
1004.64	0.83
1005.066	2.13
1005.491	-0.77
1005.916	-3.57
1006.342	-0.37
1006.767	-6.67
1007.192	9.33
1007.617	-4.27
1008.042	-6.57
1008.468	-8.27
1008.893	-12.27
1009.318	-1.37
1009.743	0.53
1010.168	3.43
1010.593	0.43
1011.018	-6.97
1011.443	-5.17
1011.868	-5.07
1012.293	-9.87
1012.718	-6.77
1013.143	1.13
1013.567	-1.37
1013.992	-6.07
1014.417	-10.27
1014.842	8.43
1015.267	-7.67
1015.691	-6.57
1016.116	5.23
1016.541	1.73
1016.965	-4.47
1017.39	2.13
1017.814	4.43
1018.239	-3.77
1018.663	-3.37
1019.088	-12.27
1019.512	-5.37
1019.937	0.23
1020.361	-7.97
1020.785	-11.57
1021.21	-5.87
1021.634	-4.37
1022.058	-1.77
1022.483	2.83
1022.907	-6.37
1023.331	-4.57
1023.755	-8.17
1024.179	-5.37
1024.604	2.83
1025.028	-2.17
1025.452	-3.07
1025.876	-2.97
1026.3	1.83
1026.724	-10.17
1027.148	-8.57
1027.572	-6.27
1027.996	-1.97
1028.42	-4.67
1028.843	-12.37
1029.267	-8.17
1029.691	-5.87
1030.115	-2.27
1030.539	-9.77
1030.962	-10.07
1031.386	-8.47
1031.81	2.33
1032.233	-2.07
1032.657	-2.67
1033.08	0.73
1033.504	-4.37
1033.927	-1.37
1034.351	0.03
1034.774	-1.17
1035.198	-3.77
1035.621	-6.67
1036.045	-8.27
1036.468	10.23
1036.891	-11.17
1037.315	-7.67
1037.738	-7.97
1038.161	-0.67
1038.584	-5.77
1039.008	-3.97
1039.431	-2.07
1039.854	-5.87
1040.277	-12.97
1040.7	-8.17
1041.123	-2.77
1041.546	-5.67
1041.969	-6.77
1042.392	-5.37
1042.815	-5.27
1043.238	-2.67
1043.661	-3.97
1044.084	-3.77
1044.507	-4.37
1044.93	-6.87
1045.352	-6.57
1045.775	-4.37
1046.198	-0.87
1046.621	1.33
1047.043	-1.37
1047.466	3.53
1047.889	2.13
1048.311	-5.87
1048.734	-7.07
1049.156	-2.67
1049.579	-0.07
1050.001	-5.37
1050.424	-0.17
1050.846	-3.67
1051.269	-5.67
1051.691	-3.67
1052.113	-8.87
1052.536	2.23
1052.958	-1.87
1053.38	-4.37
1053.802	-6.87
1054.225	1.53
1054.647	-9.57
1055.069	-0.57
1055.491	-1.97
1055.913	-12.57
1056.335	-5.67
1056.757	-5.17
1057.179	-8.77
1057.601	-4.17
1058.023	-4.77
1058.445	-4.27
1058.867	-1.17
1059.289	-1.87
1059.711	-6.67
1060.133	-4.97
1060.555	-4.07
1060.976	-9.27
1061.398	-2.57
1061.82	-8.47
1062.241	-2.97
1062.663	-5.97
1063.085	-7.37
1063.506	0.13
1063.928	-6.57
1064.35	3.03
1064.771	-10.17
1065.193	-5.37
1065.614	-9.87
1066.035	0.43
1066.457	-0.07
1066.878	-2.07
1067.3	-4.97
1067.721	-8.67
1068.142	-4.67
1068.564	-5.37
1068.985	-3.67
1069.406	-1.87
1069.827	-3.07
1070.248	-2.57
1070.67	-4.87
1071.091	-6.07
1071.512	-3.17
1071.933	-8.47
1072.354	-10.77
1072.775	-3.37
1073.196	-4.67
1073.617	-4.47
1074.038	-7.27
1074.459	-1.67
1074.88	-11.57
1075.3	-0.87
1075.721	-9.47
1076.142	0.53
1076.563	-2.87
1076.983	-7.07
1077.404	-3.87
1077.825	-6.87
1078.246	-4.07
1078.666	-15.77
1079.087	-6.47
1079.507	-10.37
1079.928	-2.37
1080.348	-4.17
1080.769	-1.57
1081.189	0.23
1081.61	-4.07
1082.03	-7.17
1082.451	-8.17
1082.871	-5.47
1083.291	-9.67
1083.711	-17.57
1084.132	-2.97
1084.552	-1.87
1084.972	-6.77
1085.392	-10.37
1085.813	-11.57
1086.233	-5.87
1086.653	-8.17
1087.073	-8.87
1087.493	-6.87
1087.913	-10.57
1088.333	-11.47
1088.753	2.63
1089.173	3.73
1089.593	-5.67
1090.013	-1.87
1090.433	5.03
1090.852	1.03
1091.272	-0.27
1091.692	-1.57
1092.112	-6.87
1092.531	-10.17
1092.951	-12.57
1093.371	-3.37
1093.79	-2.97
1094.21	-3.57
1094.63	-5.97
1095.049	-2.47
1095.469	0.43
1095.888	3.33
1096.308	0.53
1096.727	1.93
1097.146	-2.87
1097.566	-4.67
1097.985	-3.67
1098.405	0.33
1098.824	-11.77
1099.243	-4.97
1099.662	-8.87
1100.082	-1.77
1100.501	1.73
1100.92	-8.17
1101.339	-4.87
1101.758	1.63
