Data from 20171114-ORNL-Ar_H_NY_Subt18_08-08-11-289.txt Node
Date: Tue Nov 14 08:08:11 EST 2017
User: Ender
Spectrometer: HR+D1039
Trigger mode: 0
Integration Time (sec): 2.730000E-2
Scans to average: 10
Electric dark correction enabled: true
Nonlinearity correction enabled: false
Boxcar width: 0
XAxis mode: Wavelengths
Number of Pixels in Spectrum: 2048
>>>>>Begin Spectral Data<<<<<
187.836	-2.54
188.309	-2.54
188.782	-2.54
189.255	-4.14
189.728	-0.94
190.201	7.96
190.674	-1.34
191.147	6.96
191.619	-7.64
192.092	1.76
192.565	1.16
193.038	3.36
193.511	-2.14
193.984	-1.64
194.456	1.46
194.929	-0.34
195.402	-0.54
195.874	-1.34
196.347	0.76
196.82	-6.94
197.292	3.66
197.765	3.16
198.237	-7.34
198.71	3.76
199.182	0.46
199.655	3.16
200.127	6.56
200.6	-0.34
201.072	1.96
201.544	-5.14
202.017	-0.74
202.489	6.66
202.961	3.16
203.433	-4.94
203.906	-1.34
204.378	-6.34
204.85	-10.34
205.322	-8.14
205.794	-6.34
206.266	-4.04
206.739	-7.34
207.211	-0.04
207.683	-7.34
208.155	-0.64
208.627	-1.84
209.099	-5.04
209.57	-7.94
210.042	-6.64
210.514	-5.14
210.986	0.96
211.458	-13.14
211.93	-4.14
212.402	1.16
212.873	-3.84
213.345	-7.84
213.817	-6.94
214.288	-0.34
214.76	-15.04
215.232	-2.04
215.703	-0.14
216.175	1.36
216.646	-4.14
217.118	1.66
217.589	1.06
218.061	-3.14
218.532	-3.14
219.004	-2.24
219.475	0.86
219.946	0.86
220.418	2.36
220.889	0.56
221.36	5.26
221.832	-3.14
222.303	-3.34
222.774	0.26
223.245	-3.84
223.717	-4.94
224.188	-1.24
224.659	-7.84
225.13	-3.14
225.601	-7.74
226.072	1.56
226.543	1.36
227.014	5.26
227.485	-1.74
227.956	1.26
228.427	-1.54
228.898	4.46
229.369	5.56
229.839	-0.14
230.31	-1.04
230.781	5.56
231.252	-1.84
231.722	-0.84
232.193	2.96
232.664	-0.94
233.135	0.76
233.605	-1.04
234.076	-4.14
234.546	0.26
235.017	3.16
235.487	-0.04
235.958	2.06
236.428	-7.64
236.899	10.76
237.369	3.76
237.84	-1.84
238.31	12.46
238.78	5.26
239.251	-1.04
239.721	2.16
240.191	-3.94
240.662	1.86
241.132	1.06
241.602	-1.94
242.072	0.26
242.542	2.56
243.013	7.06
243.483	4.36
243.953	11.36
244.423	1.36
244.893	2.06
245.363	4.56
245.833	-4.04
246.303	-1.44
246.773	9.66
247.243	10.26
247.712	2.76
248.182	2.76
248.652	5.06
249.122	3.96
249.592	10.26
250.061	16.66
250.531	28.76
251.001	16.56
251.471	17.46
251.94	24.06
252.41	5.96
252.879	3.76
253.349	9.96
253.818	11.16
254.288	6.16
254.757	11.36
255.227	0.96
255.696	2.36
256.166	12.56
256.635	8.66
257.105	6.86
257.574	3.96
258.043	7.26
258.513	11.06
258.982	12.46
259.451	8.96
259.92	14.06
260.389	9.46
260.859	17.26
261.328	8.76
261.797	14.46
262.266	9.76
262.735	11.86
263.204	8.76
263.673	1.86
264.142	4.96
264.611	-5.04
265.08	6.56
265.549	3.56
266.018	5.96
266.487	0.36
266.955	2.26
267.424	0.66
267.893	5.76
268.362	0.66
268.83	3.86
269.299	12.66
269.768	7.76
270.236	7.66
270.705	5.26
271.174	8.16
271.642	9.66
272.111	7.46
272.579	12.96
273.048	21.66
273.516	24.86
273.985	28.06
274.453	23.66
274.922	17.26
275.39	13.06
275.858	5.46
276.327	12.16
276.795	21.26
277.263	15.16
277.731	29.06
278.2	52.06
278.668	53.86
279.136	52.76
279.604	19.86
280.072	11.86
280.54	14.76
281.008	6.96
281.477	16.16
281.945	10.36
282.413	12.26
282.881	16.56
283.348	11.66
283.816	20.26
284.284	13.06
284.752	20.06
285.22	15.86
285.688	21.06
286.156	18.96
286.623	41.76
287.091	56.36
287.559	31.46
288.026	15.76
288.494	19.36
288.962	4.06
289.429	7.86
289.897	22.46
290.364	13.96
290.832	18.16
291.3	9.96
291.767	15.06
292.234	19.86
292.702	13.86
293.169	21.06
293.637	26.26
294.104	20.46
294.571	11.06
295.039	15.76
295.506	14.96
295.973	14.86
296.44	10.76
296.908	16.26
297.375	16.16
297.842	16.96
298.309	17.56
298.776	14.26
299.243	21.46
299.71	8.56
300.177	22.86
300.644	22.26
301.111	23.56
301.578	27.26
302.045	14.06
302.512	24.86
302.979	21.06
303.446	18.66
303.913	15.86
304.379	19.36
304.846	27.16
305.313	22.56
305.78	20.76
306.246	26.86
306.713	26.36
307.18	24.16
307.646	28.16
308.113	29.26
308.579	27.46
309.046	26.16
309.512	25.46
309.979	18.26
310.445	27.26
310.912	19.86
311.378	27.36
311.845	28.26
312.311	34.36
312.777	31.76
313.244	29.06
313.71	39.76
314.176	24.16
314.642	32.16
315.109	31.66
315.575	41.86
316.041	44.46
316.507	34.66
316.973	43.46
317.439	30.76
317.905	39.16
318.371	32.96
318.837	33.66
319.303	35.36
319.769	37.16
320.235	34.86
320.701	31.76
321.167	41.16
321.633	28.66
322.099	39.46
322.564	46.66
323.03	38.46
323.496	49.46
323.962	37.76
324.427	38.46
324.893	38.86
325.359	35.96
325.824	41.96
326.29	40.66
326.755	40.96
327.221	39.16
327.686	36.36
328.152	42.26
328.617	40.16
329.083	47.46
329.548	53.76
330.014	46.66
330.479	41.06
330.944	39.46
331.41	46.56
331.875	51.36
332.34	40.96
332.805	43.56
333.271	44.06
333.736	45.86
334.201	52.76
334.666	50.86
335.131	58.96
335.596	46.26
336.061	51.86
336.526	37.76
336.991	50.66
337.456	53.36
337.921	52.46
338.386	46.16
338.851	44.76
339.316	48.36
339.781	44.16
340.246	51.06
340.711	47.36
341.175	53.66
341.64	42.66
342.105	49.66
342.569	56.76
343.034	62.06
343.499	62.36
343.963	56.36
344.428	64.96
344.893	61.26
345.357	62.26
345.822	60.96
346.286	68.56
346.751	71.46
347.215	59.36
347.679	74.56
348.144	91.16
348.608	88.36
349.073	70.76
349.537	77.66
350.001	83.26
350.465	92.06
350.93	77.76
351.394	78.76
351.858	70.76
352.322	86.86
352.786	84.36
353.25	107.26
353.715	115.66
354.179	104.16
354.643	125.96
355.107	122.86
355.571	110.36
356.035	100.56
356.498	124.06
356.962	128.16
357.426	135.46
357.89	115.36
358.354	88.66
358.818	86.46
359.281	83.46
359.745	78.96
360.209	82.06
360.673	78.66
361.136	76.96
361.6	88.66
362.064	84.76
362.527	84.46
362.991	88.06
363.454	84.06
363.918	77.06
364.381	78.66
364.845	81.56
365.308	91.96
365.772	87.86
366.235	83.86
366.698	83.36
367.162	83.46
367.625	83.46
368.088	95.36
368.552	94.26
369.015	92.86
369.478	105.36
369.941	98.96
370.404	98.76
370.867	110.46
371.331	112.56
371.794	113.06
372.257	112.36
372.72	121.76
373.183	119.16
373.646	106.76
374.109	103.06
374.572	111.56
375.035	104.16
375.497	109.86
375.96	104.66
376.423	106.86
376.886	115.96
377.349	107.76
377.811	101.86
378.274	106.96
378.737	112.26
379.199	113.56
379.662	115.46
380.125	123.56
380.587	121.26
381.05	126.86
381.512	134.06
381.975	139.06
382.437	131.56
382.9	129.76
383.362	134.66
383.825	141.26
384.287	158.96
384.75	144.86
385.212	138.96
385.674	144.46
386.136	137.56
386.599	132.76
387.061	142.36
387.523	132.86
387.985	143.76
388.447	143.56
388.91	150.56
389.372	166.86
389.834	153.06
390.296	153.26
390.758	159.76
391.22	176.76
391.682	226.26
392.144	313.36
392.606	239.76
393.068	169.76
393.529	182.26
393.991	152.66
394.453	154.96
394.915	163.16
395.377	203.06
395.838	225.66
396.3	165.16
396.762	146.46
397.224	140.16
397.685	136.86
398.147	131.96
398.608	130.36
399.07	134.76
399.531	141.66
399.993	151.26
400.454	151.36
400.916	141.86
401.377	150.06
401.839	152.66
402.3	153.86
402.762	172.06
403.223	185.06
403.684	176.96
404.145	157.46
404.607	165.26
405.068	168.76
405.529	166.06
405.99	186.86
406.451	183.96
406.913	174.96
407.374	168.36
407.835	166.86
408.296	172.66
408.757	177.86
409.218	192.56
409.679	188.16
410.14	177.16
410.601	179.96
411.062	180.76
411.522	193.96
411.983	194.16
412.444	178.66
412.905	182.26
413.366	183.66
413.826	195.66
414.287	217.06
414.748	267.76
415.208	248.16
415.669	219.96
416.13	207.16
416.59	204.86
417.051	220.46
417.511	218.36
417.972	242.86
418.432	255.66
418.893	297.36
419.353	260.26
419.814	204.36
420.274	188.06
420.734	186.06
421.195	203.96
421.655	201.86
422.115	196.36
422.576	202.56
423.036	206.16
423.496	209.46
423.956	218.96
424.416	234.86
424.876	271.76
425.336	267.56
425.797	270.36
426.257	263.86
426.717	251.06
427.177	235.06
427.637	233.86
428.097	247.26
428.556	246.46
429.016	274.76
429.476	269.96
429.936	287.16
430.396	290.26
430.856	301.46
431.315	328.86
431.775	365.66
432.235	399.06
432.694	364.06
433.154	374.26
433.614	402.16
434.073	355.16
434.533	301.26
434.993	281.16
435.452	290.16
435.912	310.06
436.371	294.96
436.83	297.86
437.29	280.56
437.749	260.46
438.209	248.36
438.668	283.86
439.127	294.56
439.587	279.46
440.046	262.06
440.505	264.86
440.964	281.06
441.424	330.86
441.883	321.66
442.342	264.66
442.801	228.56
443.26	225.06
443.719	231.96
444.178	220.96
444.637	214.16
445.096	222.96
445.555	228.36
446.014	230.86
446.473	231.16
446.932	242.56
447.391	230.86
447.849	230.96
448.308	221.86
448.767	222.36
449.226	236.26
449.685	239.36
450.143	255.76
450.602	237.16
451.061	229.56
451.519	233.26
451.978	244.26
452.436	239.76
452.895	246.26
453.353	251.16
453.812	247.16
454.27	242.56
454.729	242.96
455.187	243.56
455.646	246.76
456.104	256.76
456.562	271.76
457.021	273.66
457.479	264.96
457.937	279.46
458.395	271.66
458.854	252.36
459.312	250.06
459.77	278.76
460.228	255.26
460.686	245.66
461.144	256.06
461.602	247.66
462.06	241.76
462.518	260.26
462.976	254.46
463.434	261.96
463.892	265.66
464.35	282.36
464.808	290.16
465.266	264.46
465.724	264.16
466.181	281.66
466.639	273.86
467.097	282.56
467.555	299.66
468.012	302.96
468.47	314.26
468.928	327.76
469.385	341.86
469.843	356.16
470.3	352.56
470.758	374.26
471.215	393.36
471.673	423.26
472.13	417.16
472.588	423.86
473.045	377.86
473.503	388.26
473.96	401.86
474.417	399.86
474.875	436.56
475.332	489.96
475.789	474.56
476.246	474.36
476.704	492.86
477.161	519.16
477.618	533.46
478.075	571.36
478.532	622.46
478.989	697.46
479.446	819.76
479.903	780.16
480.36	815.66
480.817	866.66
481.274	975.26
481.731	1077.96
482.188	1177.46
482.645	1307.26
483.102	1418.36
483.558	1553.36
484.015	1613.36
484.472	1583.16
484.929	1527.96
485.385	1486.46
485.842	1446.06
486.299	1375.46
486.755	1307.76
487.212	1091.76
487.668	931.56
488.125	860.96
488.582	786.86
489.038	749.46
489.494	710.26
489.951	687.06
490.407	679.16
490.864	654.36
491.32	647.76
491.776	642.16
492.233	648.86
492.689	620.46
493.145	605.16
493.602	603.66
494.058	620.36
494.514	616.46
494.97	643.76
495.426	654.96
495.882	626.26
496.338	611.76
496.794	619.86
497.251	616.36
497.707	632.26
498.163	633.76
498.618	642.06
499.074	639.76
499.53	669.96
499.986	676.16
500.442	648.56
500.898	634.26
501.354	626.36
501.809	639.06
502.265	653.06
502.721	664.16
503.177	674.46
503.632	677.56
504.088	686.96
504.543	721.46
504.999	711.76
505.455	660.26
505.91	639.66
506.366	630.86
506.821	624.46
507.277	619.16
507.732	626.06
508.187	621.26
508.643	625.86
509.098	633.46
509.553	649.46
510.009	665.46
510.464	670.36
510.919	676.16
511.375	701.36
511.83	705.86
512.285	723.36
512.74	752.66
513.195	775.76
513.65	764.16
514.105	765.36
514.56	768.06
515.015	786.76
515.47	797.86
515.925	784.46
516.38	774.96
516.835	782.76
517.29	772.06
517.745	782.26
518.2	760.86
518.655	750.36
519.109	732.56
519.564	736.06
520.019	737.76
520.474	719.06
520.928	738.06
521.383	717.16
521.838	717.96
522.292	705.26
522.747	703.66
523.201	713.06
523.656	697.56
524.11	695.06
524.565	695.26
525.019	685.56
525.474	698.36
525.928	699.86
526.382	695.06
526.837	680.76
527.291	702.96
527.745	700.06
528.2	699.66
528.654	688.06
529.108	683.96
529.562	686.66
530.016	680.86
530.47	676.76
530.925	695.36
531.379	693.16
531.833	706.96
532.287	697.56
532.741	702.66
533.195	695.96
533.649	701.36
534.103	718.86
534.556	706.86
535.01	714.86
535.464	702.86
535.918	720.46
536.372	717.06
536.826	718.26
537.279	707.56
537.733	708.06
538.187	708.56
538.64	707.06
539.094	734.26
539.548	727.26
540.001	726.96
540.455	716.06
540.908	719.76
541.362	727.56
541.815	741.06
542.269	759.96
542.722	753.16
543.175	773.46
543.629	767.16
544.082	784.06
544.536	784.56
544.989	777.16
545.442	787.66
545.895	796.46
546.349	787.86
546.802	793.66
547.255	795.96
547.708	798.06
548.161	818.76
548.614	818.16
549.067	824.36
549.52	824.16
549.973	807.26
550.426	795.96
550.879	777.96
551.332	789.06
551.785	791.26
552.238	804.86
552.691	816.66
553.144	832.26
553.596	841.96
554.049	851.76
554.502	896.46
554.955	909.16
555.407	892.76
555.86	894.36
556.313	883.76
556.765	881.36
557.218	884.16
557.67	876.36
558.123	867.16
558.576	862.26
559.028	863.86
559.48	885.46
559.933	873.36
560.385	853.26
560.838	804.66
561.29	776.76
561.742	778.56
562.195	764.76
562.647	770.56
563.099	770.16
563.551	772.16
564.004	790.76
564.456	774.46
564.908	761.36
565.36	735.56
565.812	735.36
566.264	727.16
566.716	726.66
567.168	719.16
567.62	732.36
568.072	706.76
568.524	696.26
568.976	694.16
569.428	669.66
569.88	671.96
570.332	676.56
570.784	689.76
571.235	687.76
571.687	691.06
572.139	696.06
572.59	704.26
573.042	705.66
573.494	711.56
573.945	700.36
574.397	695.76
574.849	685.36
575.3	685.66
575.752	684.06
576.203	675.56
576.655	678.86
577.106	670.26
577.557	660.56
578.009	663.96
578.46	661.86
578.912	658.16
579.363	651.36
579.814	665.96
580.265	654.76
580.717	664.66
581.168	663.56
581.619	672.56
582.07	677.66
582.521	676.16
582.972	670.16
583.423	685.36
583.875	689.36
584.326	700.16
584.777	754.26
585.227	834.26
585.678	926.96
586.129	1016.66
586.58	1087.66
587.031	1161.16
587.482	1318.86
587.933	1507.96
588.384	1307.26
588.834	976.06
589.285	806.06
589.736	787.66
590.186	772.36
590.637	780.06
591.088	749.36
591.538	738.26
591.989	734.16
592.439	730.06
592.89	715.96
593.34	715.26
593.791	713.06
594.241	709.76
594.692	712.46
595.142	707.36
595.593	711.16
596.043	705.06
596.493	722.96
596.943	714.26
597.394	724.76
597.844	718.56
598.294	734.76
598.744	753.16
599.195	776.06
599.645	823.76
600.095	860.26
600.545	920.56
600.995	980.46
601.445	1033.96
601.895	1082.36
602.345	1138.46
602.795	1121.16
603.245	1070.66
603.695	1023.26
604.145	945.06
604.594	908.16
605.044	852.56
605.494	799.26
605.944	754.96
606.393	740.66
606.843	726.56
607.293	735.36
607.743	725.86
608.192	739.56
608.642	758.96
609.091	769.76
609.541	772.46
609.99	766.26
610.44	773.56
610.889	729.16
611.339	714.06
611.788	692.66
612.238	698.56
612.687	715.66
613.136	720.16
613.586	739.06
614.035	734.76
614.484	762.66
614.933	760.96
615.383	763.66
615.832	745.06
616.281	731.56
616.73	690.26
617.179	666.56
617.628	661.76
618.077	634.76
618.526	625.16
618.975	616.66
619.424	613.36
619.873	615.76
620.322	620.76
620.771	612.16
621.22	608.66
621.669	596.36
622.118	591.56
622.567	586.76
623.015	567.86
623.464	565.56
623.913	561.36
624.361	557.56
624.81	550.66
625.259	555.36
625.707	558.46
626.156	552.86
626.604	565.56
627.053	565.76
627.501	567.46
627.95	579.16
628.398	583.96
628.847	567.56
629.295	571.56
629.744	578.26
630.192	573.56
630.64	571.16
631.089	557.86
631.537	581.46
631.985	588.76
632.433	611.76
632.881	618.86
633.33	670.66
633.778	651.06
634.226	571.06
634.674	576.06
635.122	591.06
635.57	607.36
636.018	631.46
636.466	590.16
636.914	564.56
637.362	565.76
637.81	580.06
638.258	575.96
638.705	587.36
639.153	610.06
639.601	619.56
640.049	653.46
640.497	680.96
640.944	685.66
641.392	644.46
641.84	624.76
642.287	590.06
642.735	577.26
643.182	575.76
643.63	575.66
644.078	568.66
644.525	601.36
644.973	599.06
645.42	605.46
645.867	626.16
646.315	645.66
646.762	667.66
647.21	698.36
647.657	721.46
648.104	755.06
648.551	776.86
648.999	852.76
649.446	929.56
649.893	1020.06
650.34	1183.76
650.787	1413.36
651.234	1753.46
651.682	2297.56
652.129	3162.66
652.576	4578.36
653.023	6734.86
653.47	9179.76
653.917	11380.76
654.363	13096.96
654.81	14363.36
655.257	13706.16
655.704	8919.66
656.151	5292.26
656.598	3420.16
657.044	2442.66
657.491	1868.86
657.938	1482.66
658.385	1243.06
658.831	1084.16
659.278	964.56
659.724	856.56
660.171	793.56
660.618	723.16
661.064	690.96
661.511	680.36
661.957	660.96
662.404	651.56
662.85	659.66
663.296	623.46
663.743	565.76
664.189	544.56
664.635	539.46
665.082	520.06
665.528	530.66
665.974	524.96
666.42	520.96
666.867	517.06
667.313	499.76
667.759	481.96
668.205	486.16
668.651	488.16
669.097	484.96
669.543	508.46
669.989	478.26
670.435	455.56
670.881	447.96
671.327	456.16
671.773	472.66
672.219	483.86
672.665	554.36
673.11	589.36
673.556	616.06
674.002	666.36
674.448	658.96
674.893	548.36
675.339	482.56
675.785	441.66
676.23	418.86
676.676	397.46
677.122	385.56
677.567	373.56
678.013	371.76
678.458	361.76
678.904	361.36
679.349	353.06
679.794	352.96
680.24	356.46
680.685	356.66
681.131	340.76
681.576	346.26
682.021	351.76
682.466	353.26
682.912	356.76
683.357	357.56
683.802	385.76
684.247	415.16
684.692	466.56
685.137	498.86
685.583	531.96
686.028	559.16
686.473	515.16
686.918	446.16
687.363	418.96
687.807	392.56
688.252	359.96
688.697	363.36
689.142	342.96
689.587	335.06
690.032	328.86
690.477	351.76
690.921	355.56
691.366	384.96
691.811	403.36
692.255	434.86
692.7	460.46
693.145	510.96
693.589	718.86
694.034	1157.46
694.478	1537.56
694.923	1733.26
695.367	2246.96
695.812	1181.16
696.256	504.56
696.701	378.66
697.145	346.26
697.59	331.16
698.034	327.36
698.478	329.96
698.922	331.56
699.367	333.06
699.811	347.26
700.255	359.46
700.699	387.56
701.143	432.96
701.588	474.46
702.032	518.36
702.476	510.16
702.92	495.76
703.364	493.76
703.808	655.86
704.252	1064.86
704.696	1473.26
705.14	1666.06
705.584	2110.86
706.027	1062.26
706.471	513.66
706.915	405.46
707.359	352.36
707.803	321.16
708.246	308.56
708.69	313.06
709.134	325.06
709.577	318.96
710.021	322.26
710.465	310.66
710.908	300.96
711.352	298.06
711.795	311.76
712.239	349.96
712.682	395.86
713.126	417.16
713.569	471.46
714.012	380.96
714.456	319.46
714.899	298.16
715.342	275.46
715.786	265.76
716.229	261.86
716.672	256.36
717.115	247.86
717.558	250.56
718.002	250.36
718.445	268.86
718.888	288.06
719.331	302.26
719.774	316.66
720.217	307.16
720.66	290.46
721.103	278.36
721.546	256.46
721.989	249.16
722.432	236.46
722.874	244.66
723.317	229.16
723.76	238.16
724.203	259.36
724.645	321.16
725.088	454.86
725.531	573.26
725.974	640.56
726.416	546.96
726.859	316.56
727.301	249.86
727.744	240.66
728.187	234.36
728.629	245.46
729.071	254.36
729.514	261.86
729.956	273.66
730.399	283.16
730.841	281.46
731.283	277.96
731.726	270.86
732.168	255.46
732.61	267.86
733.053	289.06
733.495	314.06
733.937	357.36
734.379	402.16
734.821	447.16
735.263	551.66
735.705	852.66
736.148	1618.96
736.59	2614.66
737.032	2999.86
737.474	2458.86
737.916	806.56
738.357	425.96
738.799	328.96
739.241	305.96
739.683	279.56
740.125	294.66
740.567	299.26
741.008	315.36
741.45	315.56
741.892	314.96
742.334	345.86
742.775	362.76
743.217	334.46
743.658	274.66
744.1	248.56
744.542	268.36
744.983	316.46
745.425	345.86
745.866	340.56
746.307	290.26
746.749	281.86
747.19	329.46
747.632	461.16
748.073	913.66
748.514	1906.46
748.956	2844.26
749.397	3574.26
749.838	2980.16
750.279	2923.36
750.72	1495.76
751.162	551.26
751.603	325.66
752.044	256.86
752.485	219.46
752.926	213.46
753.367	208.16
753.808	192.26
754.249	192.66
754.69	194.26
755.131	188.96
755.572	186.46
756.013	181.86
756.453	194.76
756.894	190.46
757.335	194.36
757.776	202.16
758.216	197.76
758.657	204.26
759.098	197.46
759.538	229.86
759.979	271.66
760.42	391.36
760.86	733.26
761.301	1897.86
761.741	4491.16
762.182	6328.66
762.622	4436.46
763.063	1286.96
763.503	541.66
763.943	344.36
764.384	353.46
764.824	414.06
765.264	440.36
765.705	311.26
766.145	215.36
766.585	190.46
767.025	184.16
767.465	190.16
767.906	247.56
768.346	322.56
768.786	349.46
769.226	267.96
769.666	331.96
770.106	647.26
770.546	1611.16
770.986	2623.16
771.426	2316.06
771.866	802.16
772.306	331.36
772.745	211.86
773.185	179.66
773.625	175.36
774.065	171.46
774.505	203.16
774.944	320.76
775.384	712.26
775.824	1238.46
776.263	1182.96
776.703	510.56
777.142	230.36
777.582	150.46
778.021	139.16
778.461	141.46
778.9	146.66
779.34	134.96
779.779	121.26
780.219	110.16
780.658	115.36
781.097	109.26
781.537	118.86
781.976	107.76
782.415	105.46
782.855	115.06
783.294	108.36
783.733	107.46
784.172	112.86
784.611	104.36
785.05	113.56
785.489	117.36
785.928	117.46
786.367	124.26
786.806	121.66
787.245	131.36
787.684	141.66
788.123	152.66
788.562	138.76
789.001	130.06
789.44	127.76
789.879	112.46
790.317	117.26
790.756	131.36
791.195	131.76
791.634	143.26
792.072	216.66
792.511	381.06
792.95	1045.76
793.388	2135.76
793.827	1898.06
794.265	677.96
794.704	275.06
795.142	186.66
795.581	155.06
796.019	135.56
796.458	131.66
796.896	125.96
797.334	137.46
797.773	159.46
798.211	226.26
798.649	454.86
799.087	1036.16
799.526	1606.76
799.964	2020.36
800.402	1975.16
800.84	747.86
801.278	306.26
801.716	184.86
802.154	148.36
802.592	147.86
803.03	136.16
803.468	136.66
803.906	148.56
804.344	157.76
804.782	140.16
805.22	136.16
805.658	134.36
806.096	145.06
806.533	160.26
806.971	174.26
807.409	213.26
807.847	323.66
808.284	698.56
808.722	1911.56
809.16	3271.36
809.597	3175.16
810.035	5455.56
810.472	5621.76
810.91	2069.36
811.347	792.06
811.785	405.16
812.222	257.46
812.66	196.66
813.097	160.46
813.535	137.06
813.972	132.86
814.409	124.86
814.846	110.86
815.284	105.96
815.721	103.56
816.158	106.26
816.595	129.16
817.032	182.56
817.47	201.46
817.907	159.46
818.344	152.06
818.781	124.86
819.218	104.06
819.655	122.66
820.092	188.06
820.529	207.86
820.966	174.16
821.403	141.26
821.839	111.36
822.276	107.96
822.713	121.16
823.15	135.36
823.587	123.46
824.023	152.66
824.46	315.56
824.897	917.66
825.333	1326.26
825.77	569.96
826.206	230.16
826.643	138.16
827.08	105.96
827.516	81.96
827.953	70.26
828.389	90.26
828.825	78.16
829.262	68.76
829.698	65.56
830.135	65.86
830.571	62.26
831.007	61.26
831.443	62.76
831.88	61.46
832.316	67.96
832.752	69.26
833.188	66.26
833.624	65.36
834.06	69.46
834.497	71.16
834.933	75.96
835.369	83.16
835.805	68.76
836.241	80.06
836.677	85.56
837.112	90.86
837.548	107.26
837.984	140.56
838.42	201.26
838.856	517.06
839.292	1540.56
839.727	2250.86
840.163	1063.86
840.599	943.56
841.034	2033.16
841.47	2072.36
841.906	770.06
842.341	339.16
842.777	233.26
843.212	326.46
843.648	302.26
844.083	158.86
844.519	98.36
844.954	82.56
845.39	62.96
845.825	57.66
846.261	64.16
846.696	60.46
847.131	52.96
847.566	63.06
848.002	57.56
848.437	53.46
848.872	65.56
849.307	63.16
849.742	92.76
850.177	189.86
850.613	567.26
851.048	863.16
851.483	374.16
851.918	155.26
852.353	87.06
852.788	65.36
853.223	55.86
853.657	58.36
854.092	47.26
854.527	37.56
854.962	44.46
855.397	44.36
855.832	53.96
856.266	46.46
856.701	43.76
857.136	35.66
857.57	47.46
858.005	50.06
858.44	57.26
858.874	46.36
859.309	53.46
859.743	48.46
860.178	48.16
860.612	42.66
861.047	49.66
861.481	69.06
861.915	70.36
862.35	45.36
862.784	31.86
863.218	40.26
863.653	33.76
864.087	43.56
864.521	56.76
864.955	72.06
865.39	155.86
865.824	176.16
866.258	113.66
866.692	171.26
867.126	168.76
867.56	101.06
867.994	53.16
868.428	45.26
868.862	48.76
869.296	54.06
869.73	56.96
870.164	52.16
870.598	47.96
871.031	39.26
871.465	33.16
871.899	34.56
872.333	30.16
872.766	29.76
873.2	27.16
873.634	29.26
874.067	23.26
874.501	24.66
874.935	33.56
875.368	33.06
875.802	29.16
876.235	28.76
876.669	26.76
877.102	30.26
877.535	27.56
877.969	26.86
878.402	21.56
878.836	20.56
879.269	24.46
879.702	24.86
880.135	23.16
880.569	25.56
881.002	33.26
881.435	23.06
881.868	23.76
882.301	26.76
882.734	17.16
883.167	23.46
883.601	17.66
884.034	21.26
884.467	17.96
884.899	25.66
885.332	19.76
885.765	18.66
886.198	14.36
886.631	24.66
887.064	23.86
887.497	20.46
887.929	28.06
888.362	17.36
888.795	14.06
889.228	21.46
889.66	15.46
890.093	18.96
890.526	17.46
890.958	23.26
891.391	16.86
891.823	23.36
892.256	15.46
892.688	17.96
893.121	14.16
893.553	16.56
893.985	26.16
894.418	22.36
894.85	18.06
895.282	15.66
895.715	17.46
896.147	19.56
896.579	11.96
897.011	17.26
897.444	23.96
897.876	17.06
898.308	17.46
898.74	18.96
899.172	12.36
899.604	23.06
900.036	21.86
900.468	17.26
900.9	17.06
901.332	19.96
901.764	14.16
902.196	23.26
902.628	13.16
903.06	16.16
903.491	25.66
903.923	26.86
904.355	20.36
904.787	28.86
905.218	22.66
905.65	25.76
906.082	12.06
906.513	13.96
906.945	16.36
907.376	14.76
907.808	21.36
908.239	25.16
908.671	19.66
909.102	24.26
909.534	25.76
909.965	45.56
910.397	95.16
910.828	323.36
911.259	478.06
911.691	219.16
912.122	106.26
912.553	53.16
912.984	35.06
913.415	28.66
913.847	28.26
914.278	13.16
914.709	18.16
915.14	14.36
915.571	17.26
916.002	17.66
916.433	17.86
916.864	16.76
917.295	16.46
917.726	21.56
918.157	13.26
918.587	31.86
919.018	28.46
919.449	21.96
919.88	33.06
920.311	33.96
920.741	50.76
921.172	165.46
921.603	147.76
922.033	69.36
922.464	53.46
922.895	30.86
923.325	18.66
923.756	18.56
924.186	15.96
924.617	31.56
925.047	44.26
925.478	49.36
925.908	43.46
926.338	26.56
926.769	14.66
927.199	20.36
927.629	10.96
928.06	18.06
928.49	12.96
928.92	16.26
929.35	10.26
929.78	10.96
930.21	7.66
930.641	7.16
931.071	6.66
931.501	11.56
931.931	12.76
932.361	11.36
932.791	8.06
933.221	6.76
933.651	1.76
934.08	21.06
934.51	32.56
934.94	6.66
935.37	15.56
935.8	11.06
936.229	14.46
936.659	5.86
937.089	3.76
937.519	19.76
937.948	22.16
938.378	20.26
938.807	4.86
939.237	1.86
939.666	4.96
940.096	-0.04
940.525	3.96
940.955	2.36
941.384	4.46
941.814	-4.94
942.243	-3.14
942.672	5.96
943.102	2.46
943.531	-5.34
943.96	3.86
944.39	1.56
944.819	-1.34
945.248	3.96
945.677	2.66
946.106	3.76
946.535	4.06
946.964	3.46
947.393	2.86
947.822	1.26
948.251	-0.74
948.68	9.26
949.109	6.36
949.538	3.96
949.967	2.96
950.396	2.86
950.825	-1.84
951.254	-4.24
951.682	-3.94
952.111	3.56
952.54	8.46
952.969	-3.44
953.397	-4.44
953.826	-1.04
954.254	-5.74
954.683	4.86
955.112	-1.04
955.54	1.26
955.969	-3.14
956.397	3.16
956.826	-0.24
957.254	4.16
957.682	1.86
958.111	5.46
958.539	-2.44
958.967	0.06
959.396	-3.44
959.824	0.46
960.252	2.06
960.68	1.06
961.109	-0.64
961.537	-3.44
961.965	3.16
962.393	3.96
962.821	-0.14
963.249	3.26
963.677	5.16
964.105	1.56
964.533	41.66
964.961	38.96
965.389	21.36
965.817	8.96
966.245	2.36
966.672	-3.94
967.1	-11.94
967.528	2.06
967.956	1.16
968.383	-2.34
968.811	-0.14
969.239	-0.64
969.666	1.16
970.094	3.46
970.522	0.56
970.949	2.96
971.377	-4.74
971.804	0.36
972.232	-4.04
972.659	3.66
973.087	-10.04
973.514	-3.04
973.941	-3.84
974.369	-2.14
974.796	2.16
975.223	2.36
975.651	3.26
976.078	4.06
976.505	-1.04
976.932	1.26
977.359	14.46
977.786	15.16
978.214	8.26
978.641	-5.04
979.068	-0.74
979.495	-2.44
979.922	3.66
980.349	-4.04
980.776	1.26
981.202	1.66
981.629	7.26
982.056	2.96
982.483	-0.84
982.91	6.26
983.337	-3.04
983.763	0.56
984.19	1.16
984.617	1.46
985.043	-3.64
985.47	-3.94
985.897	-2.94
986.323	-3.84
986.75	7.66
987.176	0.36
987.603	2.96
988.029	4.16
988.456	-3.44
988.882	2.06
989.308	0.16
989.735	-0.04
990.161	2.66
990.587	-7.64
991.014	1.66
991.44	4.86
991.866	-0.44
992.292	-1.54
992.719	-2.74
993.145	9.16
993.571	-5.74
993.997	-3.94
994.423	-0.94
994.849	1.16
995.275	-1.74
995.701	-0.64
996.127	-5.34
996.553	2.06
996.979	-0.04
997.405	1.06
997.83	-1.94
998.256	-11.44
998.682	-3.04
999.108	-11.64
999.534	-1.94
999.959	-0.74
1000.385	-7.84
1000.811	-5.44
1001.236	-9.24
1001.662	-8.44
1002.087	-14.94
1002.513	-2.64
1002.938	4.16
1003.364	-1.74
1003.789	-2.24
1004.215	0.96
1004.64	0.96
1005.066	5.36
1005.491	3.26
1005.916	-2.34
1006.342	0.96
1006.767	-19.14
1007.192	6.66
1007.617	-6.84
1008.042	4.86
1008.468	-7.94
1008.893	-2.34
1009.318	-3.04
1009.743	-1.94
1010.168	5.26
1010.593	2.26
1011.018	-3.44
1011.443	-0.74
1011.868	2.26
1012.293	-2.54
1012.718	-10.74
1013.143	3.46
1013.567	-0.14
1013.992	-2.14
1014.417	-13.24
1014.842	3.26
1015.267	-6.94
1015.691	-6.74
1016.116	4.36
1016.541	1.26
1016.965	6.06
1017.39	1.56
1017.814	-3.34
1018.239	3.36
1018.663	-9.74
1019.088	-9.54
1019.512	-5.54
1019.937	-0.24
1020.361	-6.24
1020.785	-6.84
1021.21	-5.54
1021.634	2.56
1022.058	-1.84
1022.483	-0.44
1022.907	-4.84
1023.331	0.56
1023.755	-0.34
1024.179	-1.64
1024.604	-3.54
1025.028	-3.64
1025.452	-4.04
1025.876	-0.14
1026.3	1.36
1026.724	-13.64
1027.148	-9.84
1027.572	-0.84
1027.996	-1.04
1028.42	-0.54
1028.843	-5.04
1029.267	-2.24
1029.691	1.46
1030.115	-1.34
1030.539	-10.94
1030.962	-7.74
1031.386	-10.64
1031.81	-1.14
1032.233	-0.64
1032.657	-2.54
1033.08	-3.24
1033.504	-3.24
1033.927	-5.04
1034.351	2.66
1034.774	-4.74
1035.198	-3.74
1035.621	-5.34
1036.045	-3.74
1036.468	1.36
1036.891	-16.54
1037.315	-13.54
1037.738	-6.94
1038.161	2.26
1038.584	5.36
1039.008	-3.64
1039.431	1.06
1039.854	1.16
1040.277	-8.94
1040.7	-7.64
1041.123	0.96
1041.546	-4.34
1041.969	-7.24
1042.392	-2.84
1042.815	5.36
1043.238	8.96
1043.661	1.16
1044.084	-4.54
1044.507	-4.54
1044.93	-5.34
1045.352	-4.84
1045.775	-2.94
1046.198	-6.14
1046.621	-1.34
1047.043	2.26
1047.466	5.76
1047.889	-4.84
1048.311	-10.04
1048.734	-3.24
1049.156	-3.14
1049.579	-1.94
1050.001	0.86
1050.424	-0.64
1050.846	0.56
1051.269	4.96
1051.691	-9.14
1052.113	-4.94
1052.536	-3.14
1052.958	1.76
1053.38	1.96
1053.802	-8.04
1054.225	-1.14
1054.647	-3.14
1055.069	-3.64
1055.491	6.46
1055.913	-1.44
1056.335	-3.84
1056.757	-5.64
1057.179	-1.14
1057.601	-4.64
1058.023	-6.74
1058.445	-2.14
1058.867	-6.74
1059.289	-0.14
1059.711	-1.84
1060.133	-8.14
1060.555	5.56
1060.976	-7.14
1061.398	-2.44
1061.82	-3.34
1062.241	-5.74
1062.663	-10.94
1063.085	-7.04
1063.506	-0.54
1063.928	-1.84
1064.35	-0.94
1064.771	-9.94
1065.193	-0.44
1065.614	-11.74
1066.035	-2.64
1066.457	-11.74
1066.878	1.56
1067.3	-4.74
1067.721	-0.34
1068.142	-2.64
1068.564	-4.74
1068.985	-1.44
1069.406	-7.64
1069.827	-0.74
1070.248	-1.14
1070.67	-3.44
1071.091	-2.64
1071.512	-2.84
1071.933	-3.74
1072.354	-12.64
1072.775	-2.14
1073.196	-7.94
1073.617	-2.74
1074.038	-11.14
1074.459	-0.44
1074.88	0.56
1075.3	4.46
1075.721	-8.94
1076.142	-2.94
1076.563	-0.74
1076.983	-8.94
1077.404	-6.34
1077.825	-7.34
1078.246	1.46
1078.666	-12.24
1079.087	-8.14
1079.507	-7.54
1079.928	-0.24
1080.348	2.86
1080.769	-0.94
1081.189	1.06
1081.61	-0.24
1082.03	-6.14
1082.451	-4.54
1082.871	-3.34
1083.291	-9.44
1083.711	-12.24
1084.132	-8.04
1084.552	-1.44
1084.972	3.16
1085.392	-16.44
1085.813	-11.04
1086.233	-2.74
1086.653	-8.04
1087.073	-1.44
1087.493	-10.84
1087.913	-4.74
1088.333	-1.84
1088.753	0.76
1089.173	-3.54
1089.593	-3.24
1090.013	0.66
1090.433	-4.94
1090.852	-0.44
1091.272	-0.24
1091.692	3.66
1092.112	-6.14
1092.531	-11.14
1092.951	-13.14
1093.371	-4.14
1093.79	-4.84
1094.21	2.16
1094.63	-0.74
1095.049	-4.04
1095.469	3.76
1095.888	-6.34
1096.308	4.76
1096.727	9.86
1097.146	-7.54
1097.566	-6.84
1097.985	-4.64
1098.405	0.56
1098.824	-1.04
1099.243	-9.34
1099.662	-6.34
1100.082	-0.54
1100.501	-2.34
1100.92	-5.64
1101.339	-3.74
1101.758	-6.64
