Data from 20171114-ORNL-Ar_H_NY_Subt18_08-04-58-841.txt Node
Date: Tue Nov 14 08:04:58 EST 2017
User: Ender
Spectrometer: HR+D1039
Trigger mode: 0
Integration Time (sec): 2.730000E-2
Scans to average: 10
Electric dark correction enabled: true
Nonlinearity correction enabled: false
Boxcar width: 0
XAxis mode: Wavelengths
Number of Pixels in Spectrum: 2048
>>>>>Begin Spectral Data<<<<<
187.836	-0.31
188.309	-0.31
188.782	-0.31
189.255	0.49
189.728	1.79
190.201	4.99
190.674	-0.31
191.147	0.89
191.619	-8.71
192.092	2.19
192.565	1.59
193.038	3.89
193.511	0.79
193.984	1.49
194.456	-7.61
194.929	1.69
195.402	-3.41
195.874	0.59
196.347	5.99
196.82	-9.31
197.292	5.39
197.765	3.29
198.237	-2.31
198.71	1.59
199.182	0.29
199.655	1.69
200.127	-1.31
200.6	0.79
201.072	-8.51
201.544	-4.51
202.017	-1.61
202.489	5.09
202.961	-2.01
203.433	-5.51
203.906	-5.61
204.378	-0.01
204.85	1.19
205.322	-11.61
205.794	-1.01
206.266	-5.51
206.739	-6.11
207.211	-0.01
207.683	-6.31
208.155	-7.41
208.627	-7.11
209.099	-1.71
209.57	-4.11
210.042	-3.61
210.514	-8.61
210.986	4.39
211.458	-2.81
211.93	-4.01
212.402	-1.21
212.873	-5.71
213.345	-7.61
213.817	-16.81
214.288	-8.01
214.76	-10.71
215.232	-7.61
215.703	-3.41
216.175	0.49
216.646	-2.41
217.118	-9.51
217.589	-3.31
218.061	-1.31
218.532	-2.21
219.004	-2.91
219.475	-4.81
219.946	-3.81
220.418	-0.61
220.889	2.19
221.36	1.19
221.832	-3.61
222.303	-4.41
222.774	6.99
223.245	-6.71
223.717	-8.41
224.188	-5.91
224.659	-9.21
225.13	-6.81
225.601	-7.81
226.072	7.29
226.543	0.49
227.014	4.29
227.485	-3.61
227.956	-7.31
228.427	-4.01
228.898	-2.11
229.369	-1.31
229.839	2.49
230.31	-6.51
230.781	2.59
231.252	0.39
231.722	-4.11
232.193	-2.01
232.664	1.09
233.135	2.59
233.605	0.19
234.076	-0.81
234.546	-2.41
235.017	6.79
235.487	-3.01
235.958	-5.91
236.428	-1.01
236.899	6.69
237.369	-2.61
237.84	-4.11
238.31	7.99
238.78	-0.01
239.251	3.29
239.721	3.79
240.191	-0.71
240.662	-1.41
241.132	2.19
241.602	4.69
242.072	-0.91
242.542	11.59
243.013	-5.51
243.483	3.79
243.953	6.69
244.423	1.59
244.893	-3.91
245.363	-3.81
245.833	2.19
246.303	1.99
246.773	10.19
247.243	1.29
247.712	5.99
248.182	4.99
248.652	8.29
249.122	-1.21
249.592	11.89
250.061	27.39
250.531	30.09
251.001	20.39
251.471	19.29
251.94	18.59
252.41	8.59
252.879	1.29
253.349	18.89
253.818	8.69
254.288	10.79
254.757	10.59
255.227	5.89
255.696	1.39
256.166	3.39
256.635	13.09
257.105	11.19
257.574	9.59
258.043	7.99
258.513	11.99
258.982	13.59
259.451	13.39
259.92	19.09
260.389	14.79
260.859	17.19
261.328	19.79
261.797	20.09
262.266	8.49
262.735	19.59
263.204	7.99
263.673	2.59
264.142	3.79
264.611	0.49
265.08	2.49
265.549	-0.11
266.018	6.09
266.487	2.09
266.955	2.39
267.424	-2.31
267.893	3.29
268.362	4.49
268.83	4.19
269.299	10.09
269.768	3.29
270.236	8.89
270.705	5.79
271.174	2.99
271.642	7.89
272.111	15.09
272.579	15.69
273.048	27.89
273.516	29.79
273.985	28.59
274.453	21.09
274.922	20.59
275.39	16.29
275.858	5.39
276.327	15.09
276.795	15.49
277.263	13.69
277.731	30.39
278.2	61.29
278.668	68.69
279.136	52.89
279.604	17.99
280.072	17.49
280.54	14.99
281.008	8.09
281.477	17.89
281.945	14.69
282.413	19.49
282.881	19.39
283.348	12.79
283.816	11.29
284.284	16.29
284.752	18.69
285.22	11.39
285.688	21.09
286.156	13.79
286.623	42.39
287.091	54.79
287.559	32.69
288.026	16.99
288.494	18.79
288.962	6.99
289.429	12.59
289.897	25.59
290.364	16.29
290.832	17.39
291.3	15.69
291.767	25.79
292.234	23.99
292.702	13.79
293.169	20.69
293.637	21.89
294.104	22.89
294.571	8.19
295.039	16.09
295.506	16.79
295.973	23.19
296.44	15.49
296.908	19.19
297.375	21.39
297.842	23.59
298.309	21.79
298.776	10.79
299.243	23.69
299.71	18.79
300.177	23.09
300.644	24.29
301.111	24.19
301.578	28.99
302.045	23.49
302.512	26.69
302.979	28.19
303.446	22.39
303.913	20.79
304.379	19.49
304.846	31.99
305.313	24.39
305.78	22.09
306.246	25.49
306.713	37.09
307.18	29.59
307.646	32.09
308.113	29.79
308.579	28.69
309.046	30.39
309.512	25.69
309.979	21.89
310.445	31.19
310.912	32.69
311.378	33.79
311.845	33.79
312.311	35.19
312.777	38.09
313.244	26.89
313.71	42.99
314.176	36.79
314.642	32.49
315.109	29.59
315.575	34.29
316.041	42.89
316.507	32.99
316.973	42.79
317.439	37.99
317.905	42.29
318.371	33.59
318.837	36.39
319.303	32.69
319.769	35.09
320.235	39.39
320.701	37.69
321.167	42.79
321.633	41.59
322.099	42.89
322.564	39.69
323.03	41.09
323.496	34.09
323.962	42.19
324.427	41.09
324.893	43.69
325.359	39.79
325.824	45.59
326.29	37.09
326.755	42.19
327.221	43.79
327.686	47.99
328.152	48.19
328.617	44.59
329.083	51.99
329.548	51.39
330.014	51.89
330.479	45.19
330.944	44.59
331.41	44.09
331.875	53.89
332.34	47.79
332.805	45.59
333.271	46.59
333.736	46.29
334.201	48.49
334.666	54.59
335.131	55.99
335.596	52.79
336.061	54.79
336.526	47.89
336.991	54.59
337.456	53.99
337.921	52.89
338.386	51.29
338.851	45.59
339.316	46.29
339.781	49.59
340.246	55.19
340.711	44.79
341.175	52.19
341.64	47.09
342.105	57.39
342.569	59.89
343.034	62.49
343.499	59.89
343.963	51.09
344.428	68.09
344.893	58.99
345.357	67.79
345.822	61.29
346.286	65.39
346.751	71.39
347.215	75.59
347.679	74.59
348.144	97.99
348.608	85.89
349.073	71.89
349.537	79.19
350.001	81.59
350.465	88.99
350.93	82.89
351.394	82.09
351.858	66.79
352.322	94.29
352.786	88.19
353.25	104.79
353.715	118.29
354.179	105.09
354.643	124.59
355.107	128.69
355.571	106.69
356.035	105.09
356.498	116.39
356.962	123.69
357.426	126.29
357.89	117.49
358.354	89.89
358.818	87.09
359.281	83.79
359.745	81.59
360.209	75.49
360.673	78.29
361.136	86.79
361.6	92.29
362.064	84.59
362.527	79.89
362.991	94.89
363.454	74.89
363.918	84.09
364.381	82.69
364.845	88.09
365.308	85.99
365.772	88.99
366.235	88.89
366.698	89.29
367.162	86.79
367.625	82.69
368.088	89.69
368.552	91.09
369.015	100.09
369.478	93.59
369.941	100.59
370.404	99.19
370.867	107.89
371.331	109.79
371.794	109.39
372.257	110.09
372.72	112.59
373.183	110.89
373.646	103.19
374.109	102.39
374.572	114.69
375.035	105.79
375.497	110.79
375.96	104.09
376.423	104.39
376.886	112.19
377.349	109.39
377.811	95.59
378.274	104.39
378.737	107.19
379.199	113.89
379.662	110.99
380.125	113.89
380.587	118.09
381.05	121.69
381.512	130.79
381.975	127.89
382.437	128.79
382.9	128.49
383.362	135.09
383.825	144.09
384.287	147.89
384.75	138.89
385.212	133.49
385.674	141.19
386.136	130.29
386.599	125.19
387.061	134.49
387.523	131.09
387.985	137.39
388.447	138.89
388.91	140.39
389.372	152.09
389.834	143.79
390.296	140.29
390.758	151.39
391.22	161.09
391.682	206.89
392.144	282.49
392.606	214.89
393.068	165.89
393.529	171.29
393.991	156.79
394.453	147.49
394.915	150.69
395.377	184.19
395.838	211.99
396.3	157.89
396.762	137.29
397.224	132.99
397.685	127.59
398.147	129.19
398.608	125.29
399.07	128.79
399.531	131.49
399.993	144.49
400.454	151.99
400.916	150.19
401.377	143.79
401.839	154.09
402.3	153.49
402.762	169.09
403.223	178.89
403.684	172.99
404.145	157.49
404.607	155.89
405.068	158.09
405.529	167.69
405.99	186.19
406.451	175.09
406.913	175.19
407.374	165.89
407.835	160.49
408.296	169.39
408.757	167.79
409.218	183.29
409.679	178.09
410.14	179.69
410.601	168.59
411.062	181.49
411.522	186.29
411.983	182.29
412.444	183.09
412.905	172.09
413.366	186.99
413.826	192.79
414.287	214.49
414.748	266.59
415.208	236.29
415.669	204.79
416.13	204.49
416.59	201.59
417.051	209.99
417.511	211.29
417.972	233.69
418.432	242.19
418.893	282.39
419.353	248.09
419.814	201.39
420.274	187.09
420.734	177.29
421.195	189.19
421.655	195.39
422.115	196.29
422.576	191.99
423.036	196.49
423.496	198.89
423.956	213.69
424.416	232.69
424.876	265.89
425.336	257.99
425.797	260.39
426.257	246.79
426.717	235.39
427.177	236.49
427.637	219.49
428.097	230.39
428.556	234.19
429.016	263.09
429.476	262.39
429.936	266.99
430.396	263.49
430.856	286.39
431.315	305.89
431.775	344.59
432.235	381.39
432.694	346.49
433.154	357.89
433.614	374.39
434.073	331.09
434.533	277.39
434.993	265.29
435.452	275.59
435.912	283.39
436.371	281.49
436.83	277.79
437.29	268.39
437.749	241.09
438.209	241.29
438.668	262.69
439.127	282.69
439.587	261.69
440.046	246.39
440.505	260.79
440.964	280.49
441.424	320.69
441.883	311.39
442.342	263.39
442.801	219.89
443.26	214.19
443.719	218.39
444.178	214.89
444.637	215.19
445.096	222.69
445.555	218.69
446.014	227.59
446.473	223.29
446.932	225.09
447.391	223.29
447.849	217.19
448.308	207.49
448.767	220.99
449.226	229.69
449.685	230.49
450.143	242.99
450.602	241.19
451.061	223.99
451.519	231.49
451.978	226.59
452.436	234.09
452.895	236.29
453.353	249.49
453.812	239.69
454.27	234.69
454.729	242.29
455.187	232.99
455.646	244.59
456.104	242.59
456.562	252.69
457.021	269.09
457.479	246.19
457.937	274.39
458.395	259.69
458.854	246.19
459.312	250.59
459.77	269.79
460.228	252.69
460.686	241.49
461.144	244.39
461.602	240.29
462.06	237.39
462.518	250.69
462.976	255.49
463.434	259.79
463.892	260.69
464.35	268.49
464.808	277.29
465.266	265.49
465.724	265.89
466.181	268.79
466.639	267.39
467.097	280.69
467.555	299.09
468.012	305.69
468.47	304.79
468.928	320.09
469.385	338.69
469.843	342.29
470.3	345.59
470.758	353.79
471.215	373.19
471.673	400.09
472.13	399.59
472.588	413.29
473.045	360.19
473.503	379.99
473.96	389.09
474.417	392.99
474.875	424.59
475.332	471.89
475.789	447.29
476.246	463.49
476.704	481.99
477.161	506.09
477.618	511.39
478.075	548.99
478.532	605.59
478.989	677.99
479.446	781.89
479.903	751.29
480.36	803.69
480.817	852.99
481.274	945.99
481.731	1047.59
482.188	1143.09
482.645	1276.99
483.102	1384.89
483.558	1510.49
484.015	1554.59
484.472	1543.99
484.929	1496.09
485.385	1445.09
485.842	1415.89
486.299	1334.79
486.755	1268.99
487.212	1087.59
487.668	909.79
488.125	843.99
488.582	766.09
489.038	741.69
489.494	703.89
489.951	673.39
490.407	668.39
490.864	639.89
491.32	631.89
491.776	636.09
492.233	641.59
492.689	605.39
493.145	596.89
493.602	589.49
494.058	607.39
494.514	606.69
494.97	624.09
495.426	630.79
495.882	614.29
496.338	616.59
496.794	616.99
497.251	615.39
497.707	631.99
498.163	630.39
498.618	636.29
499.074	646.99
499.53	660.19
499.986	667.29
500.442	636.99
500.898	631.69
501.354	618.49
501.809	634.39
502.265	636.89
502.721	646.09
503.177	658.49
503.632	643.59
504.088	654.39
504.543	693.49
504.999	697.79
505.455	654.29
505.91	625.39
506.366	628.89
506.821	616.89
507.277	615.29
507.732	619.09
508.187	610.09
508.643	632.89
509.098	632.09
509.553	643.49
510.009	651.79
510.464	657.09
510.919	680.59
511.375	683.29
511.83	696.09
512.285	709.79
512.74	740.39
513.195	767.69
513.65	760.79
514.105	758.09
514.56	765.39
515.015	787.69
515.47	799.39
515.925	781.19
516.38	784.09
516.835	789.59
517.29	763.89
517.745	764.49
518.2	757.79
518.655	732.09
519.109	730.99
519.564	730.09
520.019	720.89
520.474	718.19
520.928	719.29
521.383	706.19
521.838	698.79
522.292	696.79
522.747	692.29
523.201	689.99
523.656	672.99
524.11	678.39
524.565	681.59
525.019	684.19
525.474	699.09
525.928	688.09
526.382	682.79
526.837	685.69
527.291	690.99
527.745	679.29
528.2	688.09
528.654	677.59
529.108	672.19
529.562	684.29
530.016	671.39
530.47	682.49
530.925	674.29
531.379	677.19
531.833	690.79
532.287	682.49
532.741	688.59
533.195	694.49
533.649	693.89
534.103	713.29
534.556	700.79
535.01	690.99
535.464	696.79
535.918	704.49
536.372	704.09
536.826	705.09
537.279	696.49
537.733	701.49
538.187	692.59
538.64	699.09
539.094	705.99
539.548	711.59
540.001	701.19
540.455	708.19
540.908	714.29
541.362	718.99
541.815	729.19
542.269	733.09
542.722	741.29
543.175	750.89
543.629	763.69
544.082	762.19
544.536	768.79
544.989	769.59
545.442	775.49
545.895	764.89
546.349	764.69
546.802	768.89
547.255	778.09
547.708	778.19
548.161	798.19
548.614	796.69
549.067	808.79
549.52	799.19
549.973	792.09
550.426	784.59
550.879	780.39
551.332	775.59
551.785	786.39
552.238	786.89
552.691	799.59
553.144	814.89
553.596	831.29
554.049	836.79
554.502	863.29
554.955	882.39
555.407	887.79
555.86	875.59
556.313	868.89
556.765	853.29
557.218	860.99
557.67	868.49
558.123	852.29
558.576	851.49
559.028	858.79
559.48	852.39
559.933	844.09
560.385	814.89
560.838	788.29
561.29	754.59
561.742	753.29
562.195	745.19
562.647	745.09
563.099	744.79
563.551	752.29
564.004	765.29
564.456	745.49
564.908	736.09
565.36	726.29
565.812	708.09
566.264	701.99
566.716	700.59
567.168	686.39
567.62	691.89
568.072	681.09
568.524	664.09
568.976	665.19
569.428	648.79
569.88	649.19
570.332	665.19
570.784	659.69
571.235	654.09
571.687	672.79
572.139	666.29
572.59	684.59
573.042	682.09
573.494	688.69
573.945	683.69
574.397	657.29
574.849	675.79
575.3	665.09
575.752	655.79
576.203	653.89
576.655	653.49
577.106	644.79
577.557	630.89
578.009	644.59
578.46	637.49
578.912	634.39
579.363	645.29
579.814	646.69
580.265	634.09
580.717	642.99
581.168	642.99
581.619	640.69
582.07	652.79
582.521	647.39
582.972	643.69
583.423	644.49
583.875	650.49
584.326	670.19
584.777	707.79
585.227	771.69
585.678	851.59
586.129	937.99
586.58	1014.99
587.031	1091.39
587.482	1216.09
587.933	1410.89
588.384	1214.79
588.834	915.09
589.285	770.89
589.736	742.09
590.186	739.09
590.637	731.59
591.088	711.59
591.538	700.59
591.989	698.79
592.439	691.89
592.89	681.29
593.34	678.09
593.791	678.89
594.241	666.29
594.692	675.19
595.142	666.59
595.593	663.89
596.043	673.19
596.493	677.29
596.943	682.09
597.394	687.19
597.844	680.89
598.294	693.99
598.744	716.59
599.195	734.39
599.645	777.39
600.095	817.09
600.545	879.49
600.995	909.09
601.445	965.19
601.895	1034.79
602.345	1076.89
602.795	1057.39
603.245	1015.19
603.695	962.59
604.145	896.19
604.594	864.49
605.044	817.99
605.494	764.79
605.944	709.39
606.393	695.29
606.843	676.29
607.293	702.19
607.743	689.19
608.192	695.89
608.642	722.09
609.091	722.19
609.541	722.19
609.99	734.59
610.44	715.99
610.889	681.79
611.339	662.39
611.788	641.49
612.238	653.39
612.687	671.99
613.136	679.89
613.586	693.39
614.035	690.29
614.484	710.09
614.933	703.29
615.383	706.99
615.832	692.89
616.281	673.39
616.73	642.79
617.179	631.69
617.628	614.59
618.077	590.19
618.526	579.69
618.975	573.89
619.424	582.39
619.873	572.09
620.322	579.39
620.771	567.89
621.22	558.39
621.669	562.69
622.118	556.29
622.567	548.59
623.015	536.29
623.464	529.49
623.913	525.89
624.361	520.99
624.81	525.29
625.259	518.69
625.707	520.89
626.156	518.49
626.604	531.39
627.053	529.39
627.501	526.49
627.95	531.99
628.398	539.89
628.847	538.89
629.295	545.39
629.744	536.19
630.192	536.79
630.64	534.59
631.089	520.39
631.537	535.99
631.985	537.89
632.433	551.99
632.881	563.69
633.33	604.39
633.778	588.69
634.226	518.29
634.674	518.79
635.122	533.49
635.57	552.19
636.018	577.19
636.466	538.49
636.914	520.49
637.362	528.69
637.81	536.29
638.258	534.39
638.705	536.89
639.153	567.19
639.601	577.69
640.049	592.19
640.497	620.69
640.944	639.29
641.392	592.79
641.84	563.49
642.287	540.79
642.735	530.99
643.182	532.19
643.63	531.69
644.078	532.09
644.525	540.49
644.973	552.29
645.42	554.79
645.867	577.09
646.315	587.49
646.762	613.99
647.21	634.59
647.657	656.99
648.104	686.49
648.551	713.09
648.999	771.39
649.446	838.79
649.893	922.39
650.34	1061.39
650.787	1265.19
651.234	1556.69
651.682	2026.09
652.129	2771.39
652.576	3973.19
653.023	5918.89
653.47	8104.79
653.917	10205.69
654.363	11922.49
654.81	13341.59
655.257	12669.39
655.704	8255.49
656.151	4861.79
656.598	3171.29
657.044	2236.79
657.491	1724.29
657.938	1379.49
658.385	1149.89
658.831	1001.09
659.278	885.49
659.724	791.89
660.171	726.89
660.618	666.69
661.064	627.79
661.511	612.89
661.957	596.69
662.404	588.29
662.85	593.29
663.296	570.69
663.743	518.59
664.189	487.49
664.635	487.59
665.082	486.69
665.528	475.69
665.974	470.59
666.42	469.89
666.867	465.79
667.313	436.99
667.759	438.59
668.205	430.59
668.651	438.69
669.097	441.79
669.543	457.99
669.989	435.69
670.435	415.29
670.881	414.69
671.327	414.89
671.773	432.09
672.219	444.29
672.665	495.49
673.11	526.79
673.556	581.09
674.002	618.39
674.448	597.49
674.893	501.49
675.339	440.69
675.785	407.19
676.23	379.89
676.676	361.29
677.122	349.39
677.567	345.49
678.013	334.69
678.458	331.19
678.904	324.99
679.349	312.59
679.794	323.59
680.24	320.09
680.685	320.19
681.131	319.69
681.576	320.39
682.021	322.19
682.466	318.39
682.912	308.49
683.357	322.19
683.802	340.49
684.247	369.49
684.692	416.49
685.137	452.99
685.583	488.79
686.028	511.69
686.473	472.49
686.918	406.29
687.363	381.59
687.807	357.59
688.252	336.39
688.697	324.09
689.142	305.49
689.587	299.89
690.032	289.79
690.477	308.19
690.921	318.69
691.366	343.19
691.811	358.79
692.255	391.19
692.7	418.49
693.145	450.49
693.589	616.69
694.034	999.79
694.478	1395.39
694.923	1604.49
695.367	2093.89
695.812	1096.89
696.256	454.99
696.701	330.89
697.145	316.29
697.59	302.79
698.034	290.79
698.478	296.69
698.922	291.69
699.367	294.49
699.811	299.49
700.255	318.29
700.699	348.99
701.143	378.39
701.588	432.39
702.032	459.19
702.476	464.29
702.92	441.19
703.364	440.59
703.808	568.59
704.252	916.89
704.696	1303.79
705.14	1534.69
705.584	1984.39
706.027	966.49
706.471	465.99
706.915	357.29
707.359	322.99
707.803	287.19
708.246	282.79
708.69	286.29
709.134	286.29
709.577	283.59
710.021	287.79
710.465	277.39
710.908	271.99
711.352	271.39
711.795	288.79
712.239	312.59
712.682	340.99
713.126	374.49
713.569	425.19
714.012	333.19
714.456	289.09
714.899	263.39
715.342	249.79
715.786	236.29
716.229	228.99
716.672	233.79
717.115	222.99
717.558	230.59
718.002	226.79
718.445	237.59
718.888	258.99
719.331	265.19
719.774	276.89
720.217	276.59
720.66	249.59
721.103	241.39
721.546	228.99
721.989	229.59
722.432	202.19
722.874	210.09
723.317	204.59
723.76	210.29
724.203	224.69
724.645	284.99
725.088	396.19
725.531	510.99
725.974	597.79
726.416	496.49
726.859	280.59
727.301	222.89
727.744	215.29
728.187	212.19
728.629	219.39
729.071	218.49
729.514	233.49
729.956	245.89
730.399	256.89
730.841	259.99
731.283	246.69
731.726	240.19
732.168	236.89
732.61	237.99
733.053	251.49
733.495	280.39
733.937	307.69
734.379	348.79
734.821	394.79
735.263	475.19
735.705	731.89
736.148	1376.59
736.59	2320.29
737.032	2840.09
737.474	2287.29
737.916	728.19
738.357	383.99
738.799	289.09
739.241	269.19
739.683	255.99
740.125	255.59
740.567	265.39
741.008	284.79
741.45	284.29
741.892	272.99
742.334	313.39
742.775	329.09
743.217	308.39
743.658	247.99
744.1	231.69
744.542	241.59
744.983	281.09
745.425	305.89
745.866	315.29
746.307	248.09
746.749	254.09
747.19	292.49
747.632	396.09
748.073	756.19
748.514	1642.99
748.956	2573.79
749.397	3235.99
749.838	2681.59
750.279	2737.59
750.72	1365.29
751.162	493.49
751.603	293.79
752.044	226.49
752.485	193.59
752.926	187.39
753.367	178.89
753.808	166.89
754.249	174.79
754.69	171.99
755.131	166.19
755.572	159.49
756.013	153.79
756.453	163.29
756.894	164.59
757.335	165.39
757.776	178.59
758.216	176.89
758.657	174.69
759.098	180.99
759.538	197.19
759.979	235.29
760.42	321.99
760.86	613.49
761.301	1578.09
761.741	3935.29
762.182	5954.99
762.622	4195.69
763.063	1204.59
763.503	481.69
763.943	302.69
764.384	300.99
764.824	355.49
765.264	383.69
765.705	273.29
766.145	189.19
766.585	170.69
767.025	158.09
767.465	166.49
767.906	206.79
768.346	279.09
768.786	295.19
769.226	225.29
769.666	285.69
770.106	536.49
770.546	1355.19
770.986	2417.69
771.426	2191.99
771.866	728.29
772.306	289.49
772.745	186.39
773.185	155.49
773.625	155.49
774.065	147.89
774.505	171.19
774.944	252.79
775.384	560.09
775.824	1067.89
776.263	1054.89
776.703	456.09
777.142	194.29
777.582	140.69
778.021	122.69
778.461	130.89
778.9	129.19
779.34	115.69
779.779	105.29
780.219	101.09
780.658	102.69
781.097	103.89
781.537	105.69
781.976	97.89
782.415	91.89
782.855	84.69
783.294	94.59
783.733	95.39
784.172	95.79
784.611	89.19
785.05	95.29
785.489	95.69
785.928	106.09
786.367	111.99
786.806	102.09
787.245	114.79
787.684	120.79
788.123	132.99
788.562	120.99
789.001	116.59
789.44	108.89
789.879	104.09
790.317	104.19
790.756	119.49
791.195	112.59
791.634	132.09
792.072	174.29
792.511	322.69
792.95	867.89
793.388	1940.79
793.827	1807.49
794.265	612.29
794.704	247.39
795.142	163.89
795.581	133.09
796.019	121.89
796.458	113.99
796.896	105.49
797.334	117.09
797.773	135.99
798.211	184.79
798.649	373.99
799.087	903.49
799.526	1434.49
799.964	1799.49
800.402	1868.39
800.84	691.89
801.278	265.59
801.716	166.69
802.154	143.19
802.592	131.49
803.03	121.99
803.468	123.59
803.906	128.69
804.344	134.09
804.782	133.49
805.22	119.99
805.658	111.79
806.096	134.79
806.533	139.09
806.971	160.69
807.409	193.69
807.847	276.09
808.284	578.19
808.722	1637.19
809.16	2992.89
809.597	2763.79
810.035	4903.09
810.472	5407.79
810.91	1931.19
811.347	718.79
811.785	359.49
812.222	231.59
812.66	174.39
813.097	152.79
813.535	130.09
813.972	119.59
814.409	108.39
814.846	95.59
815.284	98.89
815.721	91.49
816.158	101.19
816.595	112.29
817.032	158.39
817.47	174.59
817.907	140.29
818.344	133.79
818.781	105.59
819.218	91.19
819.655	115.89
820.092	167.49
820.529	195.29
820.966	157.79
821.403	118.99
821.839	100.29
822.276	92.29
822.713	113.89
823.15	123.99
823.587	105.39
824.023	122.59
824.46	260.59
824.897	787.29
825.333	1253.89
825.77	534.49
826.206	207.49
826.643	126.49
827.08	93.49
827.516	78.59
827.953	70.59
828.389	66.79
828.825	61.99
829.262	58.39
829.698	51.49
830.135	56.79
830.571	56.99
831.007	53.19
831.443	49.09
831.88	56.09
832.316	56.99
832.752	57.89
833.188	57.79
833.624	56.39
834.06	58.29
834.497	60.39
834.933	64.99
835.369	69.09
835.805	62.09
836.241	65.69
836.677	68.49
837.112	80.89
837.548	96.49
837.984	113.29
838.42	172.29
838.856	427.29
839.292	1342.39
839.727	2120.59
840.163	973.49
840.599	807.69
841.034	1812.09
841.47	1977.79
841.906	713.39
842.341	304.69
842.777	200.29
843.212	277.99
843.648	275.49
844.083	137.29
844.519	84.39
844.954	69.49
845.39	54.79
845.825	54.09
846.261	47.69
846.696	46.99
847.131	52.69
847.566	47.39
848.002	47.29
848.437	44.79
848.872	51.49
849.307	51.59
849.742	73.79
850.177	157.19
850.613	490.49
851.048	804.59
851.483	345.79
851.918	134.79
852.353	75.09
852.788	57.19
853.223	50.49
853.657	50.69
854.092	50.49
854.527	37.89
854.962	36.09
855.397	42.39
855.832	42.49
856.266	34.79
856.701	34.29
857.136	32.59
857.57	33.49
858.005	45.59
858.44	44.59
858.874	40.99
859.309	51.59
859.743	34.39
860.178	38.69
860.612	39.59
861.047	48.79
861.481	57.89
861.915	67.39
862.35	41.89
862.784	28.79
863.218	27.69
863.653	26.89
864.087	45.29
864.521	50.09
864.955	57.99
865.39	134.59
865.824	154.39
866.258	104.19
866.692	140.99
867.126	160.49
867.56	100.99
867.994	45.29
868.428	35.49
868.862	39.89
869.296	47.39
869.73	52.69
870.164	49.99
870.598	39.39
871.031	36.39
871.465	23.79
871.899	32.19
872.333	22.49
872.766	24.99
873.2	22.29
873.634	24.19
874.067	19.29
874.501	26.59
874.935	28.89
875.368	23.29
875.802	23.79
876.235	21.29
876.669	19.59
877.102	15.89
877.535	20.49
877.969	12.89
878.402	24.49
878.836	15.19
879.269	22.09
879.702	19.59
880.135	17.09
880.569	18.89
881.002	27.19
881.435	19.09
881.868	11.69
882.301	20.49
882.734	11.09
883.167	19.79
883.601	21.39
884.034	16.59
884.467	13.19
884.899	11.49
885.332	11.99
885.765	11.19
886.198	14.39
886.631	18.89
887.064	15.29
887.497	22.39
887.929	18.49
888.362	12.49
888.795	5.49
889.228	10.09
889.66	10.99
890.093	13.09
890.526	3.69
890.958	14.29
891.391	14.79
891.823	19.49
892.256	11.09
892.688	11.19
893.121	16.49
893.553	16.09
893.985	20.69
894.418	14.19
894.85	11.79
895.282	10.89
895.715	7.59
896.147	16.49
896.579	21.09
897.011	14.59
897.444	12.89
897.876	11.69
898.308	11.39
898.74	9.59
899.172	6.69
899.604	18.99
900.036	15.09
900.468	14.69
900.9	14.29
901.332	19.09
901.764	12.49
902.196	14.59
902.628	16.09
903.06	15.39
903.491	23.49
903.923	20.39
904.355	17.59
904.787	20.39
905.218	17.59
905.65	14.49
906.082	10.09
906.513	11.39
906.945	10.39
907.376	11.19
907.808	15.49
908.239	20.29
908.671	13.99
909.102	19.59
909.534	19.19
909.965	43.19
910.397	84.09
910.828	276.29
911.259	437.19
911.691	193.29
912.122	92.59
912.553	44.09
912.984	27.79
913.415	23.29
913.847	25.99
914.278	18.29
914.709	14.19
915.14	16.39
915.571	13.49
916.002	5.19
916.433	15.69
916.864	13.69
917.295	9.29
917.726	20.29
918.157	14.99
918.587	21.89
919.018	17.89
919.449	21.79
919.88	21.69
920.311	24.59
920.741	40.59
921.172	150.89
921.603	139.49
922.033	68.79
922.464	43.29
922.895	21.49
923.325	16.39
923.756	16.09
924.186	18.59
924.617	22.49
925.047	33.19
925.478	43.69
925.908	34.99
926.338	21.49
926.769	18.59
927.199	13.39
927.629	5.39
928.06	17.59
928.49	9.99
928.92	11.69
929.35	8.49
929.78	7.59
930.21	4.29
930.641	8.29
931.071	9.29
931.501	0.99
931.931	3.59
932.361	6.69
932.791	0.59
933.221	5.99
933.651	0.49
934.08	12.19
934.51	30.59
934.94	3.09
935.37	4.19
935.8	10.09
936.229	7.19
936.659	4.89
937.089	3.89
937.519	9.59
937.948	24.89
938.378	16.99
938.807	2.99
939.237	5.19
939.666	15.69
940.096	-6.31
940.525	-1.41
940.955	1.29
941.384	2.99
941.814	-7.41
942.243	-0.61
942.672	5.29
943.102	-0.61
943.531	-1.51
943.96	5.49
944.39	-3.91
944.819	1.39
945.248	8.79
945.677	4.59
946.106	5.19
946.535	4.69
946.964	7.09
947.393	0.59
947.822	2.79
948.251	-1.51
948.68	4.19
949.109	4.69
949.538	1.79
949.967	2.29
950.396	-1.71
950.825	-1.81
951.254	-4.91
951.682	-5.91
952.111	2.49
952.54	7.29
952.969	-4.01
953.397	-5.31
953.826	5.49
954.254	-6.01
954.683	0.39
955.112	-2.61
955.54	0.79
955.969	-1.41
956.397	-1.51
956.826	-3.71
957.254	-0.41
957.682	-1.41
958.111	-1.71
958.539	-4.51
958.967	-2.01
959.396	-6.21
959.824	1.19
960.252	8.29
960.68	-3.51
961.109	-10.61
961.537	-5.81
961.965	4.89
962.393	-3.61
962.821	-8.11
963.249	-1.51
963.677	7.29
964.105	2.89
964.533	32.99
964.961	42.39
965.389	15.89
965.817	5.09
966.245	1.49
966.672	-0.91
967.1	-7.91
967.528	-0.21
967.956	-5.41
968.383	-1.21
968.811	-0.71
969.239	0.49
969.666	-3.31
970.094	-4.31
970.522	-2.21
970.949	0.29
971.377	-2.51
971.804	-3.01
972.232	-3.91
972.659	-0.11
973.087	-4.31
973.514	-5.11
973.941	-5.41
974.369	6.29
974.796	2.89
975.223	-2.91
975.651	0.39
976.078	2.19
976.505	-3.31
976.932	0.99
977.359	15.19
977.786	18.99
978.214	-1.81
978.641	0.79
979.068	-5.61
979.495	-3.91
979.922	-0.41
980.349	0.09
980.776	-1.11
981.202	-0.11
981.629	2.69
982.056	0.69
982.483	0.29
982.91	-0.71
983.337	-4.81
983.763	1.29
984.19	-8.11
984.617	-2.11
985.043	-4.81
985.47	0.99
985.897	-4.21
986.323	-6.71
986.75	-1.71
987.176	-0.01
987.603	-3.41
988.029	-1.81
988.456	-7.31
988.882	0.59
989.308	-3.11
989.735	-3.31
990.161	2.69
990.587	-9.61
991.014	-2.11
991.44	5.39
991.866	-9.11
992.292	-5.11
992.719	-7.31
993.145	0.19
993.571	-7.91
993.997	-3.31
994.423	-0.61
994.849	-1.31
995.275	-3.11
995.701	1.09
996.127	-7.71
996.553	0.79
996.979	-0.71
997.405	-0.71
997.83	-12.11
998.256	-4.61
998.682	-3.41
999.108	-2.91
999.534	-1.61
999.959	-0.91
1000.385	-8.11
1000.811	-3.01
1001.236	-8.41
1001.662	-12.01
1002.087	-10.71
1002.513	4.09
1002.938	3.29
1003.364	-2.21
1003.789	-4.61
1004.215	7.79
1004.64	0.09
1005.066	-1.91
1005.491	-0.31
1005.916	-0.11
1006.342	-0.41
1006.767	-8.21
1007.192	4.19
1007.617	-6.71
1008.042	-4.51
1008.468	-8.41
1008.893	-1.81
1009.318	-1.51
1009.743	-1.21
1010.168	3.39
1010.593	-5.81
1011.018	-6.91
1011.443	-1.41
1011.868	4.39
1012.293	-3.31
1012.718	-6.11
1013.143	1.29
1013.567	0.39
1013.992	-4.41
1014.417	-16.61
1014.842	3.99
1015.267	-8.31
1015.691	-2.71
1016.116	-0.31
1016.541	4.19
1016.965	-1.11
1017.39	-0.51
1017.814	-1.51
1018.239	-2.31
1018.663	-6.11
1019.088	-16.81
1019.512	-3.11
1019.937	-5.01
1020.361	-11.91
1020.785	-11.61
1021.21	-2.91
1021.634	-1.21
1022.058	3.09
1022.483	1.69
1022.907	-7.21
1023.331	-5.31
1023.755	-5.51
1024.179	-8.31
1024.604	-3.71
1025.028	-3.91
1025.452	-4.81
1025.876	-0.41
1026.3	0.89
1026.724	-11.11
1027.148	-6.81
1027.572	-5.81
1027.996	-2.01
1028.42	-3.71
1028.843	-4.01
1029.267	-4.51
1029.691	-1.41
1030.115	-10.21
1030.539	-9.31
1030.962	-3.61
1031.386	-10.61
1031.81	0.49
1032.233	-2.11
1032.657	0.99
1033.08	-1.01
1033.504	-5.41
1033.927	-5.51
1034.351	-7.41
1034.774	-4.31
1035.198	-6.81
1035.621	-7.81
1036.045	-10.81
1036.468	0.99
1036.891	-13.61
1037.315	-7.61
1037.738	-6.41
1038.161	-4.21
1038.584	-7.21
1039.008	-6.01
1039.431	-8.51
1039.854	-5.71
1040.277	-8.81
1040.7	-4.71
1041.123	-4.71
1041.546	-11.01
1041.969	-7.41
1042.392	-8.31
1042.815	-6.11
1043.238	-4.21
1043.661	3.09
1044.084	-9.41
1044.507	-7.91
1044.93	-3.91
1045.352	-8.71
1045.775	-4.81
1046.198	-0.61
1046.621	-0.91
1047.043	-5.21
1047.466	10.09
1047.889	0.89
1048.311	-5.21
1048.734	-6.01
1049.156	-3.01
1049.579	-0.61
1050.001	-1.61
1050.424	-1.11
1050.846	-2.91
1051.269	-3.61
1051.691	-4.91
1052.113	-8.51
1052.536	2.59
1052.958	-2.91
1053.38	-7.11
1053.802	-9.91
1054.225	-0.31
1054.647	-7.11
1055.069	-5.51
1055.491	0.19
1055.913	-9.21
1056.335	-0.41
1056.757	-9.91
1057.179	-2.61
1057.601	-4.41
1058.023	-2.01
1058.445	-3.21
1058.867	-5.91
1059.289	-4.41
1059.711	-3.21
1060.133	-3.71
1060.555	-6.11
1060.976	-8.21
1061.398	-8.31
1061.82	-6.31
1062.241	-10.01
1062.663	-12.51
1063.085	-7.61
1063.506	-1.61
1063.928	-5.01
1064.35	0.09
1064.771	-14.01
1065.193	-5.81
1065.614	-10.51
1066.035	-3.81
1066.457	-0.41
1066.878	2.19
1067.3	-3.01
1067.721	-6.01
1068.142	-2.91
1068.564	0.39
1068.985	-6.91
1069.406	-14.81
1069.827	-3.81
1070.248	-3.11
1070.67	-7.31
1071.091	-8.21
1071.512	-4.31
1071.933	-11.11
1072.354	-11.21
1072.775	-3.61
1073.196	-10.81
1073.617	-3.11
1074.038	-2.61
1074.459	-0.31
1074.88	-7.41
1075.3	-1.61
1075.721	-6.91
1076.142	0.29
1076.563	-5.71
1076.983	-9.81
1077.404	-2.71
1077.825	-4.81
1078.246	-8.11
1078.666	-11.51
1079.087	-1.21
1079.507	-2.71
1079.928	-1.51
1080.348	4.69
1080.769	-8.51
1081.189	-1.41
1081.61	-5.01
1082.03	-11.21
1082.451	-8.91
1082.871	-7.31
1083.291	-8.51
1083.711	-6.31
1084.132	-11.61
1084.552	-1.51
1084.972	3.59
1085.392	-12.31
1085.813	-8.11
1086.233	-9.01
1086.653	-5.81
1087.073	1.89
1087.493	-5.41
1087.913	-5.41
1088.333	-9.21
1088.753	-10.81
1089.173	-1.11
1089.593	-8.71
1090.013	-3.41
1090.433	1.19
1090.852	-2.01
1091.272	2.79
1091.692	-0.61
1092.112	-6.51
1092.531	-5.41
1092.951	-11.61
1093.371	-2.31
1093.79	-1.21
1094.21	-4.11
1094.63	-7.81
1095.049	-5.21
1095.469	-3.41
1095.888	-5.91
1096.308	-1.31
1096.727	-0.51
1097.146	-4.51
1097.566	-5.21
1097.985	-3.31
1098.405	-8.41
1098.824	-12.51
1099.243	-6.81
1099.662	-11.01
1100.082	-3.71
1100.501	-1.81
1100.92	-2.61
1101.339	-4.81
1101.758	-3.21
