Data from 20171114-ORNL-Ar_H_NY_Subt18_08-09-06-217.txt Node
Date: Tue Nov 14 08:09:06 EST 2017
User: Ender
Spectrometer: HR+D1039
Trigger mode: 0
Integration Time (sec): 2.730000E-2
Scans to average: 10
Electric dark correction enabled: true
Nonlinearity correction enabled: false
Boxcar width: 0
XAxis mode: Wavelengths
Number of Pixels in Spectrum: 2048
>>>>>Begin Spectral Data<<<<<
187.836	-3.81
188.309	-3.81
188.782	-3.81
189.255	-2.41
189.728	3.59
190.201	0.19
190.674	4.39
191.147	4.99
191.619	-9.31
192.092	4.49
192.565	6.59
193.038	-1.01
193.511	1.49
193.984	2.69
194.456	-4.81
194.929	-0.91
195.402	-4.11
195.874	-2.11
196.347	-2.21
196.82	-12.11
197.292	2.09
197.765	0.69
198.237	-10.51
198.71	-0.61
199.182	-1.41
199.655	3.19
200.127	4.79
200.6	-2.61
201.072	-5.61
201.544	-4.01
202.017	-6.21
202.489	-3.91
202.961	-1.91
203.433	-1.31
203.906	-10.61
204.378	-10.11
204.85	-5.21
205.322	-9.61
205.794	-4.21
206.266	-2.61
206.739	-10.81
207.211	1.99
207.683	-7.21
208.155	-7.31
208.627	-7.21
209.099	1.29
209.57	-1.91
210.042	-6.81
210.514	-1.91
210.986	-0.01
211.458	-14.01
211.93	-4.21
212.402	0.59
212.873	-10.01
213.345	-7.31
213.817	-8.31
214.288	-6.01
214.76	-12.81
215.232	-1.81
215.703	-8.91
216.175	-7.91
216.646	-2.31
217.118	-12.31
217.589	-4.11
218.061	-3.31
218.532	-4.71
219.004	-10.81
219.475	-1.01
219.946	-5.91
220.418	-4.41
220.889	-0.71
221.36	0.09
221.832	-3.51
222.303	-10.31
222.774	1.19
223.245	-9.91
223.717	-8.91
224.188	-1.61
224.659	-10.71
225.13	-12.81
225.601	-6.71
226.072	-3.91
226.543	-3.21
227.014	-1.41
227.485	0.29
227.956	-8.81
228.427	2.49
228.898	-1.11
229.369	-1.21
229.839	-6.91
230.31	-10.91
230.781	0.59
231.252	-7.31
231.722	-7.81
232.193	-5.71
232.664	-3.41
233.135	-5.01
233.605	-8.51
234.076	-9.91
234.546	-1.51
235.017	-1.81
235.487	-2.81
235.958	-5.41
236.428	-11.11
236.899	-4.71
237.369	-2.61
237.84	-11.81
238.31	1.99
238.78	-3.41
239.251	-8.11
239.721	-9.11
240.191	-9.81
240.662	-5.81
241.132	-3.61
241.602	-6.31
242.072	-5.91
242.542	2.09
243.013	-2.21
243.483	2.29
243.953	-2.01
244.423	-2.21
244.893	-2.11
245.363	2.09
245.833	-1.51
246.303	-5.21
246.773	1.59
247.243	1.29
247.712	-5.61
248.182	-5.61
248.652	-2.41
249.122	-13.41
249.592	-0.71
250.061	2.99
250.531	2.09
251.001	-3.21
251.471	5.39
251.94	1.19
252.41	-3.41
252.879	-6.51
253.349	-0.71
253.818	4.29
254.288	-5.61
254.757	-6.31
255.227	0.99
255.696	-3.21
256.166	5.79
256.635	4.39
257.105	-0.91
257.574	-4.61
258.043	-4.91
258.513	-6.21
258.982	0.29
259.451	-4.61
259.92	-1.41
260.389	1.29
260.859	7.79
261.328	-1.51
261.797	1.59
262.266	-5.41
262.735	8.39
263.204	1.99
263.673	-8.61
264.142	-1.61
264.611	-7.41
265.08	-6.11
265.549	-0.71
266.018	-1.31
266.487	-8.81
266.955	-0.61
267.424	-8.71
267.893	1.89
268.362	-3.81
268.83	-6.11
269.299	0.39
269.768	3.79
270.236	-3.81
270.705	-1.81
271.174	2.69
271.642	-2.51
272.111	0.89
272.579	-0.11
273.048	-1.41
273.516	2.39
273.985	0.49
274.453	10.99
274.922	13.99
275.39	2.19
275.858	-5.81
276.327	5.99
276.795	8.99
277.263	-0.31
277.731	10.69
278.2	8.29
278.668	4.99
279.136	1.29
279.604	3.39
280.072	6.19
280.54	7.39
281.008	2.59
281.477	7.49
281.945	4.09
282.413	6.19
282.881	11.19
283.348	2.39
283.816	13.29
284.284	2.19
284.752	6.89
285.22	2.49
285.688	6.49
286.156	8.09
286.623	14.79
287.091	5.79
287.559	6.29
288.026	7.39
288.494	2.59
288.962	-2.91
289.429	6.39
289.897	13.29
290.364	5.49
290.832	2.09
291.3	3.79
291.767	13.09
292.234	11.69
292.702	5.29
293.169	9.29
293.637	12.69
294.104	7.29
294.571	-1.31
295.039	1.19
295.506	7.69
295.973	9.39
296.44	7.79
296.908	10.79
297.375	5.59
297.842	4.09
298.309	11.49
298.776	2.59
299.243	12.69
299.71	-6.31
300.177	13.09
300.644	16.99
301.111	7.89
301.578	14.39
302.045	9.39
302.512	14.29
302.979	19.09
303.446	16.19
303.913	11.09
304.379	14.99
304.846	22.09
305.313	14.89
305.78	10.79
306.246	17.19
306.713	15.89
307.18	12.69
307.646	15.29
308.113	21.19
308.579	12.99
309.046	20.29
309.512	12.99
309.979	12.19
310.445	23.19
310.912	22.29
311.378	21.19
311.845	16.69
312.311	26.39
312.777	15.39
313.244	19.29
313.71	26.09
314.176	20.79
314.642	21.59
315.109	19.89
315.575	22.69
316.041	25.19
316.507	14.69
316.973	19.89
317.439	23.29
317.905	27.79
318.371	21.69
318.837	19.59
319.303	24.79
319.769	23.99
320.235	16.69
320.701	19.99
321.167	26.49
321.633	23.49
322.099	22.49
322.564	28.79
323.03	28.39
323.496	25.99
323.962	25.59
324.427	25.69
324.893	34.89
325.359	26.89
325.824	30.19
326.29	28.79
326.755	32.29
327.221	29.89
327.686	31.99
328.152	35.29
328.617	25.99
329.083	31.89
329.548	35.59
330.014	33.99
330.479	33.29
330.944	32.89
331.41	25.49
331.875	36.39
332.34	34.29
332.805	31.89
333.271	31.89
333.736	30.79
334.201	40.39
334.666	38.29
335.131	36.79
335.596	35.19
336.061	36.29
336.526	31.09
336.991	38.79
337.456	42.59
337.921	36.69
338.386	36.29
338.851	33.39
339.316	40.09
339.781	35.79
340.246	36.59
340.711	42.09
341.175	37.39
341.64	31.29
342.105	40.49
342.569	39.89
343.034	44.49
343.499	45.99
343.963	39.19
344.428	56.59
344.893	47.99
345.357	48.49
345.822	49.99
346.286	50.69
346.751	59.69
347.215	53.49
347.679	53.89
348.144	72.49
348.608	63.59
349.073	51.89
349.537	58.29
350.001	58.99
350.465	69.19
350.93	61.59
351.394	64.09
351.858	58.99
352.322	67.49
352.786	70.99
353.25	83.29
353.715	90.19
354.179	74.99
354.643	90.69
355.107	94.19
355.571	77.69
356.035	80.09
356.498	85.99
356.962	94.29
357.426	93.69
357.89	90.69
358.354	68.89
358.818	73.49
359.281	71.19
359.745	65.49
360.209	66.89
360.673	52.99
361.136	61.99
361.6	68.69
362.064	64.19
362.527	70.89
362.991	74.99
363.454	68.59
363.918	63.19
364.381	63.09
364.845	60.59
365.308	68.89
365.772	72.49
366.235	79.59
366.698	72.49
367.162	70.69
367.625	75.19
368.088	72.59
368.552	77.99
369.015	67.39
369.478	73.79
369.941	76.39
370.404	78.19
370.867	84.39
371.331	88.09
371.794	91.99
372.257	79.69
372.72	89.79
373.183	90.39
373.646	76.09
374.109	76.49
374.572	82.39
375.035	85.09
375.497	92.29
375.96	87.89
376.423	90.39
376.886	99.99
377.349	95.49
377.811	89.89
378.274	86.99
378.737	91.29
379.199	93.19
379.662	92.99
380.125	104.69
380.587	96.19
381.05	90.99
381.512	96.99
381.975	109.89
382.437	104.79
382.9	102.69
383.362	108.09
383.825	115.19
384.287	107.09
384.75	102.39
385.212	115.09
385.674	112.39
386.136	113.99
386.599	108.09
387.061	109.29
387.523	107.69
387.985	113.39
388.447	126.19
388.91	116.89
389.372	117.89
389.834	114.79
390.296	110.29
390.758	120.49
391.22	123.49
391.682	131.79
392.144	138.19
392.606	135.89
393.068	130.29
393.529	140.19
393.991	127.59
394.453	122.09
394.915	127.59
395.377	121.09
395.838	125.49
396.3	125.39
396.762	130.49
397.224	125.59
397.685	117.39
398.147	127.99
398.608	119.59
399.07	121.89
399.531	127.99
399.993	136.39
400.454	140.89
400.916	139.19
401.377	131.69
401.839	137.49
402.3	144.39
402.762	150.89
403.223	162.29
403.684	154.89
404.145	151.49
404.607	151.79
405.068	157.39
405.529	154.39
405.99	168.19
406.451	159.79
406.913	164.79
407.374	157.19
407.835	155.29
408.296	157.69
408.757	161.69
409.218	170.59
409.679	166.69
410.14	164.09
410.601	164.59
411.062	171.79
411.522	167.39
411.983	171.79
412.444	165.69
412.905	172.79
413.366	176.49
413.826	186.59
414.287	209.99
414.748	261.19
415.208	238.39
415.669	209.49
416.13	202.59
416.59	193.29
417.051	206.69
417.511	210.69
417.972	232.69
418.432	242.79
418.893	285.49
419.353	247.59
419.814	192.69
420.274	177.19
420.734	169.59
421.195	190.99
421.655	183.49
422.115	197.39
422.576	188.59
423.036	196.19
423.496	199.39
423.956	215.59
424.416	224.19
424.876	262.29
425.336	248.99
425.797	258.49
426.257	252.79
426.717	232.39
427.177	221.89
427.637	214.59
428.097	224.69
428.556	241.59
429.016	253.99
429.476	249.09
429.936	253.39
430.396	265.99
430.856	279.59
431.315	298.89
431.775	336.69
432.235	355.09
432.694	331.99
433.154	339.39
433.614	375.89
434.073	322.89
434.533	272.39
434.993	260.79
435.452	268.09
435.912	280.49
436.371	270.49
436.83	268.69
437.29	253.19
437.749	243.49
438.209	233.69
438.668	257.59
439.127	273.19
439.587	250.49
440.046	244.79
440.505	247.69
440.964	274.49
441.424	305.49
441.883	293.99
442.342	250.49
442.801	219.79
443.26	220.49
443.719	220.49
444.178	224.49
444.637	206.89
445.096	224.99
445.555	226.49
446.014	226.39
446.473	230.09
446.932	232.69
447.391	222.59
447.849	233.59
448.308	220.69
448.767	223.29
449.226	232.79
449.685	246.99
450.143	245.69
450.602	241.39
451.061	225.59
451.519	239.19
451.978	233.69
452.436	230.39
452.895	238.89
453.353	246.09
453.812	239.29
454.27	241.09
454.729	235.99
455.187	239.39
455.646	244.19
456.104	245.09
456.562	258.29
457.021	267.09
457.479	256.79
457.937	277.29
458.395	264.19
458.854	246.39
459.312	257.29
459.77	276.39
460.228	255.49
460.686	251.59
461.144	253.89
461.602	256.79
462.06	247.89
462.518	257.09
462.976	256.29
463.434	267.49
463.892	266.89
464.35	272.59
464.808	292.49
465.266	268.19
465.724	277.59
466.181	274.49
466.639	276.59
467.097	295.39
467.555	309.59
468.012	305.69
468.47	309.59
468.928	326.39
469.385	347.79
469.843	345.89
470.3	349.19
470.758	365.59
471.215	385.19
471.673	404.49
472.13	402.99
472.588	411.59
473.045	380.49
473.503	381.89
473.96	402.19
474.417	407.59
474.875	441.69
475.332	475.49
475.789	462.69
476.246	463.79
476.704	481.39
477.161	497.39
477.618	519.99
478.075	550.89
478.532	604.49
478.989	669.89
479.446	783.59
479.903	741.29
480.36	778.09
480.817	829.09
481.274	899.89
481.731	991.69
482.188	1076.49
482.645	1194.19
483.102	1270.19
483.558	1398.89
484.015	1434.19
484.472	1410.99
484.929	1359.69
485.385	1324.49
485.842	1299.09
486.299	1255.09
486.755	1206.89
487.212	1039.19
487.668	886.49
488.125	824.99
488.582	756.09
489.038	735.29
489.494	692.09
489.951	672.29
490.407	660.19
490.864	636.69
491.32	633.69
491.776	639.29
492.233	650.09
492.689	609.69
493.145	607.79
493.602	594.49
494.058	607.39
494.514	609.69
494.97	633.69
495.426	639.39
495.882	620.09
496.338	607.79
496.794	608.19
497.251	614.09
497.707	639.69
498.163	630.19
498.618	639.49
499.074	650.09
499.53	664.49
499.986	667.99
500.442	644.69
500.898	619.29
501.354	614.09
501.809	630.49
502.265	628.59
502.721	642.99
503.177	650.89
503.632	653.69
504.088	651.09
504.543	658.89
504.999	687.69
505.455	664.09
505.91	641.49
506.366	647.39
506.821	629.59
507.277	636.59
507.732	645.59
508.187	636.59
508.643	651.59
509.098	647.39
509.553	660.89
510.009	677.59
510.464	674.39
510.919	697.39
511.375	702.19
511.83	714.89
512.285	732.79
512.74	767.99
513.195	781.69
513.65	765.29
514.105	775.39
514.56	775.59
515.015	795.99
515.47	796.49
515.925	788.29
516.38	793.29
516.835	802.29
517.29	781.39
517.745	780.89
518.2	767.89
518.655	752.29
519.109	754.99
519.564	750.09
520.019	735.99
520.474	726.59
520.928	736.29
521.383	722.59
521.838	712.99
522.292	718.59
522.747	721.29
523.201	722.39
523.656	713.99
524.11	701.99
524.565	704.19
525.019	707.69
525.474	718.19
525.928	701.79
526.382	700.49
526.837	705.89
527.291	709.09
527.745	700.69
528.2	702.09
528.654	690.59
529.108	693.69
529.562	697.39
530.016	699.79
530.47	698.89
530.925	692.09
531.379	700.09
531.833	699.79
532.287	720.19
532.741	710.49
533.195	712.79
533.649	715.39
534.103	727.29
534.556	708.89
535.01	719.79
535.464	710.69
535.918	727.99
536.372	729.39
536.826	717.29
537.279	719.79
537.733	717.69
538.187	723.29
538.64	729.19
539.094	738.89
539.548	743.59
540.001	729.79
540.455	737.09
540.908	744.29
541.362	746.89
541.815	752.99
542.269	767.89
542.722	775.69
543.175	784.09
543.629	787.29
544.082	797.09
544.536	795.49
544.989	801.09
545.442	808.29
545.895	812.69
546.349	816.99
546.802	808.39
547.255	813.99
547.708	836.69
548.161	828.39
548.614	841.09
549.067	844.19
549.52	838.09
549.973	821.49
550.426	817.99
550.879	810.79
551.332	823.29
551.785	824.29
552.238	825.19
552.691	833.39
553.144	856.19
553.596	867.09
554.049	882.99
554.502	917.69
554.955	917.29
555.407	925.09
555.86	907.79
556.313	913.69
556.765	903.09
557.218	900.09
557.67	899.29
558.123	889.49
558.576	890.59
559.028	895.59
559.48	896.39
559.933	891.89
560.385	873.89
560.838	833.59
561.29	805.29
561.742	813.39
562.195	779.99
562.647	791.09
563.099	797.69
563.551	786.79
564.004	808.29
564.456	785.79
564.908	785.39
565.36	757.99
565.812	742.19
566.264	729.99
566.716	730.49
567.168	718.49
567.62	721.59
568.072	718.49
568.524	708.89
568.976	712.29
569.428	690.89
569.88	695.39
570.332	711.89
570.784	704.29
571.235	700.09
571.687	715.79
572.139	725.59
572.59	728.59
573.042	734.49
573.494	725.49
573.945	720.89
574.397	704.49
574.849	708.39
575.3	702.79
575.752	711.79
576.203	697.99
576.655	704.19
577.106	684.49
577.557	682.69
578.009	693.79
578.46	682.49
578.912	674.39
579.363	677.49
579.814	684.89
580.265	675.99
580.717	686.19
581.168	696.59
581.619	697.99
582.07	696.69
582.521	694.19
582.972	692.29
583.423	697.19
583.875	705.19
584.326	705.39
584.777	718.59
585.227	743.99
585.678	747.89
586.129	772.89
586.58	787.29
587.031	816.29
587.482	840.49
587.933	877.39
588.384	862.69
588.834	812.59
589.285	789.79
589.736	797.19
590.186	790.29
590.637	785.79
591.088	767.99
591.538	757.89
591.989	747.29
592.439	744.69
592.89	751.59
593.34	720.49
593.791	729.69
594.241	716.69
594.692	720.89
595.142	715.89
595.593	711.29
596.043	723.19
596.493	720.79
596.943	716.79
597.394	736.69
597.844	739.39
598.294	757.19
598.744	781.59
599.195	814.09
599.645	850.09
600.095	885.59
600.545	947.39
600.995	1004.09
601.445	1061.09
601.895	1112.09
602.345	1172.39
602.795	1153.19
603.245	1102.19
603.695	1044.99
604.145	990.79
604.594	937.19
605.044	894.39
605.494	822.89
605.944	781.39
606.393	763.29
606.843	738.09
607.293	749.89
607.743	757.89
608.192	762.89
608.642	780.19
609.091	777.19
609.541	782.99
609.99	775.09
610.44	779.99
610.889	734.69
611.339	721.39
611.788	698.49
612.238	707.19
612.687	726.79
613.136	705.79
613.586	731.99
614.035	724.19
614.484	740.79
614.933	733.39
615.383	724.89
615.832	722.19
616.281	724.99
616.73	692.99
617.179	666.69
617.628	667.79
618.077	648.69
618.526	642.89
618.975	635.89
619.424	632.59
619.873	634.59
620.322	635.09
620.771	620.49
621.22	624.79
621.669	619.49
622.118	604.89
622.567	597.69
623.015	584.59
623.464	583.89
623.913	575.19
624.361	565.69
624.81	567.09
625.259	566.69
625.707	566.79
626.156	578.19
626.604	586.39
627.053	583.39
627.501	584.39
627.95	582.39
628.398	605.99
628.847	578.89
629.295	591.69
629.744	591.89
630.192	582.89
630.64	580.49
631.089	562.59
631.537	561.59
631.985	549.39
632.433	559.09
632.881	545.39
633.33	551.79
633.778	537.69
634.226	532.49
634.674	553.09
635.122	549.29
635.57	573.39
636.018	581.89
636.466	580.59
636.914	572.29
637.362	585.99
637.81	592.59
638.258	595.79
638.705	606.69
639.153	631.99
639.601	636.99
640.049	660.39
640.497	703.89
640.944	723.19
641.392	675.79
641.84	624.99
642.287	602.09
642.735	579.99
643.182	585.59
643.63	578.09
644.078	584.19
644.525	588.49
644.973	600.09
645.42	611.89
645.867	646.99
646.315	651.09
646.762	672.89
647.21	699.59
647.657	725.39
648.104	751.09
648.551	781.69
648.999	828.79
649.446	910.59
649.893	994.59
650.34	1143.69
650.787	1346.29
651.234	1663.69
651.682	2161.19
652.129	2921.59
652.576	4186.49
653.023	6078.19
653.47	8181.89
653.917	10083.79
654.363	11536.59
654.81	12662.69
655.257	11997.49
655.704	7957.59
656.151	4790.29
656.598	3154.89
657.044	2272.79
657.491	1762.29
657.938	1430.79
658.385	1199.09
658.831	1066.79
659.278	958.99
659.724	840.39
660.171	781.49
660.618	727.29
661.064	695.59
661.511	670.59
661.957	665.49
662.404	649.29
662.85	653.99
663.296	644.49
663.743	576.59
664.189	551.59
664.635	543.99
665.082	547.49
665.528	546.99
665.974	528.39
666.42	519.49
666.867	521.49
667.313	505.39
667.759	488.09
668.205	472.99
668.651	468.19
669.097	457.59
669.543	461.19
669.989	456.69
670.435	464.69
670.881	468.69
671.327	466.49
671.773	497.99
672.219	518.09
672.665	568.89
673.11	610.49
673.556	657.69
674.002	694.29
674.448	691.89
674.893	572.49
675.339	496.29
675.785	458.39
676.23	432.99
676.676	406.09
677.122	401.79
677.567	401.09
678.013	387.09
678.458	378.79
678.904	380.89
679.349	357.79
679.794	366.39
680.24	362.29
680.685	370.79
681.131	362.19
681.576	361.79
682.021	372.09
682.466	365.39
682.912	366.69
683.357	371.19
683.802	400.69
684.247	425.29
684.692	475.79
685.137	523.99
685.583	565.39
686.028	585.79
686.473	537.19
686.918	463.69
687.363	438.49
687.807	411.29
688.252	385.59
688.697	368.79
689.142	354.69
689.587	349.39
690.032	340.99
690.477	356.49
690.921	363.69
691.366	401.79
691.811	416.89
692.255	443.79
692.7	482.99
693.145	534.09
693.589	763.49
694.034	1228.39
694.478	1649.09
694.923	1824.69
695.367	2352.69
695.812	1255.69
696.256	527.39
696.701	394.89
697.145	368.59
697.59	345.99
698.034	332.99
698.478	338.89
698.922	341.19
699.367	341.49
699.811	341.49
700.255	363.09
700.699	412.99
701.143	440.59
701.588	492.89
702.032	539.99
702.476	540.19
702.92	522.19
703.364	528.29
703.808	698.29
704.252	1136.79
704.696	1551.69
705.14	1757.19
705.584	2229.29
706.027	1132.79
706.471	548.79
706.915	427.19
707.359	365.09
707.803	336.19
708.246	324.69
708.69	330.69
709.134	325.39
709.577	325.59
710.021	333.59
710.465	324.39
710.908	319.29
711.352	316.09
711.795	329.69
712.239	375.39
712.682	415.39
713.126	430.59
713.569	472.89
714.012	380.89
714.456	323.79
714.899	306.49
715.342	283.39
715.786	275.59
716.229	273.49
716.672	268.79
717.115	259.19
717.558	257.09
718.002	267.39
718.445	277.49
718.888	297.19
719.331	300.49
719.774	322.89
720.217	319.09
720.66	289.49
721.103	275.09
721.546	270.09
721.989	260.89
722.432	245.59
722.874	253.49
723.317	241.59
723.76	249.49
724.203	260.29
724.645	342.59
725.088	480.09
725.531	601.49
725.974	671.29
726.416	581.99
726.859	326.99
727.301	257.09
727.744	246.09
728.187	247.99
728.629	248.09
729.071	251.29
729.514	269.39
729.956	293.29
730.399	296.09
730.841	301.69
731.283	295.39
731.726	277.89
732.168	272.99
732.61	285.39
733.053	307.69
733.495	328.79
733.937	371.59
734.379	420.19
734.821	469.19
735.263	588.89
735.705	924.59
736.148	1760.39
736.59	2783.59
737.032	3188.19
737.474	2623.99
737.916	868.59
738.357	460.89
738.799	339.29
739.241	312.89
739.683	296.49
740.125	310.19
740.567	310.49
741.008	329.19
741.45	334.49
741.892	337.29
742.334	368.29
742.775	377.29
743.217	363.29
743.658	283.79
744.1	265.39
744.542	282.59
744.983	337.79
745.425	364.59
745.866	364.69
746.307	298.89
746.749	289.79
747.19	347.19
747.632	502.29
748.073	996.39
748.514	2068.99
748.956	3045.59
749.397	3848.99
749.838	3183.99
750.279	3097.89
750.72	1594.29
751.162	592.59
751.603	343.19
752.044	264.99
752.485	239.19
752.926	224.29
753.367	210.29
753.808	206.49
754.249	209.69
754.69	192.49
755.131	190.29
755.572	196.79
756.013	187.89
756.453	193.29
756.894	200.19
757.335	196.49
757.776	205.79
758.216	205.49
758.657	210.19
759.098	212.09
759.538	253.09
759.979	289.59
760.42	412.59
760.86	793.09
761.301	2083.49
761.741	4883.39
762.182	6717.59
762.622	4753.19
763.063	1398.59
763.503	573.39
763.943	345.69
764.384	294.39
764.824	265.59
765.264	249.89
765.705	218.79
766.145	190.19
766.585	194.09
767.025	186.79
767.465	175.79
767.906	190.69
768.346	207.49
768.786	216.59
769.226	230.19
769.666	339.09
770.106	699.09
770.546	1725.29
770.986	2785.19
771.426	2471.09
771.866	836.59
772.306	344.29
772.745	216.39
773.185	178.59
773.625	168.89
774.065	156.19
774.505	168.99
774.944	226.79
775.384	395.79
775.824	622.49
776.263	590.19
776.703	293.29
777.142	170.59
777.582	139.49
778.021	124.49
778.461	122.79
778.9	134.49
779.34	132.79
779.779	120.69
780.219	116.79
780.658	107.69
781.097	110.09
781.537	112.19
781.976	115.39
782.415	107.79
782.855	111.59
783.294	112.19
783.733	117.39
784.172	114.09
784.611	112.89
785.05	112.29
785.489	122.19
785.928	124.49
786.367	125.09
786.806	124.59
787.245	136.99
787.684	136.19
788.123	156.99
788.562	138.49
789.001	126.69
789.44	127.89
789.879	122.29
790.317	117.19
790.756	133.69
791.195	129.79
791.634	155.49
792.072	215.39
792.511	407.09
792.95	1133.99
793.388	2267.19
793.827	1998.49
794.265	714.59
794.704	300.59
795.142	198.19
795.581	168.29
796.019	142.39
796.458	134.49
796.896	132.29
797.334	137.69
797.773	168.89
798.211	243.39
798.649	499.39
799.087	1118.99
799.526	1738.29
799.964	2169.79
800.402	2080.59
800.84	799.19
801.278	321.39
801.716	197.59
802.154	164.19
802.592	153.69
803.03	149.29
803.468	144.49
803.906	154.79
804.344	157.79
804.782	140.09
805.22	133.09
805.658	135.59
806.096	161.09
806.533	164.19
806.971	188.89
807.409	237.59
807.847	347.19
808.284	753.99
808.722	2071.79
809.16	3502.89
809.597	3454.19
810.035	5872.99
810.472	5998.39
810.91	2221.29
811.347	872.09
811.785	439.19
812.222	272.39
812.66	212.29
813.097	168.99
813.535	151.69
813.972	133.89
814.409	124.39
814.846	113.89
815.284	110.69
815.721	102.69
816.158	109.09
816.595	121.09
817.032	160.99
817.47	192.69
817.907	132.29
818.344	104.79
818.781	102.89
819.218	102.69
819.655	130.69
820.092	206.69
820.529	214.39
820.966	180.19
821.403	128.59
821.839	98.79
822.276	101.79
822.713	123.79
823.15	140.29
823.587	127.89
824.023	164.19
824.46	338.09
824.897	977.59
825.333	1401.19
825.77	612.39
826.206	250.29
826.643	143.59
827.08	106.99
827.516	85.99
827.953	80.09
828.389	86.39
828.825	75.89
829.262	71.29
829.698	66.99
830.135	63.09
830.571	67.29
831.007	63.79
831.443	60.89
831.88	67.79
832.316	68.29
832.752	66.29
833.188	63.79
833.624	69.49
834.06	71.79
834.497	66.69
834.933	75.89
835.369	77.09
835.805	76.99
836.241	77.69
836.677	85.59
837.112	102.79
837.548	111.59
837.984	142.59
838.42	218.89
838.856	572.69
839.292	1678.79
839.727	2419.49
840.163	1154.89
840.599	1039.29
841.034	2191.49
841.47	2211.39
841.906	824.69
842.341	348.69
842.777	203.79
843.212	211.59
843.648	187.39
844.083	113.49
844.519	86.59
844.954	72.89
845.39	61.59
845.825	62.99
846.261	56.49
846.696	60.49
847.131	55.29
847.566	63.69
848.002	58.79
848.437	56.59
848.872	62.39
849.307	57.39
849.742	99.99
850.177	201.19
850.613	620.59
851.048	913.69
851.483	403.69
851.918	161.59
852.353	88.79
852.788	62.49
853.223	50.99
853.657	53.19
854.092	46.59
854.527	45.59
854.962	42.69
855.397	45.89
855.832	55.59
856.266	41.39
856.701	45.89
857.136	39.39
857.57	42.79
858.005	57.29
858.44	66.89
858.874	46.89
859.309	58.89
859.743	40.99
860.178	44.69
860.612	43.29
861.047	56.29
861.481	77.49
861.915	74.39
862.35	54.49
862.784	29.69
863.218	39.19
863.653	37.29
864.087	45.49
864.521	60.09
864.955	66.19
865.39	175.29
865.824	182.79
866.258	125.39
866.692	181.19
867.126	186.69
867.56	117.59
867.994	51.79
868.428	45.99
868.862	47.99
869.296	57.49
869.73	62.59
870.164	61.39
870.598	55.89
871.031	36.09
871.465	30.59
871.899	35.99
872.333	22.99
872.766	23.29
873.2	27.49
873.634	31.09
874.067	20.39
874.501	35.59
874.935	40.49
875.368	34.09
875.802	22.79
876.235	29.59
876.669	25.39
877.102	20.89
877.535	24.99
877.969	25.29
878.402	23.09
878.836	20.59
879.269	26.19
879.702	22.59
880.135	22.39
880.569	21.29
881.002	22.39
881.435	20.39
881.868	18.19
882.301	24.49
882.734	13.89
883.167	16.69
883.601	13.49
884.034	23.29
884.467	21.59
884.899	18.99
885.332	15.09
885.765	14.89
886.198	14.79
886.631	19.79
887.064	23.59
887.497	22.79
887.929	27.59
888.362	15.99
888.795	17.29
889.228	14.09
889.66	20.59
890.093	25.19
890.526	11.59
890.958	17.69
891.391	13.19
891.823	20.79
892.256	16.29
892.688	12.79
893.121	13.09
893.553	15.99
893.985	21.09
894.418	18.99
894.85	7.39
895.282	19.29
895.715	17.49
896.147	18.59
896.579	13.09
897.011	12.19
897.444	16.29
897.876	6.79
898.308	20.29
898.74	9.29
899.172	16.29
899.604	25.09
900.036	15.09
900.468	10.99
900.9	9.29
901.332	16.39
901.764	11.09
902.196	17.69
902.628	16.09
903.06	11.39
903.491	31.69
903.923	23.59
904.355	23.59
904.787	26.79
905.218	23.89
905.65	21.19
906.082	11.89
906.513	11.49
906.945	17.69
907.376	12.09
907.808	18.09
908.239	20.59
908.671	15.19
909.102	20.29
909.534	29.29
909.965	56.09
910.397	103.39
910.828	337.59
911.259	493.19
911.691	228.59
912.122	115.39
912.553	52.89
912.984	31.69
913.415	25.69
913.847	27.39
914.278	11.89
914.709	16.39
915.14	14.69
915.571	21.29
916.002	11.59
916.433	20.49
916.864	18.99
917.295	15.39
917.726	21.39
918.157	16.19
918.587	32.79
919.018	22.49
919.449	24.89
919.88	27.39
920.311	33.79
920.741	56.59
921.172	174.89
921.603	159.49
922.033	69.99
922.464	42.99
922.895	22.99
923.325	21.99
923.756	14.79
924.186	10.29
924.617	18.69
925.047	18.99
925.478	23.99
925.908	16.19
926.338	12.19
926.769	18.89
927.199	13.99
927.629	9.59
928.06	11.69
928.49	11.09
928.92	13.29
929.35	11.49
929.78	7.59
930.21	5.39
930.641	12.49
931.071	6.69
931.501	7.39
931.931	7.69
932.361	4.99
932.791	-3.21
933.221	5.59
933.651	3.79
934.08	15.99
934.51	26.89
934.94	9.59
935.37	9.49
935.8	10.49
936.229	4.79
936.659	9.79
937.089	6.99
937.519	10.99
937.948	23.69
938.378	14.69
938.807	10.59
939.237	0.19
939.666	5.99
940.096	-3.21
940.525	6.19
940.955	2.59
941.384	3.69
941.814	-3.81
942.243	-1.41
942.672	-3.11
943.102	0.79
943.531	0.29
943.96	-0.51
944.39	0.79
944.819	0.59
945.248	-2.41
945.677	2.49
946.106	4.09
946.535	4.99
946.964	3.59
947.393	1.59
947.822	0.49
948.251	-2.91
948.68	1.19
949.109	1.99
949.538	-0.51
949.967	-3.31
950.396	-1.41
950.825	-1.41
951.254	-1.51
951.682	-4.61
952.111	3.59
952.54	3.89
952.969	-4.11
953.397	-7.71
953.826	2.09
954.254	-3.01
954.683	0.39
955.112	-7.91
955.54	3.19
955.969	1.29
956.397	-2.61
956.826	-6.31
957.254	8.19
957.682	4.19
958.111	2.19
958.539	-1.81
958.967	-2.51
959.396	-4.81
959.824	-2.41
960.252	0.29
960.68	-5.61
961.109	-4.71
961.537	-3.21
961.965	-4.01
962.393	-2.21
962.821	-7.71
963.249	-0.11
963.677	2.39
964.105	0.79
964.533	46.69
964.961	44.79
965.389	18.99
965.817	12.39
966.245	1.39
966.672	-5.41
967.1	-5.31
967.528	-2.01
967.956	-5.81
968.383	0.69
968.811	-2.31
969.239	-5.31
969.666	-4.51
970.094	0.39
970.522	3.59
970.949	-1.81
971.377	-6.61
971.804	-2.91
972.232	-2.21
972.659	-2.01
973.087	-5.41
973.514	-7.31
973.941	-3.21
974.369	5.89
974.796	1.99
975.223	-2.61
975.651	4.19
976.078	0.19
976.505	-0.51
976.932	-0.91
977.359	15.49
977.786	13.09
978.214	-7.21
978.641	-1.21
979.068	1.49
979.495	-3.71
979.922	-2.61
980.349	-4.71
980.776	0.69
981.202	-3.11
981.629	7.09
982.056	-3.01
982.483	-6.31
982.91	0.69
983.337	-8.21
983.763	0.49
984.19	3.59
984.617	-3.11
985.043	-5.61
985.47	-12.41
985.897	-0.71
986.323	-8.51
986.75	2.19
987.176	0.29
987.603	-1.71
988.029	-1.31
988.456	-5.11
988.882	-0.91
989.308	-8.71
989.735	1.09
990.161	-2.41
990.587	-4.81
991.014	2.49
991.44	1.89
991.866	-1.21
992.292	-5.81
992.719	-6.51
993.145	1.89
993.571	-13.11
993.997	-4.61
994.423	-2.01
994.849	-4.31
995.275	-0.11
995.701	-2.21
996.127	-9.11
996.553	-0.91
996.979	-6.41
997.405	-2.21
997.83	-6.21
998.256	-9.11
998.682	-6.11
999.108	-11.51
999.534	4.09
999.959	-2.01
1000.385	-4.41
1000.811	-4.91
1001.236	-11.61
1001.662	-8.51
1002.087	-11.21
1002.513	-1.71
1002.938	3.29
1003.364	-1.11
1003.789	-3.41
1004.215	0.39
1004.64	-4.21
1005.066	-1.21
1005.491	-7.71
1005.916	-6.01
1006.342	-5.71
1006.767	-4.31
1007.192	2.69
1007.617	-5.31
1008.042	-8.81
1008.468	-11.21
1008.893	-8.31
1009.318	-3.11
1009.743	-3.91
1010.168	0.99
1010.593	-0.81
1011.018	-8.41
1011.443	0.29
1011.868	4.89
1012.293	-4.31
1012.718	-7.71
1013.143	-2.91
1013.567	0.19
1013.992	-1.61
1014.417	-11.81
1014.842	-0.31
1015.267	-6.61
1015.691	1.19
1016.116	0.29
1016.541	-0.71
1016.965	-0.21
1017.39	3.79
1017.814	-1.21
1018.239	-7.01
1018.663	-8.01
1019.088	-9.11
1019.512	-4.41
1019.937	-3.21
1020.361	-2.31
1020.785	-10.31
1021.21	-2.11
1021.634	-5.41
1022.058	-1.51
1022.483	0.09
1022.907	-8.61
1023.331	-5.41
1023.755	-5.91
1024.179	-12.61
1024.604	-4.61
1025.028	-2.71
1025.452	-7.81
1025.876	0.59
1026.3	-1.01
1026.724	-12.61
1027.148	-3.81
1027.572	-6.11
1027.996	-3.41
1028.42	-2.51
1028.843	-0.51
1029.267	-5.31
1029.691	-6.91
1030.115	-6.91
1030.539	-9.51
1030.962	-6.91
1031.386	-13.61
1031.81	0.79
1032.233	-0.91
1032.657	-3.51
1033.08	0.89
1033.504	-1.51
1033.927	-6.01
1034.351	-2.11
1034.774	-6.41
1035.198	-7.21
1035.621	-9.11
1036.045	-9.11
1036.468	-2.11
1036.891	-14.91
1037.315	-7.31
1037.738	-6.01
1038.161	-7.01
1038.584	-5.21
1039.008	-8.61
1039.431	-1.81
1039.854	-6.61
1040.277	-7.31
1040.7	-9.81
1041.123	-4.71
1041.546	-8.71
1041.969	-3.51
1042.392	-8.81
1042.815	-2.21
1043.238	-0.81
1043.661	-0.81
1044.084	-10.61
1044.507	-6.61
1044.93	-3.31
1045.352	-6.21
1045.775	-2.41
1046.198	-1.51
1046.621	-4.71
1047.043	0.79
1047.466	4.19
1047.889	-6.01
1048.311	-2.81
1048.734	-8.31
1049.156	-1.11
1049.579	-3.51
1050.001	-6.41
1050.424	-7.21
1050.846	-8.31
1051.269	-7.71
1051.691	-4.91
1052.113	-1.11
1052.536	-0.51
1052.958	-0.11
1053.38	-4.11
1053.802	-11.91
1054.225	-4.41
1054.647	-10.21
1055.069	-4.71
1055.491	0.19
1055.913	-7.91
1056.335	0.19
1056.757	1.69
1057.179	-12.21
1057.601	-6.51
1058.023	-3.21
1058.445	-5.91
1058.867	-4.01
1059.289	-5.81
1059.711	-5.31
1060.133	-9.61
1060.555	-6.31
1060.976	-8.71
1061.398	-7.21
1061.82	-9.81
1062.241	-7.11
1062.663	-9.31
1063.085	-1.31
1063.506	-2.41
1063.928	0.29
1064.35	-5.01
1064.771	-12.61
1065.193	-5.41
1065.614	-8.31
1066.035	-2.41
1066.457	-9.01
1066.878	-0.71
1067.3	-7.91
1067.721	-2.01
1068.142	-7.01
1068.564	-3.11
1068.985	-4.11
1069.406	-5.71
1069.827	-6.71
1070.248	0.29
1070.67	-6.31
1071.091	-11.61
1071.512	-8.51
1071.933	-10.61
1072.354	-4.21
1072.775	-8.21
1073.196	-12.51
1073.617	-7.01
1074.038	-12.11
1074.459	-13.51
1074.88	-9.41
1075.3	0.59
1075.721	-9.11
1076.142	-4.41
1076.563	-1.41
1076.983	-10.61
1077.404	-4.51
1077.825	-6.61
1078.246	-6.11
1078.666	-9.41
1079.087	-4.51
1079.507	-4.41
1079.928	1.49
1080.348	-1.11
1080.769	-6.51
1081.189	-0.01
1081.61	-4.21
1082.03	0.79
1082.451	-13.21
1082.871	-5.31
1083.291	-5.91
1083.711	-5.91
1084.132	-8.31
1084.552	-3.31
1084.972	-6.31
1085.392	-11.61
1085.813	-12.11
1086.233	-14.01
1086.653	-4.31
1087.073	-7.61
1087.493	-7.71
1087.913	-4.71
1088.333	-7.11
1088.753	-4.51
1089.173	-0.81
1089.593	-7.31
1090.013	2.29
1090.433	-4.21
1090.852	-2.71
1091.272	-3.01
1091.692	-0.61
1092.112	-10.81
1092.531	-11.11
1092.951	-10.11
1093.371	-3.01
1093.79	2.89
1094.21	-4.71
1094.63	-9.41
1095.049	-6.51
1095.469	-4.91
1095.888	-4.21
1096.308	1.49
1096.727	-0.81
1097.146	-2.91
1097.566	3.89
1097.985	-10.51
1098.405	0.79
1098.824	0.09
1099.243	-10.01
1099.662	-6.51
1100.082	-4.91
1100.501	-9.01
1100.92	-8.21
1101.339	-9.51
1101.758	-10.21
