Data from 20171114-ORNL-Ar_H_NY_Subt18_08-05-11-125.txt Node
Date: Tue Nov 14 08:05:11 EST 2017
User: Ender
Spectrometer: HR+D1039
Trigger mode: 0
Integration Time (sec): 2.730000E-2
Scans to average: 10
Electric dark correction enabled: true
Nonlinearity correction enabled: false
Boxcar width: 0
XAxis mode: Wavelengths
Number of Pixels in Spectrum: 2048
>>>>>Begin Spectral Data<<<<<
187.836	-5.11
188.309	-5.11
188.782	-5.11
189.255	4.39
189.728	-4.31
190.201	3.49
190.674	1.39
191.147	3.79
191.619	-9.51
192.092	-3.01
192.565	8.79
193.038	3.09
193.511	-0.01
193.984	-0.51
194.456	-2.41
194.929	2.79
195.402	-4.41
195.874	1.59
196.347	-2.41
196.82	-10.91
197.292	3.29
197.765	-1.01
198.237	-5.81
198.71	3.19
199.182	-3.21
199.655	1.19
200.127	1.89
200.6	-2.21
201.072	-2.01
201.544	-0.71
202.017	4.49
202.489	1.29
202.961	-0.61
203.433	-4.01
203.906	-9.91
204.378	-1.71
204.85	0.89
205.322	-10.91
205.794	-2.61
206.266	-2.51
206.739	-9.51
207.211	-0.11
207.683	-10.81
208.155	-5.01
208.627	-6.61
209.099	-0.61
209.57	-10.51
210.042	-3.41
210.514	-4.91
210.986	-1.51
211.458	-8.81
211.93	-7.71
212.402	-1.01
212.873	-7.01
213.345	-3.91
213.817	-15.31
214.288	-5.71
214.76	-11.21
215.232	-0.91
215.703	-3.31
216.175	-4.31
216.646	-3.11
217.118	-7.91
217.589	-6.11
218.061	-4.41
218.532	-1.61
219.004	-0.61
219.475	-2.11
219.946	-1.41
220.418	-6.21
220.889	2.79
221.36	-3.71
221.832	-5.11
222.303	-7.71
222.774	0.59
223.245	-6.01
223.717	-3.41
224.188	-6.91
224.659	-12.71
225.13	-4.51
225.601	1.09
226.072	0.69
226.543	-5.21
227.014	0.49
227.485	-1.41
227.956	-4.71
228.427	-7.51
228.898	-5.91
229.369	5.89
229.839	-4.21
230.31	-4.41
230.781	0.09
231.252	1.49
231.722	-8.31
232.193	-0.61
232.664	0.19
233.135	10.19
233.605	1.19
234.076	-6.81
234.546	4.19
235.017	3.99
235.487	4.19
235.958	-1.51
236.428	-3.41
236.899	2.99
237.369	5.29
237.84	-3.21
238.31	8.79
238.78	1.39
239.251	-0.31
239.721	4.49
240.191	1.79
240.662	-6.21
241.132	1.79
241.602	-2.01
242.072	1.79
242.542	13.39
243.013	0.29
243.483	-0.41
243.953	2.49
244.423	-0.21
244.893	-1.81
245.363	0.59
245.833	1.99
246.303	-2.71
246.773	4.19
247.243	-0.81
247.712	0.79
248.182	10.59
248.652	7.29
249.122	2.19
249.592	8.49
250.061	23.19
250.531	34.99
251.001	20.29
251.471	26.69
251.94	19.99
252.41	10.29
252.879	3.79
253.349	14.39
253.818	10.59
254.288	8.09
254.757	5.29
255.227	3.29
255.696	9.79
256.166	3.39
256.635	5.59
257.105	3.79
257.574	9.49
258.043	10.19
258.513	9.89
258.982	15.99
259.451	10.59
259.92	16.39
260.389	13.49
260.859	14.99
261.328	10.59
261.797	20.69
262.266	13.99
262.735	16.79
263.204	8.49
263.673	1.09
264.142	4.09
264.611	-1.11
265.08	2.29
265.549	0.59
266.018	7.99
266.487	-2.11
266.955	4.39
267.424	2.49
267.893	11.69
268.362	6.69
268.83	10.29
269.299	9.29
269.768	7.59
270.236	7.99
270.705	4.39
271.174	6.39
271.642	10.49
272.111	7.39
272.579	21.29
273.048	22.89
273.516	32.09
273.985	23.89
274.453	32.79
274.922	16.69
275.39	12.49
275.858	4.99
276.327	12.59
276.795	23.69
277.263	11.39
277.731	31.59
278.2	60.59
278.668	63.19
279.136	48.99
279.604	18.29
280.072	14.79
280.54	10.19
281.008	9.69
281.477	16.89
281.945	16.29
282.413	17.89
282.881	17.79
283.348	10.99
283.816	13.39
284.284	18.59
284.752	19.89
285.22	11.79
285.688	14.39
286.156	17.89
286.623	51.79
287.091	55.69
287.559	35.99
288.026	20.09
288.494	14.79
288.962	7.39
289.429	17.39
289.897	20.19
290.364	15.89
290.832	20.39
291.3	17.09
291.767	17.49
292.234	23.09
292.702	13.89
293.169	19.89
293.637	22.99
294.104	21.59
294.571	14.69
295.039	18.39
295.506	15.39
295.973	22.39
296.44	17.29
296.908	21.59
297.375	15.59
297.842	24.29
298.309	17.29
298.776	16.59
299.243	23.09
299.71	18.49
300.177	25.59
300.644	19.89
301.111	25.89
301.578	26.09
302.045	17.89
302.512	23.09
302.979	24.59
303.446	29.29
303.913	14.09
304.379	18.59
304.846	31.49
305.313	28.19
305.78	24.29
306.246	32.69
306.713	28.49
307.18	27.49
307.646	31.49
308.113	31.99
308.579	27.59
309.046	28.49
309.512	25.09
309.979	20.59
310.445	33.09
310.912	30.29
311.378	35.29
311.845	26.79
312.311	27.49
312.777	34.69
313.244	34.89
313.71	36.49
314.176	33.69
314.642	33.29
315.109	35.19
315.575	45.99
316.041	37.09
316.507	38.39
316.973	44.89
317.439	34.59
317.905	39.89
318.371	36.09
318.837	35.59
319.303	33.99
319.769	40.49
320.235	37.99
320.701	37.69
321.167	33.69
321.633	38.39
322.099	39.99
322.564	44.49
323.03	43.49
323.496	43.89
323.962	35.69
324.427	41.19
324.893	48.09
325.359	38.49
325.824	31.99
326.29	36.49
326.755	44.29
327.221	41.19
327.686	40.99
328.152	47.49
328.617	42.69
329.083	54.79
329.548	52.79
330.014	50.09
330.479	35.19
330.944	46.79
331.41	44.09
331.875	44.79
332.34	46.89
332.805	46.49
333.271	50.79
333.736	45.39
334.201	62.09
334.666	54.29
335.131	59.49
335.596	57.79
336.061	54.49
336.526	44.09
336.991	54.59
337.456	60.19
337.921	51.09
338.386	49.19
338.851	50.59
339.316	51.39
339.781	44.69
340.246	60.59
340.711	50.69
341.175	49.79
341.64	45.49
342.105	53.09
342.569	58.89
343.034	66.19
343.499	59.69
343.963	47.89
344.428	64.09
344.893	61.29
345.357	62.39
345.822	62.59
346.286	75.29
346.751	77.89
347.215	68.79
347.679	74.19
348.144	102.09
348.608	93.09
349.073	73.29
349.537	75.39
350.001	78.49
350.465	98.79
350.93	84.59
351.394	80.49
351.858	75.29
352.322	90.49
352.786	82.79
353.25	104.79
353.715	110.29
354.179	99.79
354.643	121.79
355.107	130.69
355.571	113.69
356.035	105.49
356.498	115.49
356.962	126.59
357.426	133.19
357.89	128.29
358.354	95.49
358.818	88.99
359.281	75.49
359.745	74.39
360.209	75.99
360.673	74.19
361.136	87.89
361.6	84.89
362.064	84.59
362.527	91.89
362.991	94.39
363.454	79.59
363.918	78.39
364.381	86.69
364.845	81.79
365.308	84.69
365.772	87.19
366.235	86.09
366.698	84.39
367.162	92.29
367.625	87.69
368.088	89.69
368.552	94.49
369.015	94.69
369.478	96.49
369.941	99.89
370.404	93.79
370.867	108.09
371.331	108.39
371.794	118.69
372.257	107.49
372.72	117.99
373.183	114.19
373.646	101.49
374.109	103.29
374.572	115.49
375.035	109.69
375.497	110.49
375.96	105.49
376.423	97.69
376.886	115.19
377.349	109.89
377.811	103.49
378.274	107.29
378.737	106.59
379.199	115.19
379.662	112.29
380.125	123.39
380.587	114.19
381.05	126.29
381.512	124.19
381.975	132.29
382.437	133.49
382.9	125.89
383.362	135.69
383.825	141.79
384.287	146.69
384.75	140.79
385.212	142.89
385.674	147.99
386.136	135.19
386.599	123.19
387.061	133.49
387.523	131.49
387.985	139.09
388.447	148.19
388.91	145.39
389.372	154.79
389.834	155.09
390.296	143.19
390.758	154.29
391.22	170.59
391.682	206.09
392.144	292.79
392.606	222.09
393.068	171.89
393.529	169.89
393.991	156.49
394.453	145.89
394.915	152.99
395.377	185.89
395.838	213.99
396.3	156.49
396.762	140.09
397.224	137.09
397.685	129.79
398.147	130.99
398.608	128.19
399.07	135.19
399.531	137.29
399.993	141.89
400.454	158.89
400.916	142.39
401.377	136.79
401.839	148.79
402.3	158.29
402.762	168.99
403.223	177.29
403.684	167.09
404.145	164.09
404.607	159.69
405.068	163.79
405.529	172.79
405.99	196.69
406.451	176.69
406.913	180.59
407.374	157.39
407.835	160.39
408.296	163.69
408.757	170.89
409.218	187.89
409.679	182.09
410.14	175.79
410.601	178.49
411.062	186.49
411.522	180.39
411.983	176.79
412.444	176.89
412.905	175.69
413.366	187.39
413.826	192.09
414.287	215.79
414.748	258.19
415.208	245.39
415.669	210.99
416.13	209.59
416.59	200.99
417.051	212.19
417.511	219.49
417.972	235.19
418.432	244.59
418.893	283.69
419.353	252.19
419.814	197.99
420.274	180.99
420.734	179.49
421.195	193.69
421.655	199.99
422.115	195.99
422.576	193.09
423.036	194.29
423.496	197.29
423.956	220.89
424.416	230.19
424.876	264.99
425.336	265.59
425.797	264.09
426.257	256.19
426.717	239.59
427.177	230.19
427.637	223.79
428.097	234.29
428.556	242.49
429.016	269.29
429.476	264.59
429.936	266.39
430.396	271.99
430.856	294.49
431.315	310.59
431.775	349.19
432.235	387.09
432.694	347.39
433.154	357.89
433.614	384.79
434.073	336.19
434.533	286.89
434.993	270.69
435.452	286.19
435.912	291.19
436.371	289.49
436.83	277.79
437.29	264.79
437.749	252.69
438.209	242.89
438.668	275.39
439.127	289.29
439.587	265.99
440.046	257.19
440.505	266.39
440.964	279.39
441.424	321.79
441.883	314.39
442.342	260.79
442.801	214.99
443.26	216.39
443.719	214.49
444.178	221.19
444.637	207.59
445.096	219.49
445.555	222.29
446.014	224.29
446.473	227.79
446.932	237.39
447.391	229.69
447.849	227.49
448.308	224.39
448.767	221.09
449.226	237.79
449.685	230.49
450.143	249.79
450.602	239.79
451.061	228.69
451.519	235.99
451.978	228.99
452.436	231.79
452.895	228.19
453.353	249.39
453.812	235.69
454.27	236.49
454.729	233.29
455.187	235.49
455.646	245.29
456.104	247.19
456.562	259.69
457.021	265.69
457.479	261.89
457.937	272.69
458.395	265.19
458.854	247.39
459.312	254.19
459.77	272.89
460.228	257.59
460.686	241.19
461.144	247.89
461.602	238.69
462.06	239.89
462.518	258.89
462.976	251.79
463.434	263.29
463.892	262.89
464.35	274.59
464.808	287.59
465.266	270.69
465.724	269.89
466.181	272.89
466.639	274.29
467.097	293.29
467.555	297.29
468.012	296.19
468.47	311.09
468.928	334.99
469.385	340.79
469.843	344.99
470.3	354.89
470.758	367.39
471.215	387.19
471.673	404.09
472.13	409.29
472.588	416.89
473.045	372.89
473.503	386.59
473.96	388.49
474.417	403.99
474.875	437.39
475.332	477.89
475.789	461.69
476.246	465.99
476.704	492.09
477.161	502.69
477.618	518.79
478.075	555.69
478.532	616.19
478.989	682.79
479.446	798.09
479.903	767.49
480.36	808.39
480.817	870.19
481.274	962.09
481.731	1062.09
482.188	1157.89
482.645	1288.59
483.102	1409.39
483.558	1535.59
484.015	1591.49
484.472	1557.99
484.929	1515.89
485.385	1467.89
485.842	1433.79
486.299	1365.99
486.755	1306.59
487.212	1098.29
487.668	919.19
488.125	853.19
488.582	785.09
489.038	745.89
489.494	709.89
489.951	686.09
490.407	669.59
490.864	641.09
491.32	646.19
491.776	646.89
492.233	645.59
492.689	600.09
493.145	603.99
493.602	596.79
494.058	612.59
494.514	610.89
494.97	638.49
495.426	645.69
495.882	619.09
496.338	616.49
496.794	629.39
497.251	618.09
497.707	627.99
498.163	635.49
498.618	662.29
499.074	645.39
499.53	675.09
499.986	675.89
500.442	644.59
500.898	629.99
501.354	628.39
501.809	632.89
502.265	649.39
502.721	658.19
503.177	668.89
503.632	658.99
504.088	678.59
504.543	707.19
504.999	712.49
505.455	654.79
505.91	629.59
506.366	631.19
506.821	629.79
507.277	620.09
507.732	622.49
508.187	628.59
508.643	635.09
509.098	638.79
509.553	651.99
510.009	665.49
510.464	667.89
510.919	676.89
511.375	690.19
511.83	691.69
512.285	713.69
512.74	767.09
513.195	779.59
513.65	772.59
514.105	772.29
514.56	766.19
515.015	797.09
515.47	809.69
515.925	785.29
516.38	794.29
516.835	787.99
517.29	781.29
517.745	777.49
518.2	765.89
518.655	750.69
519.109	740.49
519.564	730.79
520.019	729.99
520.474	720.69
520.928	723.39
521.383	723.79
521.838	713.19
522.292	712.99
522.747	704.79
523.201	707.59
523.656	688.79
524.11	684.69
524.565	685.09
525.019	688.19
525.474	704.09
525.928	697.49
526.382	693.49
526.837	693.69
527.291	706.39
527.745	695.29
528.2	688.59
528.654	687.59
529.108	681.69
529.562	678.59
530.016	685.69
530.47	693.89
530.925	688.09
531.379	685.79
531.833	702.39
532.287	695.79
532.741	693.79
533.195	692.19
533.649	715.59
534.103	723.19
534.556	704.49
535.01	712.59
535.464	703.19
535.918	719.59
536.372	717.89
536.826	711.39
537.279	695.69
537.733	705.99
538.187	703.39
538.64	706.19
539.094	723.79
539.548	729.69
540.001	712.69
540.455	716.99
540.908	717.99
541.362	729.99
541.815	742.09
542.269	750.79
542.722	744.59
543.175	757.39
543.629	752.59
544.082	776.89
544.536	769.09
544.989	768.19
545.442	777.79
545.895	788.89
546.349	775.39
546.802	776.79
547.255	778.99
547.708	796.29
548.161	801.69
548.614	806.69
549.067	820.39
549.52	808.79
549.973	803.69
550.426	796.99
550.879	785.09
551.332	785.79
551.785	794.39
552.238	794.09
552.691	808.69
553.144	815.19
553.596	838.09
554.049	849.69
554.502	873.69
554.955	894.09
555.407	896.79
555.86	894.69
556.313	886.29
556.765	870.09
557.218	871.29
557.67	864.19
558.123	864.69
558.576	861.09
559.028	867.59
559.48	859.69
559.933	859.09
560.385	831.09
560.838	790.39
561.29	766.29
561.742	764.59
562.195	741.79
562.647	764.09
563.099	754.99
563.551	746.09
564.004	768.89
564.456	751.99
564.908	748.59
565.36	729.79
565.812	719.89
566.264	706.99
566.716	708.69
567.168	699.99
567.62	712.79
568.072	693.29
568.524	691.49
568.976	671.49
569.428	663.49
569.88	659.69
570.332	665.39
570.784	665.69
571.235	668.79
571.687	674.09
572.139	688.39
572.59	704.29
573.042	697.19
573.494	688.89
573.945	683.29
574.397	674.29
574.849	671.79
575.3	689.09
575.752	677.39
576.203	670.19
576.655	673.29
577.106	656.49
577.557	645.99
578.009	655.99
578.46	653.79
578.912	652.09
579.363	653.59
579.814	648.69
580.265	654.59
580.717	644.49
581.168	655.99
581.619	655.79
582.07	656.69
582.521	660.89
582.972	650.19
583.423	663.79
583.875	660.79
584.326	680.79
584.777	728.79
585.227	789.49
585.678	865.29
586.129	949.89
586.58	1029.09
587.031	1100.29
587.482	1255.69
587.933	1437.59
588.384	1245.59
588.834	937.99
589.285	780.19
589.736	761.29
590.186	737.29
590.637	730.09
591.088	720.79
591.538	714.99
591.989	704.59
592.439	707.89
592.89	696.59
593.34	685.79
593.791	685.29
594.241	684.09
594.692	691.59
595.142	674.09
595.593	671.09
596.043	677.09
596.493	690.29
596.943	688.09
597.394	696.39
597.844	689.39
598.294	703.09
598.744	726.89
599.195	738.59
599.645	788.49
600.095	813.99
600.545	871.19
600.995	934.09
601.445	984.39
601.895	1052.79
602.345	1097.39
602.795	1075.79
603.245	1030.49
603.695	966.39
604.145	919.19
604.594	873.49
605.044	829.59
605.494	769.99
605.944	719.19
606.393	715.99
606.843	697.49
607.293	708.29
607.743	712.59
608.192	720.59
608.642	729.29
609.091	747.09
609.541	739.49
609.99	734.59
610.44	737.29
610.889	690.89
611.339	662.79
611.788	656.09
612.238	674.89
612.687	686.89
613.136	679.89
613.586	703.99
614.035	705.59
614.484	719.49
614.933	717.69
615.383	708.59
615.832	699.99
616.281	691.79
616.73	656.69
617.179	645.19
617.628	620.69
618.077	601.19
618.526	579.99
618.975	581.59
619.424	588.39
619.873	577.19
620.322	579.29
620.771	577.89
621.22	580.39
621.669	568.29
622.118	563.49
622.567	555.69
623.015	540.69
623.464	546.29
623.913	537.79
624.361	531.39
624.81	520.39
625.259	531.69
625.707	522.29
626.156	528.59
626.604	535.79
627.053	531.29
627.501	535.79
627.95	535.99
628.398	554.69
628.847	547.19
629.295	547.09
629.744	544.39
630.192	534.09
630.64	538.49
631.089	540.49
631.537	551.89
631.985	555.69
632.433	565.99
632.881	568.59
633.33	624.99
633.778	594.09
634.226	537.69
634.674	537.69
635.122	541.99
635.57	566.69
636.018	600.99
636.466	553.89
636.914	524.09
637.362	543.09
637.81	554.59
638.258	541.29
638.705	544.59
639.153	573.19
639.601	578.69
640.049	602.39
640.497	638.29
640.944	660.59
641.392	596.89
641.84	577.99
642.287	558.49
642.735	538.69
643.182	535.19
643.63	534.99
644.078	547.99
644.525	549.69
644.973	555.19
645.42	567.49
645.867	588.89
646.315	598.29
646.762	630.79
647.21	650.69
647.657	666.29
648.104	708.59
648.551	733.29
648.999	785.39
649.446	865.79
649.893	951.59
650.34	1083.49
650.787	1298.79
651.234	1618.79
651.682	2092.79
652.129	2843.89
652.576	4085.59
653.023	6046.39
653.47	8304.99
653.917	10466.69
654.363	12172.79
654.81	13596.19
655.257	12931.79
655.704	8432.09
656.151	4986.69
656.598	3220.19
657.044	2268.99
657.491	1747.19
657.938	1416.39
658.385	1173.19
658.831	1023.59
659.278	908.39
659.724	810.69
660.171	743.19
660.618	689.69
661.064	639.29
661.511	621.29
661.957	609.09
662.404	605.89
662.85	608.59
663.296	578.89
663.743	528.79
664.189	500.19
664.635	497.59
665.082	497.89
665.528	493.99
665.974	490.19
666.42	472.79
666.867	479.69
667.313	466.29
667.759	447.49
668.205	444.89
668.651	454.29
669.097	450.29
669.543	462.69
669.989	438.89
670.435	417.29
670.881	410.89
671.327	425.09
671.773	441.69
672.219	459.59
672.665	506.89
673.11	545.89
673.556	594.49
674.002	627.39
674.448	607.19
674.893	513.19
675.339	440.49
675.785	407.89
676.23	386.89
676.676	366.29
677.122	363.89
677.567	340.69
678.013	341.99
678.458	326.39
678.904	327.29
679.349	311.99
679.794	320.29
680.24	333.39
680.685	326.29
681.131	322.89
681.576	326.89
682.021	334.09
682.466	326.89
682.912	329.19
683.357	317.79
683.802	348.49
684.247	379.89
684.692	424.69
685.137	458.99
685.583	494.99
686.028	514.99
686.473	477.89
686.918	413.49
687.363	388.29
687.807	366.89
688.252	330.39
688.697	326.09
689.142	307.99
689.587	305.69
690.032	302.09
690.477	316.39
690.921	324.49
691.366	345.89
691.811	369.29
692.255	397.09
692.7	427.79
693.145	464.69
693.589	642.09
694.034	1021.09
694.478	1407.59
694.923	1614.49
695.367	2124.99
695.812	1127.59
696.256	463.79
696.701	345.39
697.145	314.09
697.59	304.49
698.034	297.29
698.478	301.89
698.922	298.99
699.367	300.39
699.811	303.49
700.255	328.39
700.699	355.79
701.143	385.19
701.588	442.19
702.032	482.49
702.476	474.99
702.92	455.79
703.364	445.69
703.808	580.69
704.252	932.19
704.696	1329.09
705.14	1545.79
705.584	2008.09
706.027	990.69
706.471	485.89
706.915	365.49
707.359	319.19
707.803	300.09
708.246	291.29
708.69	279.39
709.134	292.99
709.577	285.79
710.021	284.99
710.465	278.39
710.908	269.29
711.352	275.09
711.795	292.39
712.239	318.89
712.682	352.09
713.126	387.69
713.569	434.79
714.012	344.09
714.456	301.09
714.899	280.29
715.342	257.99
715.786	247.69
716.229	235.99
716.672	244.49
717.115	229.99
717.558	232.69
718.002	232.19
718.445	242.39
718.888	268.29
719.331	262.29
719.774	281.69
720.217	273.69
720.66	257.99
721.103	240.99
721.546	237.49
721.989	222.49
722.432	210.29
722.874	219.69
723.317	210.79
723.76	220.79
724.203	233.09
724.645	288.59
725.088	401.99
725.531	516.49
725.974	599.39
726.416	506.49
726.859	285.89
727.301	226.89
727.744	220.59
728.187	211.09
728.629	214.19
729.071	220.59
729.514	237.39
729.956	252.19
730.399	257.89
730.841	267.59
731.283	244.69
731.726	246.59
732.168	241.29
732.61	243.89
733.053	257.29
733.495	285.99
733.937	322.19
734.379	366.69
734.821	402.09
735.263	491.59
735.705	750.79
736.148	1418.69
736.59	2349.79
737.032	2863.39
737.474	2326.29
737.916	739.29
738.357	392.09
738.799	300.99
739.241	279.79
739.683	259.69
740.125	262.89
740.567	268.19
741.008	290.69
741.45	285.99
741.892	288.39
742.334	323.09
742.775	327.89
743.217	316.09
743.658	243.79
744.1	232.19
744.542	237.89
744.983	284.69
745.425	317.09
745.866	318.99
746.307	258.09
746.749	261.49
747.19	294.29
747.632	418.09
748.073	779.59
748.514	1671.29
748.956	2621.29
749.397	3294.09
749.838	2726.59
750.279	2774.69
750.72	1392.39
751.162	503.79
751.603	298.99
752.044	234.99
752.485	203.29
752.926	197.79
753.367	180.69
753.808	177.09
754.249	181.09
754.69	170.69
755.131	166.59
755.572	171.89
756.013	162.69
756.453	168.29
756.894	169.09
757.335	175.29
757.776	177.49
758.216	177.59
758.657	175.69
759.098	185.69
759.538	202.99
759.979	242.69
760.42	339.39
760.86	629.99
761.301	1610.09
761.741	3989.19
762.182	6015.99
762.622	4235.79
763.063	1210.99
763.503	494.09
763.943	319.79
764.384	304.79
764.824	371.39
765.264	397.99
765.705	283.49
766.145	191.69
766.585	175.99
767.025	163.89
767.465	166.39
767.906	223.79
768.346	287.09
768.786	308.19
769.226	236.79
769.666	285.59
770.106	552.79
770.546	1379.39
770.986	2445.09
771.426	2219.39
771.866	732.59
772.306	300.09
772.745	195.89
773.185	157.39
773.625	160.89
774.065	150.29
774.505	177.79
774.944	270.29
775.384	582.99
775.824	1085.49
776.263	1072.89
776.703	455.19
777.142	200.59
777.582	146.69
778.021	125.89
778.461	131.49
778.9	130.89
779.34	124.69
779.779	112.29
780.219	104.49
780.658	98.19
781.097	103.19
781.537	105.89
781.976	97.19
782.415	97.39
782.855	98.79
783.294	97.09
783.733	101.79
784.172	102.09
784.611	98.09
785.05	96.59
785.489	105.29
785.928	108.29
786.367	112.59
786.806	109.69
787.245	123.79
787.684	124.49
788.123	129.89
788.562	128.79
789.001	114.99
789.44	113.79
789.879	103.69
790.317	109.99
790.756	123.39
791.195	113.89
791.634	131.09
792.072	178.69
792.511	320.59
792.95	895.89
793.388	1951.49
793.827	1841.29
794.265	624.09
794.704	257.29
795.142	167.59
795.581	138.69
796.019	126.59
796.458	116.29
796.896	114.69
797.334	121.39
797.773	137.69
798.211	199.19
798.649	388.09
799.087	920.29
799.526	1454.09
799.964	1840.49
800.402	1885.99
800.84	701.49
801.278	275.39
801.716	171.89
802.154	138.49
802.592	133.79
803.03	131.99
803.468	123.79
803.906	126.59
804.344	137.69
804.782	124.29
805.22	117.39
805.658	119.09
806.096	128.19
806.533	141.49
806.971	160.99
807.409	199.49
807.847	283.19
808.284	580.89
808.722	1681.59
809.16	3030.59
809.597	2810.89
810.035	4946.49
810.472	5462.99
810.91	1948.39
811.347	737.49
811.785	373.29
812.222	237.99
812.66	187.59
813.097	151.19
813.535	133.29
813.972	123.19
814.409	112.69
814.846	101.69
815.284	98.89
815.721	93.69
816.158	97.89
816.595	107.09
817.032	161.99
817.47	181.89
817.907	144.89
818.344	137.89
818.781	108.09
819.218	94.19
819.655	118.09
820.092	171.09
820.529	199.69
820.966	170.69
821.403	122.59
821.839	95.39
822.276	91.39
822.713	110.69
823.15	125.29
823.587	105.29
824.023	130.59
824.46	261.69
824.897	800.69
825.333	1266.39
825.77	546.09
826.206	214.09
826.643	122.69
827.08	97.39
827.516	76.79
827.953	67.79
828.389	75.29
828.825	63.89
829.262	62.89
829.698	56.89
830.135	59.79
830.571	57.09
831.007	57.19
831.443	55.79
831.88	56.19
832.316	61.39
832.752	59.19
833.188	61.79
833.624	59.49
834.06	61.79
834.497	62.59
834.933	68.29
835.369	70.19
835.805	62.19
836.241	71.49
836.677	73.59
837.112	76.39
837.548	90.89
837.984	119.79
838.42	182.49
838.856	440.69
839.292	1366.49
839.727	2142.49
840.163	987.69
840.599	823.39
841.034	1852.39
841.47	1997.39
841.906	721.09
842.341	308.39
842.777	208.89
843.212	284.09
843.648	276.09
844.083	132.99
844.519	83.19
844.954	72.89
845.39	49.19
845.825	56.49
846.261	50.89
846.696	53.19
847.131	51.49
847.566	56.99
848.002	42.29
848.437	46.99
848.872	52.89
849.307	57.09
849.742	76.39
850.177	152.99
850.613	494.39
851.048	810.49
851.483	357.39
851.918	143.29
852.353	77.39
852.788	54.19
853.223	51.79
853.657	51.19
854.092	43.89
854.527	35.79
854.962	32.59
855.397	40.89
855.832	43.59
856.266	43.59
856.701	34.09
857.136	36.19
857.57	37.19
858.005	41.29
858.44	49.19
858.874	40.99
859.309	52.79
859.743	35.59
860.178	44.59
860.612	36.39
861.047	46.99
861.481	60.89
861.915	68.89
862.35	50.89
862.784	28.29
863.218	36.09
863.653	32.09
864.087	44.39
864.521	47.79
864.955	64.59
865.39	138.29
865.824	160.29
866.258	102.69
866.692	147.89
867.126	164.49
867.56	97.59
867.994	48.69
868.428	35.49
868.862	39.09
869.296	52.09
869.73	50.79
870.164	45.99
870.598	38.39
871.031	35.59
871.465	30.49
871.899	28.39
872.333	19.39
872.766	21.39
873.2	16.49
873.634	28.69
874.067	30.09
874.501	27.19
874.935	29.19
875.368	21.49
875.802	26.79
876.235	23.09
876.669	20.29
877.102	27.39
877.535	23.29
877.969	16.79
878.402	24.49
878.836	20.19
879.269	27.39
879.702	23.99
880.135	19.09
880.569	22.69
881.002	24.29
881.435	18.89
881.868	11.79
882.301	18.89
882.734	16.29
883.167	24.49
883.601	21.19
884.034	18.89
884.467	14.39
884.899	18.29
885.332	12.89
885.765	11.39
886.198	8.19
886.631	10.09
887.064	16.19
887.497	21.19
887.929	17.59
888.362	10.99
888.795	13.89
889.228	19.99
889.66	23.29
890.093	12.09
890.526	14.09
890.958	12.99
891.391	15.09
891.823	17.09
892.256	12.99
892.688	9.79
893.121	20.19
893.553	13.89
893.985	20.19
894.418	13.49
894.85	9.99
895.282	10.79
895.715	15.99
896.147	14.09
896.579	13.39
897.011	11.39
897.444	15.99
897.876	11.59
898.308	16.19
898.74	9.69
899.172	8.89
899.604	20.59
900.036	20.69
900.468	11.69
900.9	11.49
901.332	20.09
901.764	13.59
902.196	14.59
902.628	16.79
903.06	16.29
903.491	23.49
903.923	19.29
904.355	15.99
904.787	20.19
905.218	17.59
905.65	19.49
906.082	15.29
906.513	10.29
906.945	9.09
907.376	7.99
907.808	15.59
908.239	15.79
908.671	13.99
909.102	15.79
909.534	26.19
909.965	45.59
910.397	80.69
910.828	284.09
911.259	446.79
911.691	200.09
912.122	99.79
912.553	51.99
912.984	29.19
913.415	26.89
913.847	20.69
914.278	10.99
914.709	13.69
915.14	15.29
915.571	19.79
916.002	11.09
916.433	20.59
916.864	15.19
917.295	10.99
917.726	18.79
918.157	13.09
918.587	24.09
919.018	18.29
919.449	25.39
919.88	26.39
920.311	28.99
920.741	48.09
921.172	154.19
921.603	145.49
922.033	66.49
922.464	40.99
922.895	24.39
923.325	20.39
923.756	15.39
924.186	10.89
924.617	23.89
925.047	35.69
925.478	45.29
925.908	37.79
926.338	22.49
926.769	12.99
927.199	17.99
927.629	10.39
928.06	13.59
928.49	12.39
928.92	12.09
929.35	9.79
929.78	9.69
930.21	7.89
930.641	6.39
931.071	5.79
931.501	5.49
931.931	13.09
932.361	6.99
932.791	3.49
933.221	4.89
933.651	4.99
934.08	18.89
934.51	26.29
934.94	7.79
935.37	7.69
935.8	9.79
936.229	6.29
936.659	10.19
937.089	2.79
937.519	8.89
937.948	16.09
938.378	15.69
938.807	7.79
939.237	5.59
939.666	8.09
940.096	-7.41
940.525	6.29
940.955	6.09
941.384	5.79
941.814	-0.41
942.243	2.49
942.672	2.69
943.102	-0.41
943.531	0.49
943.96	0.89
944.39	3.69
944.819	3.79
945.248	-1.01
945.677	-2.21
946.106	1.09
946.535	3.09
946.964	-3.91
947.393	6.49
947.822	-4.51
948.251	-7.61
948.68	5.89
949.109	3.89
949.538	6.59
949.967	0.99
950.396	2.39
950.825	-0.51
951.254	-2.71
951.682	-9.01
952.111	5.19
952.54	8.99
952.969	-6.01
953.397	-6.51
953.826	-1.01
954.254	-5.31
954.683	-2.91
955.112	-1.91
955.54	-4.21
955.969	0.79
956.397	-3.91
956.826	0.99
957.254	2.79
957.682	-0.11
958.111	8.39
958.539	2.59
958.967	-1.31
959.396	-2.51
959.824	0.69
960.252	8.29
960.68	-7.71
961.109	-0.91
961.537	-4.91
961.965	-3.81
962.393	1.89
962.821	-0.71
963.249	-4.31
963.677	3.89
964.105	-0.61
964.533	38.29
964.961	36.39
965.389	14.39
965.817	5.29
966.245	2.69
966.672	-1.91
967.1	-10.91
967.528	-0.21
967.956	3.69
968.383	1.79
968.811	0.99
969.239	-3.81
969.666	-4.71
970.094	0.59
970.522	6.49
970.949	2.99
971.377	-3.21
971.804	-4.61
972.232	-5.11
972.659	0.19
973.087	1.69
973.514	-7.61
973.941	-6.31
974.369	4.09
974.796	-2.41
975.223	-7.71
975.651	-0.21
976.078	6.29
976.505	-1.51
976.932	2.59
977.359	3.59
977.786	12.39
978.214	0.79
978.641	-6.21
979.068	-2.01
979.495	-2.21
979.922	-3.11
980.349	-3.81
980.776	6.19
981.202	3.39
981.629	6.29
982.056	5.29
982.483	-5.21
982.91	0.89
983.337	-5.91
983.763	0.29
984.19	-5.61
984.617	-0.81
985.043	-4.91
985.47	-0.81
985.897	0.09
986.323	-11.21
986.75	1.49
987.176	-5.31
987.603	1.79
988.029	-0.71
988.456	-5.31
988.882	2.39
989.308	-4.11
989.735	-5.71
990.161	0.59
990.587	-2.51
991.014	-1.81
991.44	9.39
991.866	-3.31
992.292	-4.51
992.719	-1.81
993.145	6.39
993.571	-4.61
993.997	-7.11
994.423	-2.41
994.849	-8.71
995.275	-1.61
995.701	2.49
996.127	-4.91
996.553	-2.01
996.979	-2.41
997.405	-5.41
997.83	-6.61
998.256	-3.91
998.682	0.09
999.108	-7.31
999.534	-1.61
999.959	-7.21
1000.385	0.79
1000.811	0.79
1001.236	-8.41
1001.662	-8.81
1002.087	-6.61
1002.513	-0.41
1002.938	-0.51
1003.364	-2.21
1003.789	2.49
1004.215	4.79
1004.64	-0.21
1005.066	1.19
1005.491	-0.51
1005.916	-0.11
1006.342	-6.01
1006.767	-7.01
1007.192	1.99
1007.617	-5.71
1008.042	-8.11
1008.468	-5.51
1008.893	-1.61
1009.318	-1.71
1009.743	-5.71
1010.168	-3.21
1010.593	-2.71
1011.018	-6.11
1011.443	-1.91
1011.868	1.59
1012.293	-5.01
1012.718	-4.41
1013.143	-1.91
1013.567	3.29
1013.992	2.29
1014.417	-15.61
1014.842	-4.11
1015.267	-3.71
1015.691	-5.61
1016.116	0.79
1016.541	-4.01
1016.965	3.09
1017.39	-1.01
1017.814	-1.81
1018.239	1.99
1018.663	-10.41
1019.088	-10.81
1019.512	-6.81
1019.937	-3.41
1020.361	-3.31
1020.785	-11.91
1021.21	-2.81
1021.634	-0.91
1022.058	-3.41
1022.483	-0.41
1022.907	-0.01
1023.331	-9.21
1023.755	-4.01
1024.179	-0.31
1024.604	-8.41
1025.028	-7.71
1025.452	-4.21
1025.876	-0.81
1026.3	0.79
1026.724	-7.51
1027.148	-1.01
1027.572	-4.71
1027.996	-2.11
1028.42	-5.71
1028.843	-8.71
1029.267	-11.41
1029.691	-6.71
1030.115	-8.11
1030.539	-8.91
1030.962	-5.91
1031.386	-8.71
1031.81	0.29
1032.233	-3.61
1032.657	-4.71
1033.08	-3.91
1033.504	-3.31
1033.927	-4.01
1034.351	-0.91
1034.774	-8.81
1035.198	-5.51
1035.621	-7.91
1036.045	-7.51
1036.468	-3.11
1036.891	-4.81
1037.315	-9.81
1037.738	-11.81
1038.161	-3.31
1038.584	-4.31
1039.008	-8.31
1039.431	-4.51
1039.854	-2.01
1040.277	-2.91
1040.7	-14.51
1041.123	-0.51
1041.546	-7.01
1041.969	-11.31
1042.392	-11.61
1042.815	-5.01
1043.238	-7.01
1043.661	1.49
1044.084	-14.51
1044.507	-4.01
1044.93	-10.91
1045.352	-2.81
1045.775	-6.31
1046.198	-3.81
1046.621	-3.11
1047.043	-1.71
1047.466	8.09
1047.889	-3.31
1048.311	-4.01
1048.734	0.89
1049.156	-4.41
1049.579	-6.51
1050.001	-5.31
1050.424	0.19
1050.846	-4.51
1051.269	-0.31
1051.691	-5.51
1052.113	-2.81
1052.536	-5.41
1052.958	-8.11
1053.38	-3.81
1053.802	-8.91
1054.225	-2.01
1054.647	-7.11
1055.069	-8.11
1055.491	1.99
1055.913	-6.71
1056.335	0.29
1056.757	-1.21
1057.179	-3.61
1057.601	-8.01
1058.023	-7.51
1058.445	-2.01
1058.867	-7.41
1059.289	-6.91
1059.711	-9.01
1060.133	-4.91
1060.555	-6.21
1060.976	-9.61
1061.398	-5.51
1061.82	-3.11
1062.241	-7.61
1062.663	-7.91
1063.085	-4.81
1063.506	-4.61
1063.928	-1.91
1064.35	1.39
1064.771	-9.91
1065.193	-8.51
1065.614	-5.11
1066.035	0.79
1066.457	-3.21
1066.878	-0.91
1067.3	-10.41
1067.721	-3.81
1068.142	-3.11
1068.564	-6.51
1068.985	-7.51
1069.406	-3.71
1069.827	-2.91
1070.248	-1.91
1070.67	-7.01
1071.091	-3.61
1071.512	2.89
1071.933	-4.71
1072.354	-8.31
1072.775	-8.61
1073.196	-8.81
1073.617	-3.71
1074.038	-8.21
1074.459	4.99
1074.88	-0.61
1075.3	-2.91
1075.721	-3.21
1076.142	1.19
1076.563	-1.91
1076.983	-9.11
1077.404	-11.71
1077.825	-5.81
1078.246	-7.31
1078.666	-14.91
1079.087	-7.81
1079.507	-9.01
1079.928	1.59
1080.348	-4.51
1080.769	-0.91
1081.189	2.29
1081.61	4.19
1082.03	-5.31
1082.451	-4.81
1082.871	-3.21
1083.291	-10.71
1083.711	-9.21
1084.132	-4.31
1084.552	-1.91
1084.972	-2.11
1085.392	-10.01
1085.813	-9.31
1086.233	-3.21
1086.653	-8.61
1087.073	-1.51
1087.493	-7.91
1087.913	-4.01
1088.333	-5.21
1088.753	-7.51
1089.173	-2.71
1089.593	-5.41
1090.013	3.19
1090.433	-3.51
1090.852	-7.21
1091.272	-1.61
1091.692	-1.01
1092.112	-6.81
1092.531	-11.81
1092.951	-15.11
1093.371	-5.91
1093.79	3.99
1094.21	-7.01
1094.63	-9.91
1095.049	-7.81
1095.469	-2.41
1095.888	-1.91
1096.308	-0.61
1096.727	4.39
1097.146	-9.51
1097.566	0.49
1097.985	-9.01
1098.405	-3.41
1098.824	-10.81
1099.243	-7.01
1099.662	-6.11
1100.082	-0.31
1100.501	-0.51
1100.92	-5.11
1101.339	0.89
1101.758	-5.91
