Data from 20171114-ORNL-Ar_H_NY_Subt18_08-05-05-120.txt Node
Date: Tue Nov 14 08:05:05 EST 2017
User: Ender
Spectrometer: HR+D1039
Trigger mode: 0
Integration Time (sec): 2.730000E-2
Scans to average: 10
Electric dark correction enabled: true
Nonlinearity correction enabled: false
Boxcar width: 0
XAxis mode: Wavelengths
Number of Pixels in Spectrum: 2048
>>>>>Begin Spectral Data<<<<<
187.836	-4.83
188.309	-4.83
188.782	-4.83
189.255	-1.43
189.728	-4.53
190.201	5.47
190.674	-0.03
191.147	4.57
191.619	-8.63
192.092	0.77
192.565	7.17
193.038	2.27
193.511	1.27
193.984	6.27
194.456	-3.83
194.929	-2.33
195.402	-0.93
195.874	-1.23
196.347	-0.03
196.82	-5.43
197.292	-0.73
197.765	-7.13
198.237	-10.03
198.71	-3.43
199.182	-5.23
199.655	-4.83
200.127	-2.23
200.6	-0.63
201.072	-1.53
201.544	-5.63
202.017	-4.73
202.489	4.57
202.961	-3.33
203.433	-0.93
203.906	-5.83
204.378	-6.03
204.85	0.07
205.322	-6.63
205.794	-2.13
206.266	-8.23
206.739	-12.73
207.211	1.07
207.683	-4.43
208.155	-6.23
208.627	-6.93
209.099	-8.23
209.57	-13.03
210.042	-5.33
210.514	-11.13
210.986	-0.13
211.458	-6.23
211.93	-3.13
212.402	3.07
212.873	-3.33
213.345	-5.43
213.817	-12.53
214.288	-0.73
214.76	-10.53
215.232	-3.03
215.703	-1.53
216.175	1.07
216.646	0.37
217.118	-1.73
217.589	-1.83
218.061	-9.03
218.532	-1.63
219.004	-2.23
219.475	-6.43
219.946	-2.03
220.418	-0.63
220.889	1.37
221.36	5.07
221.832	-2.73
222.303	-7.43
222.774	3.47
223.245	-4.53
223.717	-6.23
224.188	-4.13
224.659	-7.13
225.13	-6.73
225.601	-1.03
226.072	2.87
226.543	3.57
227.014	3.47
227.485	-2.03
227.956	-0.23
228.427	-3.83
228.898	1.07
229.369	2.77
229.839	0.07
230.31	-3.03
230.781	1.07
231.252	-1.43
231.722	-1.43
232.193	0.07
232.664	-4.13
233.135	-0.43
233.605	3.77
234.076	-1.53
234.546	3.27
235.017	4.87
235.487	-2.53
235.958	-4.53
236.428	1.17
236.899	3.07
237.369	1.67
237.84	-0.23
238.31	0.77
238.78	6.37
239.251	1.27
239.721	8.17
240.191	-0.73
240.662	1.17
241.132	5.47
241.602	-3.83
242.072	-0.33
242.542	6.77
243.013	0.47
243.483	10.87
243.953	9.47
244.423	-0.33
244.893	-3.33
245.363	5.97
245.833	8.37
246.303	1.47
246.773	12.47
247.243	1.37
247.712	3.67
248.182	8.57
248.652	10.17
249.122	-3.73
249.592	18.37
250.061	27.07
250.531	27.57
251.001	14.47
251.471	26.57
251.94	19.17
252.41	7.97
252.879	0.17
253.349	14.47
253.818	11.87
254.288	9.57
254.757	4.87
255.227	4.47
255.696	6.97
256.166	3.27
256.635	7.97
257.105	10.87
257.574	8.07
258.043	8.97
258.513	13.37
258.982	14.47
259.451	8.17
259.92	15.97
260.389	11.67
260.859	14.87
261.328	16.67
261.797	26.77
262.266	9.17
262.735	9.77
263.204	7.57
263.673	1.17
264.142	6.17
264.611	0.87
265.08	5.07
265.549	6.47
266.018	8.97
266.487	-2.93
266.955	3.37
267.424	-0.53
267.893	11.97
268.362	4.67
268.83	3.57
269.299	9.57
269.768	5.97
270.236	10.37
270.705	9.17
271.174	10.27
271.642	7.87
272.111	9.17
272.579	17.57
273.048	25.27
273.516	31.07
273.985	27.17
274.453	30.17
274.922	17.87
275.39	13.67
275.858	9.17
276.327	12.17
276.795	12.27
277.263	10.37
277.731	33.77
278.2	58.17
278.668	69.07
279.136	54.97
279.604	19.37
280.072	14.37
280.54	15.27
281.008	6.97
281.477	16.37
281.945	12.27
282.413	18.87
282.881	19.77
283.348	8.47
283.816	23.67
284.284	18.07
284.752	24.57
285.22	19.87
285.688	18.07
286.156	20.47
286.623	46.57
287.091	57.77
287.559	34.37
288.026	22.77
288.494	15.17
288.962	12.87
289.429	13.57
289.897	19.37
290.364	21.87
290.832	17.97
291.3	21.37
291.767	20.97
292.234	20.77
292.702	17.97
293.169	20.57
293.637	24.77
294.104	24.07
294.571	11.87
295.039	15.47
295.506	19.27
295.973	19.87
296.44	15.17
296.908	23.47
297.375	22.37
297.842	19.57
298.309	18.57
298.776	19.17
299.243	24.87
299.71	20.87
300.177	26.37
300.644	27.27
301.111	24.37
301.578	33.87
302.045	14.67
302.512	18.87
302.979	26.07
303.446	24.87
303.913	17.87
304.379	19.37
304.846	33.77
305.313	27.27
305.78	23.47
306.246	23.67
306.713	28.77
307.18	24.47
307.646	28.67
308.113	35.17
308.579	31.27
309.046	25.67
309.512	30.27
309.979	19.27
310.445	31.57
310.912	34.57
311.378	37.17
311.845	28.37
312.311	35.57
312.777	33.57
313.244	38.67
313.71	44.57
314.176	41.17
314.642	34.07
315.109	37.37
315.575	42.37
316.041	41.27
316.507	41.47
316.973	45.57
317.439	41.47
317.905	40.37
318.371	41.37
318.837	40.67
319.303	42.57
319.769	37.07
320.235	38.57
320.701	36.07
321.167	39.67
321.633	39.07
322.099	41.27
322.564	50.17
323.03	41.97
323.496	47.37
323.962	39.77
324.427	37.57
324.893	45.17
325.359	42.07
325.824	41.57
326.29	37.07
326.755	43.27
327.221	46.37
327.686	46.67
328.152	52.07
328.617	46.97
329.083	50.27
329.548	51.97
330.014	49.47
330.479	43.37
330.944	40.87
331.41	43.87
331.875	53.17
332.34	41.27
332.805	45.27
333.271	45.87
333.736	45.37
334.201	52.67
334.666	59.77
335.131	59.27
335.596	45.57
336.061	57.87
336.526	49.87
336.991	52.77
337.456	58.37
337.921	51.57
338.386	47.77
338.851	51.87
339.316	49.77
339.781	46.57
340.246	53.87
340.711	51.97
341.175	51.47
341.64	51.07
342.105	59.77
342.569	54.87
343.034	63.67
343.499	59.87
343.963	48.67
344.428	68.17
344.893	61.87
345.357	65.47
345.822	62.87
346.286	71.57
346.751	73.47
347.215	71.37
347.679	77.87
348.144	100.37
348.608	89.37
349.073	70.97
349.537	85.37
350.001	83.17
350.465	98.57
350.93	82.87
351.394	79.67
351.858	78.27
352.322	86.07
352.786	87.37
353.25	104.67
353.715	114.07
354.179	105.97
354.643	129.57
355.107	118.27
355.571	105.47
356.035	103.57
356.498	122.27
356.962	125.07
357.426	136.87
357.89	123.97
358.354	90.57
358.818	85.67
359.281	86.67
359.745	82.77
360.209	79.47
360.673	78.67
361.136	74.67
361.6	86.57
362.064	82.27
362.527	88.57
362.991	100.27
363.454	76.77
363.918	76.27
364.381	82.17
364.845	86.67
365.308	86.37
365.772	88.87
366.235	96.37
366.698	92.07
367.162	93.17
367.625	91.77
368.088	93.27
368.552	85.67
369.015	90.57
369.478	104.77
369.941	102.17
370.404	96.07
370.867	106.57
371.331	109.97
371.794	114.77
372.257	115.37
372.72	120.57
373.183	108.17
373.646	106.47
374.109	105.47
374.572	107.67
375.035	106.47
375.497	109.97
375.96	104.17
376.423	102.67
376.886	116.87
377.349	116.17
377.811	108.67
378.274	109.87
378.737	111.27
379.199	110.67
379.662	119.57
380.125	117.37
380.587	122.37
381.05	122.97
381.512	131.17
381.975	135.67
382.437	126.37
382.9	129.37
383.362	133.57
383.825	141.07
384.287	145.77
384.75	136.87
385.212	141.27
385.674	141.07
386.136	136.17
386.599	128.27
387.061	129.97
387.523	135.57
387.985	134.17
388.447	141.67
388.91	136.17
389.372	156.07
389.834	151.37
390.296	145.37
390.758	157.37
391.22	163.57
391.682	212.07
392.144	292.07
392.606	228.97
393.068	166.27
393.529	162.87
393.991	150.37
394.453	144.37
394.915	155.97
395.377	189.87
395.838	214.47
396.3	154.87
396.762	146.17
397.224	132.97
397.685	128.57
398.147	131.27
398.608	129.47
399.07	129.57
399.531	130.67
399.993	144.07
400.454	157.07
400.916	143.37
401.377	146.37
401.839	147.27
402.3	143.47
402.762	163.97
403.223	189.97
403.684	169.97
404.145	156.37
404.607	166.67
405.068	164.87
405.529	171.47
405.99	184.97
406.451	176.87
406.913	172.87
407.374	163.57
407.835	160.97
408.296	167.27
408.757	168.37
409.218	184.67
409.679	174.47
410.14	168.77
410.601	180.47
411.062	181.27
411.522	192.77
411.983	196.17
412.444	179.97
412.905	180.77
413.366	177.57
413.826	195.87
414.287	212.57
414.748	265.47
415.208	247.07
415.669	211.07
416.13	208.47
416.59	196.87
417.051	209.77
417.511	213.77
417.972	237.27
418.432	254.47
418.893	284.87
419.353	244.67
419.814	194.97
420.274	186.27
420.734	180.37
421.195	194.47
421.655	201.37
422.115	195.27
422.576	190.87
423.036	194.67
423.496	202.17
423.956	212.57
424.416	226.07
424.876	263.37
425.336	265.97
425.797	262.87
426.257	251.27
426.717	238.07
427.177	230.67
427.637	223.47
428.097	238.87
428.556	244.57
429.016	276.87
429.476	262.07
429.936	278.17
430.396	271.37
430.856	288.07
431.315	324.37
431.775	343.47
432.235	376.07
432.694	344.87
433.154	361.87
433.614	381.37
434.073	331.47
434.533	279.77
434.993	263.17
435.452	275.87
435.912	295.47
436.371	287.67
436.83	283.37
437.29	263.07
437.749	245.07
438.209	236.37
438.668	273.97
439.127	284.37
439.587	264.77
440.046	244.67
440.505	253.17
440.964	273.77
441.424	317.57
441.883	304.17
442.342	256.87
442.801	220.37
443.26	214.97
443.719	223.87
444.178	212.07
444.637	208.67
445.096	215.87
445.555	217.67
446.014	219.17
446.473	222.97
446.932	225.47
447.391	216.57
447.849	228.57
448.308	214.87
448.767	221.67
449.226	227.67
449.685	234.07
450.143	248.57
450.602	229.97
451.061	219.77
451.519	224.77
451.978	229.57
452.436	236.87
452.895	236.17
453.353	248.17
453.812	240.57
454.27	228.37
454.729	236.57
455.187	232.77
455.646	240.17
456.104	247.47
456.562	254.47
457.021	263.47
457.479	250.37
457.937	269.77
458.395	257.97
458.854	247.17
459.312	255.17
459.77	265.87
460.228	252.27
460.686	237.97
461.144	242.87
461.602	238.67
462.06	233.57
462.518	245.37
462.976	253.67
463.434	259.27
463.892	262.77
464.35	271.37
464.808	285.67
465.266	269.97
465.724	273.27
466.181	273.87
466.639	267.07
467.097	290.77
467.555	294.77
468.012	300.07
468.47	312.07
468.928	326.37
469.385	329.67
469.843	352.97
470.3	343.37
470.758	351.97
471.215	378.57
471.673	403.17
472.13	397.57
472.588	404.17
473.045	370.47
473.503	374.27
473.96	381.87
474.417	394.87
474.875	434.07
475.332	473.57
475.789	459.37
476.246	464.37
476.704	485.67
477.161	506.97
477.618	512.17
478.075	555.97
478.532	613.47
478.989	679.57
479.446	803.87
479.903	763.27
480.36	808.47
480.817	865.87
481.274	967.17
481.731	1073.47
482.188	1152.07
482.645	1293.77
483.102	1420.67
483.558	1537.77
484.015	1594.27
484.472	1565.17
484.929	1521.47
485.385	1477.77
485.842	1434.57
486.299	1353.77
486.755	1285.87
487.212	1092.27
487.668	912.37
488.125	856.17
488.582	777.57
489.038	744.87
489.494	706.57
489.951	690.87
490.407	662.77
490.864	636.37
491.32	641.37
491.776	626.87
492.233	646.97
492.689	613.07
493.145	598.47
493.602	595.87
494.058	602.47
494.514	621.47
494.97	627.97
495.426	645.07
495.882	611.07
496.338	610.97
496.794	630.67
497.251	622.87
497.707	637.17
498.163	633.37
498.618	633.87
499.074	647.57
499.53	677.47
499.986	671.27
500.442	650.97
500.898	625.37
501.354	619.07
501.809	633.57
502.265	631.97
502.721	656.57
503.177	664.97
503.632	649.07
504.088	670.07
504.543	704.87
504.999	700.07
505.455	646.77
505.91	627.87
506.366	633.27
506.821	627.87
507.277	623.57
507.732	616.87
508.187	610.47
508.643	624.87
509.098	624.77
509.553	658.07
510.009	654.87
510.464	664.07
510.919	680.57
511.375	686.57
511.83	699.77
512.285	714.47
512.74	745.57
513.195	768.27
513.65	764.97
514.105	771.87
514.56	771.77
515.015	790.57
515.47	800.07
515.925	779.37
516.38	775.47
516.835	790.37
517.29	775.57
517.745	772.77
518.2	760.67
518.655	749.27
519.109	741.47
519.564	735.57
520.019	735.57
520.474	714.47
520.928	716.37
521.383	716.17
521.838	698.57
522.292	705.27
522.747	705.07
523.201	699.47
523.656	693.27
524.11	682.37
524.565	676.07
525.019	674.37
525.474	684.17
525.928	690.97
526.382	693.07
526.837	678.57
527.291	692.77
527.745	691.37
528.2	688.77
528.654	678.17
529.108	681.67
529.562	690.47
530.016	684.77
530.47	679.97
530.925	681.57
531.379	678.47
531.833	694.37
532.287	694.77
532.741	689.97
533.195	697.77
533.649	708.17
534.103	718.27
534.556	700.77
535.01	702.77
535.464	707.77
535.918	711.47
536.372	714.57
536.826	700.97
537.279	694.57
537.733	696.77
538.187	695.17
538.64	704.87
539.094	712.07
539.548	722.87
540.001	707.27
540.455	699.67
540.908	724.57
541.362	722.37
541.815	739.77
542.269	745.07
542.722	745.97
543.175	752.87
543.629	764.27
544.082	764.07
544.536	768.27
544.989	766.77
545.442	777.07
545.895	779.47
546.349	775.87
546.802	780.67
547.255	788.37
547.708	786.67
548.161	805.27
548.614	806.27
549.067	808.87
549.52	798.97
549.973	796.97
550.426	794.87
550.879	785.97
551.332	775.77
551.785	784.17
552.238	798.07
552.691	798.57
553.144	809.37
553.596	825.17
554.049	839.37
554.502	870.67
554.955	892.37
555.407	887.07
555.86	882.07
556.313	872.67
556.765	856.97
557.218	862.67
557.67	870.77
558.123	857.47
558.576	844.97
559.028	856.97
559.48	858.17
559.933	858.97
560.385	820.47
560.838	790.87
561.29	758.87
561.742	766.77
562.195	750.47
562.647	737.47
563.099	755.77
563.551	761.57
564.004	755.27
564.456	752.67
564.908	742.67
565.36	729.77
565.812	719.87
566.264	702.77
566.716	712.17
567.168	694.97
567.62	704.07
568.072	685.87
568.524	678.57
568.976	678.07
569.428	652.07
569.88	648.47
570.332	648.47
570.784	655.77
571.235	669.57
571.687	675.67
572.139	689.57
572.59	694.47
573.042	691.77
573.494	693.07
573.945	682.87
574.397	670.57
574.849	677.27
575.3	668.87
575.752	653.07
576.203	650.67
576.655	659.77
577.106	649.87
577.557	645.47
578.009	644.67
578.46	645.77
578.912	648.87
579.363	659.17
579.814	645.87
580.265	642.07
580.717	638.57
581.168	638.57
581.619	648.27
582.07	654.87
582.521	646.27
582.972	652.07
583.423	653.17
583.875	665.37
584.326	683.37
584.777	720.67
585.227	781.57
585.678	874.67
586.129	958.87
586.58	1030.57
587.031	1120.37
587.482	1275.47
587.933	1451.87
588.384	1268.37
588.834	940.97
589.285	770.97
589.736	751.27
590.186	738.37
590.637	737.17
591.088	721.87
591.538	697.37
591.989	702.17
592.439	699.07
592.89	694.47
593.34	680.27
593.791	683.97
594.241	677.67
594.692	679.97
595.142	671.07
595.593	667.47
596.043	681.97
596.493	687.27
596.943	686.67
597.394	693.87
597.844	682.87
598.294	691.17
598.744	726.57
599.195	740.67
599.645	774.37
600.095	813.27
600.545	865.27
600.995	933.87
601.445	978.87
601.895	1042.67
602.345	1086.27
602.795	1070.87
603.245	1019.07
603.695	979.47
604.145	918.27
604.594	877.47
605.044	816.37
605.494	762.97
605.944	711.07
606.393	705.67
606.843	700.07
607.293	701.87
607.743	685.97
608.192	708.97
608.642	721.47
609.091	723.57
609.541	732.87
609.99	730.37
610.44	730.87
610.889	685.27
611.339	674.87
611.788	653.57
612.238	669.67
612.687	688.97
613.136	691.07
613.586	699.17
614.035	694.57
614.484	717.37
614.933	714.07
615.383	714.17
615.832	705.97
616.281	693.37
616.73	644.97
617.179	632.67
617.628	617.67
618.077	599.17
618.526	593.37
618.975	580.97
619.424	589.07
619.873	576.77
620.322	583.67
620.771	570.07
621.22	563.47
621.669	558.77
622.118	566.17
622.567	548.47
623.015	528.67
623.464	537.17
623.913	534.77
624.361	515.87
624.81	517.87
625.259	525.47
625.707	528.57
626.156	525.07
626.604	532.77
627.053	529.37
627.501	547.17
627.95	532.87
628.398	538.17
628.847	538.27
629.295	536.97
629.744	536.77
630.192	536.87
630.64	538.47
631.089	527.17
631.537	541.57
631.985	553.97
632.433	560.87
632.881	569.67
633.33	624.17
633.778	598.07
634.226	521.97
634.674	537.97
635.122	533.37
635.57	557.47
636.018	588.27
636.466	539.57
636.914	519.27
637.362	541.27
637.81	540.17
638.258	545.57
638.705	543.17
639.153	571.17
639.601	583.37
640.049	602.77
640.497	630.77
640.944	648.07
641.392	601.27
641.84	570.27
642.287	549.87
642.735	524.37
643.182	528.97
643.63	540.67
644.078	544.87
644.525	547.27
644.973	563.57
645.42	564.47
645.867	583.37
646.315	598.27
646.762	618.67
647.21	645.37
647.657	678.47
648.104	700.07
648.551	730.77
648.999	779.97
649.446	856.47
649.893	950.17
650.34	1079.37
650.787	1305.77
651.234	1599.67
651.682	2079.77
652.129	2860.47
652.576	4113.37
653.023	6061.97
653.47	8383.47
653.917	10549.77
654.363	12297.67
654.81	13695.67
655.257	13054.27
655.704	8511.37
656.151	5000.17
656.598	3241.87
657.044	2295.27
657.491	1756.37
657.938	1393.97
658.385	1172.17
658.831	1019.17
659.278	902.77
659.724	798.17
660.171	741.17
660.618	687.27
661.064	640.17
661.511	622.47
661.957	596.97
662.404	589.57
662.85	597.37
663.296	579.07
663.743	523.27
664.189	502.37
664.635	500.17
665.082	489.47
665.528	482.87
665.974	481.07
666.42	474.87
666.867	469.37
667.313	453.37
667.759	443.87
668.205	442.07
668.651	455.97
669.097	451.07
669.543	467.37
669.989	437.87
670.435	413.27
670.881	407.37
671.327	406.47
671.773	432.77
672.219	447.67
672.665	497.07
673.11	526.07
673.556	577.87
674.002	626.27
674.448	611.17
674.893	504.47
675.339	431.37
675.785	404.87
676.23	386.47
676.676	362.57
677.122	353.07
677.567	344.87
678.013	340.17
678.458	331.07
678.904	333.27
679.349	322.97
679.794	323.17
680.24	313.87
680.685	320.07
681.131	319.97
681.576	333.07
682.021	318.97
682.466	318.27
682.912	323.47
683.357	327.37
683.802	355.57
684.247	378.47
684.692	422.67
685.137	456.37
685.583	498.57
686.028	522.47
686.473	487.57
686.918	415.17
687.363	392.07
687.807	368.47
688.252	336.07
688.697	321.67
689.142	302.77
689.587	304.77
690.032	300.77
690.477	314.97
690.921	316.67
691.366	359.97
691.811	372.47
692.255	394.07
692.7	429.17
693.145	452.97
693.589	624.57
694.034	1010.57
694.478	1405.67
694.923	1617.67
695.367	2114.07
695.812	1108.47
696.256	458.37
696.701	340.07
697.145	310.87
697.59	296.47
698.034	298.87
698.478	299.77
698.922	302.07
699.367	302.37
699.811	314.77
700.255	329.67
700.699	348.47
701.143	398.97
701.588	439.97
702.032	468.87
702.476	477.57
702.92	445.37
703.364	452.57
703.808	568.57
704.252	928.27
704.696	1314.37
705.14	1542.77
705.584	1983.67
706.027	983.07
706.471	485.07
706.915	367.17
707.359	314.37
707.803	284.57
708.246	286.07
708.69	282.87
709.134	289.97
709.577	281.67
710.021	285.67
710.465	281.67
710.908	267.47
711.352	273.87
711.795	282.97
712.239	320.47
712.682	353.07
713.126	382.27
713.569	432.37
714.012	347.37
714.456	298.97
714.899	278.67
715.342	251.17
715.786	241.27
716.229	237.67
716.672	232.87
717.115	222.77
717.558	229.87
718.002	232.07
718.445	237.17
718.888	264.47
719.331	266.87
719.774	282.97
720.217	284.27
720.66	267.17
721.103	236.77
721.546	232.17
721.989	227.87
722.432	214.37
722.874	210.77
723.317	210.67
723.76	212.37
724.203	236.47
724.645	288.57
725.088	398.57
725.531	522.57
725.974	593.97
726.416	508.47
726.859	287.27
727.301	227.77
727.744	218.67
728.187	213.57
728.629	217.87
729.071	222.37
729.514	234.07
729.956	241.27
730.399	253.07
730.841	260.67
731.283	245.97
731.726	240.47
732.168	235.87
732.61	241.37
733.053	260.77
733.495	291.07
733.937	317.97
734.379	365.97
734.821	392.37
735.263	486.67
735.705	741.77
736.148	1407.97
736.59	2343.77
737.032	2824.07
737.474	2311.47
737.916	740.17
738.357	394.37
738.799	299.47
739.241	270.37
739.683	260.57
740.125	261.17
740.567	269.67
741.008	282.87
741.45	289.97
741.892	280.37
742.334	311.67
742.775	328.77
743.217	315.77
743.658	245.47
744.1	232.07
744.542	239.37
744.983	283.07
745.425	314.27
745.866	313.57
746.307	260.67
746.749	250.67
747.19	293.77
747.632	405.77
748.073	770.87
748.514	1659.47
748.956	2588.57
749.397	3263.77
749.838	2705.57
750.279	2751.77
750.72	1376.87
751.162	498.17
751.603	288.77
752.044	223.17
752.485	193.57
752.926	182.37
753.367	177.87
753.808	179.57
754.249	168.87
754.69	166.07
755.131	166.17
755.572	164.57
756.013	159.57
756.453	162.27
756.894	173.57
757.335	176.97
757.776	181.47
758.216	170.27
758.657	183.07
759.098	185.17
759.538	199.47
759.979	231.77
760.42	330.87
760.86	615.27
761.301	1599.97
761.741	3962.97
762.182	5984.17
762.622	4211.37
763.063	1202.27
763.503	498.07
763.943	321.17
764.384	310.47
764.824	363.27
765.264	400.67
765.705	276.17
766.145	193.47
766.585	166.37
767.025	164.87
767.465	161.97
767.906	213.97
768.346	285.17
768.786	314.27
769.226	245.27
769.666	283.57
770.106	537.67
770.546	1369.97
770.986	2428.37
771.426	2218.87
771.866	729.07
772.306	296.87
772.745	191.67
773.185	160.07
773.625	152.17
774.065	156.17
774.505	176.97
774.944	280.17
775.384	601.77
775.824	1136.17
776.263	1127.87
776.703	478.27
777.142	206.47
777.582	146.57
778.021	127.27
778.461	129.27
778.9	129.17
779.34	118.27
779.779	107.47
780.219	103.07
780.658	101.47
781.097	98.47
781.537	108.47
781.976	103.77
782.415	100.97
782.855	94.97
783.294	94.57
783.733	97.97
784.172	100.57
784.611	91.57
785.05	102.67
785.489	101.17
785.928	111.77
786.367	109.27
786.806	111.27
787.245	124.77
787.684	125.57
788.123	136.57
788.562	115.77
789.001	113.17
789.44	113.17
789.879	107.47
790.317	107.57
790.756	121.17
791.195	115.67
791.634	132.27
792.072	176.77
792.511	319.07
792.95	881.47
793.388	1962.37
793.827	1801.27
794.265	624.07
794.704	252.27
795.142	162.37
795.581	137.77
796.019	122.27
796.458	115.17
796.896	109.57
797.334	118.27
797.773	144.17
798.211	198.97
798.649	387.17
799.087	913.37
799.526	1435.47
799.964	1816.87
800.402	1879.17
800.84	694.37
801.278	270.97
801.716	164.97
802.154	141.67
802.592	134.77
803.03	132.37
803.468	119.17
803.906	128.37
804.344	138.07
804.782	128.57
805.22	124.57
805.658	120.07
806.096	141.47
806.533	146.27
806.971	163.17
807.409	195.57
807.847	279.27
808.284	585.27
808.722	1667.07
809.16	3033.17
809.597	2800.97
810.035	4909.87
810.472	5428.97
810.91	1929.87
811.347	734.27
811.785	375.67
812.222	235.27
812.66	181.07
813.097	145.87
813.535	131.37
813.972	114.27
814.409	107.77
814.846	101.07
815.284	95.17
815.721	89.67
816.158	96.47
816.595	107.27
817.032	159.17
817.47	186.47
817.907	152.67
818.344	137.57
818.781	103.47
819.218	97.77
819.655	110.07
820.092	162.97
820.529	199.67
820.966	170.77
821.403	121.17
821.839	101.87
822.276	90.17
822.713	109.87
823.15	124.87
823.587	110.77
824.023	137.07
824.46	259.47
824.897	798.57
825.333	1249.67
825.77	527.87
826.206	207.67
826.643	120.87
827.08	94.57
827.516	76.77
827.953	72.87
828.389	77.27
828.825	65.07
829.262	63.57
829.698	57.97
830.135	61.17
830.571	61.97
831.007	57.17
831.443	55.97
831.88	49.97
832.316	58.67
832.752	56.27
833.188	53.37
833.624	58.67
834.06	60.27
834.497	64.27
834.933	65.07
835.369	67.87
835.805	70.47
836.241	73.27
836.677	68.77
837.112	84.47
837.548	102.07
837.984	126.37
838.42	179.87
838.856	433.37
839.292	1339.17
839.727	2147.07
840.163	984.87
840.599	825.07
841.034	1826.37
841.47	1986.47
841.906	713.67
842.341	305.07
842.777	207.27
843.212	289.57
843.648	296.57
844.083	142.57
844.519	88.07
844.954	69.97
845.39	54.77
845.825	46.67
846.261	55.37
846.696	46.37
847.131	51.97
847.566	52.27
848.002	46.57
848.437	50.77
848.872	54.27
849.307	55.77
849.742	72.17
850.177	157.67
850.613	492.37
851.048	817.77
851.483	353.67
851.918	138.57
852.353	72.77
852.788	47.87
853.223	51.87
853.657	44.27
854.092	42.27
854.527	39.67
854.962	38.17
855.397	43.97
855.832	48.77
856.266	36.37
856.701	34.47
857.136	38.47
857.57	35.87
858.005	45.57
858.44	45.57
858.874	41.17
859.309	45.87
859.743	33.27
860.178	36.37
860.612	34.17
861.047	48.87
861.481	62.07
861.915	68.37
862.35	54.37
862.784	30.97
863.218	37.67
863.653	30.67
864.087	43.77
864.521	48.27
864.955	62.67
865.39	141.17
865.824	161.87
866.258	101.97
866.692	144.77
867.126	156.87
867.56	100.47
867.994	49.37
868.428	31.37
868.862	45.57
869.296	48.17
869.73	52.17
870.164	47.97
870.598	37.97
871.031	32.57
871.465	22.97
871.899	20.77
872.333	20.37
872.766	22.37
873.2	22.47
873.634	30.57
874.067	26.17
874.501	17.87
874.935	35.77
875.368	24.97
875.802	21.67
876.235	18.87
876.669	16.57
877.102	21.37
877.535	29.27
877.969	18.57
878.402	24.07
878.836	16.87
879.269	27.47
879.702	23.77
880.135	15.37
880.569	14.57
881.002	23.07
881.435	21.87
881.868	20.77
882.301	23.37
882.734	16.57
883.167	19.77
883.601	13.67
884.034	17.17
884.467	10.37
884.899	18.07
885.332	14.67
885.765	15.87
886.198	12.27
886.631	18.17
887.064	16.17
887.497	21.87
887.929	24.47
888.362	12.97
888.795	13.67
889.228	16.47
889.66	21.57
890.093	15.77
890.526	10.57
890.958	14.27
891.391	16.27
891.823	25.47
892.256	10.17
892.688	13.67
893.121	18.37
893.553	10.37
893.985	23.17
894.418	19.17
894.85	13.47
895.282	17.07
895.715	13.37
896.147	11.47
896.579	12.97
897.011	15.37
897.444	15.17
897.876	16.97
898.308	14.77
898.74	9.47
899.172	18.27
899.604	23.67
900.036	19.57
900.468	14.87
900.9	11.57
901.332	15.77
901.764	6.57
902.196	9.77
902.628	18.57
903.06	13.17
903.491	30.27
903.923	17.37
904.355	21.17
904.787	20.57
905.218	16.07
905.65	20.07
906.082	19.77
906.513	10.57
906.945	13.67
907.376	15.37
907.808	15.47
908.239	21.27
908.671	15.77
909.102	17.27
909.534	25.27
909.965	46.17
910.397	85.47
910.828	287.77
911.259	440.17
911.691	197.87
912.122	96.37
912.553	47.47
912.984	27.67
913.415	16.07
913.847	24.67
914.278	12.27
914.709	6.17
915.14	18.27
915.571	12.97
916.002	11.67
916.433	16.07
916.864	18.97
917.295	13.67
917.726	19.27
918.157	14.77
918.587	25.57
919.018	17.57
919.449	22.97
919.88	14.57
920.311	25.57
920.741	40.57
921.172	148.67
921.603	140.27
922.033	64.97
922.464	44.17
922.895	19.97
923.325	19.37
923.756	18.67
924.186	12.37
924.617	26.97
925.047	42.07
925.478	60.47
925.908	40.17
926.338	19.57
926.769	17.27
927.199	17.47
927.629	5.27
928.06	14.77
928.49	15.07
928.92	18.97
929.35	10.37
929.78	7.07
930.21	4.47
930.641	9.37
931.071	10.57
931.501	5.57
931.931	11.97
932.361	8.87
932.791	1.57
933.221	11.47
933.651	5.37
934.08	15.47
934.51	35.17
934.94	9.97
935.37	9.67
935.8	12.87
936.229	8.47
936.659	5.47
937.089	-6.73
937.519	14.67
937.948	23.47
938.378	16.37
938.807	1.97
939.237	6.37
939.666	-2.13
940.096	-5.23
940.525	-4.93
940.955	-0.83
941.384	5.47
941.814	1.07
942.243	2.87
942.672	3.17
943.102	3.17
943.531	-1.83
943.96	7.87
944.39	4.07
944.819	0.07
945.248	1.67
945.677	2.17
946.106	0.27
946.535	0.27
946.964	0.07
947.393	0.47
947.822	2.77
948.251	-9.03
948.68	4.87
949.109	5.87
949.538	1.77
949.967	3.67
950.396	2.27
950.825	-2.13
951.254	4.07
951.682	-4.63
952.111	6.87
952.54	3.97
952.969	-3.13
953.397	-3.03
953.826	5.87
954.254	-5.63
954.683	-0.03
955.112	-4.43
955.54	0.97
955.969	0.37
956.397	-1.63
956.826	0.87
957.254	5.17
957.682	-1.53
958.111	2.07
958.539	2.17
958.967	3.47
959.396	-0.33
959.824	-0.53
960.252	4.07
960.68	-4.63
961.109	-0.03
961.537	-6.23
961.965	-1.83
962.393	-0.03
962.821	-6.73
963.249	1.97
963.677	-2.43
964.105	4.47
964.533	40.37
964.961	38.67
965.389	15.67
965.817	4.97
966.245	5.77
966.672	-3.53
967.1	-5.33
967.528	1.07
967.956	-3.53
968.383	-1.63
968.811	-5.03
969.239	-4.93
969.666	-13.03
970.094	0.87
970.522	-6.43
970.949	-5.43
971.377	2.77
971.804	-3.83
972.232	-2.33
972.659	-3.13
973.087	-6.73
973.514	-1.33
973.941	-5.13
974.369	4.97
974.796	3.87
975.223	0.27
975.651	-0.73
976.078	3.17
976.505	-2.13
976.932	2.97
977.359	14.77
977.786	15.47
978.214	3.67
978.641	-4.13
979.068	-7.03
979.495	-6.43
979.922	-2.33
980.349	-2.03
980.776	-1.63
981.202	-0.63
981.629	2.57
982.056	5.37
982.483	-1.13
982.91	5.77
983.337	-6.83
983.763	3.47
984.19	-2.23
984.617	1.27
985.043	-9.33
985.47	0.27
985.897	-2.13
986.323	-6.53
986.75	-1.63
987.176	3.87
987.603	1.47
988.029	-1.03
988.456	-3.03
988.882	1.47
989.308	-4.43
989.735	-6.73
990.161	-3.73
990.587	-5.43
991.014	5.07
991.44	10.27
991.866	-7.93
992.292	-6.23
992.719	-8.63
993.145	0.47
993.571	-5.13
993.997	-1.93
994.423	-7.13
994.849	-6.33
995.275	1.77
995.701	-1.13
996.127	-4.93
996.553	4.27
996.979	0.07
997.405	-6.73
997.83	-2.23
998.256	-11.93
998.682	-4.73
999.108	-10.33
999.534	-3.73
999.959	-6.93
1000.385	0.47
1000.811	-3.23
1001.236	-9.93
1001.662	-8.13
1002.087	-14.73
1002.513	-1.43
1002.938	3.37
1003.364	-4.53
1003.789	-6.23
1004.215	3.17
1004.64	-7.03
1005.066	-2.23
1005.491	-0.03
1005.916	-0.83
1006.342	-3.33
1006.767	-7.43
1007.192	2.57
1007.617	-3.73
1008.042	-3.53
1008.468	-12.53
1008.893	-6.03
1009.318	-1.73
1009.743	-3.43
1010.168	-0.43
1010.593	0.97
1011.018	-5.63
1011.443	-2.63
1011.868	-0.13
1012.293	-3.03
1012.718	-5.13
1013.143	2.27
1013.567	1.37
1013.992	3.37
1014.417	-14.63
1014.842	0.07
1015.267	-7.93
1015.691	-8.93
1016.116	5.67
1016.541	1.57
1016.965	2.47
1017.39	-0.93
1017.814	1.27
1018.239	6.97
1018.663	-3.73
1019.088	-11.43
1019.512	3.77
1019.937	1.37
1020.361	-4.13
1020.785	-4.83
1021.21	-1.63
1021.634	0.77
1022.058	-2.43
1022.483	3.47
1022.907	0.97
1023.331	-7.03
1023.755	-7.83
1024.179	1.37
1024.604	-4.93
1025.028	-4.23
1025.452	-5.53
1025.876	-0.63
1026.3	-5.03
1026.724	-9.73
1027.148	-6.63
1027.572	-4.93
1027.996	-2.73
1028.42	-5.93
1028.843	-3.53
1029.267	-2.93
1029.691	-1.93
1030.115	-7.83
1030.539	-9.63
1030.962	-6.53
1031.386	-9.53
1031.81	0.07
1032.233	-4.23
1032.657	0.77
1033.08	-3.53
1033.504	-9.03
1033.927	-4.33
1034.351	-5.53
1034.774	-7.73
1035.198	-6.33
1035.621	-1.33
1036.045	-7.63
1036.468	3.27
1036.891	-6.93
1037.315	-6.03
1037.738	-1.23
1038.161	-1.33
1038.584	-8.43
1039.008	-1.73
1039.431	0.37
1039.854	-5.03
1040.277	-13.63
1040.7	-2.33
1041.123	4.37
1041.546	-8.23
1041.969	-10.43
1042.392	-5.53
1042.815	-4.33
1043.238	-4.23
1043.661	1.87
1044.084	-4.53
1044.507	-4.33
1044.93	-5.13
1045.352	-6.53
1045.775	-3.13
1046.198	-3.53
1046.621	4.57
1047.043	-0.33
1047.466	6.17
1047.889	-6.63
1048.311	-4.13
1048.734	0.47
1049.156	-2.03
1049.579	-2.43
1050.001	-6.23
1050.424	-1.13
1050.846	-3.23
1051.269	-3.53
1051.691	-7.43
1052.113	-5.53
1052.536	-6.53
1052.958	-6.43
1053.38	-8.53
1053.802	-8.53
1054.225	-0.93
1054.647	-11.73
1055.069	-7.93
1055.491	1.97
1055.913	-9.23
1056.335	-9.33
1056.757	-9.03
1057.179	-6.23
1057.601	-4.03
1058.023	-3.23
1058.445	-4.83
1058.867	-6.33
1059.289	-0.93
1059.711	-6.13
1060.133	-1.83
1060.555	-0.73
1060.976	-2.43
1061.398	-9.53
1061.82	-9.43
1062.241	-2.33
1062.663	-11.83
1063.085	-2.93
1063.506	-0.23
1063.928	-2.43
1064.35	4.47
1064.771	-11.93
1065.193	-4.13
1065.614	-9.03
1066.035	-3.73
1066.457	0.37
1066.878	4.87
1067.3	-4.03
1067.721	-2.13
1068.142	-7.33
1068.564	-1.23
1068.985	-5.23
1069.406	-4.73
1069.827	-2.13
1070.248	-1.03
1070.67	-7.53
1071.091	-3.93
1071.512	0.07
1071.933	-7.23
1072.354	-5.53
1072.775	-3.93
1073.196	-8.93
1073.617	-1.03
1074.038	-8.23
1074.459	2.47
1074.88	-10.43
1075.3	0.17
1075.721	-6.93
1076.142	-3.13
1076.563	-5.03
1076.983	-6.43
1077.404	-6.63
1077.825	-12.23
1078.246	-1.03
1078.666	-10.03
1079.087	0.17
1079.507	-8.83
1079.928	-1.43
1080.348	-0.83
1080.769	-2.23
1081.189	2.97
1081.61	-9.03
1082.03	-6.83
1082.451	-3.33
1082.871	-3.13
1083.291	-8.13
1083.711	-5.93
1084.132	-2.63
1084.552	-2.93
1084.972	-0.83
1085.392	-8.23
1085.813	-12.63
1086.233	-7.43
1086.653	-3.33
1087.073	-2.23
1087.493	-5.43
1087.913	-1.43
1088.333	-10.33
1088.753	1.37
1089.173	0.27
1089.593	-4.23
1090.013	-2.03
1090.433	3.27
1090.852	-2.83
1091.272	-2.03
1091.692	-0.43
1092.112	-2.43
1092.531	-10.93
1092.951	-14.73
1093.371	0.87
1093.79	6.87
1094.21	-8.73
1094.63	-10.73
1095.049	-8.53
1095.469	-7.03
1095.888	-2.53
1096.308	1.77
1096.727	-5.33
1097.146	-4.53
1097.566	-2.33
1097.985	-6.93
1098.405	-5.03
1098.824	-2.43
1099.243	-3.73
1099.662	-1.13
1100.082	-0.73
1100.501	-6.03
1100.92	-4.53
1101.339	-5.53
1101.758	-10.83
