Data from 20171114-ORNL-Ar_H_NY_Subt18_08-08-37-768.txt Node
Date: Tue Nov 14 08:08:37 EST 2017
User: Ender
Spectrometer: HR+D1039
Trigger mode: 0
Integration Time (sec): 2.730000E-2
Scans to average: 10
Electric dark correction enabled: true
Nonlinearity correction enabled: false
Boxcar width: 0
XAxis mode: Wavelengths
Number of Pixels in Spectrum: 2048
>>>>>Begin Spectral Data<<<<<
187.836	-3.14
188.309	-3.14
188.782	-3.14
189.255	-2.54
189.728	-0.94
190.201	4.46
190.674	0.66
191.147	3.66
191.619	-7.04
192.092	0.06
192.565	1.36
193.038	2.76
193.511	-0.24
193.984	-4.04
194.456	-0.54
194.929	5.86
195.402	0.96
195.874	-1.24
196.347	-0.84
196.82	-9.84
197.292	0.66
197.765	3.56
198.237	-8.14
198.71	3.76
199.182	-4.04
199.655	3.26
200.127	-3.74
200.6	-7.94
201.072	-0.64
201.544	-2.14
202.017	-6.74
202.489	3.96
202.961	-7.24
203.433	-2.04
203.906	-5.84
204.378	-4.14
204.85	-12.04
205.322	-9.44
205.794	-0.54
206.266	-5.14
206.739	-14.44
207.211	1.06
207.683	-6.74
208.155	-3.94
208.627	-4.44
209.099	-1.64
209.57	-10.44
210.042	-5.04
210.514	-5.34
210.986	-1.64
211.458	-8.44
211.93	-7.34
212.402	-1.54
212.873	-7.64
213.345	-7.44
213.817	-13.14
214.288	1.46
214.76	-12.24
215.232	-2.04
215.703	-5.54
216.175	-7.04
216.646	-2.64
217.118	-5.34
217.589	-3.84
218.061	0.26
218.532	-2.74
219.004	-5.74
219.475	-6.04
219.946	-3.94
220.418	-3.64
220.889	-2.84
221.36	-5.14
221.832	-0.94
222.303	-7.84
222.774	-0.74
223.245	-5.24
223.717	-7.24
224.188	-3.64
224.659	-8.54
225.13	-6.54
225.601	-4.64
226.072	-3.14
226.543	-1.64
227.014	1.66
227.485	-4.44
227.956	-8.84
228.427	-4.44
228.898	-3.74
229.369	1.86
229.839	0.86
230.31	-11.24
230.781	1.26
231.252	-2.34
231.722	-6.84
232.193	-1.64
232.664	-1.64
233.135	-4.44
233.605	-6.54
234.076	-7.04
234.546	-0.14
235.017	0.76
235.487	-1.84
235.958	-5.04
236.428	-1.54
236.899	-1.24
237.369	0.26
237.84	-10.14
238.31	3.66
238.78	-7.34
239.251	-3.94
239.721	-3.84
240.191	-4.24
240.662	-2.54
241.132	-1.54
241.602	-4.24
242.072	-1.84
242.542	2.46
243.013	-5.14
243.483	2.06
243.953	1.86
244.423	-0.14
244.893	-5.24
245.363	1.96
245.833	-3.54
246.303	-3.44
246.773	1.56
247.243	-3.34
247.712	-0.74
248.182	3.26
248.652	2.56
249.122	-10.94
249.592	-0.54
250.061	0.36
250.531	9.76
251.001	1.96
251.471	8.06
251.94	11.26
252.41	0.56
252.879	-7.04
253.349	6.86
253.818	7.46
254.288	6.66
254.757	2.16
255.227	1.46
255.696	1.46
256.166	5.36
256.635	4.26
257.105	1.86
257.574	0.16
258.043	2.46
258.513	-2.84
258.982	4.26
259.451	-1.44
259.92	-0.44
260.389	-3.74
260.859	3.26
261.328	-1.44
261.797	0.46
262.266	0.96
262.735	2.96
263.204	-0.04
263.673	1.56
264.142	12.46
264.611	-9.84
265.08	-11.14
265.549	-1.04
266.018	4.36
266.487	-7.34
266.955	-5.34
267.424	-0.84
267.893	4.36
268.362	-0.14
268.83	5.16
269.299	11.26
269.768	0.66
270.236	2.56
270.705	4.46
271.174	4.86
271.642	3.86
272.111	1.66
272.579	3.56
273.048	5.86
273.516	6.86
273.985	6.06
274.453	9.46
274.922	14.26
275.39	1.76
275.858	2.56
276.327	8.56
276.795	12.76
277.263	10.26
277.731	15.46
278.2	17.56
278.668	13.66
279.136	16.86
279.604	3.26
280.072	13.46
280.54	5.66
281.008	7.26
281.477	7.36
281.945	7.56
282.413	9.86
282.881	13.16
283.348	6.76
283.816	4.76
284.284	12.26
284.752	21.06
285.22	9.86
285.688	10.06
286.156	11.36
286.623	17.96
287.091	14.06
287.559	15.36
288.026	17.06
288.494	6.96
288.962	-3.84
289.429	9.26
289.897	22.46
290.364	11.36
290.832	16.26
291.3	5.96
291.767	13.96
292.234	15.86
292.702	10.26
293.169	12.96
293.637	17.16
294.104	13.76
294.571	3.56
295.039	12.96
295.506	8.46
295.973	17.26
296.44	12.76
296.908	7.46
297.375	7.56
297.842	15.46
298.309	4.06
298.776	14.86
299.243	11.26
299.71	3.96
300.177	18.56
300.644	18.26
301.111	14.16
301.578	19.06
302.045	16.26
302.512	19.36
302.979	20.96
303.446	15.36
303.913	13.56
304.379	13.56
304.846	24.06
305.313	20.96
305.78	19.26
306.246	18.26
306.713	19.26
307.18	20.46
307.646	17.86
308.113	19.86
308.579	22.06
309.046	18.56
309.512	18.66
309.979	13.56
310.445	24.76
310.912	27.96
311.378	23.26
311.845	24.46
312.311	21.96
312.777	27.76
313.244	25.66
313.71	28.36
314.176	28.86
314.642	21.46
315.109	25.76
315.575	27.66
316.041	33.06
316.507	26.16
316.973	29.86
317.439	27.26
317.905	33.86
318.371	27.36
318.837	29.46
319.303	29.06
319.769	30.26
320.235	21.56
320.701	21.86
321.167	32.26
321.633	30.36
322.099	31.26
322.564	30.96
323.03	33.26
323.496	30.36
323.962	32.46
324.427	24.66
324.893	34.16
325.359	32.76
325.824	35.96
326.29	34.96
326.755	34.36
327.221	33.46
327.686	29.26
328.152	41.66
328.617	37.96
329.083	36.46
329.548	45.86
330.014	43.96
330.479	36.26
330.944	42.16
331.41	35.96
331.875	36.66
332.34	39.16
332.805	38.26
333.271	38.46
333.736	38.86
334.201	42.96
334.666	43.16
335.131	44.66
335.596	46.96
336.061	41.26
336.526	33.46
336.991	38.56
337.456	52.66
337.921	44.36
338.386	44.36
338.851	40.06
339.316	37.46
339.781	41.76
340.246	47.26
340.711	41.76
341.175	52.26
341.64	38.76
342.105	44.96
342.569	48.96
343.034	54.06
343.499	50.76
343.963	46.56
344.428	54.06
344.893	53.16
345.357	55.36
345.822	61.06
346.286	58.66
346.751	56.46
347.215	61.76
347.679	63.96
348.144	89.66
348.608	67.46
349.073	66.36
349.537	71.36
350.001	71.86
350.465	79.66
350.93	72.46
351.394	70.66
351.858	68.66
352.322	73.26
352.786	69.96
353.25	90.46
353.715	99.46
354.179	93.26
354.643	106.86
355.107	107.56
355.571	95.86
356.035	93.96
356.498	105.66
356.962	102.86
357.426	116.66
357.89	107.26
358.354	81.96
358.818	76.56
359.281	75.56
359.745	66.96
360.209	64.16
360.673	64.16
361.136	67.76
361.6	79.86
362.064	74.26
362.527	78.16
362.991	86.76
363.454	73.96
363.918	70.16
364.381	73.76
364.845	82.36
365.308	87.96
365.772	85.46
366.235	82.26
366.698	78.16
367.162	84.56
367.625	83.46
368.088	77.86
368.552	81.56
369.015	82.26
369.478	89.26
369.941	90.06
370.404	88.86
370.867	92.36
371.331	96.06
371.794	103.56
372.257	96.36
372.72	106.76
373.183	104.76
373.646	92.96
374.109	96.56
374.572	96.66
375.035	96.26
375.497	96.66
375.96	98.66
376.423	98.16
376.886	104.36
377.349	108.16
377.811	98.46
378.274	100.06
378.737	100.86
379.199	105.16
379.662	101.26
380.125	105.56
380.587	107.06
381.05	111.46
381.512	111.06
381.975	117.86
382.437	119.36
382.9	106.26
383.362	113.96
383.825	134.26
384.287	125.26
384.75	116.06
385.212	122.76
385.674	129.06
386.136	124.66
386.599	122.06
387.061	121.46
387.523	121.16
387.985	121.36
388.447	134.06
388.91	125.06
389.372	123.46
389.834	130.86
390.296	125.36
390.758	131.26
391.22	144.46
391.682	159.06
392.144	178.06
392.606	156.46
393.068	147.36
393.529	149.86
393.991	136.36
394.453	125.76
394.915	137.76
395.377	138.06
395.838	146.16
396.3	132.46
396.762	139.66
397.224	134.56
397.685	130.56
398.147	127.56
398.608	133.06
399.07	132.26
399.531	132.16
399.993	143.56
400.454	148.36
400.916	149.26
401.377	149.26
401.839	151.86
402.3	153.16
402.762	162.46
403.223	173.36
403.684	167.86
404.145	162.36
404.607	161.16
405.068	161.36
405.529	164.06
405.99	177.46
406.451	176.36
406.913	172.86
407.374	164.96
407.835	172.56
408.296	161.96
408.757	169.06
409.218	185.56
409.679	172.56
410.14	184.96
410.601	174.56
411.062	178.36
411.522	183.26
411.983	182.26
412.444	174.76
412.905	184.66
413.366	180.46
413.826	199.86
414.287	226.86
414.748	262.66
415.208	243.76
415.669	216.26
416.13	210.56
416.59	206.06
417.051	214.56
417.511	229.06
417.972	245.06
418.432	254.66
418.893	299.16
419.353	255.06
419.814	199.36
420.274	188.56
420.734	182.46
421.195	198.76
421.655	195.96
422.115	197.86
422.576	198.46
423.036	197.06
423.496	207.46
423.956	214.26
424.416	231.76
424.876	267.06
425.336	263.66
425.797	269.46
426.257	260.66
426.717	246.26
427.177	233.26
427.637	233.76
428.097	232.26
428.556	240.96
429.016	267.46
429.476	263.16
429.936	273.26
430.396	272.26
430.856	287.86
431.315	315.46
431.775	343.56
432.235	382.16
432.694	345.36
433.154	361.06
433.614	386.96
434.073	338.16
434.533	286.76
434.993	262.86
435.452	274.16
435.912	292.56
436.371	292.86
436.83	278.16
437.29	269.26
437.749	251.36
438.209	248.96
438.668	276.36
439.127	291.96
439.587	262.26
440.046	251.16
440.505	263.86
440.964	284.56
441.424	332.26
441.883	318.36
442.342	264.46
442.801	235.56
443.26	226.56
443.719	235.46
444.178	234.86
444.637	216.76
445.096	230.56
445.555	231.66
446.014	236.16
446.473	238.16
446.932	242.76
447.391	237.56
447.849	232.36
448.308	227.36
448.767	224.66
449.226	246.66
449.685	252.36
450.143	257.36
450.602	248.66
451.061	238.56
451.519	234.76
451.978	232.96
452.436	241.76
452.895	248.86
453.353	260.56
453.812	247.76
454.27	245.66
454.729	251.46
455.187	249.96
455.646	253.86
456.104	261.66
456.562	271.36
457.021	276.26
457.479	267.56
457.937	280.56
458.395	274.56
458.854	260.56
459.312	269.36
459.77	279.76
460.228	270.66
460.686	252.86
461.144	259.96
461.602	253.06
462.06	255.06
462.518	267.66
462.976	263.46
463.434	269.96
463.892	268.16
464.35	289.56
464.808	293.76
465.266	278.56
465.724	282.26
466.181	282.86
466.639	280.76
467.097	294.06
467.555	309.16
468.012	317.46
468.47	318.26
468.928	347.06
469.385	353.96
469.843	358.76
470.3	359.86
470.758	387.76
471.215	394.96
471.673	423.36
472.13	420.76
472.588	433.56
473.045	400.06
473.503	393.16
473.96	412.66
474.417	416.26
474.875	442.76
475.332	492.06
475.789	470.16
476.246	482.06
476.704	497.46
477.161	524.56
477.618	534.76
478.075	576.06
478.532	627.16
478.989	691.36
479.446	811.86
479.903	764.46
480.36	804.96
480.817	846.36
481.274	934.56
481.731	1033.96
482.188	1107.06
482.645	1237.16
483.102	1313.26
483.558	1443.66
484.015	1483.36
484.472	1465.16
484.929	1402.16
485.385	1378.36
485.842	1345.06
486.299	1311.56
486.755	1258.26
487.212	1068.86
487.668	913.96
488.125	840.76
488.582	782.26
489.038	758.36
489.494	709.96
489.951	704.06
490.407	668.56
490.864	659.96
491.32	658.86
491.776	657.16
492.233	659.76
492.689	632.16
493.145	632.16
493.602	617.86
494.058	630.46
494.514	623.26
494.97	648.36
495.426	661.66
495.882	636.36
496.338	621.16
496.794	640.56
497.251	626.76
497.707	637.56
498.163	633.76
498.618	651.86
499.074	656.26
499.53	689.26
499.986	680.86
500.442	659.76
500.898	637.96
501.354	630.86
501.809	640.26
502.265	640.16
502.721	651.26
503.177	670.56
503.632	661.66
504.088	669.76
504.543	699.86
504.999	707.26
505.455	672.66
505.91	644.26
506.366	661.56
506.821	648.86
507.277	653.86
507.732	650.86
508.187	647.36
508.643	661.36
509.098	660.96
509.553	678.26
510.009	690.56
510.464	699.86
510.919	716.96
511.375	714.86
511.83	732.16
512.285	749.76
512.74	781.56
513.195	800.26
513.65	790.56
514.105	788.46
514.56	779.16
515.015	803.26
515.47	822.06
515.925	799.66
516.38	812.36
516.835	808.06
517.29	802.36
517.745	797.36
518.2	783.76
518.655	767.36
519.109	763.76
519.564	760.56
520.019	750.66
520.474	747.46
520.928	746.06
521.383	738.36
521.838	722.06
522.292	742.36
522.747	733.36
523.201	731.96
523.656	723.46
524.11	719.26
524.565	713.76
525.019	708.56
525.474	723.36
525.928	720.86
526.382	721.36
526.837	715.46
527.291	729.06
527.745	720.26
528.2	721.26
528.654	710.16
529.108	710.06
529.562	711.26
530.016	711.86
530.47	708.06
530.925	708.96
531.379	717.66
531.833	730.16
532.287	737.36
532.741	724.46
533.195	728.36
533.649	727.66
534.103	737.76
534.556	716.16
535.01	730.66
535.464	726.86
535.918	729.96
536.372	739.86
536.826	734.66
537.279	724.26
537.733	729.86
538.187	729.26
538.64	726.36
539.094	740.86
539.548	741.96
540.001	740.26
540.455	751.96
540.908	764.76
541.362	769.56
541.815	761.46
542.269	787.36
542.722	790.16
543.175	797.46
543.629	793.76
544.082	814.96
544.536	810.46
544.989	810.46
545.442	826.76
545.895	820.46
546.349	819.56
546.802	826.76
547.255	826.06
547.708	824.96
548.161	837.96
548.614	852.46
549.067	852.96
549.52	842.66
549.973	844.06
550.426	837.76
550.879	832.66
551.332	817.76
551.785	837.06
552.238	831.76
552.691	845.86
553.144	877.96
553.596	874.76
554.049	905.86
554.502	929.06
554.955	943.06
555.407	940.76
555.86	948.16
556.313	923.96
556.765	908.96
557.218	910.96
557.67	906.76
558.123	906.46
558.576	918.86
559.028	907.46
559.48	920.86
559.933	914.86
560.385	866.36
560.838	844.36
561.29	819.06
561.742	813.46
562.195	795.66
562.647	796.26
563.099	816.66
563.551	798.46
564.004	812.86
564.456	794.66
564.908	794.76
565.36	773.86
565.812	757.26
566.264	749.36
566.716	743.06
567.168	725.46
567.62	743.66
568.072	730.96
568.524	709.46
568.976	717.16
569.428	702.86
569.88	713.86
570.332	707.86
570.784	716.16
571.235	712.56
571.687	721.86
572.139	732.26
572.59	742.26
573.042	738.36
573.494	732.16
573.945	732.76
574.397	712.06
574.849	718.86
575.3	723.76
575.752	705.96
576.203	709.76
576.655	712.96
577.106	697.66
577.557	690.66
578.009	699.96
578.46	695.56
578.912	681.26
579.363	682.16
579.814	689.56
580.265	693.26
580.717	697.26
581.168	693.56
581.619	705.16
582.07	707.76
582.521	706.56
582.972	692.66
583.423	694.76
583.875	707.76
584.326	710.16
584.777	734.36
585.227	767.56
585.678	783.76
586.129	821.06
586.58	851.86
587.031	876.66
587.482	943.06
587.933	991.06
588.384	941.56
588.834	852.06
589.285	812.96
589.736	802.86
590.186	791.96
590.637	790.76
591.088	774.06
591.538	779.26
591.989	758.86
592.439	755.86
592.89	751.26
593.34	728.56
593.791	730.26
594.241	736.16
594.692	729.56
595.142	724.36
595.593	727.76
596.043	729.16
596.493	736.06
596.943	740.56
597.394	742.26
597.844	748.46
598.294	768.86
598.744	792.56
599.195	812.26
599.645	856.16
600.095	893.56
600.545	951.26
600.995	1014.96
601.445	1069.56
601.895	1128.66
602.345	1174.66
602.795	1167.46
603.245	1113.56
603.695	1050.76
604.145	988.66
604.594	950.76
605.044	907.06
605.494	831.46
605.944	784.96
606.393	769.16
606.843	761.16
607.293	761.96
607.743	752.36
608.192	773.46
608.642	785.76
609.091	784.36
609.541	791.96
609.99	787.66
610.44	798.76
610.889	751.96
611.339	727.26
611.788	709.76
612.238	724.76
612.687	730.96
613.136	726.86
613.586	738.66
614.035	727.86
614.484	747.86
614.933	732.96
615.383	734.16
615.832	733.56
616.281	730.86
616.73	696.56
617.179	683.16
617.628	665.96
618.077	660.96
618.526	649.86
618.975	635.06
619.424	635.66
619.873	631.26
620.322	645.36
620.771	623.16
621.22	625.26
621.669	612.06
622.118	604.56
622.567	598.46
623.015	592.16
623.464	595.96
623.913	584.06
624.361	576.26
624.81	576.06
625.259	574.26
625.707	576.26
626.156	582.46
626.604	591.16
627.053	579.16
627.501	577.56
627.95	596.06
628.398	612.66
628.847	597.96
629.295	598.76
629.744	608.96
630.192	583.46
630.64	583.36
631.089	570.06
631.537	571.96
631.985	557.06
632.433	564.36
632.881	563.46
633.33	575.56
633.778	568.86
634.226	550.26
634.674	565.56
635.122	580.06
635.57	589.66
636.018	594.36
636.466	597.36
636.914	578.16
637.362	592.76
637.81	602.86
638.258	604.16
638.705	603.06
639.153	628.96
639.601	638.16
640.049	668.26
640.497	682.86
640.944	714.36
641.392	672.56
641.84	639.56
642.287	609.36
642.735	580.46
643.182	592.06
643.63	586.56
644.078	586.16
644.525	598.16
644.973	607.46
645.42	614.36
645.867	638.36
646.315	659.56
646.762	674.76
647.21	716.86
647.657	732.86
648.104	768.36
648.551	789.36
648.999	850.96
649.446	923.66
649.893	1010.96
650.34	1150.66
650.787	1377.46
651.234	1689.56
651.682	2193.46
652.129	2985.06
652.576	4256.76
653.023	6203.26
653.47	8367.16
653.917	10308.26
654.363	11806.76
654.81	12994.36
655.257	12295.06
655.704	8193.56
656.151	4904.16
656.598	3229.26
657.044	2314.66
657.491	1794.56
657.938	1451.26
658.385	1229.16
658.831	1071.36
659.278	963.76
659.724	855.56
660.171	797.66
660.618	732.56
661.064	700.06
661.511	680.36
661.957	665.16
662.404	659.56
662.85	666.06
663.296	642.46
663.743	585.76
664.189	552.16
664.635	550.06
665.082	550.26
665.528	547.06
665.974	545.46
666.42	534.16
666.867	521.96
667.313	497.76
667.759	490.16
668.205	476.46
668.651	475.36
669.097	476.66
669.543	466.56
669.989	475.56
670.435	466.86
670.881	465.26
671.327	473.36
671.773	503.06
672.219	516.76
672.665	580.06
673.11	607.26
673.556	655.56
674.002	708.26
674.448	690.76
674.893	575.26
675.339	499.86
675.785	462.96
676.23	434.96
676.676	411.76
677.122	399.16
677.567	393.06
678.013	392.26
678.458	374.46
678.904	377.46
679.349	363.26
679.794	374.96
680.24	367.96
680.685	362.16
681.131	372.96
681.576	371.46
682.021	377.86
682.466	370.06
682.912	371.16
683.357	368.56
683.802	396.26
684.247	431.16
684.692	483.76
685.137	528.76
685.583	573.86
686.028	592.96
686.473	541.66
686.918	471.36
687.363	434.86
687.807	412.46
688.252	385.66
688.697	370.46
689.142	349.36
689.587	353.36
690.032	360.66
690.477	362.66
690.921	374.66
691.366	401.46
691.811	424.36
692.255	458.26
692.7	480.96
693.145	535.26
693.589	762.36
694.034	1234.26
694.478	1645.66
694.923	1820.76
695.367	2358.86
695.812	1245.66
696.256	521.56
696.701	385.86
697.145	362.56
697.59	338.26
698.034	336.36
698.478	349.26
698.922	343.56
699.367	338.76
699.811	347.26
700.255	370.06
700.699	404.76
701.143	448.26
701.588	499.66
702.032	536.86
702.476	538.56
702.92	521.86
703.364	523.56
703.808	693.06
704.252	1119.36
704.696	1554.26
705.14	1758.26
705.584	2226.86
706.027	1130.46
706.471	564.66
706.915	422.16
707.359	374.16
707.803	336.86
708.246	325.96
708.69	331.06
709.134	333.06
709.577	330.56
710.021	336.96
710.465	325.16
710.908	319.66
711.352	313.96
711.795	329.36
712.239	373.06
712.682	402.16
713.126	430.96
713.569	471.86
714.012	381.36
714.456	326.26
714.899	302.06
715.342	285.16
715.786	273.46
716.229	275.46
716.672	272.06
717.115	263.86
717.558	258.56
718.002	264.36
718.445	280.06
718.888	294.56
719.331	305.16
719.774	322.06
720.217	311.76
720.66	300.66
721.103	283.36
721.546	272.96
721.989	265.96
722.432	241.86
722.874	246.66
723.317	247.96
723.76	252.46
724.203	266.56
724.645	338.46
725.088	479.56
725.531	600.26
725.974	668.66
726.416	574.66
726.859	331.06
727.301	259.06
727.744	247.16
728.187	247.76
728.629	249.36
729.071	254.46
729.514	271.76
729.956	282.46
730.399	298.16
730.841	306.96
731.283	284.16
731.726	279.26
732.168	283.86
732.61	287.06
733.053	303.86
733.495	329.56
733.937	375.76
734.379	425.66
734.821	462.46
735.263	594.26
735.705	921.36
736.148	1743.86
736.59	2772.86
737.032	3171.86
737.474	2620.66
737.916	863.26
738.357	464.96
738.799	351.36
739.241	312.06
739.683	289.16
740.125	312.06
740.567	307.56
741.008	329.66
741.45	334.16
741.892	336.46
742.334	375.16
742.775	385.06
743.217	365.56
743.658	291.86
744.1	271.76
744.542	281.26
744.983	330.76
745.425	367.36
745.866	372.26
746.307	289.16
746.749	291.26
747.19	344.36
747.632	496.26
748.073	972.06
748.514	2043.76
748.956	3024.26
749.397	3830.66
749.838	3159.96
750.279	3079.56
750.72	1579.76
751.162	585.36
751.603	348.56
752.044	271.86
752.485	225.86
752.926	221.76
753.367	218.56
753.808	210.66
754.249	202.96
754.69	198.46
755.131	192.76
755.572	196.96
756.013	186.76
756.453	194.16
756.894	196.16
757.335	201.46
757.776	205.46
758.216	209.06
758.657	208.96
759.098	219.76
759.538	239.56
759.979	285.26
760.42	414.36
760.86	777.26
761.301	2050.16
761.741	4819.16
762.182	6702.46
762.622	4751.26
763.063	1400.56
763.503	580.56
763.943	342.66
764.384	298.26
764.824	296.46
765.264	279.76
765.705	237.66
766.145	204.86
766.585	185.16
767.025	183.06
767.465	175.56
767.906	200.86
768.346	234.36
768.786	238.06
769.226	240.86
769.666	344.56
770.106	691.56
770.546	1694.36
770.986	2783.76
771.426	2465.96
771.866	844.26
772.306	348.36
772.745	214.56
773.185	182.16
773.625	171.76
774.065	154.16
774.505	177.96
774.944	237.16
775.384	425.96
775.824	685.16
776.263	661.66
776.703	310.86
777.142	181.06
777.582	138.86
778.021	136.56
778.461	128.86
778.9	140.36
779.34	133.96
779.779	115.36
780.219	110.56
780.658	109.86
781.097	117.56
781.537	125.56
781.976	112.36
782.415	106.66
782.855	109.96
783.294	110.16
783.733	110.16
784.172	112.66
784.611	105.66
785.05	114.56
785.489	113.16
785.928	120.66
786.367	127.86
786.806	122.86
787.245	133.56
787.684	136.86
788.123	148.56
788.562	140.56
789.001	124.86
789.44	128.16
789.879	125.86
790.317	123.46
790.756	132.86
791.195	135.26
791.634	153.16
792.072	225.66
792.511	401.76
792.95	1118.46
793.388	2248.46
793.827	1975.76
794.265	716.96
794.704	298.86
795.142	192.76
795.581	154.96
796.019	138.26
796.458	139.06
796.896	134.46
797.334	135.76
797.773	166.96
798.211	229.56
798.649	480.06
799.087	1110.56
799.526	1711.86
799.964	2147.96
800.402	2093.96
800.84	800.96
801.278	319.16
801.716	202.06
802.154	160.06
802.592	156.26
803.03	147.66
803.468	142.66
803.906	151.06
804.344	158.16
804.782	146.26
805.22	139.56
805.658	142.96
806.096	158.76
806.533	174.36
806.971	181.16
807.409	227.06
807.847	347.66
808.284	735.56
808.722	2054.56
809.16	3468.36
809.597	3426.16
810.035	5829.26
810.472	6004.56
810.91	2207.26
811.347	855.06
811.785	432.86
812.222	272.96
812.66	209.36
813.097	171.76
813.535	159.76
813.972	135.66
814.409	123.46
814.846	115.16
815.284	120.56
815.721	114.06
816.158	110.86
816.595	116.56
817.032	168.06
817.47	190.46
817.907	132.46
818.344	111.96
818.781	102.56
819.218	101.16
819.655	139.36
820.092	200.86
820.529	222.66
820.966	183.26
821.403	136.46
821.839	105.86
822.276	102.66
822.713	131.66
823.15	141.46
823.587	125.86
824.023	152.56
824.46	338.86
824.897	963.16
825.333	1422.96
825.77	615.96
826.206	246.36
826.643	142.76
827.08	104.66
827.516	90.36
827.953	84.96
828.389	89.66
828.825	67.36
829.262	65.96
829.698	66.46
830.135	66.76
830.571	67.66
831.007	67.26
831.443	66.96
831.88	66.06
832.316	67.26
832.752	69.86
833.188	68.16
833.624	69.56
834.06	72.56
834.497	74.36
834.933	72.36
835.369	79.06
835.805	71.56
836.241	79.36
836.677	86.66
837.112	90.56
837.548	111.16
837.984	141.86
838.42	217.26
838.856	543.06
839.292	1652.36
839.727	2407.26
840.163	1137.66
840.599	1018.76
841.034	2177.06
841.47	2196.06
841.906	828.66
842.341	354.66
842.777	212.76
843.212	231.76
843.648	209.86
844.083	124.96
844.519	88.26
844.954	72.46
845.39	62.86
845.825	53.26
846.261	54.36
846.696	59.26
847.131	54.26
847.566	56.76
848.002	60.86
848.437	58.66
848.872	69.66
849.307	61.26
849.742	92.86
850.177	199.46
850.613	604.66
851.048	913.16
851.483	403.26
851.918	161.06
852.353	88.06
852.788	52.96
853.223	48.86
853.657	53.16
854.092	54.96
854.527	40.86
854.962	41.86
855.397	43.66
855.832	47.86
856.266	45.16
856.701	41.66
857.136	40.66
857.57	39.86
858.005	54.76
858.44	61.96
858.874	49.26
859.309	54.36
859.743	42.26
860.178	47.46
860.612	41.16
861.047	52.16
861.481	72.16
861.915	77.06
862.35	51.56
862.784	40.76
863.218	35.86
863.653	37.86
864.087	55.56
864.521	54.06
864.955	70.56
865.39	169.06
865.824	183.16
866.258	123.06
866.692	184.96
867.126	192.86
867.56	110.46
867.994	56.86
868.428	37.36
868.862	49.76
869.296	63.66
869.73	56.96
870.164	50.66
870.598	47.06
871.031	46.86
871.465	35.06
871.899	33.96
872.333	22.96
872.766	28.16
873.2	26.46
873.634	28.06
874.067	22.86
874.501	22.46
874.935	34.86
875.368	29.26
875.802	35.46
876.235	26.26
876.669	22.16
877.102	23.26
877.535	31.06
877.969	28.96
878.402	27.86
878.836	21.36
879.269	30.86
879.702	25.06
880.135	20.96
880.569	26.66
881.002	26.16
881.435	19.76
881.868	12.96
882.301	19.16
882.734	23.36
883.167	26.86
883.601	19.86
884.034	27.36
884.467	18.96
884.899	26.66
885.332	23.36
885.765	15.26
886.198	20.66
886.631	18.86
887.064	18.66
887.497	20.46
887.929	20.66
888.362	11.36
888.795	11.66
889.228	21.56
889.66	23.56
890.093	15.76
890.526	12.36
890.958	17.46
891.391	20.86
891.823	21.16
892.256	12.96
892.688	5.96
893.121	11.56
893.553	16.06
893.985	22.76
894.418	17.16
894.85	12.76
895.282	12.26
895.715	23.16
896.147	15.46
896.579	17.26
897.011	16.86
897.444	16.96
897.876	17.46
898.308	14.06
898.74	13.46
899.172	14.26
899.604	17.76
900.036	21.96
900.468	19.46
900.9	15.36
901.332	19.26
901.764	13.76
902.196	16.96
902.628	20.46
903.06	18.96
903.491	32.36
903.923	23.46
904.355	18.16
904.787	29.56
905.218	28.26
905.65	26.46
906.082	12.66
906.513	12.46
906.945	16.56
907.376	15.56
907.808	23.56
908.239	20.96
908.671	20.46
909.102	22.26
909.534	22.56
909.965	52.46
910.397	102.16
910.828	335.56
911.259	497.46
911.691	229.66
912.122	109.76
912.553	55.16
912.984	39.66
913.415	27.46
913.847	24.66
914.278	17.46
914.709	13.86
915.14	19.16
915.571	12.46
916.002	14.06
916.433	23.26
916.864	23.16
917.295	17.26
917.726	25.46
918.157	14.66
918.587	25.96
919.018	25.46
919.449	24.36
919.88	28.56
920.311	26.76
920.741	52.96
921.172	176.26
921.603	156.16
922.033	76.66
922.464	53.26
922.895	24.46
923.325	20.26
923.756	8.86
924.186	12.16
924.617	19.76
925.047	22.76
925.478	31.66
925.908	28.16
926.338	16.36
926.769	9.56
927.199	24.56
927.629	11.66
928.06	16.26
928.49	14.96
928.92	14.46
929.35	12.66
929.78	9.96
930.21	12.26
930.641	8.66
931.071	9.66
931.501	4.76
931.931	8.76
932.361	10.26
932.791	5.56
933.221	4.16
933.651	4.26
934.08	15.96
934.51	32.26
934.94	12.96
935.37	13.06
935.8	14.76
936.229	7.36
936.659	12.36
937.089	1.06
937.519	12.56
937.948	22.96
938.378	13.96
938.807	8.56
939.237	10.66
939.666	10.76
940.096	-4.14
940.525	3.06
940.955	-2.04
941.384	5.76
941.814	0.26
942.243	1.06
942.672	1.36
943.102	0.76
943.531	2.46
943.96	-3.44
944.39	4.26
944.819	4.36
945.248	-0.64
945.677	3.86
946.106	9.06
946.535	4.76
946.964	1.46
947.393	0.66
947.822	1.26
948.251	-4.14
948.68	1.06
949.109	3.36
949.538	0.56
949.967	-0.64
950.396	3.56
950.825	0.56
951.254	5.86
951.682	-10.44
952.111	2.16
952.54	7.66
952.969	-2.84
953.397	-6.34
953.826	0.16
954.254	-7.44
954.683	5.46
955.112	-4.64
955.54	-0.14
955.969	-0.94
956.397	2.76
956.826	-5.34
957.254	4.76
957.682	0.96
958.111	6.96
958.539	-4.84
958.967	-2.54
959.396	-4.04
959.824	-4.14
960.252	4.96
960.68	-6.74
961.109	-6.04
961.537	-1.64
961.965	-1.44
962.393	-3.84
962.821	0.36
963.249	-1.34
963.677	3.56
964.105	2.16
964.533	44.86
964.961	47.56
965.389	20.76
965.817	12.96
966.245	0.36
966.672	1.56
967.1	-5.04
967.528	-1.54
967.956	-2.44
968.383	-1.14
968.811	-3.44
969.239	-0.24
969.666	-3.54
970.094	3.36
970.522	0.46
970.949	-9.54
971.377	-5.84
971.804	-0.04
972.232	-4.04
972.659	2.76
973.087	-6.44
973.514	1.16
973.941	-3.34
974.369	0.06
974.796	4.76
975.223	-0.24
975.651	-3.84
976.078	0.96
976.505	2.36
976.932	2.86
977.359	12.76
977.786	18.86
978.214	-0.74
978.641	0.56
979.068	-1.94
979.495	-11.24
979.922	-5.44
980.349	-5.34
980.776	-2.44
981.202	-5.14
981.629	6.56
982.056	6.76
982.483	1.36
982.91	-0.64
983.337	-11.24
983.763	4.06
984.19	-8.04
984.617	-8.64
985.043	-5.74
985.47	-3.24
985.897	-4.14
986.323	-7.84
986.75	7.56
987.176	0.26
987.603	-0.84
988.029	1.06
988.456	-0.64
988.882	-0.04
989.308	-11.34
989.735	-1.64
990.161	3.36
990.587	-4.74
991.014	-3.14
991.44	7.56
991.866	-6.64
992.292	-7.04
992.719	-4.04
993.145	4.86
993.571	-9.14
993.997	-6.44
994.423	-1.14
994.849	-2.64
995.275	-2.64
995.701	-1.14
996.127	-3.44
996.553	1.06
996.979	-3.04
997.405	-3.64
997.83	-2.64
998.256	-9.54
998.682	-3.74
999.108	-6.44
999.534	-2.44
999.959	-3.94
1000.385	-3.94
1000.811	5.16
1001.236	-8.34
1001.662	-6.54
1002.087	-4.64
1002.513	2.06
1002.938	-2.84
1003.364	3.16
1003.789	2.36
1004.215	-0.04
1004.64	-0.34
1005.066	4.36
1005.491	0.36
1005.916	-1.54
1006.342	1.96
1006.767	-5.04
1007.192	6.16
1007.617	-2.54
1008.042	-2.74
1008.468	-9.54
1008.893	-1.64
1009.318	-5.04
1009.743	-5.24
1010.168	0.76
1010.593	3.06
1011.018	-9.44
1011.443	-0.14
1011.868	4.26
1012.293	-2.84
1012.718	-8.04
1013.143	2.76
1013.567	4.86
1013.992	-2.94
1014.417	-11.84
1014.842	-2.04
1015.267	-3.54
1015.691	-5.14
1016.116	1.66
1016.541	2.36
1016.965	3.36
1017.39	1.46
1017.814	-0.94
1018.239	-7.14
1018.663	-11.44
1019.088	-9.24
1019.512	-3.74
1019.937	-3.74
1020.361	-8.84
1020.785	-12.74
1021.21	-6.94
1021.634	-5.34
1022.058	-1.94
1022.483	4.16
1022.907	-1.34
1023.331	-3.14
1023.755	-5.94
1024.179	-8.54
1024.604	-8.84
1025.028	-4.44
1025.452	-6.04
1025.876	-4.44
1026.3	-1.14
1026.724	-9.04
1027.148	-6.84
1027.572	-11.64
1027.996	-3.44
1028.42	-2.74
1028.843	-5.34
1029.267	-3.64
1029.691	-4.14
1030.115	-8.24
1030.539	-9.04
1030.962	-6.64
1031.386	-11.24
1031.81	-2.84
1032.233	-3.04
1032.657	0.76
1033.08	-4.14
1033.504	-5.84
1033.927	-4.34
1034.351	-2.14
1034.774	-5.54
1035.198	-4.04
1035.621	-4.04
1036.045	-5.84
1036.468	-1.74
1036.891	-12.44
1037.315	-8.94
1037.738	-6.84
1038.161	-1.94
1038.584	-4.64
1039.008	-7.64
1039.431	-9.24
1039.854	-3.84
1040.277	-10.04
1040.7	-12.24
1041.123	0.26
1041.546	-5.64
1041.969	-6.14
1042.392	-3.34
1042.815	0.16
1043.238	-5.84
1043.661	3.36
1044.084	-4.44
1044.507	-4.44
1044.93	-2.94
1045.352	-1.14
1045.775	1.46
1046.198	-5.54
1046.621	-5.04
1047.043	-1.24
1047.466	11.76
1047.889	-3.64
1048.311	-8.34
1048.734	-1.94
1049.156	-2.24
1049.579	-7.04
1050.001	-3.54
1050.424	-3.14
1050.846	-3.74
1051.269	-1.04
1051.691	-4.54
1052.113	-2.14
1052.536	-6.14
1052.958	-1.84
1053.38	-10.04
1053.802	-14.34
1054.225	0.76
1054.647	-15.14
1055.069	-4.74
1055.491	1.16
1055.913	-10.14
1056.335	-1.04
1056.757	-10.84
1057.179	-8.44
1057.601	-6.14
1058.023	-1.44
1058.445	-7.24
1058.867	-3.64
1059.289	-7.24
1059.711	-11.74
1060.133	-3.64
1060.555	0.86
1060.976	-10.54
1061.398	-6.24
1061.82	-8.54
1062.241	1.36
1062.663	-11.64
1063.085	-1.94
1063.506	-1.84
1063.928	-5.74
1064.35	-7.14
1064.771	-14.14
1065.193	-0.24
1065.614	-9.94
1066.035	-3.04
1066.457	-1.74
1066.878	1.56
1067.3	-4.44
1067.721	-3.04
1068.142	-4.04
1068.564	-1.74
1068.985	-5.84
1069.406	-7.24
1069.827	-6.94
1070.248	-2.44
1070.67	-11.34
1071.091	-3.84
1071.512	-3.44
1071.933	0.06
1072.354	-4.44
1072.775	-4.04
1073.196	-10.14
1073.617	-1.24
1074.038	-2.24
1074.459	-0.94
1074.88	-8.84
1075.3	1.96
1075.721	-4.14
1076.142	-0.24
1076.563	-5.84
1076.983	-11.34
1077.404	-6.34
1077.825	-10.24
1078.246	-2.54
1078.666	-7.44
1079.087	-5.64
1079.507	-9.84
1079.928	-0.74
1080.348	-0.94
1080.769	-9.44
1081.189	-1.14
1081.61	-5.84
1082.03	-5.34
1082.451	-7.44
1082.871	-8.74
1083.291	-11.34
1083.711	-6.94
1084.132	-2.64
1084.552	-4.24
1084.972	-2.64
1085.392	-9.34
1085.813	-5.94
1086.233	-3.74
1086.653	-3.84
1087.073	-5.74
1087.493	-8.84
1087.913	-8.94
1088.333	-7.14
1088.753	-7.64
1089.173	2.76
1089.593	-4.04
1090.013	-0.74
1090.433	-2.34
1090.852	-7.84
1091.272	-0.74
1091.692	-8.64
1092.112	-5.14
1092.531	-15.54
1092.951	-12.14
1093.371	-7.84
1093.79	1.36
1094.21	-7.14
1094.63	-7.44
1095.049	-10.54
1095.469	-4.94
1095.888	-4.44
1096.308	-0.54
1096.727	-0.24
1097.146	-7.64
1097.566	-7.24
1097.985	-6.74
1098.405	-4.34
1098.824	-5.04
1099.243	-7.54
1099.662	-12.84
1100.082	-11.54
1100.501	-3.24
1100.92	-8.14
1101.339	-6.44
1101.758	-4.44
