Data from 20171114-ORNL-Ar_H_NY_Subt18_08-08-40-225.txt Node
Date: Tue Nov 14 08:08:40 EST 2017
User: Ender
Spectrometer: HR+D1039
Trigger mode: 0
Integration Time (sec): 2.730000E-2
Scans to average: 10
Electric dark correction enabled: true
Nonlinearity correction enabled: false
Boxcar width: 0
XAxis mode: Wavelengths
Number of Pixels in Spectrum: 2048
>>>>>Begin Spectral Data<<<<<
187.836	-0.09
188.309	-0.09
188.782	-0.09
189.255	-2.79
189.728	-7.79
190.201	3.81
190.674	2.41
191.147	10.31
191.619	-9.59
192.092	-1.59
192.565	6.81
193.038	0.51
193.511	-1.49
193.984	1.81
194.456	-1.99
194.929	-0.19
195.402	-3.79
195.874	3.61
196.347	0.51
196.82	-3.99
197.292	3.31
197.765	0.41
198.237	-7.29
198.71	-1.99
199.182	-2.19
199.655	2.91
200.127	-0.09
200.6	-0.29
201.072	1.31
201.544	-4.79
202.017	0.01
202.489	0.51
202.961	-1.89
203.433	-2.29
203.906	-9.79
204.378	-0.89
204.85	-3.49
205.322	-2.59
205.794	-4.49
206.266	-5.59
206.739	-6.89
207.211	9.21
207.683	-6.89
208.155	-6.19
208.627	-3.49
209.099	-4.29
209.57	-4.99
210.042	-5.89
210.514	-4.69
210.986	-3.39
211.458	-9.59
211.93	-1.89
212.402	0.81
212.873	-4.99
213.345	-5.09
213.817	-10.59
214.288	-7.99
214.76	-11.29
215.232	-7.29
215.703	-6.49
216.175	-5.99
216.646	-5.29
217.118	-8.39
217.589	-3.79
218.061	3.11
218.532	-3.89
219.004	0.31
219.475	-7.19
219.946	-5.29
220.418	-5.99
220.889	0.91
221.36	3.31
221.832	-2.79
222.303	-9.49
222.774	-0.69
223.245	-9.49
223.717	-2.29
224.188	-2.59
224.659	-10.29
225.13	-3.69
225.601	-1.49
226.072	4.41
226.543	-2.89
227.014	0.21
227.485	0.51
227.956	-8.49
228.427	-7.39
228.898	-4.39
229.369	4.41
229.839	-5.49
230.31	-3.59
230.781	7.31
231.252	-1.59
231.722	-1.39
232.193	-5.29
232.664	-3.29
233.135	-3.39
233.605	-3.69
234.076	-2.29
234.546	-1.59
235.017	1.21
235.487	1.01
235.958	1.71
236.428	-7.19
236.899	0.71
237.369	0.51
237.84	-2.29
238.31	5.11
238.78	0.31
239.251	-0.29
239.721	-3.39
240.191	-3.89
240.662	-1.79
241.132	2.31
241.602	-3.59
242.072	-0.89
242.542	5.21
243.013	-3.39
243.483	0.81
243.953	4.41
244.423	-1.89
244.893	-10.09
245.363	-1.39
245.833	2.11
246.303	-0.39
246.773	-1.39
247.243	0.81
247.712	-0.39
248.182	6.51
248.652	4.11
249.122	-13.49
249.592	0.41
250.061	5.31
250.531	9.41
251.001	2.21
251.471	8.01
251.94	9.31
252.41	6.41
252.879	-1.79
253.349	2.71
253.818	0.91
254.288	-0.49
254.757	10.71
255.227	-3.09
255.696	-3.79
256.166	2.21
256.635	-2.09
257.105	2.61
257.574	1.11
258.043	3.81
258.513	-0.39
258.982	5.31
259.451	0.11
259.92	8.61
260.389	7.01
260.859	9.31
261.328	9.51
261.797	8.01
262.266	4.21
262.735	2.01
263.204	2.81
263.673	0.01
264.142	9.01
264.611	-7.19
265.08	-3.49
265.549	0.01
266.018	1.11
266.487	-2.09
266.955	-3.29
267.424	-0.89
267.893	1.21
268.362	-0.19
268.83	4.91
269.299	11.11
269.768	3.51
270.236	1.41
270.705	4.71
271.174	-2.69
271.642	1.41
272.111	1.71
272.579	5.91
273.048	6.51
273.516	5.51
273.985	8.31
274.453	11.61
274.922	11.31
275.39	5.41
275.858	-1.09
276.327	9.31
276.795	17.01
277.263	1.61
277.731	11.11
278.2	24.31
278.668	22.41
279.136	22.31
279.604	4.71
280.072	15.61
280.54	5.21
281.008	6.71
281.477	5.51
281.945	7.81
282.413	12.61
282.881	10.71
283.348	10.11
283.816	10.51
284.284	9.41
284.752	14.61
285.22	14.31
285.688	5.91
286.156	10.21
286.623	19.31
287.091	19.01
287.559	12.71
288.026	11.11
288.494	8.71
288.962	-1.29
289.429	9.71
289.897	16.11
290.364	14.31
290.832	17.61
291.3	15.71
291.767	13.71
292.234	10.31
292.702	10.41
293.169	10.21
293.637	14.61
294.104	13.81
294.571	4.61
295.039	9.51
295.506	9.11
295.973	15.91
296.44	15.61
296.908	11.81
297.375	12.91
297.842	18.31
298.309	5.81
298.776	6.01
299.243	17.91
299.71	2.91
300.177	17.21
300.644	10.41
301.111	4.61
301.578	17.41
302.045	14.81
302.512	21.91
302.979	20.81
303.446	13.81
303.913	14.41
304.379	15.41
304.846	22.11
305.313	22.31
305.78	12.81
306.246	21.81
306.713	24.61
307.18	22.31
307.646	28.91
308.113	18.51
308.579	20.21
309.046	23.41
309.512	26.21
309.979	11.51
310.445	27.31
310.912	22.21
311.378	25.91
311.845	25.81
312.311	25.01
312.777	25.61
313.244	29.71
313.71	31.51
314.176	22.51
314.642	25.41
315.109	23.31
315.575	31.01
316.041	29.91
316.507	24.01
316.973	36.71
317.439	26.01
317.905	30.51
318.371	31.11
318.837	27.01
319.303	21.61
319.769	28.61
320.235	28.41
320.701	27.71
321.167	30.61
321.633	31.41
322.099	34.01
322.564	38.41
323.03	35.71
323.496	29.21
323.962	29.91
324.427	33.21
324.893	36.71
325.359	33.31
325.824	34.71
326.29	25.91
326.755	33.71
327.221	34.71
327.686	29.61
328.152	41.51
328.617	32.81
329.083	45.21
329.548	44.21
330.014	44.71
330.479	34.71
330.944	32.91
331.41	32.01
331.875	34.31
332.34	37.11
332.805	36.71
333.271	41.21
333.736	43.01
334.201	43.91
334.666	48.81
335.131	50.41
335.596	39.71
336.061	47.01
336.526	36.31
336.991	43.81
337.456	49.31
337.921	40.91
338.386	37.61
338.851	37.41
339.316	41.21
339.781	42.81
340.246	45.11
340.711	48.01
341.175	40.31
341.64	39.71
342.105	48.51
342.569	50.71
343.034	50.51
343.499	49.11
343.963	47.11
344.428	56.81
344.893	52.01
345.357	51.51
345.822	55.71
346.286	65.31
346.751	61.91
347.215	61.61
347.679	65.01
348.144	88.31
348.608	75.11
349.073	69.91
349.537	66.11
350.001	71.71
350.465	82.61
350.93	71.31
351.394	74.01
351.858	63.01
352.322	76.11
352.786	76.21
353.25	89.01
353.715	98.21
354.179	88.11
354.643	110.81
355.107	112.61
355.571	98.21
356.035	99.41
356.498	107.21
356.962	105.11
357.426	118.21
357.89	101.41
358.354	81.11
358.818	80.11
359.281	74.41
359.745	68.21
360.209	64.61
360.673	65.01
361.136	72.11
361.6	79.91
362.064	78.41
362.527	81.91
362.991	86.91
363.454	77.21
363.918	74.91
364.381	74.61
364.845	87.91
365.308	88.01
365.772	81.41
366.235	85.51
366.698	84.81
367.162	84.31
367.625	83.51
368.088	90.81
368.552	86.31
369.015	81.61
369.478	91.51
369.941	95.51
370.404	94.11
370.867	97.81
371.331	100.61
371.794	108.51
372.257	99.81
372.72	101.51
373.183	104.51
373.646	91.11
374.109	101.31
374.572	101.01
375.035	100.51
375.497	107.31
375.96	98.31
376.423	100.31
376.886	106.11
377.349	97.61
377.811	95.61
378.274	99.91
378.737	98.61
379.199	111.11
379.662	106.51
380.125	105.81
380.587	102.71
381.05	104.71
381.512	111.21
381.975	126.31
382.437	119.61
382.9	117.01
383.362	121.61
383.825	125.71
384.287	130.71
384.75	127.21
385.212	122.11
385.674	132.21
386.136	133.01
386.599	121.41
387.061	123.71
387.523	119.01
387.985	129.91
388.447	133.31
388.91	134.71
389.372	132.41
389.834	137.01
390.296	134.11
390.758	139.41
391.22	144.11
391.682	163.81
392.144	197.31
392.606	168.21
393.068	150.11
393.529	158.91
393.991	145.11
394.453	137.51
394.915	143.01
395.377	152.21
395.838	157.31
396.3	137.61
396.762	141.21
397.224	135.41
397.685	132.21
398.147	138.41
398.608	127.81
399.07	135.11
399.531	142.61
399.993	151.31
400.454	157.01
400.916	148.11
401.377	147.81
401.839	146.81
402.3	149.01
402.762	159.21
403.223	182.51
403.684	170.11
404.145	160.31
404.607	162.11
405.068	169.11
405.529	170.11
405.99	178.21
406.451	180.51
406.913	178.61
407.374	169.81
407.835	163.51
408.296	169.21
408.757	171.91
409.218	189.41
409.679	184.41
410.14	173.91
410.601	179.91
411.062	180.11
411.522	193.71
411.983	188.81
412.444	179.11
412.905	187.51
413.366	190.31
413.826	198.41
414.287	221.91
414.748	272.61
415.208	251.91
415.669	215.51
416.13	212.91
416.59	214.71
417.051	222.91
417.511	227.51
417.972	246.91
418.432	251.51
418.893	301.91
419.353	264.11
419.814	206.41
420.274	186.41
420.734	189.51
421.195	202.91
421.655	201.71
422.115	211.61
422.576	200.11
423.036	209.51
423.496	218.61
423.956	231.11
424.416	240.81
424.876	276.11
425.336	267.51
425.797	269.31
426.257	266.61
426.717	242.11
427.177	245.81
427.637	235.01
428.097	238.91
428.556	250.21
429.016	280.01
429.476	265.11
429.936	277.91
430.396	278.71
430.856	293.61
431.315	321.21
431.775	362.81
432.235	381.01
432.694	348.41
433.154	364.61
433.614	395.81
434.073	336.91
434.533	286.31
434.993	277.41
435.452	287.51
435.912	297.41
436.371	294.71
436.83	286.01
437.29	269.91
437.749	260.51
438.209	258.91
438.668	286.21
439.127	288.31
439.587	276.11
440.046	254.71
440.505	268.81
440.964	283.01
441.424	333.01
441.883	314.61
442.342	261.71
442.801	231.41
443.26	234.21
443.719	235.01
444.178	230.71
444.637	229.91
445.096	233.01
445.555	234.31
446.014	239.11
446.473	239.61
446.932	250.51
447.391	242.91
447.849	238.01
448.308	230.41
448.767	231.71
449.226	248.51
449.685	253.01
450.143	260.71
450.602	251.01
451.061	242.21
451.519	241.41
451.978	253.11
452.436	246.51
452.895	253.21
453.353	257.41
453.812	255.51
454.27	259.51
454.729	253.61
455.187	255.51
455.646	257.81
456.104	265.21
456.562	268.91
457.021	279.61
457.479	272.61
457.937	287.11
458.395	279.01
458.854	264.11
459.312	272.81
459.77	290.31
460.228	275.01
460.686	254.21
461.144	265.01
461.602	266.41
462.06	258.81
462.518	277.21
462.976	275.61
463.434	276.71
463.892	282.61
464.35	288.41
464.808	302.81
465.266	283.81
465.724	287.61
466.181	294.71
466.639	286.41
467.097	302.51
467.555	312.61
468.012	322.51
468.47	322.21
468.928	340.01
469.385	355.81
469.843	364.51
470.3	369.41
470.758	384.01
471.215	398.11
471.673	425.01
472.13	419.41
472.588	431.51
473.045	403.41
473.503	391.31
473.96	420.11
474.417	420.41
474.875	462.51
475.332	497.41
475.789	489.71
476.246	491.21
476.704	507.41
477.161	530.21
477.618	544.51
478.075	578.61
478.532	642.81
478.989	697.11
479.446	816.11
479.903	783.61
480.36	814.21
480.817	874.21
481.274	955.71
481.731	1061.61
482.188	1127.11
482.645	1250.31
483.102	1340.51
483.558	1471.61
484.015	1502.81
484.472	1473.41
484.929	1447.21
485.385	1405.11
485.842	1364.51
486.299	1315.51
486.755	1282.11
487.212	1077.31
487.668	921.51
488.125	861.81
488.582	791.51
489.038	757.81
489.494	725.81
489.951	702.01
490.407	685.21
490.864	666.51
491.32	663.01
491.776	656.21
492.233	670.41
492.689	633.51
493.145	637.31
493.602	628.41
494.058	638.41
494.514	628.21
494.97	655.51
495.426	676.21
495.882	647.41
496.338	636.91
496.794	642.31
497.251	632.11
497.707	655.51
498.163	649.71
498.618	664.51
499.074	672.81
499.53	696.91
499.986	693.31
500.442	678.81
500.898	653.11
501.354	645.61
501.809	651.51
502.265	657.41
502.721	661.31
503.177	684.11
503.632	678.81
504.088	671.51
504.543	706.71
504.999	717.51
505.455	675.71
505.91	656.71
506.366	665.11
506.821	654.71
507.277	653.71
507.732	656.71
508.187	659.71
508.643	665.11
509.098	667.61
509.553	680.31
510.009	702.41
510.464	709.51
510.919	722.21
511.375	734.21
511.83	738.91
512.285	751.61
512.74	795.91
513.195	816.91
513.65	796.61
514.105	797.71
514.56	810.21
515.015	814.51
515.47	819.41
515.925	814.61
516.38	813.31
516.835	827.71
517.29	804.11
517.745	810.31
518.2	800.41
518.655	784.61
519.109	774.91
519.564	768.91
520.019	755.71
520.474	752.41
520.928	748.21
521.383	744.61
521.838	740.01
522.292	749.81
522.747	738.41
523.201	726.21
523.656	732.31
524.11	722.11
524.565	726.01
525.019	726.91
525.474	734.01
525.928	718.21
526.382	728.11
526.837	730.21
527.291	727.01
527.745	736.51
528.2	728.31
528.654	726.71
529.108	715.51
529.562	722.61
530.016	714.71
530.47	716.51
530.925	717.91
531.379	722.91
531.833	732.61
532.287	734.71
532.741	726.61
533.195	737.01
533.649	747.31
534.103	747.41
534.556	729.81
535.01	740.71
535.464	728.81
535.918	754.21
536.372	743.21
536.826	739.01
537.279	736.31
537.733	746.91
538.187	741.61
538.64	751.11
539.094	758.31
539.548	760.11
540.001	753.31
540.455	751.61
540.908	760.81
541.362	774.61
541.815	783.01
542.269	788.61
542.722	798.11
543.175	803.41
543.629	799.41
544.082	830.01
544.536	823.71
544.989	825.01
545.442	822.51
545.895	825.51
546.349	836.81
546.802	839.81
547.255	839.71
547.708	838.21
548.161	848.51
548.614	861.91
549.067	872.61
549.52	857.81
549.973	861.21
550.426	852.41
550.879	843.71
551.332	837.31
551.785	847.51
552.238	848.51
552.691	863.71
553.144	864.71
553.596	888.91
554.049	909.31
554.502	935.61
554.955	957.51
555.407	943.91
555.86	942.51
556.313	930.61
556.765	926.01
557.218	914.81
557.67	919.51
558.123	930.51
558.576	923.51
559.028	911.21
559.48	928.51
559.933	910.81
560.385	876.01
560.838	850.11
561.29	825.41
561.742	822.11
562.195	801.41
562.647	802.11
563.099	814.01
563.551	810.81
564.004	814.91
564.456	805.51
564.908	797.51
565.36	787.51
565.812	764.41
566.264	758.01
566.716	752.31
567.168	748.51
567.62	745.11
568.072	729.11
568.524	731.91
568.976	726.11
569.428	710.31
569.88	710.21
570.332	722.01
570.784	724.71
571.235	725.91
571.687	741.71
572.139	739.91
572.59	748.21
573.042	744.41
573.494	741.61
573.945	740.41
574.397	721.41
574.849	730.71
575.3	724.81
575.752	718.21
576.203	718.91
576.655	724.91
577.106	703.31
577.557	701.01
578.009	700.11
578.46	696.91
578.912	697.21
579.363	702.61
579.814	696.21
580.265	699.41
580.717	711.51
581.168	705.91
581.619	708.51
582.07	721.71
582.521	710.61
582.972	697.91
583.423	712.11
583.875	713.11
584.326	727.01
584.777	749.51
585.227	776.21
585.678	812.41
586.129	842.31
586.58	889.81
587.031	910.01
587.482	976.31
587.933	1038.41
588.384	980.31
588.834	868.01
589.285	817.11
589.736	813.61
590.186	808.91
590.637	807.11
591.088	782.21
591.538	770.41
591.989	758.41
592.439	762.31
592.89	748.51
593.34	742.81
593.791	744.11
594.241	731.11
594.692	741.91
595.142	727.31
595.593	729.61
596.043	743.51
596.493	742.41
596.943	744.61
597.394	752.41
597.844	754.71
598.294	781.71
598.744	791.01
599.195	829.51
599.645	851.51
600.095	909.31
600.545	978.21
600.995	1021.71
601.445	1083.51
601.895	1152.01
602.345	1184.31
602.795	1188.51
603.245	1124.61
603.695	1061.81
604.145	1003.31
604.594	963.71
605.044	907.01
605.494	835.51
605.944	794.01
606.393	770.81
606.843	767.81
607.293	773.41
607.743	760.91
608.192	766.81
608.642	789.01
609.091	793.31
609.541	804.21
609.99	803.31
610.44	796.31
610.889	754.91
611.339	731.51
611.788	718.81
612.238	733.71
612.687	737.11
613.136	733.81
613.586	738.31
614.035	743.61
614.484	757.71
614.933	751.71
615.383	756.71
615.832	751.11
616.281	743.41
616.73	709.61
617.179	690.51
617.628	685.51
618.077	657.61
618.526	650.11
618.975	655.21
619.424	656.31
619.873	638.71
620.322	652.01
620.771	643.81
621.22	631.01
621.669	627.41
622.118	611.11
622.567	601.21
623.015	589.11
623.464	600.11
623.913	589.81
624.361	585.11
624.81	589.71
625.259	586.21
625.707	579.81
626.156	582.51
626.604	602.21
627.053	590.01
627.501	594.51
627.95	606.41
628.398	608.71
628.847	605.71
629.295	602.61
629.744	608.21
630.192	589.11
630.64	589.01
631.089	575.21
631.537	565.71
631.985	569.81
632.433	574.01
632.881	565.61
633.33	594.81
633.778	581.81
634.226	563.21
634.674	577.01
635.122	582.81
635.57	578.81
636.018	600.91
636.466	595.21
636.914	585.81
637.362	592.61
637.81	600.81
638.258	611.31
638.705	615.21
639.153	637.61
639.601	654.81
640.049	676.51
640.497	702.81
640.944	725.81
641.392	679.91
641.84	646.01
642.287	613.41
642.735	598.91
643.182	595.91
643.63	592.41
644.078	589.71
644.525	599.51
644.973	612.81
645.42	622.31
645.867	655.41
646.315	663.91
646.762	696.71
647.21	710.71
647.657	734.31
648.104	767.51
648.551	790.01
648.999	861.81
649.446	929.91
649.893	1022.01
650.34	1171.01
650.787	1394.91
651.234	1727.71
651.682	2228.71
652.129	3020.41
652.576	4323.91
653.023	6289.21
653.47	8477.01
653.917	10486.81
654.363	12044.41
654.81	13148.81
655.257	12485.81
655.704	8292.01
656.151	4971.21
656.598	3280.81
657.044	2339.81
657.491	1829.51
657.938	1477.01
658.385	1230.31
658.831	1086.41
659.278	972.21
659.724	863.91
660.171	799.11
660.618	740.51
661.064	713.21
661.511	689.21
661.957	672.21
662.404	660.91
662.85	669.51
663.296	656.91
663.743	587.91
664.189	558.81
664.635	561.01
665.082	557.21
665.528	551.01
665.974	549.31
666.42	536.01
666.867	529.91
667.313	508.61
667.759	495.51
668.205	474.71
668.651	476.61
669.097	475.11
669.543	478.91
669.989	475.11
670.435	475.51
670.881	466.21
671.327	476.61
671.773	490.01
672.219	523.91
672.665	570.81
673.11	625.11
673.556	664.81
674.002	705.21
674.448	689.91
674.893	586.11
675.339	505.71
675.785	464.21
676.23	451.41
676.676	423.21
677.122	405.91
677.567	395.31
678.013	393.91
678.458	373.01
678.904	380.91
679.349	369.41
679.794	369.91
680.24	375.71
680.685	381.11
681.131	368.41
681.576	378.91
682.021	382.11
682.466	370.01
682.912	373.61
683.357	375.11
683.802	411.51
684.247	442.31
684.692	489.41
685.137	521.91
685.583	562.61
686.028	599.61
686.473	552.61
686.918	469.01
687.363	439.71
687.807	415.21
688.252	386.21
688.697	376.31
689.142	358.41
689.587	361.11
690.032	346.71
690.477	367.31
690.921	375.01
691.366	409.81
691.811	430.31
692.255	455.91
692.7	491.11
693.145	545.51
693.589	758.11
694.034	1220.61
694.478	1651.81
694.923	1841.81
695.367	2376.01
695.812	1271.61
696.256	535.11
696.701	398.11
697.145	368.01
697.59	348.81
698.034	341.51
698.478	345.51
698.922	347.61
699.367	347.31
699.811	354.01
700.255	369.61
700.699	404.51
701.143	446.61
701.588	507.01
702.032	547.41
702.476	551.71
702.92	530.11
703.364	532.11
703.808	710.01
704.252	1148.01
704.696	1571.81
705.14	1778.01
705.584	2248.61
706.027	1135.01
706.471	559.81
706.915	425.21
707.359	370.01
707.803	338.81
708.246	334.71
708.69	335.21
709.134	340.11
709.577	324.61
710.021	340.01
710.465	325.41
710.908	324.81
711.352	316.21
711.795	333.91
712.239	377.41
712.682	403.71
713.126	437.81
713.569	485.91
714.012	385.11
714.456	330.91
714.899	312.01
715.342	290.81
715.786	286.61
716.229	269.11
716.672	269.91
717.115	261.01
717.558	265.61
718.002	269.31
718.445	281.31
718.888	301.71
719.331	312.81
719.774	327.01
720.217	325.41
720.66	304.91
721.103	286.71
721.546	264.11
721.989	264.81
722.432	251.91
722.874	257.41
723.317	242.81
723.76	258.51
724.203	273.61
724.645	345.71
725.088	481.21
725.531	602.61
725.974	684.01
726.416	573.01
726.859	329.01
727.301	260.01
727.744	258.61
728.187	249.51
728.629	254.81
729.071	257.41
729.514	271.61
729.956	290.21
730.399	303.31
730.841	307.71
731.283	290.71
731.726	288.21
732.168	278.21
732.61	284.51
733.053	308.91
733.495	344.21
733.937	378.11
734.379	422.61
734.821	472.41
735.263	592.71
735.705	932.81
736.148	1756.31
736.59	2810.51
737.032	3209.71
737.474	2629.81
737.916	871.01
738.357	459.31
738.799	350.31
739.241	319.01
739.683	302.21
740.125	308.91
740.567	313.21
741.008	327.71
741.45	348.71
741.892	348.71
742.334	368.91
742.775	386.71
743.217	366.81
743.658	289.61
744.1	274.11
744.542	287.11
744.983	334.81
745.425	370.51
745.866	369.01
746.307	304.81
746.749	297.81
747.19	351.21
747.632	503.51
748.073	992.81
748.514	2057.51
748.956	3060.61
749.397	3875.31
749.838	3199.41
750.279	3131.11
750.72	1600.71
751.162	591.51
751.603	350.41
752.044	270.11
752.485	229.51
752.926	230.81
753.367	213.51
753.808	199.91
754.249	204.11
754.69	194.21
755.131	191.91
755.572	199.71
756.013	191.41
756.453	203.61
756.894	202.61
757.335	212.81
757.776	211.81
758.216	204.41
758.657	213.61
759.098	215.81
759.538	247.91
759.979	293.51
760.42	405.81
760.86	795.01
761.301	2066.91
761.741	4870.01
762.182	6762.81
762.622	4816.31
763.063	1421.41
763.503	577.51
763.943	355.81
764.384	303.71
764.824	301.81
765.264	297.91
765.705	250.61
766.145	208.51
766.585	189.71
767.025	188.81
767.465	186.01
767.906	206.91
768.346	242.01
768.786	247.31
769.226	243.71
769.666	338.21
770.106	693.31
770.546	1725.31
770.986	2781.71
771.426	2494.11
771.866	851.41
772.306	348.51
772.745	220.91
773.185	179.11
773.625	172.81
774.065	159.41
774.505	181.91
774.944	236.31
775.384	440.11
775.824	736.31
776.263	696.91
776.703	339.91
777.142	182.11
777.582	147.51
778.021	130.71
778.461	139.51
778.9	134.21
779.34	139.21
779.779	120.11
780.219	116.71
780.658	108.01
781.097	117.21
781.537	117.61
781.976	112.31
782.415	111.31
782.855	100.81
783.294	104.51
783.733	108.41
784.172	116.21
784.611	117.71
785.05	121.71
785.489	117.21
785.928	123.41
786.367	128.91
786.806	130.21
787.245	139.21
787.684	142.91
788.123	159.31
788.562	140.71
789.001	138.41
789.44	127.81
789.879	118.71
790.317	126.01
790.756	138.71
791.195	132.01
791.634	154.21
792.072	223.81
792.511	403.21
792.95	1119.21
793.388	2264.51
793.827	1999.91
794.265	714.61
794.704	296.91
795.142	200.11
795.581	160.81
796.019	142.81
796.458	139.51
796.896	138.31
797.334	141.71
797.773	169.71
798.211	238.61
798.649	491.81
799.087	1116.81
799.526	1745.11
799.964	2177.01
800.402	2111.21
800.84	808.01
801.278	328.91
801.716	196.71
802.154	164.51
802.592	155.61
803.03	156.21
803.468	146.01
803.906	155.61
804.344	160.81
804.782	148.51
805.22	140.31
805.658	137.11
806.096	162.61
806.533	171.41
806.971	184.91
807.409	240.01
807.847	350.91
808.284	750.51
808.722	2061.91
809.16	3523.21
809.597	3464.61
810.035	5864.21
810.472	6031.61
810.91	2232.91
811.347	874.01
811.785	434.31
812.222	277.91
812.66	213.61
813.097	177.21
813.535	146.91
813.972	138.41
814.409	126.81
814.846	116.01
815.284	120.41
815.721	104.81
816.158	109.51
816.595	117.51
817.032	169.81
817.47	192.91
817.907	141.21
818.344	112.31
818.781	110.21
819.218	106.31
819.655	134.51
820.092	203.21
820.529	225.61
820.966	181.41
821.403	135.91
821.839	103.91
822.276	102.71
822.713	129.91
823.15	143.31
823.587	124.41
824.023	160.91
824.46	344.91
824.897	981.61
825.333	1412.31
825.77	621.51
826.206	251.01
826.643	145.01
827.08	110.11
827.516	91.71
827.953	84.81
828.389	91.51
828.825	76.31
829.262	70.91
829.698	67.01
830.135	67.51
830.571	66.31
831.007	73.21
831.443	75.71
831.88	65.71
832.316	67.91
832.752	65.51
833.188	65.71
833.624	64.91
834.06	66.01
834.497	70.71
834.933	68.51
835.369	84.31
835.805	71.21
836.241	84.51
836.677	82.81
837.112	94.51
837.548	105.21
837.984	146.71
838.42	224.41
838.856	561.51
839.292	1663.51
839.727	2429.01
840.163	1153.61
840.599	1028.61
841.034	2213.01
841.47	2213.91
841.906	827.91
842.341	348.61
842.777	213.11
843.212	240.41
843.648	218.41
844.083	127.81
844.519	90.51
844.954	76.61
845.39	65.81
845.825	62.21
846.261	56.81
846.696	55.81
847.131	61.81
847.566	66.21
848.002	58.31
848.437	52.91
848.872	65.01
849.307	59.01
849.742	89.81
850.177	199.41
850.613	607.41
851.048	925.61
851.483	400.31
851.918	166.31
852.353	92.41
852.788	62.81
853.223	51.71
853.657	55.51
854.092	48.41
854.527	42.11
854.962	42.21
855.397	43.81
855.832	49.81
856.266	49.51
856.701	44.31
857.136	36.61
857.57	42.41
858.005	59.01
858.44	61.31
858.874	40.01
859.309	55.61
859.743	51.41
860.178	55.31
860.612	47.81
861.047	57.91
861.481	67.71
861.915	77.71
862.35	49.61
862.784	37.91
863.218	40.81
863.653	40.31
864.087	47.11
864.521	54.11
864.955	73.81
865.39	166.71
865.824	188.41
866.258	125.51
866.692	178.31
867.126	189.01
867.56	112.11
867.994	58.11
868.428	37.31
868.862	51.21
869.296	60.91
869.73	64.11
870.164	56.11
870.598	57.01
871.031	39.51
871.465	37.41
871.899	30.51
872.333	24.91
872.766	27.51
873.2	25.61
873.634	30.81
874.067	31.11
874.501	27.71
874.935	43.61
875.368	33.01
875.802	30.51
876.235	30.21
876.669	26.21
877.102	23.91
877.535	31.81
877.969	21.31
878.402	27.21
878.836	22.11
879.269	24.91
879.702	25.41
880.135	22.61
880.569	24.51
881.002	28.21
881.435	24.61
881.868	23.91
882.301	26.21
882.734	18.71
883.167	29.01
883.601	23.41
884.034	27.51
884.467	14.01
884.899	21.51
885.332	17.31
885.765	12.41
886.198	17.01
886.631	18.61
887.064	24.01
887.497	17.21
887.929	26.51
888.362	13.01
888.795	14.31
889.228	17.71
889.66	18.31
890.093	19.31
890.526	15.61
890.958	19.21
891.391	19.81
891.823	26.11
892.256	17.31
892.688	13.41
893.121	15.21
893.553	14.51
893.985	25.21
894.418	21.51
894.85	12.31
895.282	14.11
895.715	19.61
896.147	21.71
896.579	19.21
897.011	12.71
897.444	20.31
897.876	20.71
898.308	14.81
898.74	19.11
899.172	12.71
899.604	24.91
900.036	19.51
900.468	17.51
900.9	13.21
901.332	17.41
901.764	15.41
902.196	17.41
902.628	21.71
903.06	18.91
903.491	31.21
903.923	24.61
904.355	25.91
904.787	22.31
905.218	24.31
905.65	23.61
906.082	16.81
906.513	14.31
906.945	11.81
907.376	18.01
907.808	16.91
908.239	19.41
908.671	19.81
909.102	26.31
909.534	21.51
909.965	49.91
910.397	96.01
910.828	337.01
911.259	492.01
911.691	226.11
912.122	116.91
912.553	57.21
912.984	37.31
913.415	25.81
913.847	28.61
914.278	12.71
914.709	15.31
915.14	19.31
915.571	16.51
916.002	14.91
916.433	22.21
916.864	19.91
917.295	14.31
917.726	20.01
918.157	17.81
918.587	37.11
919.018	25.21
919.449	24.71
919.88	28.71
920.311	34.31
920.741	59.01
921.172	177.41
921.603	159.61
922.033	75.91
922.464	47.41
922.895	25.91
923.325	20.51
923.756	15.41
924.186	14.41
924.617	18.71
925.047	28.71
925.478	33.61
925.908	29.01
926.338	19.41
926.769	13.21
927.199	18.11
927.629	4.21
928.06	15.71
928.49	13.81
928.92	18.21
929.35	11.71
929.78	11.41
930.21	5.91
930.641	6.21
931.071	4.31
931.501	1.51
931.931	8.41
932.361	8.71
932.791	5.81
933.221	8.71
933.651	6.81
934.08	22.31
934.51	31.61
934.94	10.41
935.37	12.71
935.8	15.91
936.229	9.91
936.659	9.61
937.089	3.41
937.519	14.31
937.948	17.41
938.378	17.21
938.807	4.01
939.237	0.81
939.666	6.61
940.096	1.41
940.525	3.71
940.955	2.21
941.384	4.81
941.814	-6.09
942.243	-5.19
942.672	3.11
943.102	-3.79
943.531	0.41
943.96	8.01
944.39	3.91
944.819	0.71
945.248	3.41
945.677	-0.69
946.106	11.61
946.535	8.11
946.964	1.21
947.393	0.31
947.822	-4.99
948.251	0.21
948.68	2.91
949.109	4.21
949.538	0.71
949.967	1.11
950.396	-1.89
950.825	0.11
951.254	4.11
951.682	-1.99
952.111	3.11
952.54	7.31
952.969	0.51
953.397	-6.49
953.826	-4.59
954.254	-2.59
954.683	4.01
955.112	-2.19
955.54	8.41
955.969	-0.09
956.397	-2.89
956.826	-2.79
957.254	4.11
957.682	-4.49
958.111	3.31
958.539	-1.09
958.967	1.81
959.396	-3.09
959.824	4.11
960.252	2.21
960.68	1.61
961.109	-1.69
961.537	-1.99
961.965	-2.29
962.393	1.71
962.821	-6.49
963.249	-3.39
963.677	2.01
964.105	11.51
964.533	39.31
964.961	38.91
965.389	20.31
965.817	7.11
966.245	3.61
966.672	2.71
967.1	-9.19
967.528	5.51
967.956	1.31
968.383	-3.59
968.811	-0.29
969.239	-0.39
969.666	-0.99
970.094	3.41
970.522	3.01
970.949	-0.99
971.377	-0.99
971.804	-0.59
972.232	-1.79
972.659	-4.69
973.087	-6.89
973.514	-10.19
973.941	-1.59
974.369	3.11
974.796	0.71
975.223	4.71
975.651	0.61
976.078	1.51
976.505	0.11
976.932	8.11
977.359	12.71
977.786	21.21
978.214	-2.69
978.641	-1.29
979.068	-2.19
979.495	-3.69
979.922	-2.39
980.349	-2.19
980.776	-0.49
981.202	3.21
981.629	8.31
982.056	1.41
982.483	-7.79
982.91	3.71
983.337	-2.09
983.763	1.21
984.19	-5.49
984.617	1.31
985.043	-8.79
985.47	2.31
985.897	-6.99
986.323	-3.59
986.75	6.61
987.176	3.01
987.603	2.21
988.029	5.51
988.456	2.01
988.882	-0.09
989.308	-1.79
989.735	-5.59
990.161	0.81
990.587	-8.19
991.014	7.71
991.44	5.71
991.866	-2.89
992.292	-5.19
992.719	-5.09
993.145	4.51
993.571	-8.29
993.997	-0.39
994.423	-3.39
994.849	-4.79
995.275	-4.69
995.701	2.71
996.127	-1.49
996.553	2.81
996.979	-1.49
997.405	1.01
997.83	-2.89
998.256	-5.09
998.682	-3.59
999.108	-14.99
999.534	1.31
999.959	2.21
1000.385	-4.89
1000.811	-4.09
1001.236	-8.09
1001.662	-7.09
1002.087	-9.99
1002.513	-1.79
1002.938	-0.29
1003.364	-0.19
1003.789	-2.59
1004.215	1.51
1004.64	-0.79
1005.066	1.31
1005.491	3.71
1005.916	-2.69
1006.342	-2.29
1006.767	-6.49
1007.192	8.21
1007.617	-1.49
1008.042	-6.59
1008.468	-4.19
1008.893	-3.59
1009.318	-0.49
1009.743	-3.19
1010.168	9.41
1010.593	10.01
1011.018	-5.49
1011.443	-4.19
1011.868	-1.69
1012.293	-1.29
1012.718	-4.99
1013.143	4.51
1013.567	1.11
1013.992	-5.29
1014.417	-14.99
1014.842	4.31
1015.267	-8.89
1015.691	-1.29
1016.116	-1.59
1016.541	2.41
1016.965	2.11
1017.39	0.01
1017.814	-3.39
1018.239	2.31
1018.663	-7.89
1019.088	-4.59
1019.512	2.71
1019.937	2.41
1020.361	-10.09
1020.785	-10.19
1021.21	-0.69
1021.634	0.21
1022.058	-0.89
1022.483	1.51
1022.907	-3.39
1023.331	3.11
1023.755	0.21
1024.179	-0.69
1024.604	-2.19
1025.028	-5.99
1025.452	-5.89
1025.876	-4.19
1026.3	2.01
1026.724	-10.79
1027.148	-5.29
1027.572	-3.79
1027.996	-6.29
1028.42	0.61
1028.843	-6.49
1029.267	-6.49
1029.691	-5.49
1030.115	-6.49
1030.539	-9.69
1030.962	-4.49
1031.386	-14.19
1031.81	0.11
1032.233	1.21
1032.657	-3.09
1033.08	-4.39
1033.504	-0.69
1033.927	-1.49
1034.351	-2.19
1034.774	-4.79
1035.198	-0.59
1035.621	-1.59
1036.045	-7.59
1036.468	-2.89
1036.891	-8.09
1037.315	-4.09
1037.738	-4.59
1038.161	3.11
1038.584	-9.39
1039.008	-0.69
1039.431	-5.99
1039.854	-4.39
1040.277	-4.69
1040.7	-7.29
1041.123	-2.49
1041.546	-7.99
1041.969	-3.99
1042.392	-8.69
1042.815	-2.49
1043.238	10.31
1043.661	3.31
1044.084	-6.19
1044.507	-3.49
1044.93	-1.09
1045.352	-4.69
1045.775	-3.59
1046.198	3.11
1046.621	-0.89
1047.043	-3.89
1047.466	1.91
1047.889	-4.99
1048.311	-2.69
1048.734	1.91
1049.156	-0.79
1049.579	1.81
1050.001	-5.59
1050.424	1.01
1050.846	-5.49
1051.269	-7.69
1051.691	-6.89
1052.113	-5.79
1052.536	-1.49
1052.958	-0.29
1053.38	0.81
1053.802	-16.49
1054.225	3.01
1054.647	-4.19
1055.069	-0.79
1055.491	1.31
1055.913	-7.39
1056.335	-2.99
1056.757	-4.59
1057.179	-6.59
1057.601	1.11
1058.023	-3.59
1058.445	-7.79
1058.867	1.91
1059.289	-7.29
1059.711	-3.59
1060.133	-1.59
1060.555	-6.49
1060.976	-8.29
1061.398	-7.79
1061.82	-6.89
1062.241	-6.59
1062.663	-3.49
1063.085	-6.39
1063.506	3.81
1063.928	-3.39
1064.35	0.81
1064.771	-12.59
1065.193	-5.79
1065.614	-2.69
1066.035	-1.49
1066.457	-7.89
1066.878	-2.19
1067.3	-8.19
1067.721	-0.39
1068.142	-0.79
1068.564	-5.29
1068.985	-0.99
1069.406	-3.29
1069.827	-6.29
1070.248	0.61
1070.67	-3.79
1071.091	-6.69
1071.512	-6.09
1071.933	0.41
1072.354	-9.89
1072.775	-7.89
1073.196	-7.49
1073.617	-3.09
1074.038	-6.89
1074.459	-1.99
1074.88	-7.09
1075.3	-3.99
1075.721	-9.49
1076.142	1.41
1076.563	-0.29
1076.983	-7.59
1077.404	-4.19
1077.825	-8.39
1078.246	-5.39
1078.666	-4.79
1079.087	-3.79
1079.507	-7.09
1079.928	2.01
1080.348	1.91
1080.769	-8.99
1081.189	-5.69
1081.61	-4.89
1082.03	-7.69
1082.451	-2.99
1082.871	-4.89
1083.291	-10.49
1083.711	-7.09
1084.132	-3.69
1084.552	-10.19
1084.972	-4.29
1085.392	-6.99
1085.813	-9.89
1086.233	-6.09
1086.653	-2.99
1087.073	-3.49
1087.493	-8.39
1087.913	-7.49
1088.333	-7.59
1088.753	-4.19
1089.173	2.91
1089.593	-1.09
1090.013	4.51
1090.433	1.01
1090.852	-1.59
1091.272	-7.39
1091.692	-1.69
1092.112	-6.59
1092.531	-6.59
1092.951	-8.39
1093.371	2.11
1093.79	2.91
1094.21	-7.69
1094.63	-5.29
1095.049	-3.89
1095.469	-0.09
1095.888	-2.99
1096.308	-3.89
1096.727	1.71
1097.146	-5.99
1097.566	-1.79
1097.985	-6.39
1098.405	-6.89
1098.824	-5.39
1099.243	-6.59
1099.662	-7.09
1100.082	-8.19
1100.501	-0.39
1100.92	-15.79
1101.339	0.01
1101.758	-5.19
