Data from 20171114-ORNL-Ar_H_NY_Subt18_08-07-28-978.txt Node
Date: Tue Nov 14 08:07:28 EST 2017
User: Ender
Spectrometer: HR+D1039
Trigger mode: 0
Integration Time (sec): 2.730000E-2
Scans to average: 10
Electric dark correction enabled: true
Nonlinearity correction enabled: false
Boxcar width: 0
XAxis mode: Wavelengths
Number of Pixels in Spectrum: 2048
>>>>>Begin Spectral Data<<<<<
187.836	-0.89
188.309	-0.89
188.782	-0.89
189.255	-2.39
189.728	-3.69
190.201	3.91
190.674	4.51
191.147	0.01
191.619	-8.69
192.092	0.51
192.565	2.71
193.038	-0.89
193.511	2.21
193.984	1.81
194.456	0.61
194.929	5.01
195.402	-6.29
195.874	1.51
196.347	-4.09
196.82	-4.79
197.292	6.41
197.765	-3.99
198.237	-9.39
198.71	4.11
199.182	-3.49
199.655	0.61
200.127	4.91
200.6	-2.09
201.072	3.81
201.544	-5.19
202.017	-3.69
202.489	0.51
202.961	-0.09
203.433	-3.09
203.906	-5.89
204.378	-11.99
204.85	-5.19
205.322	-9.49
205.794	-4.69
206.266	-5.39
206.739	-8.39
207.211	1.81
207.683	-6.69
208.155	-8.09
208.627	-9.09
209.099	0.11
209.57	-8.79
210.042	-11.39
210.514	-7.19
210.986	-5.79
211.458	-9.59
211.93	-7.39
212.402	6.51
212.873	-0.99
213.345	-15.19
213.817	-8.39
214.288	-4.69
214.76	-14.29
215.232	-7.19
215.703	2.51
216.175	-1.79
216.646	-12.09
217.118	-10.79
217.589	-4.59
218.061	-0.69
218.532	-2.59
219.004	-2.69
219.475	-6.19
219.946	-4.69
220.418	-10.59
220.889	1.51
221.36	-4.89
221.832	-3.29
222.303	-8.89
222.774	-0.69
223.245	-5.69
223.717	-8.79
224.188	-3.99
224.659	-11.69
225.13	-6.69
225.601	-7.79
226.072	3.51
226.543	0.81
227.014	5.51
227.485	1.11
227.956	-7.99
228.427	-3.19
228.898	-2.69
229.369	1.61
229.839	0.01
230.31	-5.89
230.781	-0.09
231.252	-7.29
231.722	-4.69
232.193	-7.09
232.664	-2.99
233.135	-2.79
233.605	-6.19
234.076	-6.69
234.546	-0.89
235.017	6.31
235.487	-2.79
235.958	-3.59
236.428	-4.89
236.899	6.71
237.369	-1.69
237.84	-6.39
238.31	-0.89
238.78	2.51
239.251	-2.89
239.721	-4.79
240.191	2.21
240.662	-1.79
241.132	-5.09
241.602	-6.69
242.072	-0.59
242.542	0.21
243.013	-2.69
243.483	-4.59
243.953	2.91
244.423	-2.49
244.893	-0.29
245.363	-0.69
245.833	-1.39
246.303	-2.79
246.773	-1.99
247.243	-0.19
247.712	1.51
248.182	4.41
248.652	4.41
249.122	-4.69
249.592	8.61
250.061	13.31
250.531	20.21
251.001	5.81
251.471	13.31
251.94	12.21
252.41	8.51
252.879	-5.79
253.349	7.91
253.818	1.91
254.288	-8.19
254.757	2.31
255.227	-1.19
255.696	2.01
256.166	8.31
256.635	-0.59
257.105	3.21
257.574	4.01
258.043	6.21
258.513	0.81
258.982	12.21
259.451	0.81
259.92	10.41
260.389	6.41
260.859	15.11
261.328	13.91
261.797	13.71
262.266	4.01
262.735	14.01
263.204	1.81
263.673	-0.19
264.142	4.71
264.611	-9.29
265.08	1.61
265.549	-1.89
266.018	1.31
266.487	2.71
266.955	-10.19
267.424	-3.69
267.893	-1.69
268.362	-2.69
268.83	1.21
269.299	6.61
269.768	2.81
270.236	3.31
270.705	-2.99
271.174	8.71
271.642	2.31
272.111	7.21
272.579	6.41
273.048	13.81
273.516	20.61
273.985	15.81
274.453	18.81
274.922	13.51
275.39	2.81
275.858	-1.59
276.327	7.81
276.795	14.71
277.263	8.11
277.731	15.11
278.2	39.51
278.668	48.21
279.136	32.11
279.604	7.11
280.072	13.71
280.54	4.61
281.008	7.81
281.477	8.11
281.945	3.41
282.413	6.31
282.881	9.41
283.348	-4.59
283.816	12.61
284.284	8.51
284.752	16.61
285.22	9.41
285.688	11.21
286.156	14.71
286.623	31.11
287.091	32.11
287.559	21.31
288.026	10.41
288.494	7.71
288.962	-0.59
289.429	3.61
289.897	12.31
290.364	6.91
290.832	6.51
291.3	5.11
291.767	13.51
292.234	16.41
292.702	8.31
293.169	15.41
293.637	20.61
294.104	11.51
294.571	3.51
295.039	1.61
295.506	7.31
295.973	7.21
296.44	7.31
296.908	6.91
297.375	5.81
297.842	5.01
298.309	5.11
298.776	4.91
299.243	14.01
299.71	4.91
300.177	14.41
300.644	14.31
301.111	9.61
301.578	13.11
302.045	11.11
302.512	16.11
302.979	23.51
303.446	15.81
303.913	11.11
304.379	11.81
304.846	19.31
305.313	13.71
305.78	13.41
306.246	17.91
306.713	22.91
307.18	14.21
307.646	12.81
308.113	16.51
308.579	17.31
309.046	16.81
309.512	16.01
309.979	14.21
310.445	18.81
310.912	21.51
311.378	22.01
311.845	20.31
312.311	24.21
312.777	25.81
313.244	26.01
313.71	27.11
314.176	21.61
314.642	23.11
315.109	15.31
315.575	26.01
316.041	30.81
316.507	24.81
316.973	28.31
317.439	30.21
317.905	26.81
318.371	27.01
318.837	34.21
319.303	18.91
319.769	26.61
320.235	23.31
320.701	25.21
321.167	25.91
321.633	21.81
322.099	31.11
322.564	34.61
323.03	29.11
323.496	27.11
323.962	36.91
324.427	24.01
324.893	31.71
325.359	28.21
325.824	29.11
326.29	27.01
326.755	27.71
327.221	32.21
327.686	29.91
328.152	31.21
328.617	35.41
329.083	38.01
329.548	36.41
330.014	41.51
330.479	26.51
330.944	34.41
331.41	27.21
331.875	34.81
332.34	37.21
332.805	31.91
333.271	34.51
333.736	30.81
334.201	37.81
334.666	41.91
335.131	41.11
335.596	41.61
336.061	40.11
336.526	34.01
336.991	30.91
337.456	46.41
337.921	40.01
338.386	31.31
338.851	32.91
339.316	40.31
339.781	36.71
340.246	42.21
340.711	38.91
341.175	41.61
341.64	35.71
342.105	39.41
342.569	41.91
343.034	48.81
343.499	42.91
343.963	36.91
344.428	48.41
344.893	48.31
345.357	48.51
345.822	51.61
346.286	48.21
346.751	52.21
347.215	53.91
347.679	54.21
348.144	70.21
348.608	62.61
349.073	53.41
349.537	58.71
350.001	55.01
350.465	71.81
350.93	57.61
351.394	70.11
351.858	52.61
352.322	70.91
352.786	57.01
353.25	77.51
353.715	78.31
354.179	80.01
354.643	95.81
355.107	99.81
355.571	86.11
356.035	82.01
356.498	91.61
356.962	97.01
357.426	99.01
357.89	91.31
358.354	71.11
358.818	63.41
359.281	71.11
359.745	57.11
360.209	60.91
360.673	60.11
361.136	64.81
361.6	70.31
362.064	72.01
362.527	68.51
362.991	73.11
363.454	62.21
363.918	63.81
364.381	58.51
364.845	67.41
365.308	71.51
365.772	74.01
366.235	64.91
366.698	63.21
367.162	73.71
367.625	78.81
368.088	76.11
368.552	79.71
369.015	72.61
369.478	81.11
369.941	83.11
370.404	78.91
370.867	94.31
371.331	91.21
371.794	98.31
372.257	93.81
372.72	99.31
373.183	89.61
373.646	83.81
374.109	83.31
374.572	88.31
375.035	89.31
375.497	85.61
375.96	87.61
376.423	89.61
376.886	93.81
377.349	94.81
377.811	91.01
378.274	90.31
378.737	89.31
379.199	96.11
379.662	94.61
380.125	97.01
380.587	96.11
381.05	101.01
381.512	108.21
381.975	113.81
382.437	113.61
382.9	113.91
383.362	117.71
383.825	120.81
384.287	123.01
384.75	124.71
385.212	125.31
385.674	117.21
386.136	119.51
386.599	110.91
387.061	108.01
387.523	116.01
387.985	117.21
388.447	129.31
388.91	124.91
389.372	136.91
389.834	138.31
390.296	124.81
390.758	132.51
391.22	150.91
391.682	178.11
392.144	256.51
392.606	198.31
393.068	140.51
393.529	143.81
393.991	138.31
394.453	130.71
394.915	135.81
395.377	178.11
395.838	192.11
396.3	139.41
396.762	129.21
397.224	114.41
397.685	117.01
398.147	112.41
398.608	115.01
399.07	115.01
399.531	119.61
399.993	134.31
400.454	140.11
400.916	135.21
401.377	124.01
401.839	137.81
402.3	131.91
402.762	145.21
403.223	159.01
403.684	152.71
404.145	136.01
404.607	143.21
405.068	147.71
405.529	148.31
405.99	165.71
406.451	154.41
406.913	159.01
407.374	151.61
407.835	143.81
408.296	145.91
408.757	146.21
409.218	168.61
409.679	165.01
410.14	160.61
410.601	156.81
411.062	166.01
411.522	169.71
411.983	167.71
412.444	154.91
412.905	160.11
413.366	167.51
413.826	171.61
414.287	203.41
414.748	240.81
415.208	224.01
415.669	189.11
416.13	183.71
416.59	183.51
417.051	197.11
417.511	202.11
417.972	214.01
418.432	227.11
418.893	259.51
419.353	230.41
419.814	179.11
420.274	169.81
420.734	166.21
421.195	176.31
421.655	174.51
422.115	176.91
422.576	177.21
423.036	178.91
423.496	186.91
423.956	199.41
424.416	207.51
424.876	237.11
425.336	238.11
425.797	241.81
426.257	228.01
426.717	210.71
427.177	221.51
427.637	200.31
428.097	219.61
428.556	217.31
429.016	247.01
429.476	243.71
429.936	260.51
430.396	255.91
430.856	271.51
431.315	285.21
431.775	324.81
432.235	358.81
432.694	316.51
433.154	333.01
433.614	364.91
434.073	311.71
434.533	261.01
434.993	256.91
435.452	258.91
435.912	271.71
436.371	258.01
436.83	257.21
437.29	247.31
437.749	224.31
438.209	230.11
438.668	241.11
439.127	264.21
439.587	247.81
440.046	231.21
440.505	239.51
440.964	252.31
441.424	280.41
441.883	286.51
442.342	239.11
442.801	208.61
443.26	200.41
443.719	204.11
444.178	205.51
444.637	193.61
445.096	207.31
445.555	205.51
446.014	213.31
446.473	212.71
446.932	221.01
447.391	210.51
447.849	211.91
448.308	206.51
448.767	206.91
449.226	216.51
449.685	219.41
450.143	230.51
450.602	226.11
451.061	216.31
451.519	210.11
451.978	213.71
452.436	216.41
452.895	222.91
453.353	238.51
453.812	222.91
454.27	224.21
454.729	223.61
455.187	224.01
455.646	223.81
456.104	227.31
456.562	240.21
457.021	241.41
457.479	243.11
457.937	254.51
458.395	247.31
458.854	233.31
459.312	241.71
459.77	256.01
460.228	237.91
460.686	230.21
461.144	235.21
461.602	223.51
462.06	224.11
462.518	239.21
462.976	234.21
463.434	240.91
463.892	244.11
464.35	257.51
464.808	263.11
465.266	249.21
465.724	250.71
466.181	252.91
466.639	256.01
467.097	277.01
467.555	287.21
468.012	280.51
468.47	288.31
468.928	307.61
469.385	316.31
469.843	323.21
470.3	322.51
470.758	332.31
471.215	359.41
471.673	383.41
472.13	379.51
472.588	395.31
473.045	349.51
473.503	355.01
473.96	379.51
474.417	381.91
474.875	406.61
475.332	442.31
475.789	426.81
476.246	434.41
476.704	458.71
477.161	486.21
477.618	494.21
478.075	532.01
478.532	571.81
478.989	643.61
479.446	750.01
479.903	721.11
480.36	762.41
480.817	810.91
481.274	911.21
481.731	1008.61
482.188	1100.61
482.645	1231.41
483.102	1323.71
483.558	1469.41
484.015	1517.81
484.472	1498.81
484.929	1437.61
485.385	1398.51
485.842	1361.81
486.299	1273.31
486.755	1217.51
487.212	1029.71
487.668	875.41
488.125	799.41
488.582	728.61
489.038	699.81
489.494	673.71
489.951	635.81
490.407	637.51
490.864	607.51
491.32	613.01
491.776	603.01
492.233	605.61
492.689	577.41
493.145	574.61
493.602	567.31
494.058	573.41
494.514	576.51
494.97	600.01
495.426	608.71
495.882	593.61
496.338	571.11
496.794	585.41
497.251	577.91
497.707	608.11
498.163	605.21
498.618	609.11
499.074	607.01
499.53	644.11
499.986	636.31
500.442	619.61
500.898	599.31
501.354	591.11
501.809	598.11
502.265	601.01
502.721	617.31
503.177	637.21
503.632	623.61
504.088	628.71
504.543	668.91
504.999	670.01
505.455	621.21
505.91	602.71
506.366	603.11
506.821	592.11
507.277	590.81
507.732	600.31
508.187	590.31
508.643	605.51
509.098	602.81
509.553	615.81
510.009	624.01
510.464	634.41
510.919	655.51
511.375	663.71
511.83	677.11
512.285	684.21
512.74	720.21
513.195	742.81
513.65	732.41
514.105	738.51
514.56	738.21
515.015	759.41
515.47	762.11
515.925	755.01
516.38	751.71
516.835	755.71
517.29	745.01
517.745	746.11
518.2	724.61
518.655	710.41
519.109	700.11
519.564	704.91
520.019	691.81
520.474	684.71
520.928	689.91
521.383	689.11
521.838	676.01
522.292	679.21
522.747	666.01
523.201	667.41
523.656	667.01
524.11	667.51
524.565	661.11
525.019	661.71
525.474	670.61
525.928	680.71
526.382	654.31
526.837	667.61
527.291	668.91
527.745	661.71
528.2	664.71
528.654	661.01
529.108	661.91
529.562	660.21
530.016	649.61
530.47	658.11
530.925	665.81
531.379	668.11
531.833	678.81
532.287	668.31
532.741	662.11
533.195	662.71
533.649	679.51
534.103	681.31
534.556	676.51
535.01	676.41
535.464	675.81
535.918	687.01
536.372	680.81
536.826	675.71
537.279	672.61
537.733	683.21
538.187	682.71
538.64	689.11
539.094	692.01
539.548	693.31
540.001	695.91
540.455	696.81
540.908	704.31
541.362	717.61
541.815	716.51
542.269	731.31
542.722	735.01
543.175	732.81
543.629	743.81
544.082	755.91
544.536	757.11
544.989	749.11
545.442	762.11
545.895	758.41
546.349	754.41
546.802	760.01
547.255	767.01
547.708	778.21
548.161	778.11
548.614	789.51
549.067	795.61
549.52	790.61
549.973	782.71
550.426	771.91
550.879	760.11
551.332	762.21
551.785	769.01
552.238	771.91
552.691	776.51
553.144	795.91
553.596	820.21
554.049	819.21
554.502	857.01
554.955	874.51
555.407	868.11
555.86	862.21
556.313	849.91
556.765	844.01
557.218	847.11
557.67	848.01
558.123	838.51
558.576	832.51
559.028	842.11
559.48	850.11
559.933	848.71
560.385	805.01
560.838	778.01
561.29	754.81
561.742	749.91
562.195	739.11
562.647	737.21
563.099	747.41
563.551	737.21
564.004	753.31
564.456	743.21
564.908	735.81
565.36	716.81
565.812	706.31
566.264	693.81
566.716	692.11
567.168	684.21
567.62	686.31
568.072	676.41
568.524	661.41
568.976	666.61
569.428	649.21
569.88	648.51
570.332	650.41
570.784	665.71
571.235	654.71
571.687	663.81
572.139	684.41
572.59	681.71
573.042	684.81
573.494	676.81
573.945	682.01
574.397	667.01
574.849	658.91
575.3	668.81
575.752	657.61
576.203	659.71
576.655	655.51
577.106	645.01
577.557	636.41
578.009	645.11
578.46	640.91
578.912	640.11
579.363	633.31
579.814	648.91
580.265	638.51
580.717	650.21
581.168	644.81
581.619	649.31
582.07	654.41
582.521	663.21
582.972	634.51
583.423	656.01
583.875	652.91
584.326	670.51
584.777	714.61
585.227	791.71
585.678	871.81
586.129	949.51
586.58	1011.31
587.031	1089.71
587.482	1214.91
587.933	1375.41
588.384	1216.01
588.834	919.81
589.285	768.41
589.736	756.01
590.186	747.51
590.637	737.51
591.088	719.91
591.538	708.11
591.989	713.11
592.439	700.51
592.89	692.91
593.34	680.81
593.791	679.01
594.241	690.31
594.692	694.81
595.142	678.71
595.593	679.51
596.043	677.21
596.493	684.41
596.943	688.81
597.394	691.11
597.844	687.01
598.294	707.41
598.744	731.51
599.195	751.41
599.645	796.51
600.095	829.31
600.545	897.01
600.995	943.01
601.445	995.31
601.895	1049.81
602.345	1103.31
602.795	1073.31
603.245	1030.71
603.695	991.01
604.145	926.61
604.594	880.01
605.044	823.31
605.494	776.31
605.944	724.01
606.393	715.31
606.843	697.91
607.293	714.01
607.743	712.11
608.192	716.41
608.642	729.21
609.091	736.31
609.541	741.61
609.99	749.51
610.44	739.21
610.889	704.31
611.339	677.51
611.788	660.41
612.238	683.11
612.687	690.71
613.136	700.01
613.586	714.91
614.035	697.31
614.484	732.41
614.933	734.01
615.383	735.01
615.832	715.81
616.281	699.81
616.73	661.61
617.179	640.21
617.628	626.91
618.077	608.11
618.526	604.01
618.975	598.71
619.424	602.01
619.873	599.01
620.322	595.51
620.771	591.71
621.22	584.01
621.669	581.11
622.118	561.61
622.567	561.11
623.015	548.51
623.464	553.81
623.913	531.61
624.361	529.11
624.81	529.01
625.259	538.81
625.707	545.21
626.156	539.91
626.604	543.51
627.053	542.41
627.501	542.11
627.95	549.01
628.398	570.11
628.847	542.71
629.295	555.91
629.744	556.61
630.192	553.81
630.64	549.01
631.089	548.71
631.537	554.81
631.985	559.81
632.433	574.61
632.881	568.11
633.33	610.61
633.778	601.11
634.226	545.61
634.674	548.61
635.122	554.31
635.57	572.01
636.018	595.41
636.466	560.31
636.914	534.41
637.362	546.21
637.81	559.31
638.258	562.71
638.705	563.81
639.153	587.51
639.601	600.81
640.049	620.61
640.497	645.91
640.944	669.61
641.392	608.91
641.84	591.41
642.287	565.61
642.735	544.01
643.182	546.61
643.63	560.01
644.078	558.71
644.525	571.21
644.973	572.11
645.42	584.31
645.867	607.31
646.315	620.41
646.762	636.91
647.21	674.61
647.657	680.91
648.104	730.11
648.551	743.51
648.999	813.81
649.446	889.41
649.893	973.51
650.34	1127.61
650.787	1334.11
651.234	1681.51
651.682	2193.51
652.129	3017.71
652.576	4356.01
653.023	6444.81
653.47	8826.61
653.917	10995.31
654.363	12675.01
654.81	13966.51
655.257	13303.91
655.704	8652.21
656.151	5085.81
656.598	3276.91
657.044	2338.41
657.491	1800.61
657.938	1433.31
658.385	1198.31
658.831	1039.71
659.278	931.61
659.724	833.31
660.171	762.51
660.618	695.61
661.064	661.81
661.511	648.81
661.957	627.01
662.404	624.11
662.85	623.41
663.296	599.51
663.743	538.11
664.189	530.61
664.635	519.51
665.082	509.51
665.528	509.81
665.974	497.61
666.42	492.71
666.867	485.01
667.313	475.51
667.759	458.51
668.205	465.31
668.651	467.01
669.097	464.11
669.543	479.81
669.989	456.81
670.435	435.71
670.881	429.61
671.327	437.81
671.773	464.41
672.219	477.01
672.665	529.81
673.11	573.51
673.556	608.21
674.002	652.11
674.448	641.21
674.893	536.51
675.339	464.61
675.785	427.11
676.23	403.81
676.676	378.21
677.122	370.31
677.567	364.91
678.013	361.01
678.458	346.21
678.904	344.21
679.349	341.11
679.794	340.71
680.24	340.71
680.685	332.71
681.131	332.61
681.576	340.21
682.021	341.51
682.466	333.61
682.912	328.91
683.357	342.21
683.802	371.31
684.247	393.11
684.692	440.31
685.137	476.31
685.583	516.31
686.028	547.61
686.473	496.41
686.918	424.41
687.363	407.81
687.807	387.21
688.252	358.11
688.697	344.51
689.142	323.21
689.587	319.91
690.032	317.71
690.477	338.61
690.921	345.81
691.366	367.71
691.811	387.01
692.255	411.91
692.7	447.61
693.145	491.91
693.589	681.91
694.034	1113.51
694.478	1506.81
694.923	1695.61
695.367	2197.81
695.812	1158.41
696.256	475.31
696.701	365.31
697.145	333.61
697.59	318.21
698.034	305.81
698.478	320.71
698.922	308.21
699.367	319.51
699.811	328.31
700.255	345.41
700.699	376.51
701.143	421.91
701.588	462.41
702.032	496.51
702.476	488.71
702.92	467.51
703.364	481.01
703.808	624.21
704.252	1015.61
704.696	1426.31
705.14	1613.41
705.584	2053.71
706.027	1021.61
706.471	508.51
706.915	384.51
707.359	335.21
707.803	315.21
708.246	295.61
708.69	304.81
709.134	306.31
709.577	302.51
710.021	307.91
710.465	298.41
710.908	290.21
711.352	288.51
711.795	301.11
712.239	340.41
712.682	379.31
713.126	409.11
713.569	447.41
714.012	352.81
714.456	312.41
714.899	293.71
715.342	269.81
715.786	249.31
716.229	243.91
716.672	251.91
717.115	240.01
717.558	240.61
718.002	243.01
718.445	248.01
718.888	278.71
719.331	288.61
719.774	293.01
720.217	296.11
720.66	268.91
721.103	259.31
721.546	243.21
721.989	234.31
722.432	222.51
722.874	232.01
723.317	220.51
723.76	224.21
724.203	257.81
724.645	312.21
725.088	433.41
725.531	555.51
725.974	625.41
726.416	533.91
726.859	295.31
727.301	230.91
727.744	226.11
728.187	229.61
728.629	234.91
729.071	236.11
729.514	251.61
729.956	259.91
730.399	271.51
730.841	279.01
731.283	268.31
731.726	265.41
732.168	259.71
732.61	261.91
733.053	281.01
733.495	308.01
733.937	348.91
734.379	395.31
734.821	417.71
735.263	532.01
735.705	831.21
736.148	1578.61
736.59	2538.31
737.032	2979.61
737.474	2410.11
737.916	779.01
738.357	409.51
738.799	316.41
739.241	293.41
739.683	277.41
740.125	283.51
740.567	291.71
741.008	304.01
741.45	304.71
741.892	309.51
742.334	342.01
742.775	344.21
743.217	335.01
743.658	258.01
744.1	245.91
744.542	254.81
744.983	300.41
745.425	321.11
745.866	322.01
746.307	274.21
746.749	278.31
747.19	317.71
747.632	451.71
748.073	868.21
748.514	1846.51
748.956	2795.41
749.397	3487.31
749.838	2884.01
750.279	2893.31
750.72	1448.11
751.162	533.51
751.603	314.91
752.044	238.01
752.485	214.21
752.926	202.01
753.367	198.31
753.808	187.61
754.249	183.61
754.69	185.91
755.131	180.81
755.572	177.81
756.013	181.61
756.453	180.41
756.894	184.31
757.335	188.21
757.776	184.91
758.216	191.61
758.657	191.51
759.098	198.01
759.538	218.01
759.979	257.81
760.42	364.51
760.86	710.21
761.301	1832.31
761.741	4368.61
762.182	6254.31
762.622	4384.21
763.063	1259.31
763.503	531.11
763.943	336.81
764.384	326.11
764.824	361.61
765.264	393.61
765.705	290.31
766.145	200.81
766.585	181.31
767.025	170.31
767.465	176.61
767.906	231.51
768.346	293.91
768.786	308.51
769.226	246.91
769.666	316.51
770.106	617.91
770.546	1553.21
770.986	2575.11
771.426	2294.61
771.866	771.31
772.306	318.21
772.745	203.81
773.185	167.01
773.625	171.11
774.065	155.61
774.505	186.51
774.944	303.61
775.384	649.91
775.824	1168.41
776.263	1119.61
776.703	481.51
777.142	213.01
777.582	151.41
778.021	135.11
778.461	137.51
778.9	129.21
779.34	124.71
779.779	111.61
780.219	108.01
780.658	108.71
781.097	109.71
781.537	109.11
781.976	108.21
782.415	98.61
782.855	95.71
783.294	100.71
783.733	104.71
784.172	106.11
784.611	102.91
785.05	102.11
785.489	110.41
785.928	120.81
786.367	115.41
786.806	120.51
787.245	123.51
787.684	123.21
788.123	143.41
788.562	132.21
789.001	121.71
789.44	115.81
789.879	115.01
790.317	111.81
790.756	132.41
791.195	124.11
791.634	149.91
792.072	202.21
792.511	373.51
792.95	1011.21
793.388	2099.11
793.827	1876.51
794.265	654.21
794.704	267.01
795.142	174.21
795.581	149.21
796.019	128.31
796.458	120.81
796.896	115.41
797.334	123.11
797.773	147.61
798.211	216.51
798.649	438.31
799.087	1003.91
799.526	1564.11
799.964	1974.71
800.402	1952.21
800.84	737.81
801.278	288.41
801.716	174.81
802.154	148.81
802.592	141.11
803.03	132.21
803.468	131.41
803.906	140.61
804.344	144.71
804.782	137.11
805.22	128.11
805.658	125.91
806.096	142.91
806.533	151.21
806.971	166.41
807.409	213.51
807.847	305.81
808.284	659.41
808.722	1870.41
809.16	3223.71
809.597	3081.61
810.035	5351.51
810.472	5604.91
810.91	2019.11
811.347	778.21
811.785	389.81
812.222	241.81
812.66	189.61
813.097	156.61
813.535	137.61
813.972	121.11
814.409	114.01
814.846	104.71
815.284	107.61
815.721	101.31
816.158	102.41
816.595	111.31
817.032	164.21
817.47	187.81
817.907	148.01
818.344	142.91
818.781	113.31
819.218	97.81
819.655	121.11
820.092	187.31
820.529	205.01
820.966	172.11
821.403	128.81
821.839	104.71
822.276	90.81
822.713	120.21
823.15	127.11
823.587	111.41
824.023	144.61
824.46	299.81
824.897	896.01
825.333	1315.11
825.77	553.11
826.206	233.01
826.643	131.91
827.08	100.81
827.516	79.91
827.953	76.81
828.389	75.71
828.825	67.41
829.262	68.61
829.698	60.11
830.135	68.71
830.571	58.61
831.007	62.81
831.443	59.71
831.88	60.31
832.316	58.81
832.752	66.91
833.188	60.01
833.624	67.81
834.06	63.51
834.497	67.91
834.933	72.51
835.369	70.11
835.805	64.51
836.241	72.91
836.677	76.11
837.112	84.21
837.548	99.51
837.984	123.71
838.42	191.31
838.856	496.11
839.292	1513.51
839.727	2241.31
840.163	1049.11
840.599	921.51
841.034	1994.91
841.47	2067.91
841.906	764.61
842.341	330.61
842.777	224.31
843.212	305.91
843.648	300.81
844.083	147.61
844.519	96.21
844.954	68.21
845.39	61.41
845.825	56.11
846.261	55.71
846.696	58.31
847.131	57.41
847.566	56.71
848.002	53.51
848.437	58.21
848.872	59.61
849.307	61.21
849.742	83.71
850.177	172.91
850.613	550.91
851.048	864.01
851.483	370.71
851.918	151.41
852.353	84.41
852.788	53.31
853.223	49.21
853.657	46.31
854.092	45.71
854.527	38.51
854.962	42.91
855.397	33.81
855.832	43.31
856.266	36.91
856.701	32.61
857.136	35.91
857.57	39.41
858.005	48.41
858.44	56.11
858.874	40.21
859.309	55.21
859.743	38.91
860.178	47.11
860.612	38.81
861.047	44.91
861.481	62.31
861.915	69.31
862.35	50.71
862.784	30.51
863.218	38.71
863.653	32.91
864.087	41.71
864.521	52.41
864.955	70.71
865.39	152.21
865.824	163.31
866.258	107.91
866.692	158.31
867.126	169.01
867.56	96.51
867.994	47.31
868.428	40.41
868.862	43.41
869.296	49.21
869.73	59.21
870.164	52.21
870.598	45.81
871.031	38.31
871.465	32.21
871.899	29.71
872.333	21.31
872.766	28.11
873.2	26.51
873.634	29.31
874.067	23.71
874.501	26.81
874.935	29.61
875.368	31.21
875.802	29.21
876.235	24.31
876.669	17.71
877.102	23.71
877.535	23.71
877.969	20.41
878.402	25.41
878.836	17.41
879.269	25.81
879.702	26.91
880.135	25.01
880.569	21.71
881.002	33.11
881.435	17.51
881.868	14.31
882.301	13.31
882.734	12.91
883.167	17.91
883.601	19.21
884.034	13.91
884.467	10.31
884.899	18.51
885.332	12.61
885.765	17.91
886.198	16.41
886.631	19.01
887.064	20.11
887.497	21.11
887.929	27.81
888.362	16.41
888.795	15.81
889.228	15.91
889.66	18.31
890.093	14.81
890.526	12.61
890.958	21.81
891.391	13.01
891.823	24.41
892.256	17.21
892.688	12.21
893.121	17.21
893.553	18.71
893.985	24.21
894.418	13.91
894.85	8.31
895.282	12.81
895.715	11.81
896.147	14.81
896.579	17.11
897.011	9.81
897.444	15.51
897.876	13.61
898.308	20.11
898.74	15.81
899.172	15.01
899.604	17.21
900.036	17.11
900.468	10.81
900.9	12.21
901.332	15.81
901.764	11.51
902.196	15.31
902.628	14.21
903.06	17.11
903.491	26.41
903.923	28.91
904.355	16.91
904.787	21.81
905.218	14.51
905.65	25.51
906.082	18.41
906.513	11.11
906.945	14.41
907.376	11.81
907.808	17.81
908.239	25.41
908.671	18.71
909.102	18.01
909.534	23.01
909.965	45.31
910.397	91.71
910.828	305.81
911.259	465.21
911.691	212.41
912.122	104.91
912.553	50.91
912.984	32.71
913.415	26.81
913.847	23.71
914.278	15.71
914.709	11.11
915.14	16.91
915.571	11.31
916.002	7.41
916.433	14.21
916.864	9.61
917.295	7.91
917.726	23.41
918.157	15.41
918.587	29.21
919.018	21.51
919.449	22.61
919.88	18.61
920.311	27.91
920.741	41.31
921.172	170.11
921.603	148.61
922.033	70.11
922.464	45.41
922.895	24.81
923.325	19.41
923.756	17.61
924.186	12.31
924.617	22.41
925.047	38.31
925.478	51.21
925.908	42.71
926.338	23.71
926.769	13.71
927.199	17.71
927.629	9.21
928.06	17.91
928.49	13.91
928.92	17.41
929.35	12.51
929.78	10.21
930.21	1.41
930.641	11.61
931.071	4.31
931.501	3.71
931.931	5.01
932.361	7.21
932.791	0.81
933.221	3.81
933.651	6.91
934.08	14.81
934.51	27.71
934.94	10.31
935.37	8.71
935.8	11.11
936.229	5.01
936.659	7.81
937.089	-3.49
937.519	11.51
937.948	22.91
938.378	15.51
938.807	5.21
939.237	4.21
939.666	7.01
940.096	-4.09
940.525	-1.39
940.955	0.51
941.384	9.11
941.814	-5.99
942.243	0.81
942.672	5.91
943.102	-0.69
943.531	2.21
943.96	-3.09
944.39	-0.79
944.819	2.81
945.248	-0.09
945.677	-3.19
946.106	8.01
946.535	7.61
946.964	-0.29
947.393	0.91
947.822	0.71
948.251	-5.79
948.68	1.61
949.109	3.71
949.538	9.41
949.967	-1.59
950.396	-5.69
950.825	-0.99
951.254	4.71
951.682	-1.69
952.111	5.91
952.54	2.71
952.969	-3.99
953.397	-6.09
953.826	2.51
954.254	-4.29
954.683	-2.19
955.112	-6.39
955.54	0.21
955.969	3.41
956.397	-6.19
956.826	-0.89
957.254	6.51
957.682	1.21
958.111	9.21
958.539	-2.49
958.967	-3.99
959.396	-0.79
959.824	1.21
960.252	1.01
960.68	-7.89
961.109	-6.19
961.537	-3.29
961.965	-3.99
962.393	-0.89
962.821	-1.79
963.249	2.21
963.677	6.81
964.105	5.11
964.533	41.91
964.961	37.91
965.389	20.31
965.817	7.71
966.245	2.91
966.672	6.31
967.1	-8.19
967.528	-0.69
967.956	-4.09
968.383	0.71
968.811	-9.49
969.239	-3.89
969.666	-9.89
970.094	1.71
970.522	-0.29
970.949	-0.59
971.377	-4.29
971.804	-5.29
972.232	-5.09
972.659	0.51
973.087	-2.89
973.514	-7.39
973.941	-1.39
974.369	-4.99
974.796	-1.29
975.223	-0.09
975.651	-2.79
976.078	3.01
976.505	-1.89
976.932	-0.49
977.359	13.61
977.786	13.41
978.214	3.41
978.641	-6.59
979.068	-4.79
979.495	-7.29
979.922	-5.29
980.349	3.01
980.776	4.51
981.202	-4.19
981.629	4.41
982.056	5.61
982.483	-2.69
982.91	1.31
983.337	-8.19
983.763	0.71
984.19	-4.99
984.617	-2.49
985.043	-5.79
985.47	-4.59
985.897	-4.69
986.323	-6.39
986.75	-2.79
987.176	-7.09
987.603	-1.89
988.029	-3.69
988.456	-2.79
988.882	1.71
989.308	-11.69
989.735	-7.09
990.161	3.11
990.587	-5.29
991.014	5.01
991.44	4.91
991.866	-8.29
992.292	-3.59
992.719	-0.09
993.145	4.31
993.571	-7.39
993.997	-6.79
994.423	-2.49
994.849	-6.79
995.275	-0.09
995.701	-2.69
996.127	-2.19
996.553	-1.49
996.979	-0.79
997.405	-2.69
997.83	-9.39
998.256	-5.69
998.682	-1.99
999.108	-9.29
999.534	-4.09
999.959	-3.79
1000.385	-9.89
1000.811	1.81
1001.236	-6.89
1001.662	-10.09
1002.087	-12.09
1002.513	-3.29
1002.938	3.31
1003.364	-1.59
1003.789	-2.69
1004.215	3.21
1004.64	-1.89
1005.066	1.51
1005.491	-0.09
1005.916	-1.59
1006.342	-3.19
1006.767	-7.09
1007.192	6.21
1007.617	-4.19
1008.042	-3.39
1008.468	-6.39
1008.893	-6.09
1009.318	-2.69
1009.743	-3.89
1010.168	5.11
1010.593	2.91
1011.018	-6.69
1011.443	-3.69
1011.868	0.71
1012.293	-3.69
1012.718	-4.29
1013.143	-1.79
1013.567	2.41
1013.992	-6.59
1014.417	-10.29
1014.842	3.61
1015.267	-6.99
1015.691	-8.89
1016.116	2.01
1016.541	-9.19
1016.965	0.91
1017.39	0.31
1017.814	6.11
1018.239	-2.09
1018.663	-2.49
1019.088	-14.19
1019.512	-4.79
1019.937	2.11
1020.361	-9.39
1020.785	-11.29
1021.21	-5.89
1021.634	-5.29
1022.058	-0.49
1022.483	6.41
1022.907	-1.09
1023.331	-1.19
1023.755	-4.29
1024.179	-3.79
1024.604	-8.49
1025.028	-3.19
1025.452	-2.99
1025.876	-0.19
1026.3	-4.59
1026.724	-12.49
1027.148	-7.89
1027.572	-11.39
1027.996	-6.99
1028.42	-2.79
1028.843	-6.39
1029.267	-8.99
1029.691	-2.89
1030.115	-11.89
1030.539	-11.59
1030.962	-10.89
1031.386	-7.09
1031.81	-1.29
1032.233	1.51
1032.657	-2.79
1033.08	-1.59
1033.504	-5.49
1033.927	-6.59
1034.351	0.91
1034.774	-0.99
1035.198	-3.59
1035.621	-7.39
1036.045	-5.09
1036.468	-1.49
1036.891	-10.29
1037.315	-10.59
1037.738	-6.89
1038.161	-2.89
1038.584	-12.39
1039.008	-4.59
1039.431	-7.99
1039.854	-5.49
1040.277	-4.59
1040.7	-5.99
1041.123	4.61
1041.546	-9.29
1041.969	-2.29
1042.392	-5.89
1042.815	-1.79
1043.238	3.71
1043.661	1.81
1044.084	-8.69
1044.507	-8.09
1044.93	-3.79
1045.352	-6.09
1045.775	-0.99
1046.198	-1.39
1046.621	-2.09
1047.043	-7.59
1047.466	6.91
1047.889	-1.69
1048.311	-9.69
1048.734	-5.39
1049.156	-0.99
1049.579	-4.29
1050.001	0.01
1050.424	1.21
1050.846	-6.39
1051.269	-6.39
1051.691	-7.29
1052.113	-1.69
1052.536	-0.09
1052.958	-3.69
1053.38	-6.99
1053.802	-6.99
1054.225	-3.19
1054.647	-15.09
1055.069	-4.09
1055.491	-3.19
1055.913	0.51
1056.335	-6.69
1056.757	-1.49
1057.179	-2.59
1057.601	-10.59
1058.023	-0.89
1058.445	-9.89
1058.867	-8.09
1059.289	-2.09
1059.711	-6.99
1060.133	-3.59
1060.555	-0.69
1060.976	-10.99
1061.398	-8.09
1061.82	-10.29
1062.241	-9.59
1062.663	-9.89
1063.085	-8.29
1063.506	-2.39
1063.928	-5.99
1064.35	-2.49
1064.771	-12.29
1065.193	-2.99
1065.614	-8.89
1066.035	-1.99
1066.457	-3.69
1066.878	-1.49
1067.3	-7.39
1067.721	-2.79
1068.142	-5.59
1068.564	-3.59
1068.985	-0.19
1069.406	-4.29
1069.827	-14.29
1070.248	-0.69
1070.67	-8.49
1071.091	-3.69
1071.512	-9.79
1071.933	-4.39
1072.354	-9.79
1072.775	-6.69
1073.196	-5.99
1073.617	-5.99
1074.038	-6.89
1074.459	-6.29
1074.88	-7.59
1075.3	-4.99
1075.721	-6.79
1076.142	-0.39
1076.563	-2.39
1076.983	-10.09
1077.404	-5.99
1077.825	-6.69
1078.246	-11.59
1078.666	-6.69
1079.087	-3.49
1079.507	-7.19
1079.928	-2.79
1080.348	-0.59
1080.769	-6.09
1081.189	-5.19
1081.61	-8.59
1082.03	-9.49
1082.451	-5.09
1082.871	-5.69
1083.291	-6.59
1083.711	-11.79
1084.132	-6.39
1084.552	-1.99
1084.972	-3.19
1085.392	-12.29
1085.813	-9.69
1086.233	-7.19
1086.653	-9.69
1087.073	0.01
1087.493	-4.69
1087.913	-6.59
1088.333	-2.39
1088.753	-5.69
1089.173	-0.19
1089.593	-5.79
1090.013	2.41
1090.433	-0.79
1090.852	2.21
1091.272	-1.99
1091.692	0.31
1092.112	-5.09
1092.531	-4.59
1092.951	-9.49
1093.371	0.11
1093.79	-2.89
1094.21	-4.69
1094.63	-6.99
1095.049	-4.49
1095.469	-3.19
1095.888	-5.79
1096.308	1.31
1096.727	4.41
1097.146	-8.99
1097.566	0.21
1097.985	-7.89
1098.405	-2.79
1098.824	-10.69
1099.243	-9.39
1099.662	-7.89
1100.082	-7.79
1100.501	-7.99
1100.92	-6.99
1101.339	-9.99
1101.758	-9.89
