Data from 20171114-ORNL-Ar_H_NY_Subt18_08-07-59-824.txt Node
Date: Tue Nov 14 08:07:59 EST 2017
User: Ender
Spectrometer: HR+D1039
Trigger mode: 0
Integration Time (sec): 2.730000E-2
Scans to average: 10
Electric dark correction enabled: true
Nonlinearity correction enabled: false
Boxcar width: 0
XAxis mode: Wavelengths
Number of Pixels in Spectrum: 2048
>>>>>Begin Spectral Data<<<<<
187.836	-3.21
188.309	-3.21
188.782	-3.21
189.255	2.39
189.728	1.19
190.201	5.69
190.674	6.29
191.147	3.69
191.619	-6.01
192.092	1.39
192.565	0.89
193.038	1.99
193.511	1.69
193.984	-4.51
194.456	-5.41
194.929	-2.41
195.402	-4.11
195.874	0.39
196.347	-7.21
196.82	-6.91
197.292	5.19
197.765	-2.71
198.237	-4.31
198.71	6.39
199.182	2.19
199.655	1.19
200.127	3.69
200.6	-3.31
201.072	-2.71
201.544	-5.71
202.017	0.69
202.489	8.19
202.961	3.89
203.433	2.49
203.906	-6.11
204.378	-4.31
204.85	-3.41
205.322	-13.71
205.794	-4.21
206.266	-5.11
206.739	-6.91
207.211	4.49
207.683	-0.41
208.155	-2.91
208.627	-10.31
209.099	-5.61
209.57	-9.31
210.042	-3.21
210.514	-2.91
210.986	-2.01
211.458	-7.71
211.93	-1.61
212.402	-2.81
212.873	-4.11
213.345	-11.11
213.817	-14.11
214.288	2.89
214.76	-5.01
215.232	-0.81
215.703	-6.91
216.175	-1.51
216.646	-5.51
217.118	-6.91
217.589	-1.41
218.061	-1.91
218.532	-3.31
219.004	-2.01
219.475	-4.11
219.946	1.09
220.418	-3.81
220.889	0.09
221.36	-2.51
221.832	-0.71
222.303	-2.11
222.774	-2.31
223.245	-2.51
223.717	-0.91
224.188	-5.21
224.659	-2.71
225.13	-6.21
225.601	-3.01
226.072	-3.01
226.543	-2.01
227.014	-4.91
227.485	-1.31
227.956	-5.01
228.427	-4.31
228.898	0.39
229.369	2.99
229.839	-2.21
230.31	-8.71
230.781	10.09
231.252	0.79
231.722	-2.51
232.193	-6.21
232.664	-1.11
233.135	1.39
233.605	3.09
234.076	-3.11
234.546	1.09
235.017	8.69
235.487	0.99
235.958	3.49
236.428	-3.71
236.899	4.99
237.369	8.39
237.84	-3.01
238.31	4.39
238.78	2.49
239.251	-1.51
239.721	2.09
240.191	-0.61
240.662	-10.01
241.132	0.39
241.602	-1.21
242.072	8.79
242.542	4.79
243.013	-0.11
243.483	7.79
243.953	4.19
244.423	0.19
244.893	-4.11
245.363	3.79
245.833	-0.21
246.303	-4.21
246.773	4.49
247.243	-3.21
247.712	-0.11
248.182	6.49
248.652	4.59
249.122	-4.71
249.592	9.19
250.061	24.59
250.531	29.19
251.001	10.29
251.471	18.79
251.94	17.99
252.41	6.49
252.879	1.19
253.349	8.99
253.818	5.59
254.288	2.39
254.757	6.39
255.227	4.99
255.696	9.09
256.166	-0.31
256.635	-0.11
257.105	8.29
257.574	2.29
258.043	4.39
258.513	11.39
258.982	15.49
259.451	8.79
259.92	13.69
260.389	12.79
260.859	15.69
261.328	10.49
261.797	15.79
262.266	9.49
262.735	9.79
263.204	2.99
263.673	3.89
264.142	3.69
264.611	0.69
265.08	-0.01
265.549	-3.51
266.018	5.79
266.487	-1.31
266.955	0.09
267.424	-1.71
267.893	3.59
268.362	-2.91
268.83	5.29
269.299	9.59
269.768	5.49
270.236	13.19
270.705	3.49
271.174	7.09
271.642	12.19
272.111	12.29
272.579	16.59
273.048	25.99
273.516	20.29
273.985	27.99
274.453	22.29
274.922	22.09
275.39	9.09
275.858	4.49
276.327	15.09
276.795	15.29
277.263	8.39
277.731	25.79
278.2	49.49
278.668	54.19
279.136	42.59
279.604	16.89
280.072	15.39
280.54	13.59
281.008	7.49
281.477	16.49
281.945	11.79
282.413	20.79
282.881	12.49
283.348	5.39
283.816	15.99
284.284	16.89
284.752	22.29
285.22	8.79
285.688	11.29
286.156	20.39
286.623	40.69
287.091	46.89
287.559	25.39
288.026	11.49
288.494	14.39
288.962	1.29
289.429	5.89
289.897	20.29
290.364	13.79
290.832	19.19
291.3	11.19
291.767	20.99
292.234	17.99
292.702	11.59
293.169	18.59
293.637	24.49
294.104	22.39
294.571	14.69
295.039	11.79
295.506	13.39
295.973	20.99
296.44	18.79
296.908	23.89
297.375	24.29
297.842	25.19
298.309	18.29
298.776	13.79
299.243	28.89
299.71	8.69
300.177	23.19
300.644	23.29
301.111	23.19
301.578	27.69
302.045	8.89
302.512	20.09
302.979	23.49
303.446	23.19
303.913	21.59
304.379	20.59
304.846	30.69
305.313	24.89
305.78	26.79
306.246	30.09
306.713	31.69
307.18	21.79
307.646	29.39
308.113	23.39
308.579	26.39
309.046	22.09
309.512	30.09
309.979	21.49
310.445	21.29
310.912	23.69
311.378	27.09
311.845	30.79
312.311	32.09
312.777	31.69
313.244	29.49
313.71	37.89
314.176	33.59
314.642	31.79
315.109	34.69
315.575	34.59
316.041	39.39
316.507	32.49
316.973	40.09
317.439	34.69
317.905	35.79
318.371	38.09
318.837	33.09
319.303	36.29
319.769	36.59
320.235	33.69
320.701	38.09
321.167	37.29
321.633	24.89
322.099	34.59
322.564	41.69
323.03	42.49
323.496	28.29
323.962	34.49
324.427	33.79
324.893	44.99
325.359	34.59
325.824	35.39
326.29	30.09
326.755	38.69
327.221	41.79
327.686	43.29
328.152	44.99
328.617	36.79
329.083	47.19
329.548	47.69
330.014	49.09
330.479	41.69
330.944	42.99
331.41	38.49
331.875	46.89
332.34	39.59
332.805	44.89
333.271	44.69
333.736	43.69
334.201	53.09
334.666	47.59
335.131	51.19
335.596	49.39
336.061	50.49
336.526	42.09
336.991	44.79
337.456	56.19
337.921	49.09
338.386	44.19
338.851	49.99
339.316	45.39
339.781	44.29
340.246	48.89
340.711	47.59
341.175	48.89
341.64	40.89
342.105	53.19
342.569	47.59
343.034	59.99
343.499	48.09
343.963	53.69
344.428	64.79
344.893	66.19
345.357	61.29
345.822	55.09
346.286	63.09
346.751	72.99
347.215	66.99
347.679	75.19
348.144	91.19
348.608	81.69
349.073	66.09
349.537	70.79
350.001	81.59
350.465	87.99
350.93	80.99
351.394	86.89
351.858	79.19
352.322	87.49
352.786	88.49
353.25	94.79
353.715	106.69
354.179	99.99
354.643	123.19
355.107	122.99
355.571	108.29
356.035	109.89
356.498	123.69
356.962	124.99
357.426	122.59
357.89	109.49
358.354	89.09
358.818	80.59
359.281	75.69
359.745	76.39
360.209	73.49
360.673	76.49
361.136	84.49
361.6	88.19
362.064	84.19
362.527	85.79
362.991	91.59
363.454	76.59
363.918	81.09
364.381	79.19
364.845	83.39
365.308	84.79
365.772	82.39
366.235	84.69
366.698	80.59
367.162	86.59
367.625	85.79
368.088	92.09
368.552	82.39
369.015	92.09
369.478	92.89
369.941	98.19
370.404	95.19
370.867	99.49
371.331	106.49
371.794	110.39
372.257	118.89
372.72	118.99
373.183	111.89
373.646	99.19
374.109	103.79
374.572	101.79
375.035	110.69
375.497	109.19
375.96	109.39
376.423	104.69
376.886	109.89
377.349	114.49
377.811	101.39
378.274	104.69
378.737	107.49
379.199	111.09
379.662	113.89
380.125	113.39
380.587	112.89
381.05	121.69
381.512	132.59
381.975	141.79
382.437	123.69
382.9	128.79
383.362	133.39
383.825	140.49
384.287	152.29
384.75	144.09
385.212	132.09
385.674	137.69
386.136	140.49
386.599	128.79
387.061	122.49
387.523	134.39
387.985	138.89
388.447	149.09
388.91	146.19
389.372	153.09
389.834	159.09
390.296	149.79
390.758	161.69
391.22	170.89
391.682	213.59
392.144	302.29
392.606	235.79
393.068	171.09
393.529	168.79
393.991	153.19
394.453	151.19
394.915	164.99
395.377	203.09
395.838	215.39
396.3	165.29
396.762	138.79
397.224	134.09
397.685	132.79
398.147	133.29
398.608	129.29
399.07	130.99
399.531	143.29
399.993	148.59
400.454	151.79
400.916	143.49
401.377	147.29
401.839	148.79
402.3	155.79
402.762	169.59
403.223	181.09
403.684	172.39
404.145	164.49
404.607	167.79
405.068	167.89
405.529	167.69
405.99	189.39
406.451	182.39
406.913	169.19
407.374	166.89
407.835	161.19
408.296	165.09
408.757	173.69
409.218	186.79
409.679	190.49
410.14	185.19
410.601	184.79
411.062	191.69
411.522	189.59
411.983	192.19
412.444	182.29
412.905	181.59
413.366	180.39
413.826	185.19
414.287	216.89
414.748	265.49
415.208	244.09
415.669	211.69
416.13	212.29
416.59	203.29
417.051	213.79
417.511	218.39
417.972	237.89
418.432	237.99
418.893	287.39
419.353	250.99
419.814	197.59
420.274	195.99
420.734	191.69
421.195	207.49
421.655	203.09
422.115	195.59
422.576	202.99
423.036	202.09
423.496	210.49
423.956	220.19
424.416	226.39
424.876	266.49
425.336	256.59
425.797	271.49
426.257	260.99
426.717	247.49
427.177	238.09
427.637	226.39
428.097	235.19
428.556	250.59
429.016	279.79
429.476	267.99
429.936	276.99
430.396	286.79
430.856	304.99
431.315	326.39
431.775	351.79
432.235	383.49
432.694	356.09
433.154	371.59
433.614	397.89
434.073	345.79
434.533	293.19
434.993	280.19
435.452	293.19
435.912	300.09
436.371	290.29
436.83	287.89
437.29	275.39
437.749	254.09
438.209	247.39
438.668	276.29
439.127	290.29
439.587	272.99
440.046	252.39
440.505	261.39
440.964	277.69
441.424	329.99
441.883	313.09
442.342	262.89
442.801	225.59
443.26	222.39
443.719	221.09
444.178	214.09
444.637	211.89
445.096	222.09
445.555	229.59
446.014	221.29
446.473	226.09
446.932	234.39
447.391	227.99
447.849	230.29
448.308	223.29
448.767	227.69
449.226	240.59
449.685	236.19
450.143	249.19
450.602	242.29
451.061	228.19
451.519	230.09
451.978	234.49
452.436	230.99
452.895	236.29
453.353	261.39
453.812	250.69
454.27	250.69
454.729	242.69
455.187	236.79
455.646	244.39
456.104	250.79
456.562	265.39
457.021	266.99
457.479	264.79
457.937	273.79
458.395	264.79
458.854	252.89
459.312	256.29
459.77	275.99
460.228	253.49
460.686	246.39
461.144	246.19
461.602	242.99
462.06	245.09
462.518	254.69
462.976	252.89
463.434	255.39
463.892	268.19
464.35	280.39
464.808	292.39
465.266	262.79
465.724	273.29
466.181	270.89
466.639	272.69
467.097	292.99
467.555	295.99
468.012	301.69
468.47	313.29
468.928	330.59
469.385	344.29
469.843	345.79
470.3	349.59
470.758	368.59
471.215	381.59
471.673	420.49
472.13	409.09
472.588	429.89
473.045	382.19
473.503	385.99
473.96	397.49
474.417	413.99
474.875	432.79
475.332	482.09
475.789	468.39
476.246	469.89
476.704	484.19
477.161	505.29
477.618	534.29
478.075	568.39
478.532	630.09
478.989	699.99
479.446	814.39
479.903	779.09
480.36	818.99
480.817	871.09
481.274	974.39
481.731	1075.79
482.188	1161.39
482.645	1318.09
483.102	1414.39
483.558	1544.69
484.015	1606.49
484.472	1568.29
484.929	1532.19
485.385	1479.29
485.842	1445.69
486.299	1376.19
486.755	1311.29
487.212	1091.79
487.668	925.59
488.125	855.49
488.582	773.99
489.038	750.29
489.494	708.89
489.951	690.39
490.407	669.19
490.864	655.79
491.32	648.39
491.776	646.09
492.233	651.79
492.689	617.89
493.145	615.49
493.602	606.89
494.058	619.29
494.514	630.19
494.97	650.39
495.426	654.59
495.882	630.89
496.338	613.79
496.794	628.69
497.251	613.39
497.707	637.89
498.163	640.19
498.618	646.79
499.074	644.49
499.53	683.89
499.986	679.99
500.442	652.99
500.898	635.49
501.354	630.59
501.809	637.89
502.265	648.99
502.721	666.79
503.177	670.39
503.632	669.09
504.088	677.99
504.543	722.09
504.999	715.89
505.455	659.69
505.91	639.99
506.366	635.19
506.821	633.49
507.277	629.69
507.732	632.29
508.187	625.09
508.643	636.39
509.098	639.89
509.553	652.69
510.009	663.49
510.464	684.99
510.919	688.99
511.375	694.29
511.83	718.59
512.285	714.19
512.74	756.89
513.195	782.69
513.65	772.69
514.105	763.19
514.56	765.09
515.015	792.19
515.47	807.99
515.925	791.09
516.38	772.29
516.835	795.39
517.29	786.39
517.745	777.99
518.2	771.89
518.655	737.59
519.109	746.79
519.564	746.59
520.019	728.79
520.474	720.69
520.928	718.39
521.383	730.39
521.838	720.09
522.292	706.59
522.747	704.29
523.201	718.39
523.656	700.49
524.11	695.79
524.565	695.09
525.019	696.19
525.474	704.59
525.928	713.39
526.382	697.89
526.837	705.49
527.291	700.99
527.745	693.59
528.2	700.39
528.654	698.69
529.108	688.99
529.562	690.09
530.016	690.69
530.47	688.29
530.925	697.09
531.379	699.69
531.833	712.69
532.287	705.39
532.741	703.89
533.195	714.49
533.649	710.49
534.103	722.49
534.556	711.99
535.01	706.59
535.464	711.89
535.918	720.59
536.372	722.19
536.826	719.59
537.279	717.29
537.733	713.59
538.187	723.09
538.64	719.19
539.094	720.69
539.548	731.49
540.001	716.69
540.455	723.09
540.908	732.49
541.362	744.99
541.815	742.39
542.269	759.79
542.722	763.99
543.175	778.89
543.629	770.99
544.082	784.59
544.536	789.89
544.989	788.09
545.442	799.69
545.895	795.39
546.349	799.29
546.802	789.49
547.255	796.09
547.708	810.09
548.161	812.39
548.614	823.29
549.067	828.79
549.52	818.39
549.973	816.09
550.426	811.89
550.879	801.49
551.332	799.49
551.785	809.79
552.238	811.69
552.691	820.69
553.144	834.39
553.596	848.69
554.049	866.29
554.502	905.49
554.955	919.69
555.407	919.29
555.86	908.29
556.313	902.09
556.765	887.79
557.218	889.29
557.67	883.69
558.123	878.39
558.576	874.69
559.028	874.09
559.48	890.69
559.933	879.09
560.385	832.99
560.838	811.89
561.29	793.49
561.742	785.99
562.195	771.39
562.647	767.49
563.099	786.49
563.551	771.89
564.004	800.79
564.456	778.69
564.908	762.09
565.36	756.39
565.812	733.49
566.264	733.69
566.716	730.49
567.168	722.19
567.62	727.69
568.072	707.09
568.524	706.29
568.976	691.29
569.428	676.89
569.88	674.89
570.332	690.39
570.784	691.49
571.235	684.69
571.687	693.39
572.139	708.19
572.59	720.39
573.042	713.09
573.494	711.59
573.945	702.89
574.397	684.39
574.849	693.39
575.3	703.99
575.752	693.19
576.203	678.39
576.655	682.79
577.106	681.39
577.557	672.99
578.009	673.59
578.46	671.19
578.912	669.59
579.363	673.19
579.814	669.89
580.265	672.39
580.717	673.99
581.168	668.69
581.619	674.79
582.07	690.89
582.521	668.79
582.972	665.19
583.423	687.89
583.875	691.09
584.326	715.89
584.777	755.09
585.227	831.89
585.678	938.49
586.129	1025.89
586.58	1094.19
587.031	1179.69
587.482	1323.99
587.933	1512.19
588.384	1324.79
588.834	975.29
589.285	801.69
589.736	781.69
590.186	785.69
590.637	767.09
591.088	745.49
591.538	738.39
591.989	733.89
592.439	737.29
592.89	726.69
593.34	722.89
593.791	721.79
594.241	712.69
594.692	715.89
595.142	710.09
595.593	709.39
596.043	709.29
596.493	733.79
596.943	725.79
597.394	729.09
597.844	722.49
598.294	736.99
598.744	756.79
599.195	780.29
599.645	824.59
600.095	865.39
600.545	925.69
600.995	985.79
601.445	1041.99
601.895	1095.69
602.345	1145.59
602.795	1123.29
603.245	1077.99
603.695	1015.39
604.145	958.89
604.594	911.59
605.044	848.89
605.494	803.39
605.944	755.49
606.393	741.79
606.843	738.29
607.293	734.69
607.743	736.49
608.192	743.59
608.642	767.99
609.091	779.19
609.541	780.99
609.99	772.29
610.44	770.09
610.889	720.99
611.339	705.89
611.788	702.69
612.238	700.29
612.687	731.19
613.136	720.69
613.586	739.19
614.035	747.19
614.484	765.89
614.933	762.39
615.383	762.09
615.832	742.39
616.281	740.39
616.73	696.39
617.179	677.99
617.628	651.89
618.077	638.79
618.526	630.69
618.975	628.39
619.424	611.09
619.873	619.09
620.322	621.49
620.771	624.69
621.22	619.19
621.669	595.39
622.118	596.79
622.567	582.19
623.015	570.09
623.464	574.89
623.913	567.89
624.361	560.39
624.81	561.89
625.259	558.59
625.707	564.89
626.156	568.79
626.604	569.09
627.053	564.19
627.501	579.59
627.95	573.59
628.398	589.39
628.847	574.79
629.295	578.99
629.744	583.19
630.192	570.49
630.64	573.79
631.089	582.99
631.537	582.89
631.985	590.19
632.433	609.29
632.881	621.49
633.33	676.39
633.778	660.29
634.226	579.19
634.674	585.89
635.122	590.49
635.57	604.09
636.018	639.79
636.466	589.99
636.914	563.89
637.362	567.39
637.81	586.79
638.258	581.79
638.705	592.49
639.153	624.59
639.601	638.39
640.049	648.19
640.497	672.69
640.944	705.29
641.392	653.89
641.84	620.79
642.287	587.39
642.735	569.29
643.182	578.19
643.63	575.49
644.078	582.89
644.525	595.89
644.973	606.99
645.42	615.79
645.867	637.99
646.315	649.79
646.762	670.09
647.21	700.69
647.657	723.69
648.104	755.89
648.551	782.79
648.999	849.69
649.446	922.59
649.893	1020.99
650.34	1183.59
650.787	1424.09
651.234	1772.59
651.682	2307.69
652.129	3193.79
652.576	4596.69
653.023	6773.09
653.47	9228.49
653.917	11468.39
654.363	13138.59
654.81	14459.19
655.257	13763.99
655.704	8991.49
656.151	5311.49
656.598	3445.69
657.044	2434.29
657.491	1880.49
657.938	1498.89
658.385	1250.59
658.831	1085.89
659.278	972.09
659.724	876.09
660.171	796.59
660.618	736.79
661.064	703.89
661.511	675.09
661.957	666.99
662.404	650.99
662.85	657.99
663.296	630.29
663.743	565.89
664.189	541.29
664.635	536.39
665.082	533.89
665.528	532.49
665.974	523.79
666.42	517.19
666.867	509.59
667.313	501.89
667.759	487.79
668.205	486.29
668.651	489.49
669.097	492.09
669.543	515.09
669.989	478.19
670.435	451.39
670.881	456.89
671.327	458.29
671.773	489.19
672.219	487.39
672.665	560.49
673.11	596.59
673.556	636.19
674.002	677.99
674.448	669.69
674.893	552.79
675.339	474.39
675.785	446.39
676.23	422.39
676.676	394.39
677.122	382.79
677.567	381.89
678.013	374.79
678.458	359.79
678.904	366.89
679.349	365.69
679.794	360.49
680.24	356.79
680.685	348.19
681.131	352.69
681.576	348.79
682.021	355.29
682.466	349.79
682.912	354.29
683.357	349.99
683.802	385.29
684.247	418.19
684.692	461.69
685.137	514.59
685.583	545.89
686.028	571.69
686.473	515.19
686.918	451.19
687.363	420.49
687.807	388.99
688.252	374.19
688.697	357.09
689.142	344.99
689.587	345.39
690.032	326.99
690.477	349.19
690.921	363.79
691.366	386.89
691.811	411.89
692.255	437.09
692.7	465.89
693.145	518.79
693.589	726.79
694.034	1161.29
694.478	1560.19
694.923	1740.69
695.367	2247.49
695.812	1196.89
696.256	499.89
696.701	376.49
697.145	349.49
697.59	335.49
698.034	324.49
698.478	329.09
698.922	331.89
699.367	333.09
699.811	345.29
700.255	364.19
700.699	385.89
701.143	428.39
701.588	485.09
702.032	516.69
702.476	518.79
702.92	497.39
703.364	492.59
703.808	660.39
704.252	1067.49
704.696	1477.49
705.14	1665.59
705.584	2113.99
706.027	1078.39
706.471	530.19
706.915	411.19
707.359	347.39
707.803	324.59
708.246	313.49
708.69	320.19
709.134	323.69
709.577	316.89
710.021	312.89
710.465	313.59
710.908	303.89
711.352	305.79
711.795	320.89
712.239	350.39
712.682	387.79
713.126	421.69
713.569	467.39
714.012	369.79
714.456	321.79
714.899	305.89
715.342	283.79
715.786	265.19
716.229	261.19
716.672	259.69
717.115	254.49
717.558	254.99
718.002	253.69
718.445	271.79
718.888	290.89
719.331	298.49
719.774	305.29
720.217	305.19
720.66	290.79
721.103	269.59
721.546	255.49
721.989	249.49
722.432	234.19
722.874	243.49
723.317	239.09
723.76	242.09
724.203	260.89
724.645	323.19
725.088	459.19
725.531	585.69
725.974	647.69
726.416	556.09
726.859	309.49
727.301	250.59
727.744	241.99
728.187	238.29
728.629	241.79
729.071	245.39
729.514	263.49
729.956	287.79
730.399	290.69
730.841	290.19
731.283	279.49
731.726	266.59
732.168	263.39
732.61	272.59
733.053	292.89
733.495	312.29
733.937	360.39
734.379	410.09
734.821	440.19
735.263	550.79
735.705	870.29
736.148	1620.29
736.59	2627.59
737.032	3028.89
737.474	2466.99
737.916	811.09
738.357	442.29
738.799	323.19
739.241	299.69
739.683	291.99
740.125	291.89
740.567	296.39
741.008	316.19
741.45	318.89
741.892	320.19
742.334	352.99
742.775	359.39
743.217	338.29
743.658	266.99
744.1	261.89
744.542	264.39
744.983	319.99
745.425	353.79
745.866	341.49
746.307	290.89
746.749	291.59
747.19	331.79
747.632	476.09
748.073	932.89
748.514	1916.89
748.956	2876.29
749.397	3606.39
749.838	3002.79
750.279	2930.79
750.72	1489.19
751.162	552.09
751.603	325.39
752.044	265.69
752.485	225.29
752.926	214.39
753.367	204.19
753.808	196.89
754.249	185.69
754.69	189.39
755.131	191.59
755.572	188.59
756.013	181.09
756.453	184.29
756.894	198.39
757.335	202.69
757.776	194.79
758.216	193.39
758.657	199.19
759.098	205.09
759.538	229.29
759.979	279.19
760.42	381.99
760.86	738.99
761.301	1913.39
761.741	4521.69
762.182	6377.29
762.622	4471.99
763.063	1319.49
763.503	541.89
763.943	351.89
764.384	353.59
764.824	412.59
765.264	447.89
765.705	312.89
766.145	214.49
766.585	196.19
767.025	195.49
767.465	186.29
767.906	258.59
768.346	335.79
768.786	347.19
769.226	271.09
769.666	324.29
770.106	657.69
770.546	1612.89
770.986	2640.39
771.426	2351.79
771.866	802.89
772.306	330.39
772.745	210.49
773.185	173.49
773.625	165.19
774.065	171.29
774.505	198.69
774.944	323.69
775.384	701.79
775.824	1218.69
776.263	1185.69
776.703	509.39
777.142	227.49
777.582	160.29
778.021	139.99
778.461	136.59
778.9	145.69
779.34	141.39
779.779	122.99
780.219	116.69
780.658	117.39
781.097	117.19
781.537	111.89
781.976	110.59
782.415	107.69
782.855	104.59
783.294	108.89
783.733	106.29
784.172	114.29
784.611	106.69
785.05	115.49
785.489	112.39
785.928	119.79
786.367	127.69
786.806	121.09
787.245	135.89
787.684	133.99
788.123	150.79
788.562	140.49
789.001	133.59
789.44	129.89
789.879	122.29
790.317	123.29
790.756	128.99
791.195	134.09
791.634	150.59
792.072	216.59
792.511	370.09
792.95	1046.29
793.388	2158.49
793.827	1919.89
794.265	684.29
794.704	283.59
795.142	185.69
795.581	154.69
796.019	133.79
796.458	122.39
796.896	121.59
797.334	134.89
797.773	158.09
798.211	223.29
798.649	459.19
799.087	1039.09
799.526	1614.79
799.964	2025.49
800.402	1984.09
800.84	756.99
801.278	306.59
801.716	187.79
802.154	157.69
802.592	146.19
803.03	141.09
803.468	137.19
803.906	154.09
804.344	149.79
804.782	145.49
805.22	135.29
805.658	132.99
806.096	145.29
806.533	161.09
806.971	181.39
807.409	219.29
807.847	319.49
808.284	686.29
808.722	1908.59
809.16	3308.59
809.597	3207.09
810.035	5482.49
810.472	5685.99
810.91	2060.79
811.347	798.39
811.785	408.89
812.222	261.49
812.66	199.29
813.097	156.89
813.535	145.69
813.972	129.79
814.409	123.99
814.846	103.49
815.284	107.39
815.721	103.79
816.158	109.29
816.595	127.89
817.032	177.89
817.47	203.39
817.907	166.09
818.344	157.99
818.781	120.39
819.218	110.19
819.655	126.79
820.092	186.99
820.529	213.59
820.966	177.69
821.403	136.59
821.839	105.69
822.276	94.99
822.713	125.99
823.15	130.09
823.587	121.99
824.023	161.69
824.46	307.59
824.897	911.49
825.333	1334.59
825.77	578.09
826.206	226.69
826.643	132.09
827.08	95.89
827.516	81.29
827.953	80.19
828.389	88.99
828.825	73.79
829.262	64.09
829.698	59.29
830.135	67.39
830.571	61.59
831.007	67.09
831.443	65.99
831.88	64.59
832.316	63.39
832.752	61.99
833.188	68.39
833.624	66.69
834.06	68.39
834.497	67.29
834.933	74.39
835.369	75.09
835.805	66.49
836.241	69.39
836.677	81.89
837.112	91.49
837.548	101.59
837.984	137.69
838.42	200.39
838.856	510.69
839.292	1532.49
839.727	2284.39
840.163	1075.19
840.599	955.69
841.034	2060.99
841.47	2100.19
841.906	781.49
842.341	337.39
842.777	233.19
843.212	316.89
843.648	302.29
844.083	154.89
844.519	97.89
844.954	82.89
845.39	60.79
845.825	59.59
846.261	58.39
846.696	56.99
847.131	56.99
847.566	60.39
848.002	60.99
848.437	56.29
848.872	63.49
849.307	61.99
849.742	85.39
850.177	185.39
850.613	569.79
851.048	870.29
851.483	379.99
851.918	161.79
852.353	92.39
852.788	62.79
853.223	56.59
853.657	53.39
854.092	45.69
854.527	43.19
854.962	39.39
855.397	43.69
855.832	49.09
856.266	36.39
856.701	38.69
857.136	37.99
857.57	43.59
858.005	51.79
858.44	56.29
858.874	46.09
859.309	56.49
859.743	39.39
860.178	42.69
860.612	39.09
861.047	52.29
861.481	67.19
861.915	67.89
862.35	45.79
862.784	30.79
863.218	40.49
863.653	33.19
864.087	43.99
864.521	52.99
864.955	76.99
865.39	160.49
865.824	178.39
866.258	112.29
866.692	160.99
867.126	171.09
867.56	105.99
867.994	55.59
868.428	35.79
868.862	53.79
869.296	56.29
869.73	58.69
870.164	57.89
870.598	45.59
871.031	38.09
871.465	26.89
871.899	31.19
872.333	26.79
872.766	23.39
873.2	21.19
873.634	28.49
874.067	28.89
874.501	28.29
874.935	39.79
875.368	32.99
875.802	21.39
876.235	30.19
876.669	28.59
877.102	27.89
877.535	25.59
877.969	25.09
878.402	23.59
878.836	15.29
879.269	24.19
879.702	22.69
880.135	25.69
880.569	24.79
881.002	29.39
881.435	21.19
881.868	12.79
882.301	22.99
882.734	14.59
883.167	22.09
883.601	23.09
884.034	25.39
884.467	21.19
884.899	24.79
885.332	17.19
885.765	17.59
886.198	14.49
886.631	17.09
887.064	17.89
887.497	23.19
887.929	31.89
888.362	17.29
888.795	12.89
889.228	19.39
889.66	23.09
890.093	24.89
890.526	17.09
890.958	16.99
891.391	17.29
891.823	23.49
892.256	16.69
892.688	18.19
893.121	19.29
893.553	15.79
893.985	17.19
894.418	21.69
894.85	12.19
895.282	16.69
895.715	21.09
896.147	14.89
896.579	19.59
897.011	11.09
897.444	23.19
897.876	13.49
898.308	22.29
898.74	14.39
899.172	10.79
899.604	25.09
900.036	16.19
900.468	21.79
900.9	14.79
901.332	16.49
901.764	16.29
902.196	24.39
902.628	16.49
903.06	18.59
903.491	28.89
903.923	21.29
904.355	17.79
904.787	23.49
905.218	17.99
905.65	23.09
906.082	16.19
906.513	15.39
906.945	21.99
907.376	17.19
907.808	17.49
908.239	18.99
908.671	25.89
909.102	27.19
909.534	20.39
909.965	48.29
910.397	97.29
910.828	319.29
911.259	471.59
911.691	215.79
912.122	104.09
912.553	51.09
912.984	35.59
913.415	27.29
913.847	24.79
914.278	14.79
914.709	15.39
915.14	20.19
915.571	21.19
916.002	18.49
916.433	17.79
916.864	19.59
917.295	12.49
917.726	23.19
918.157	15.99
918.587	29.79
919.018	22.19
919.449	24.89
919.88	25.59
920.311	29.89
920.741	49.69
921.172	172.89
921.603	150.89
922.033	73.09
922.464	53.09
922.895	29.79
923.325	25.69
923.756	18.09
924.186	14.79
924.617	28.79
925.047	47.09
925.478	52.79
925.908	42.89
926.338	25.09
926.769	20.89
927.199	20.29
927.629	9.99
928.06	19.19
928.49	15.29
928.92	16.89
929.35	9.99
929.78	10.59
930.21	3.09
930.641	5.59
931.071	7.49
931.501	0.99
931.931	6.99
932.361	6.19
932.791	4.39
933.221	9.39
933.651	5.59
934.08	21.39
934.51	27.09
934.94	9.89
935.37	9.39
935.8	9.49
936.229	10.99
936.659	3.59
937.089	1.19
937.519	17.29
937.948	28.89
938.378	19.49
938.807	4.69
939.237	6.69
939.666	4.99
940.096	-4.81
940.525	-0.51
940.955	2.19
941.384	6.79
941.814	-4.91
942.243	-2.11
942.672	-0.21
943.102	1.39
943.531	-2.21
943.96	6.49
944.39	5.89
944.819	-2.21
945.248	-5.51
945.677	0.69
946.106	13.49
946.535	0.59
946.964	4.39
947.393	6.09
947.822	2.19
948.251	-11.31
948.68	12.39
949.109	7.99
949.538	1.99
949.967	-1.31
950.396	-1.21
950.825	2.19
951.254	5.69
951.682	-7.81
952.111	5.59
952.54	5.99
952.969	-4.61
953.397	-0.31
953.826	-0.11
954.254	-10.11
954.683	-5.11
955.112	1.29
955.54	0.99
955.969	1.19
956.397	0.29
956.826	1.69
957.254	7.09
957.682	1.59
958.111	6.49
958.539	-2.31
958.967	-2.21
959.396	-4.71
959.824	-2.41
960.252	0.39
960.68	-4.21
961.109	2.49
961.537	-5.61
961.965	-0.81
962.393	2.09
962.821	-3.41
963.249	2.19
963.677	2.89
964.105	5.49
964.533	45.89
964.961	46.59
965.389	18.99
965.817	11.49
966.245	6.99
966.672	-3.61
967.1	-8.21
967.528	-2.61
967.956	-3.01
968.383	0.69
968.811	-1.41
969.239	-2.81
969.666	-2.01
970.094	0.09
970.522	0.99
970.949	3.49
971.377	0.29
971.804	2.09
972.232	-6.51
972.659	-1.41
973.087	-5.01
973.514	-8.91
973.941	-5.61
974.369	5.29
974.796	4.29
975.223	0.29
975.651	-4.91
976.078	-1.51
976.505	-2.51
976.932	3.89
977.359	18.39
977.786	14.69
978.214	0.49
978.641	-3.41
979.068	1.99
979.495	-0.21
979.922	-1.31
980.349	-2.81
980.776	1.19
981.202	2.39
981.629	2.69
982.056	-1.81
982.483	-2.91
982.91	0.79
983.337	-4.01
983.763	3.09
984.19	-3.81
984.617	-3.41
985.043	-6.41
985.47	-0.91
985.897	-4.01
986.323	-6.21
986.75	5.29
987.176	-0.91
987.603	-4.71
988.029	-3.11
988.456	-9.41
988.882	6.59
989.308	-2.71
989.735	-4.51
990.161	-1.51
990.587	-7.11
991.014	-2.41
991.44	6.99
991.866	-0.21
992.292	0.69
992.719	1.49
993.145	4.29
993.571	-5.31
993.997	-10.71
994.423	0.59
994.849	-2.91
995.275	1.29
995.701	1.19
996.127	1.49
996.553	2.29
996.979	-6.41
997.405	-6.11
997.83	-2.31
998.256	-9.11
998.682	-4.11
999.108	-11.91
999.534	-0.91
999.959	-3.61
1000.385	-5.81
1000.811	0.79
1001.236	-4.51
1001.662	-8.31
1002.087	-10.11
1002.513	0.59
1002.938	-1.51
1003.364	-2.11
1003.789	0.39
1004.215	3.19
1004.64	-4.71
1005.066	-0.51
1005.491	-2.51
1005.916	-4.41
1006.342	-0.91
1006.767	-7.01
1007.192	3.39
1007.617	-8.21
1008.042	-4.91
1008.468	-5.81
1008.893	0.29
1009.318	-0.41
1009.743	-4.21
1010.168	4.19
1010.593	0.49
1011.018	-11.01
1011.443	-2.91
1011.868	-6.61
1012.293	-0.41
1012.718	-6.31
1013.143	5.89
1013.567	-1.81
1013.992	-2.91
1014.417	-13.41
1014.842	-0.21
1015.267	-6.41
1015.691	2.89
1016.116	4.79
1016.541	0.59
1016.965	8.39
1017.39	1.19
1017.814	-4.01
1018.239	0.49
1018.663	-5.51
1019.088	-8.51
1019.512	-3.01
1019.937	2.29
1020.361	-9.21
1020.785	-6.71
1021.21	-2.91
1021.634	-0.91
1022.058	-4.71
1022.483	2.29
1022.907	-5.21
1023.331	-1.41
1023.755	-8.31
1024.179	-2.51
1024.604	-9.31
1025.028	-4.91
1025.452	-1.91
1025.876	0.19
1026.3	1.29
1026.724	-12.71
1027.148	-7.01
1027.572	-7.41
1027.996	-3.21
1028.42	-4.71
1028.843	-4.91
1029.267	-5.31
1029.691	4.79
1030.115	-15.01
1030.539	-4.41
1030.962	-7.01
1031.386	-12.81
1031.81	-11.61
1032.233	-2.71
1032.657	-2.11
1033.08	-3.41
1033.504	-4.31
1033.927	-4.21
1034.351	-5.41
1034.774	-1.61
1035.198	-5.61
1035.621	-10.01
1036.045	-8.41
1036.468	-2.61
1036.891	-11.81
1037.315	-9.01
1037.738	-7.81
1038.161	-6.81
1038.584	-4.31
1039.008	-9.01
1039.431	1.49
1039.854	-3.41
1040.277	-12.61
1040.7	-14.51
1041.123	-1.31
1041.546	-8.21
1041.969	-2.41
1042.392	-6.31
1042.815	-2.31
1043.238	-0.31
1043.661	-0.31
1044.084	-4.11
1044.507	-5.11
1044.93	0.89
1045.352	-6.51
1045.775	-6.11
1046.198	-10.01
1046.621	-2.81
1047.043	-7.01
1047.466	5.09
1047.889	-5.71
1048.311	-3.71
1048.734	-1.11
1049.156	-1.81
1049.579	-4.51
1050.001	-4.11
1050.424	2.29
1050.846	-5.01
1051.269	-4.11
1051.691	-4.51
1052.113	-3.71
1052.536	-7.01
1052.958	-5.21
1053.38	-8.31
1053.802	-12.41
1054.225	0.59
1054.647	-10.31
1055.069	-3.21
1055.491	1.59
1055.913	-6.41
1056.335	-0.61
1056.757	-5.61
1057.179	-4.11
1057.601	-2.91
1058.023	-6.01
1058.445	-9.11
1058.867	-10.41
1059.289	-6.11
1059.711	-14.51
1060.133	4.29
1060.555	-10.81
1060.976	-5.11
1061.398	-5.01
1061.82	-7.91
1062.241	-3.71
1062.663	-7.81
1063.085	-9.11
1063.506	1.09
1063.928	-4.41
1064.35	-4.81
1064.771	-8.71
1065.193	-2.81
1065.614	-7.61
1066.035	-1.71
1066.457	-8.41
1066.878	0.99
1067.3	0.19
1067.721	-1.41
1068.142	-2.01
1068.564	-6.91
1068.985	-3.61
1069.406	-3.11
1069.827	-2.31
1070.248	-0.01
1070.67	-5.31
1071.091	-13.51
1071.512	-0.51
1071.933	-11.01
1072.354	-5.11
1072.775	-5.81
1073.196	-8.41
1073.617	-2.41
1074.038	-7.11
1074.459	-4.61
1074.88	-5.91
1075.3	-0.61
1075.721	-6.81
1076.142	-5.01
1076.563	-9.61
1076.983	-14.31
1077.404	-14.31
1077.825	-13.11
1078.246	1.19
1078.666	-10.01
1079.087	-3.81
1079.507	-5.61
1079.928	2.99
1080.348	-6.81
1080.769	-5.81
1081.189	4.99
1081.61	-2.11
1082.03	-11.51
1082.451	-9.81
1082.871	-2.51
1083.291	-12.81
1083.711	-11.61
1084.132	-2.31
1084.552	-2.51
1084.972	-1.01
1085.392	-15.21
1085.813	-7.31
1086.233	-8.61
1086.653	-7.61
1087.073	-4.51
1087.493	-12.11
1087.913	-3.61
1088.333	-9.61
1088.753	-2.01
1089.173	0.69
1089.593	-8.31
1090.013	2.09
1090.433	-2.71
1090.852	-10.31
1091.272	-4.91
1091.692	-1.51
1092.112	-4.71
1092.531	-13.41
1092.951	-10.51
1093.371	-5.61
1093.79	0.19
1094.21	0.69
1094.63	-6.11
1095.049	-7.01
1095.469	-4.91
1095.888	-11.81
1096.308	2.39
1096.727	6.49
1097.146	-6.51
1097.566	-7.81
1097.985	-4.11
1098.405	-1.01
1098.824	-8.31
1099.243	-11.21
1099.662	-5.21
1100.082	-3.41
1100.501	-1.61
1100.92	-2.71
1101.339	-7.31
1101.758	-11.01
