Data from 20171114-ORNL-Ar_H_NY_Subt18_08-08-17-022.txt Node
Date: Tue Nov 14 08:08:17 EST 2017
User: Ender
Spectrometer: HR+D1039
Trigger mode: 0
Integration Time (sec): 2.730000E-2
Scans to average: 10
Electric dark correction enabled: true
Nonlinearity correction enabled: false
Boxcar width: 0
XAxis mode: Wavelengths
Number of Pixels in Spectrum: 2048
>>>>>Begin Spectral Data<<<<<
187.836	-2.14
188.309	-2.14
188.782	-2.14
189.255	-3.04
189.728	-2.94
190.201	4.46
190.674	3.06
191.147	2.66
191.619	-8.74
192.092	-1.34
192.565	8.56
193.038	1.86
193.511	-2.74
193.984	1.56
194.456	-2.64
194.929	0.16
195.402	0.16
195.874	1.06
196.347	-0.44
196.82	-7.34
197.292	8.96
197.765	-4.24
198.237	-6.74
198.71	-5.64
199.182	-1.84
199.655	0.36
200.127	0.76
200.6	-0.94
201.072	-0.84
201.544	-2.14
202.017	-4.74
202.489	1.76
202.961	-4.54
203.433	0.16
203.906	-5.74
204.378	-2.44
204.85	-1.94
205.322	-12.34
205.794	0.26
206.266	-5.24
206.739	-7.44
207.211	2.66
207.683	-5.44
208.155	-5.64
208.627	-11.04
209.099	1.26
209.57	-11.04
210.042	-4.54
210.514	-7.24
210.986	1.36
211.458	-7.54
211.93	-6.04
212.402	1.06
212.873	-6.54
213.345	-9.34
213.817	-13.04
214.288	-2.34
214.76	-7.64
215.232	-2.24
215.703	-6.64
216.175	-4.14
216.646	-2.54
217.118	-6.84
217.589	-2.74
218.061	-5.64
218.532	-5.14
219.004	-0.74
219.475	-5.94
219.946	-2.54
220.418	-3.44
220.889	3.26
221.36	-3.34
221.832	-0.54
222.303	-11.04
222.774	-0.44
223.245	-7.24
223.717	-5.94
224.188	-6.84
224.659	-6.44
225.13	-4.84
225.601	-4.64
226.072	-2.64
226.543	-6.74
227.014	3.96
227.485	-3.04
227.956	-2.34
228.427	-0.84
228.898	0.16
229.369	1.76
229.839	-5.04
230.31	-10.64
230.781	5.46
231.252	-0.64
231.722	-4.84
232.193	-0.04
232.664	-1.74
233.135	1.16
233.605	2.26
234.076	-2.44
234.546	-1.74
235.017	6.16
235.487	-1.94
235.958	-3.44
236.428	-3.44
236.899	5.36
237.369	0.06
237.84	-6.04
238.31	3.96
238.78	-3.64
239.251	-1.74
239.721	2.46
240.191	-0.14
240.662	5.96
241.132	0.76
241.602	-6.64
242.072	-0.34
242.542	4.96
243.013	-3.74
243.483	7.16
243.953	3.46
244.423	-0.24
244.893	1.96
245.363	2.36
245.833	4.06
246.303	-6.04
246.773	3.36
247.243	1.56
247.712	0.06
248.182	8.36
248.652	6.66
249.122	4.36
249.592	8.36
250.061	16.96
250.531	34.26
251.001	10.56
251.471	23.26
251.94	18.06
252.41	8.26
252.879	-0.44
253.349	10.86
253.818	8.46
254.288	3.16
254.757	3.96
255.227	1.16
255.696	5.96
256.166	-1.24
256.635	5.96
257.105	10.16
257.574	10.86
258.043	11.46
258.513	14.16
258.982	15.86
259.451	10.76
259.92	12.36
260.389	9.16
260.859	11.36
261.328	8.16
261.797	16.86
262.266	0.96
262.735	11.36
263.204	3.76
263.673	1.26
264.142	4.16
264.611	-6.84
265.08	3.46
265.549	-2.24
266.018	3.36
266.487	-3.94
266.955	6.36
267.424	-0.44
267.893	7.46
268.362	3.26
268.83	7.26
269.299	12.26
269.768	9.46
270.236	6.26
270.705	5.56
271.174	7.76
271.642	5.26
272.111	9.96
272.579	19.96
273.048	24.06
273.516	25.66
273.985	28.96
274.453	26.36
274.922	20.86
275.39	10.76
275.858	8.66
276.327	9.96
276.795	11.26
277.263	3.76
277.731	26.66
278.2	51.56
278.668	59.76
279.136	48.46
279.604	21.06
280.072	20.26
280.54	8.26
281.008	8.86
281.477	10.46
281.945	15.46
282.413	13.16
282.881	16.96
283.348	3.66
283.816	16.16
284.284	10.86
284.752	22.06
285.22	10.36
285.688	14.56
286.156	15.16
286.623	38.16
287.091	45.96
287.559	31.56
288.026	19.36
288.494	18.26
288.962	9.16
289.429	3.96
289.897	20.16
290.364	16.96
290.832	17.16
291.3	21.86
291.767	20.26
292.234	21.96
292.702	10.56
293.169	18.86
293.637	25.56
294.104	24.66
294.571	15.26
295.039	14.86
295.506	20.26
295.973	22.16
296.44	16.26
296.908	21.66
297.375	18.86
297.842	21.26
298.309	17.56
298.776	19.26
299.243	16.16
299.71	12.36
300.177	23.86
300.644	27.36
301.111	19.86
301.578	25.36
302.045	15.66
302.512	19.86
302.979	22.96
303.446	20.36
303.913	20.46
304.379	15.56
304.846	27.36
305.313	29.16
305.78	20.96
306.246	27.06
306.713	26.26
307.18	28.06
307.646	24.56
308.113	28.06
308.579	26.06
309.046	23.96
309.512	29.56
309.979	13.36
310.445	23.56
310.912	24.16
311.378	31.66
311.845	21.56
312.311	27.96
312.777	29.86
313.244	30.76
313.71	36.16
314.176	30.26
314.642	33.06
315.109	32.16
315.575	37.86
316.041	36.26
316.507	30.86
316.973	35.66
317.439	31.76
317.905	39.56
318.371	36.06
318.837	39.76
319.303	32.66
319.769	34.66
320.235	30.16
320.701	40.76
321.167	32.26
321.633	36.86
322.099	37.16
322.564	43.16
323.03	39.16
323.496	38.36
323.962	35.36
324.427	34.16
324.893	43.16
325.359	35.56
325.824	34.66
326.29	36.56
326.755	41.16
327.221	41.86
327.686	40.96
328.152	46.06
328.617	42.36
329.083	41.56
329.548	51.26
330.014	49.46
330.479	46.26
330.944	44.86
331.41	43.76
331.875	48.36
332.34	44.26
332.805	49.76
333.271	46.96
333.736	40.76
334.201	52.06
334.666	53.66
335.131	57.56
335.596	45.96
336.061	45.96
336.526	41.96
336.991	43.36
337.456	60.06
337.921	48.16
338.386	47.36
338.851	45.06
339.316	45.36
339.781	46.46
340.246	51.76
340.711	46.36
341.175	51.86
341.64	45.76
342.105	48.26
342.569	59.16
343.034	58.36
343.499	56.96
343.963	51.66
344.428	60.46
344.893	59.06
345.357	62.56
345.822	56.76
346.286	69.46
346.751	76.86
347.215	71.16
347.679	76.56
348.144	99.86
348.608	85.96
349.073	69.96
349.537	77.16
350.001	84.66
350.465	90.66
350.93	78.06
351.394	77.96
351.858	78.06
352.322	84.56
352.786	84.86
353.25	100.96
353.715	114.76
354.179	100.06
354.643	122.16
355.107	123.86
355.571	114.06
356.035	106.56
356.498	121.86
356.962	126.06
357.426	136.56
357.89	118.96
358.354	95.66
358.818	81.26
359.281	75.16
359.745	79.16
360.209	81.76
360.673	78.56
361.136	80.66
361.6	85.86
362.064	85.06
362.527	85.46
362.991	90.86
363.454	85.26
363.918	74.26
364.381	81.66
364.845	81.36
365.308	86.86
365.772	88.96
366.235	82.26
366.698	92.76
367.162	84.36
367.625	84.26
368.088	89.76
368.552	90.86
369.015	92.66
369.478	101.86
369.941	110.76
370.404	100.86
370.867	106.16
371.331	109.56
371.794	121.16
372.257	114.66
372.72	121.36
373.183	112.36
373.646	101.76
374.109	101.46
374.572	114.16
375.035	114.06
375.497	113.86
375.96	109.06
376.423	104.76
376.886	115.26
377.349	104.56
377.811	102.26
378.274	103.76
378.737	114.26
379.199	114.76
379.662	115.66
380.125	114.76
380.587	121.76
381.05	128.26
381.512	127.76
381.975	137.96
382.437	130.26
382.9	129.66
383.362	131.46
383.825	142.46
384.287	154.36
384.75	143.16
385.212	143.36
385.674	139.16
386.136	139.36
386.599	128.96
387.061	129.46
387.523	136.06
387.985	139.06
388.447	151.16
388.91	148.06
389.372	166.06
389.834	158.46
390.296	149.26
390.758	158.56
391.22	176.86
391.682	211.96
392.144	314.26
392.606	238.76
393.068	175.26
393.529	181.46
393.991	158.96
394.453	150.66
394.915	158.86
395.377	193.06
395.838	226.36
396.3	158.56
396.762	141.66
397.224	138.96
397.685	138.16
398.147	128.86
398.608	138.16
399.07	132.86
399.531	138.06
399.993	148.16
400.454	155.46
400.916	150.16
401.377	151.76
401.839	150.56
402.3	152.16
402.762	173.56
403.223	182.86
403.684	178.76
404.145	169.96
404.607	167.66
405.068	173.36
405.529	172.06
405.99	197.16
406.451	183.06
406.913	182.56
407.374	168.16
407.835	162.16
408.296	176.96
408.757	176.16
409.218	188.86
409.679	187.76
410.14	187.56
410.601	182.66
411.062	195.86
411.522	193.86
411.983	200.46
412.444	180.66
412.905	183.56
413.366	189.66
413.826	203.26
414.287	214.16
414.748	266.96
415.208	251.56
415.669	213.46
416.13	214.46
416.59	209.76
417.051	215.56
417.511	228.56
417.972	244.66
418.432	255.06
418.893	290.46
419.353	253.16
419.814	205.26
420.274	188.76
420.734	189.96
421.195	206.66
421.655	204.76
422.115	201.36
422.576	193.66
423.036	201.96
423.496	213.86
423.956	216.66
424.416	238.26
424.876	270.76
425.336	267.56
425.797	268.76
426.257	262.36
426.717	253.86
427.177	239.36
427.637	226.96
428.097	237.16
428.556	255.56
429.016	273.76
429.476	274.26
429.936	287.76
430.396	289.56
430.856	314.46
431.315	329.06
431.775	366.66
432.235	400.36
432.694	366.36
433.154	377.76
433.614	411.86
434.073	349.36
434.533	298.46
434.993	273.96
435.452	288.16
435.912	302.36
436.371	300.86
436.83	295.76
437.29	279.16
437.749	259.76
438.209	251.86
438.668	285.26
439.127	299.26
439.587	268.36
440.046	250.66
440.505	270.36
440.964	283.86
441.424	336.66
441.883	318.96
442.342	268.46
442.801	229.36
443.26	224.66
443.719	228.86
444.178	235.16
444.637	219.16
445.096	223.96
445.555	230.96
446.014	243.66
446.473	237.66
446.932	237.56
447.391	228.56
447.849	238.76
448.308	219.86
448.767	236.46
449.226	237.96
449.685	239.76
450.143	252.76
450.602	245.96
451.061	236.66
451.519	239.36
451.978	234.86
452.436	240.36
452.895	243.46
453.353	260.26
453.812	250.56
454.27	249.56
454.729	249.06
455.187	242.36
455.646	244.66
456.104	252.06
456.562	270.36
457.021	275.26
457.479	267.16
457.937	278.66
458.395	270.06
458.854	253.26
459.312	268.06
459.77	290.36
460.228	260.66
460.686	249.56
461.144	253.16
461.602	248.66
462.06	253.26
462.518	257.46
462.976	263.36
463.434	272.76
463.892	264.86
464.35	277.76
464.808	297.46
465.266	264.06
465.724	275.26
466.181	282.06
466.639	278.16
467.097	292.16
467.555	309.16
468.012	311.96
468.47	313.46
468.928	340.46
469.385	355.16
469.843	356.06
470.3	358.96
470.758	372.36
471.215	389.86
471.673	421.86
472.13	417.66
472.588	434.96
473.045	385.96
473.503	384.76
473.96	399.16
474.417	416.96
474.875	454.86
475.332	487.86
475.789	470.56
476.246	478.56
476.704	505.86
477.161	519.76
477.618	530.46
478.075	577.86
478.532	632.56
478.989	714.46
479.446	827.26
479.903	791.16
480.36	821.06
480.817	878.26
481.274	982.06
481.731	1085.66
482.188	1175.86
482.645	1312.36
483.102	1423.06
483.558	1571.26
484.015	1610.06
484.472	1589.06
484.929	1543.46
485.385	1499.06
485.842	1439.56
486.299	1385.56
486.755	1307.76
487.212	1119.56
487.668	934.56
488.125	870.16
488.582	795.66
489.038	760.46
489.494	727.46
489.951	683.86
490.407	681.76
490.864	664.56
491.32	661.66
491.776	651.46
492.233	664.56
492.689	621.96
493.145	609.16
493.602	609.56
494.058	629.16
494.514	625.26
494.97	644.16
495.426	662.86
495.882	619.76
496.338	624.76
496.794	641.76
497.251	632.46
497.707	637.76
498.163	648.96
498.618	645.36
499.074	652.36
499.53	686.36
499.986	679.86
500.442	663.26
500.898	640.96
501.354	631.26
501.809	649.16
502.265	657.26
502.721	676.86
503.177	677.76
503.632	683.16
504.088	683.76
504.543	720.06
504.999	725.96
505.455	671.36
505.91	637.76
506.366	639.76
506.821	639.76
507.277	630.96
507.732	636.66
508.187	637.36
508.643	648.26
509.098	644.06
509.553	655.96
510.009	680.46
510.464	681.76
510.919	691.56
511.375	708.16
511.83	721.86
512.285	723.56
512.74	769.16
513.195	791.06
513.65	783.16
514.105	782.56
514.56	776.96
515.015	799.46
515.47	815.76
515.925	798.36
516.38	797.66
516.835	807.56
517.29	789.56
517.745	787.46
518.2	764.86
518.655	748.76
519.109	751.76
519.564	752.76
520.019	745.66
520.474	731.26
520.928	737.56
521.383	717.76
521.838	718.06
522.292	717.96
522.747	715.16
523.201	711.86
523.656	701.86
524.11	706.16
524.565	711.16
525.019	711.96
525.474	709.76
525.928	714.06
526.382	707.36
526.837	698.86
527.291	712.46
527.745	698.46
528.2	705.46
528.654	694.06
529.108	689.66
529.562	694.06
530.016	702.06
530.47	682.26
530.925	702.56
531.379	706.46
531.833	713.06
532.287	702.56
532.741	707.06
533.195	709.26
533.649	718.66
534.103	730.56
534.556	712.96
535.01	712.46
535.464	714.76
535.918	731.26
536.372	725.86
536.826	722.66
537.279	708.46
537.733	720.56
538.187	717.16
538.64	718.46
539.094	735.06
539.548	751.06
540.001	718.96
540.455	733.06
540.908	747.46
541.362	754.16
541.815	764.46
542.269	768.46
542.722	770.36
543.175	783.76
543.629	778.06
544.082	801.86
544.536	799.16
544.989	790.46
545.442	808.66
545.895	790.76
546.349	809.36
546.802	805.76
547.255	809.26
547.708	812.76
548.161	828.96
548.614	834.16
549.067	837.36
549.52	830.36
549.973	821.96
550.426	815.56
550.879	797.86
551.332	806.06
551.785	812.96
552.238	820.06
552.691	831.96
553.144	841.66
553.596	864.76
554.049	885.46
554.502	903.96
554.955	919.46
555.407	912.36
555.86	918.96
556.313	908.96
556.765	896.36
557.218	892.26
557.67	901.26
558.123	888.26
558.576	882.26
559.028	886.96
559.48	896.46
559.933	883.66
560.385	851.76
560.838	827.06
561.29	799.96
561.742	801.56
562.195	778.96
562.647	779.36
563.099	790.76
563.551	793.26
564.004	796.86
564.456	786.46
564.908	768.76
565.36	758.66
565.812	745.96
566.264	752.36
566.716	744.46
567.168	733.26
567.62	750.26
568.072	720.06
568.524	702.26
568.976	704.66
569.428	694.66
569.88	685.56
570.332	691.96
570.784	704.36
571.235	685.16
571.687	699.86
572.139	704.16
572.59	721.56
573.042	728.06
573.494	723.26
573.945	731.96
574.397	694.46
574.849	697.76
575.3	700.56
575.752	694.86
576.203	698.66
576.655	690.56
577.106	678.16
577.557	666.66
578.009	675.96
578.46	684.36
578.912	674.36
579.363	683.46
579.814	683.36
580.265	673.26
580.717	686.46
581.168	684.26
581.619	682.76
582.07	702.16
582.521	678.46
582.972	689.26
583.423	695.16
583.875	700.56
584.326	712.76
584.777	758.96
585.227	840.26
585.678	939.16
586.129	1025.36
586.58	1095.26
587.031	1192.26
587.482	1330.36
587.933	1522.16
588.384	1323.96
588.834	985.56
589.285	824.66
589.736	796.16
590.186	785.36
590.637	784.36
591.088	759.86
591.538	755.06
591.989	755.76
592.439	751.86
592.89	731.56
593.34	726.56
593.791	722.86
594.241	723.66
594.692	722.06
595.142	717.96
595.593	714.76
596.043	722.56
596.493	725.26
596.943	739.76
597.394	735.66
597.844	728.96
598.294	750.56
598.744	778.56
599.195	795.06
599.645	831.46
600.095	887.66
600.545	941.66
600.995	989.66
601.445	1059.46
601.895	1102.26
602.345	1153.46
602.795	1136.56
603.245	1080.56
603.695	1033.76
604.145	982.86
604.594	925.16
605.044	874.26
605.494	812.26
605.944	774.76
606.393	762.86
606.843	742.06
607.293	753.96
607.743	752.26
608.192	768.86
608.642	775.06
609.091	787.46
609.541	789.16
609.99	788.16
610.44	786.36
610.889	739.66
611.339	717.36
611.788	703.96
612.238	719.96
612.687	725.16
613.136	740.56
613.586	754.96
614.035	762.16
614.484	770.56
614.933	776.16
615.383	766.16
615.832	756.86
616.281	742.26
616.73	699.66
617.179	690.66
617.628	673.56
618.077	652.46
618.526	647.16
618.975	634.16
619.424	627.26
619.873	635.56
620.322	637.06
620.771	627.96
621.22	626.46
621.669	604.66
622.118	607.06
622.567	591.36
623.015	580.56
623.464	581.96
623.913	561.16
624.361	573.86
624.81	567.36
625.259	570.76
625.707	570.16
626.156	572.76
626.604	572.56
627.053	580.16
627.501	581.56
627.95	584.06
628.398	606.26
628.847	580.06
629.295	584.46
629.744	587.26
630.192	578.86
630.64	591.66
631.089	579.26
631.537	602.06
631.985	597.46
632.433	615.96
632.881	620.86
633.33	687.36
633.778	660.36
634.226	592.46
634.674	583.56
635.122	599.76
635.57	618.96
636.018	643.66
636.466	581.46
636.914	570.86
637.362	585.36
637.81	586.96
638.258	592.06
638.705	593.86
639.153	623.06
639.601	628.36
640.049	658.06
640.497	690.16
640.944	705.36
641.392	656.26
641.84	624.46
642.287	598.76
642.735	581.36
643.182	593.36
643.63	589.36
644.078	597.16
644.525	607.66
644.973	613.46
645.42	612.56
645.867	635.16
646.315	661.56
646.762	676.96
647.21	712.86
647.657	730.36
648.104	773.76
648.551	792.46
648.999	858.76
649.446	943.66
649.893	1034.86
650.34	1191.86
650.787	1427.26
651.234	1789.66
651.682	2325.96
652.129	3245.86
652.576	4667.16
653.023	6859.16
653.47	9348.96
653.917	11595.56
654.363	13257.76
654.81	14558.16
655.257	13849.16
655.704	9060.56
656.151	5369.16
656.598	3490.16
657.044	2470.26
657.491	1896.86
657.938	1518.76
658.385	1266.76
658.831	1112.56
659.278	986.26
659.724	872.96
660.171	805.16
660.618	735.36
661.064	702.76
661.511	679.86
661.957	673.16
662.404	649.06
662.85	662.26
663.296	637.86
663.743	569.56
664.189	556.76
664.635	544.36
665.082	533.96
665.528	541.36
665.974	528.76
666.42	525.56
666.867	527.26
667.313	507.46
667.759	497.76
668.205	491.36
668.651	505.26
669.097	504.86
669.543	517.06
669.989	485.16
670.435	453.26
670.881	454.76
671.327	462.46
671.773	477.86
672.219	514.66
672.665	568.86
673.11	604.16
673.556	641.56
674.002	680.96
674.448	664.56
674.893	561.96
675.339	486.86
675.785	446.36
676.23	425.66
676.676	403.86
677.122	398.76
677.567	384.16
678.013	371.76
678.458	375.56
678.904	374.46
679.349	356.86
679.794	352.36
680.24	357.96
680.685	352.96
681.131	363.06
681.576	360.56
682.021	360.06
682.466	364.86
682.912	357.26
683.357	370.16
683.802	388.26
684.247	421.26
684.692	469.06
685.137	516.06
685.583	541.26
686.028	575.46
686.473	526.26
686.918	452.16
687.363	429.86
687.807	401.66
688.252	371.46
688.697	364.16
689.142	342.46
689.587	337.76
690.032	334.66
690.477	355.06
690.921	364.46
691.366	394.16
691.811	415.66
692.255	446.76
692.7	483.36
693.145	521.56
693.589	725.56
694.034	1170.76
694.478	1584.86
694.923	1764.96
695.367	2306.96
695.812	1219.56
696.256	506.86
696.701	378.16
697.145	348.96
697.59	338.56
698.034	326.06
698.478	341.06
698.922	337.16
699.367	342.26
699.811	349.86
700.255	362.16
700.699	396.76
701.143	439.76
701.588	483.56
702.032	527.16
702.476	522.36
702.92	505.36
703.364	510.56
703.808	676.66
704.252	1080.26
704.696	1492.86
705.14	1694.76
705.584	2167.56
706.027	1077.76
706.471	533.16
706.915	413.86
707.359	359.96
707.803	332.26
708.246	322.76
708.69	319.46
709.134	321.46
709.577	322.26
710.021	328.96
710.465	322.06
710.908	307.76
711.352	310.56
711.795	315.86
712.239	370.06
712.682	392.16
713.126	429.26
713.569	475.66
714.012	375.36
714.456	329.46
714.899	305.66
715.342	288.76
715.786	272.46
716.229	264.06
716.672	262.36
717.115	250.76
717.558	256.86
718.002	259.36
718.445	273.76
718.888	290.46
719.331	309.26
719.774	317.06
720.217	313.76
720.66	295.66
721.103	275.16
721.546	258.36
721.989	252.66
722.432	237.86
722.874	237.16
723.317	230.16
723.76	245.66
724.203	267.26
724.645	331.66
725.088	468.66
725.531	581.36
725.974	652.86
726.416	550.96
726.859	308.26
727.301	246.76
727.744	244.66
728.187	236.96
728.629	240.46
729.071	247.26
729.514	272.76
729.956	278.46
730.399	288.96
730.841	296.26
731.283	280.56
731.726	267.46
732.168	268.46
732.61	275.46
733.053	295.56
733.495	323.56
733.937	365.16
734.379	404.96
734.821	439.76
735.263	567.56
735.705	876.06
736.148	1657.46
736.59	2657.46
737.032	3060.16
737.474	2494.86
737.916	827.06
738.357	433.66
738.799	335.76
739.241	310.36
739.683	296.66
740.125	311.66
740.567	312.66
741.008	320.06
741.45	321.96
741.892	330.16
742.334	357.76
742.775	371.46
743.217	353.96
743.658	274.26
744.1	256.06
744.542	269.46
744.983	320.46
745.425	342.16
745.866	350.06
746.307	292.86
746.749	293.06
747.19	338.56
747.632	479.16
748.073	942.96
748.514	1953.56
748.956	2912.66
749.397	3670.26
749.838	3032.86
750.279	2975.46
750.72	1512.66
751.162	559.16
751.603	327.66
752.044	260.96
752.485	220.26
752.926	214.96
753.367	205.36
753.808	201.56
754.249	195.36
754.69	188.86
755.131	186.66
755.572	185.96
756.013	181.56
756.453	195.86
756.894	202.16
757.335	198.56
757.776	205.56
758.216	201.76
758.657	197.26
759.098	208.56
759.538	235.76
759.979	274.66
760.42	400.46
760.86	750.66
761.301	1941.76
761.741	4591.76
762.182	6475.36
762.622	4519.46
763.063	1328.06
763.503	551.66
763.943	357.26
764.384	362.76
764.824	420.96
765.264	445.56
765.705	319.46
766.145	218.56
766.585	198.36
767.025	177.96
767.465	197.06
767.906	257.36
768.346	324.06
768.786	354.56
769.226	272.86
769.666	338.96
770.106	660.06
770.546	1643.96
770.986	2678.86
771.426	2374.26
771.866	808.86
772.306	329.36
772.745	221.16
773.185	180.76
773.625	177.06
774.065	173.26
774.505	202.56
774.944	318.46
775.384	711.16
775.824	1232.06
776.263	1178.46
776.703	513.16
777.142	228.56
777.582	166.26
778.021	141.76
778.461	144.36
778.9	146.06
779.34	136.86
779.779	126.26
780.219	111.56
780.658	117.66
781.097	114.06
781.537	114.56
781.976	110.06
782.415	110.46
782.855	111.66
783.294	112.56
783.733	114.16
784.172	112.76
784.611	104.76
785.05	116.86
785.489	119.96
785.928	123.86
786.367	127.36
786.806	122.96
787.245	126.06
787.684	139.56
788.123	149.26
788.562	132.76
789.001	128.16
789.44	123.26
789.879	120.46
790.317	125.16
790.756	131.26
791.195	128.26
791.634	146.86
792.072	209.16
792.511	381.06
792.95	1070.96
793.388	2186.86
793.827	1946.96
794.265	693.76
794.704	292.76
795.142	190.76
795.581	155.86
796.019	142.06
796.458	133.86
796.896	122.16
797.334	136.76
797.773	159.56
798.211	230.66
798.649	478.86
799.087	1067.56
799.526	1636.86
799.964	2068.76
800.402	2007.66
800.84	760.26
801.278	310.96
801.716	187.06
802.154	159.76
802.592	151.86
803.03	145.76
803.468	130.86
803.906	146.36
804.344	161.76
804.782	148.26
805.22	134.16
805.658	134.56
806.096	158.76
806.533	158.36
806.971	175.56
807.409	228.06
807.847	327.36
808.284	710.66
808.722	1950.36
809.16	3346.26
809.597	3265.46
810.035	5571.66
810.472	5742.46
810.91	2111.46
811.347	807.66
811.785	404.56
812.222	267.06
812.66	192.36
813.097	164.36
813.535	145.86
813.972	138.86
814.409	121.26
814.846	112.36
815.284	116.06
815.721	111.16
816.158	117.66
816.595	132.76
817.032	181.26
817.47	196.86
817.907	168.66
818.344	158.66
818.781	119.56
819.218	100.86
819.655	128.76
820.092	190.46
820.529	217.86
820.966	182.76
821.403	135.06
821.839	119.56
822.276	103.26
822.713	121.66
823.15	141.86
823.587	122.16
824.023	152.46
824.46	321.06
824.897	951.76
825.333	1357.16
825.77	589.96
826.206	241.36
826.643	141.66
827.08	103.26
827.516	84.16
827.953	75.86
828.389	82.06
828.825	74.16
829.262	77.36
829.698	67.06
830.135	66.56
830.571	67.86
831.007	65.16
831.443	65.86
831.88	64.96
832.316	65.26
832.752	63.36
833.188	65.16
833.624	72.76
834.06	67.16
834.497	71.36
834.933	71.66
835.369	74.96
835.805	73.66
836.241	82.36
836.677	87.86
837.112	93.46
837.548	109.66
837.984	137.16
838.42	215.36
838.856	518.06
839.292	1568.36
839.727	2301.16
840.163	1086.16
840.599	967.46
841.034	2091.46
841.47	2127.26
841.906	788.46
842.341	345.46
842.777	242.76
843.212	328.46
843.648	312.16
844.083	158.56
844.519	103.66
844.954	76.06
845.39	57.56
845.825	54.56
846.261	57.26
846.696	56.96
847.131	49.86
847.566	63.06
848.002	51.56
848.437	55.36
848.872	68.76
849.307	64.26
849.742	85.06
850.177	192.16
850.613	580.06
851.048	887.96
851.483	385.86
851.918	152.46
852.353	98.46
852.788	66.06
853.223	51.36
853.657	53.06
854.092	52.36
854.527	47.26
854.962	44.26
855.397	46.26
855.832	50.16
856.266	45.36
856.701	42.16
857.136	34.56
857.57	46.46
858.005	54.96
858.44	56.66
858.874	52.46
859.309	54.66
859.743	36.26
860.178	55.16
860.612	46.16
861.047	48.26
861.481	73.56
861.915	68.26
862.35	50.16
862.784	40.26
863.218	40.76
863.653	34.46
864.087	49.76
864.521	55.56
864.955	64.86
865.39	165.26
865.824	180.46
866.258	114.26
866.692	166.06
867.126	168.66
867.56	101.86
867.994	51.16
868.428	37.06
868.862	47.06
869.296	51.36
869.73	62.66
870.164	54.06
870.598	44.66
871.031	42.06
871.465	36.46
871.899	36.56
872.333	22.76
872.766	30.36
873.2	25.36
873.634	32.46
874.067	31.76
874.501	28.16
874.935	31.76
875.368	29.86
875.802	33.16
876.235	23.36
876.669	25.46
877.102	26.46
877.535	30.56
877.969	20.06
878.402	22.56
878.836	23.06
879.269	22.56
879.702	29.36
880.135	19.36
880.569	21.16
881.002	34.26
881.435	25.96
881.868	24.76
882.301	23.46
882.734	16.56
883.167	25.86
883.601	20.16
884.034	20.46
884.467	10.46
884.899	24.06
885.332	20.26
885.765	18.46
886.198	15.26
886.631	22.56
887.064	18.66
887.497	19.36
887.929	24.96
888.362	18.26
888.795	12.66
889.228	18.06
889.66	21.06
890.093	23.56
890.526	18.16
890.958	14.36
891.391	24.16
891.823	22.86
892.256	20.06
892.688	16.86
893.121	14.36
893.553	17.66
893.985	22.16
894.418	13.16
894.85	16.06
895.282	16.56
895.715	17.56
896.147	21.46
896.579	19.76
897.011	15.16
897.444	16.16
897.876	18.16
898.308	19.76
898.74	22.46
899.172	15.06
899.604	22.36
900.036	20.86
900.468	10.46
900.9	11.26
901.332	16.76
901.764	18.16
902.196	17.06
902.628	17.86
903.06	18.16
903.491	30.36
903.923	22.56
904.355	19.06
904.787	27.26
905.218	17.66
905.65	28.96
906.082	16.96
906.513	12.76
906.945	17.76
907.376	13.46
907.808	20.36
908.239	23.16
908.671	22.66
909.102	19.16
909.534	20.16
909.965	47.26
910.397	103.46
910.828	321.56
911.259	477.16
911.691	224.66
912.122	107.56
912.553	53.66
912.984	32.86
913.415	23.76
913.847	26.16
914.278	18.66
914.709	17.86
915.14	20.56
915.571	15.46
916.002	10.76
916.433	19.96
916.864	11.16
917.295	15.46
917.726	18.06
918.157	17.26
918.587	23.56
919.018	22.76
919.449	24.16
919.88	24.36
920.311	36.16
920.741	54.46
921.172	171.06
921.603	144.06
922.033	72.26
922.464	48.86
922.895	22.36
923.325	21.46
923.756	18.16
924.186	19.36
924.617	25.26
925.047	42.56
925.478	47.46
925.908	48.46
926.338	21.16
926.769	21.76
927.199	25.06
927.629	9.66
928.06	16.76
928.49	14.36
928.92	19.16
929.35	10.66
929.78	15.06
930.21	7.76
930.641	8.66
931.071	4.16
931.501	3.36
931.931	18.26
932.361	11.16
932.791	2.56
933.221	6.36
933.651	5.76
934.08	10.46
934.51	26.46
934.94	8.66
935.37	3.86
935.8	11.96
936.229	12.66
936.659	13.36
937.089	2.46
937.519	12.46
937.948	21.86
938.378	13.96
938.807	7.36
939.237	8.16
939.666	11.16
940.096	-10.34
940.525	-0.64
940.955	2.86
941.384	5.66
941.814	-2.04
942.243	-4.24
942.672	6.96
943.102	-3.64
943.531	4.46
943.96	7.26
944.39	6.06
944.819	2.06
945.248	4.06
945.677	3.26
946.106	3.06
946.535	5.46
946.964	-1.64
947.393	5.66
947.822	1.46
948.251	-4.34
948.68	0.76
949.109	5.76
949.538	12.66
949.967	1.66
950.396	3.16
950.825	0.46
951.254	5.26
951.682	-10.74
952.111	7.66
952.54	3.86
952.969	0.26
953.397	-2.94
953.826	1.86
954.254	-3.04
954.683	3.26
955.112	-0.64
955.54	8.16
955.969	3.06
956.397	1.06
956.826	3.36
957.254	6.46
957.682	3.46
958.111	9.06
958.539	-3.14
958.967	0.56
959.396	-6.54
959.824	0.36
960.252	1.46
960.68	-3.64
961.109	-0.64
961.537	-1.74
961.965	5.26
962.393	4.16
962.821	-4.84
963.249	2.66
963.677	3.06
964.105	6.96
964.533	46.76
964.961	44.56
965.389	21.46
965.817	11.16
966.245	1.36
966.672	-5.84
967.1	-11.84
967.528	1.46
967.956	0.96
968.383	2.96
968.811	-6.64
969.239	3.76
969.666	-2.54
970.094	2.66
970.522	3.96
970.949	-2.14
971.377	-2.54
971.804	-0.34
972.232	-1.14
972.659	1.56
973.087	-3.74
973.514	-3.84
973.941	-3.24
974.369	6.46
974.796	-2.04
975.223	0.46
975.651	-0.44
976.078	6.66
976.505	-4.54
976.932	4.36
977.359	17.46
977.786	14.96
978.214	5.46
978.641	-5.84
979.068	-0.74
979.495	-5.74
979.922	-0.14
980.349	-2.84
980.776	3.96
981.202	-2.64
981.629	3.06
982.056	7.56
982.483	-1.74
982.91	6.46
983.337	-5.84
983.763	8.16
984.19	-8.34
984.617	-3.64
985.043	-4.14
985.47	0.56
985.897	0.46
986.323	-4.64
986.75	2.76
987.176	-2.34
987.603	-0.64
988.029	-1.44
988.456	0.96
988.882	5.96
989.308	-4.64
989.735	-1.64
990.161	4.86
990.587	-6.94
991.014	-2.14
991.44	6.76
991.866	-4.54
992.292	-1.54
992.719	-8.64
993.145	8.96
993.571	-12.54
993.997	-9.64
994.423	-5.34
994.849	-7.54
995.275	0.36
995.701	-0.04
996.127	-2.54
996.553	1.16
996.979	-0.24
997.405	-4.34
997.83	-2.54
998.256	-2.64
998.682	-8.64
999.108	-1.74
999.534	-0.04
999.959	-0.24
1000.385	-3.34
1000.811	1.06
1001.236	-9.24
1001.662	0.26
1002.087	-9.64
1002.513	-1.84
1002.938	2.36
1003.364	-1.94
1003.789	0.36
1004.215	-4.34
1004.64	0.66
1005.066	1.96
1005.491	-1.04
1005.916	-6.14
1006.342	0.56
1006.767	-5.84
1007.192	1.56
1007.617	-3.64
1008.042	-6.14
1008.468	-4.74
1008.893	1.16
1009.318	1.96
1009.743	1.26
1010.168	6.56
1010.593	2.86
1011.018	-12.64
1011.443	-5.24
1011.868	-1.54
1012.293	-5.14
1012.718	-10.24
1013.143	2.56
1013.567	0.26
1013.992	-3.84
1014.417	-15.84
1014.842	-3.04
1015.267	-3.94
1015.691	-7.54
1016.116	1.16
1016.541	-4.94
1016.965	1.46
1017.39	5.16
1017.814	-2.34
1018.239	3.36
1018.663	-8.84
1019.088	-9.54
1019.512	-1.74
1019.937	1.06
1020.361	-0.84
1020.785	-8.24
1021.21	-4.14
1021.634	-3.54
1022.058	1.46
1022.483	-2.24
1022.907	-3.54
1023.331	-2.84
1023.755	-1.94
1024.179	-2.74
1024.604	-7.04
1025.028	-3.34
1025.452	-3.54
1025.876	-0.14
1026.3	2.66
1026.724	-10.44
1027.148	-4.94
1027.572	-9.14
1027.996	-7.24
1028.42	-1.04
1028.843	-4.04
1029.267	-5.24
1029.691	-7.14
1030.115	-8.34
1030.539	-9.04
1030.962	-9.24
1031.386	-13.34
1031.81	-5.84
1032.233	-0.74
1032.657	-4.84
1033.08	-0.24
1033.504	4.16
1033.927	-1.74
1034.351	0.06
1034.774	-2.24
1035.198	2.46
1035.621	-10.24
1036.045	-3.94
1036.468	0.16
1036.891	-6.74
1037.315	-5.64
1037.738	-8.04
1038.161	-3.64
1038.584	-7.44
1039.008	-7.84
1039.431	-1.54
1039.854	-8.74
1040.277	-10.84
1040.7	-9.74
1041.123	-1.14
1041.546	-9.74
1041.969	-3.04
1042.392	-4.84
1042.815	-6.34
1043.238	-1.04
1043.661	0.26
1044.084	-5.24
1044.507	-9.14
1044.93	-3.74
1045.352	-2.94
1045.775	-1.14
1046.198	-2.84
1046.621	-3.84
1047.043	-2.14
1047.466	7.26
1047.889	-6.44
1048.311	-7.74
1048.734	-1.84
1049.156	-6.24
1049.579	-4.84
1050.001	-3.24
1050.424	-1.74
1050.846	-3.54
1051.269	-5.84
1051.691	-6.44
1052.113	-7.54
1052.536	-2.04
1052.958	-6.34
1053.38	-1.64
1053.802	-8.44
1054.225	3.36
1054.647	-10.14
1055.069	-9.54
1055.491	3.16
1055.913	-4.14
1056.335	-1.44
1056.757	-4.04
1057.179	-4.84
1057.601	-1.14
1058.023	-5.94
1058.445	-5.44
1058.867	-3.74
1059.289	-2.94
1059.711	-8.04
1060.133	-5.44
1060.555	-4.24
1060.976	-7.14
1061.398	-13.14
1061.82	-6.94
1062.241	-7.14
1062.663	-11.74
1063.085	-0.84
1063.506	0.56
1063.928	-1.64
1064.35	-1.44
1064.771	-8.74
1065.193	-1.04
1065.614	-9.94
1066.035	-4.54
1066.457	-4.34
1066.878	-1.84
1067.3	-9.64
1067.721	-4.64
1068.142	-4.64
1068.564	1.36
1068.985	-4.84
1069.406	-3.54
1069.827	-3.84
1070.248	1.26
1070.67	-8.14
1071.091	-0.04
1071.512	-3.24
1071.933	-7.24
1072.354	-3.74
1072.775	-5.14
1073.196	-6.54
1073.617	-0.04
1074.038	-6.24
1074.459	-4.04
1074.88	-9.74
1075.3	7.56
1075.721	-7.74
1076.142	0.36
1076.563	0.56
1076.983	-7.74
1077.404	-8.24
1077.825	-11.94
1078.246	-7.34
1078.666	-13.24
1079.087	-0.44
1079.507	-4.64
1079.928	-3.64
1080.348	-7.84
1080.769	-4.14
1081.189	-0.74
1081.61	-6.54
1082.03	-4.74
1082.451	-3.44
1082.871	-4.44
1083.291	-4.74
1083.711	-5.74
1084.132	-8.44
1084.552	-6.54
1084.972	3.26
1085.392	-3.64
1085.813	-9.34
1086.233	-4.84
1086.653	-5.34
1087.073	-0.74
1087.493	-3.84
1087.913	-7.44
1088.333	-0.14
1088.753	-1.34
1089.173	-2.04
1089.593	1.36
1090.013	1.06
1090.433	-0.64
1090.852	-4.44
1091.272	2.36
1091.692	-5.14
1092.112	-9.04
1092.531	-7.04
1092.951	-8.64
1093.371	-7.44
1093.79	4.66
1094.21	-8.14
1094.63	-2.74
1095.049	-7.64
1095.469	-0.14
1095.888	0.86
1096.308	-2.94
1096.727	4.16
1097.146	-9.54
1097.566	0.96
1097.985	-8.34
1098.405	-3.54
1098.824	-9.44
1099.243	-10.94
1099.662	-13.94
1100.082	-9.64
1100.501	-0.94
1100.92	-6.44
1101.339	-3.14
1101.758	-9.14
