Data from 20171114-ORNL-Ar_H_NY_Subt18_08-09-04-852.txt Node
Date: Tue Nov 14 08:09:04 EST 2017
User: Ender
Spectrometer: HR+D1039
Trigger mode: 0
Integration Time (sec): 2.730000E-2
Scans to average: 10
Electric dark correction enabled: true
Nonlinearity correction enabled: false
Boxcar width: 0
XAxis mode: Wavelengths
Number of Pixels in Spectrum: 2048
>>>>>Begin Spectral Data<<<<<
187.836	-3.39
188.309	-3.39
188.782	-3.39
189.255	2.71
189.728	-1.99
190.201	3.61
190.674	-3.59
191.147	6.11
191.619	-4.59
192.092	1.41
192.565	4.81
193.038	1.11
193.511	8.91
193.984	-1.49
194.456	-4.39
194.929	-3.99
195.402	-3.49
195.874	-1.69
196.347	-0.59
196.82	-9.49
197.292	6.71
197.765	-4.99
198.237	-3.69
198.71	-2.99
199.182	-6.49
199.655	1.21
200.127	1.71
200.6	1.11
201.072	-0.99
201.544	-6.79
202.017	-5.59
202.489	4.61
202.961	-3.49
203.433	-7.49
203.906	-3.49
204.378	-7.19
204.85	-4.29
205.322	-6.49
205.794	-7.79
206.266	-10.49
206.739	-14.69
207.211	2.11
207.683	-15.69
208.155	-6.29
208.627	-10.89
209.099	-6.69
209.57	-13.99
210.042	-0.29
210.514	-8.69
210.986	-0.89
211.458	-9.39
211.93	-1.89
212.402	-5.89
212.873	-10.79
213.345	-11.79
213.817	-12.49
214.288	-3.59
214.76	-9.69
215.232	-3.09
215.703	-1.89
216.175	-3.39
216.646	-7.29
217.118	-6.89
217.589	-5.49
218.061	-9.69
218.532	-5.99
219.004	-5.29
219.475	-5.69
219.946	-8.49
220.418	-2.09
220.889	1.71
221.36	-4.99
221.832	-4.39
222.303	-9.19
222.774	-3.69
223.245	-7.19
223.717	-5.49
224.188	-1.39
224.659	-3.69
225.13	-4.99
225.601	-1.99
226.072	-2.19
226.543	-1.59
227.014	-1.49
227.485	-1.49
227.956	-10.69
228.427	-4.39
228.898	-1.99
229.369	0.41
229.839	-10.79
230.31	-5.59
230.781	3.01
231.252	-6.29
231.722	-10.39
232.193	-6.29
232.664	-3.39
233.135	-4.79
233.605	-1.79
234.076	-13.69
234.546	-7.19
235.017	-2.29
235.487	1.51
235.958	-6.19
236.428	-7.19
236.899	-1.99
237.369	0.71
237.84	-4.99
238.31	-5.29
238.78	-0.09
239.251	-10.19
239.721	-4.69
240.191	-7.09
240.662	-5.69
241.132	-3.59
241.602	-2.59
242.072	-3.89
242.542	5.01
243.013	-3.79
243.483	-0.99
243.953	1.01
244.423	-4.89
244.893	-9.79
245.363	-3.99
245.833	-1.69
246.303	-5.89
246.773	-1.79
247.243	-7.29
247.712	-6.69
248.182	1.61
248.652	-1.29
249.122	-11.39
249.592	-5.19
250.061	-4.09
250.531	4.51
251.001	-2.79
251.471	-1.49
251.94	4.41
252.41	-3.69
252.879	-12.79
253.349	5.81
253.818	1.81
254.288	-4.19
254.757	-4.29
255.227	-10.59
255.696	-4.79
256.166	0.61
256.635	4.61
257.105	-1.39
257.574	-0.79
258.043	-1.29
258.513	-7.29
258.982	-0.89
259.451	-0.59
259.92	2.21
260.389	2.41
260.859	6.41
261.328	0.41
261.797	-1.99
262.266	-4.09
262.735	4.41
263.204	-2.69
263.673	-8.39
264.142	3.21
264.611	-4.19
265.08	-2.89
265.549	-2.99
266.018	-0.99
266.487	-5.99
266.955	-7.69
267.424	-1.29
267.893	3.41
268.362	-6.09
268.83	-2.89
269.299	3.31
269.768	-0.79
270.236	-0.99
270.705	-2.79
271.174	-3.89
271.642	-2.89
272.111	2.71
272.579	1.81
273.048	0.61
273.516	0.01
273.985	-2.89
274.453	5.41
274.922	8.31
275.39	5.01
275.858	-5.39
276.327	4.61
276.795	7.61
277.263	-0.49
277.731	1.81
278.2	4.71
278.668	5.11
279.136	-1.49
279.604	-4.79
280.072	14.91
280.54	9.11
281.008	1.01
281.477	10.01
281.945	5.41
282.413	4.11
282.881	11.81
283.348	-0.69
283.816	4.71
284.284	5.91
284.752	10.61
285.22	5.21
285.688	2.71
286.156	2.81
286.623	14.61
287.091	6.11
287.559	3.91
288.026	5.91
288.494	4.21
288.962	-1.19
289.429	3.31
289.897	6.21
290.364	10.31
290.832	10.11
291.3	0.81
291.767	10.71
292.234	8.31
292.702	7.01
293.169	5.51
293.637	11.61
294.104	14.81
294.571	-0.79
295.039	2.01
295.506	6.71
295.973	6.41
296.44	9.41
296.908	8.71
297.375	3.11
297.842	7.81
298.309	10.71
298.776	6.01
299.243	9.91
299.71	0.61
300.177	9.41
300.644	8.61
301.111	10.71
301.578	18.51
302.045	9.61
302.512	10.71
302.979	24.21
303.446	12.21
303.913	9.01
304.379	7.11
304.846	18.11
305.313	19.81
305.78	14.61
306.246	17.01
306.713	15.71
307.18	18.31
307.646	15.81
308.113	14.11
308.579	14.21
309.046	17.91
309.512	14.01
309.979	7.91
310.445	16.91
310.912	15.81
311.378	26.21
311.845	13.61
312.311	20.81
312.777	22.31
313.244	19.31
313.71	28.31
314.176	20.61
314.642	18.31
315.109	15.01
315.575	26.41
316.041	24.71
316.507	21.91
316.973	21.71
317.439	22.11
317.905	29.51
318.371	25.31
318.837	21.01
319.303	29.11
319.769	22.71
320.235	19.91
320.701	20.01
321.167	25.11
321.633	20.61
322.099	25.21
322.564	28.61
323.03	31.21
323.496	25.01
323.962	34.91
324.427	25.71
324.893	38.61
325.359	28.81
325.824	23.61
326.29	21.41
326.755	34.61
327.221	28.71
327.686	24.01
328.152	34.31
328.617	29.91
329.083	33.91
329.548	35.11
330.014	35.91
330.479	26.71
330.944	32.71
331.41	30.61
331.875	33.21
332.34	31.31
332.805	29.81
333.271	31.41
333.736	24.11
334.201	33.11
334.666	35.21
335.131	37.71
335.596	41.51
336.061	33.11
336.526	30.11
336.991	34.81
337.456	40.01
337.921	36.61
338.386	33.31
338.851	31.41
339.316	37.71
339.781	39.51
340.246	46.31
340.711	35.61
341.175	40.51
341.64	38.11
342.105	46.61
342.569	47.01
343.034	44.61
343.499	44.01
343.963	40.71
344.428	49.41
344.893	49.21
345.357	48.81
345.822	50.51
346.286	53.81
346.751	55.81
347.215	55.31
347.679	55.01
348.144	73.71
348.608	67.61
349.073	55.31
349.537	57.91
350.001	61.11
350.465	68.81
350.93	68.21
351.394	66.21
351.858	62.61
352.322	74.61
352.786	65.01
353.25	72.91
353.715	82.61
354.179	79.31
354.643	87.51
355.107	98.81
355.571	80.71
356.035	74.21
356.498	82.21
356.962	83.51
357.426	95.21
357.89	90.71
358.354	73.21
358.818	64.41
359.281	62.41
359.745	59.81
360.209	61.91
360.673	60.81
361.136	64.91
361.6	68.31
362.064	75.41
362.527	69.91
362.991	73.31
363.454	68.01
363.918	59.81
364.381	67.11
364.845	73.11
365.308	74.11
365.772	74.61
366.235	73.41
366.698	69.61
367.162	68.71
367.625	64.01
368.088	74.71
368.552	81.01
369.015	72.81
369.478	76.91
369.941	77.81
370.404	79.11
370.867	85.91
371.331	81.01
371.794	90.91
372.257	87.71
372.72	89.61
373.183	92.51
373.646	79.81
374.109	82.41
374.572	86.11
375.035	88.21
375.497	90.01
375.96	88.81
376.423	85.11
376.886	98.51
377.349	98.31
377.811	87.21
378.274	91.71
378.737	91.11
379.199	95.41
379.662	92.71
380.125	98.11
380.587	94.31
381.05	92.61
381.512	97.01
381.975	106.91
382.437	101.01
382.9	100.21
383.362	106.61
383.825	114.41
384.287	112.51
384.75	110.01
385.212	111.41
385.674	116.31
386.136	119.61
386.599	113.21
387.061	113.51
387.523	107.31
387.985	109.11
388.447	118.91
388.91	111.71
389.372	113.11
389.834	115.61
390.296	112.01
390.758	123.01
391.22	121.41
391.682	131.41
392.144	134.11
392.606	131.11
393.068	122.91
393.529	140.31
393.991	125.51
394.453	126.81
394.915	123.71
395.377	125.91
395.838	121.51
396.3	121.41
396.762	122.61
397.224	119.31
397.685	117.91
398.147	123.21
398.608	124.41
399.07	114.91
399.531	131.01
399.993	129.91
400.454	143.51
400.916	139.41
401.377	129.91
401.839	140.01
402.3	138.31
402.762	154.31
403.223	163.91
403.684	158.81
404.145	149.51
404.607	147.31
405.068	157.51
405.529	153.51
405.99	172.01
406.451	159.51
406.913	159.61
407.374	148.61
407.835	154.61
408.296	157.41
408.757	162.21
409.218	172.41
409.679	170.91
410.14	166.11
410.601	164.81
411.062	167.51
411.522	169.41
411.983	163.51
412.444	168.21
412.905	172.11
413.366	176.71
413.826	183.81
414.287	212.51
414.748	258.31
415.208	236.11
415.669	200.21
416.13	202.51
416.59	194.31
417.051	203.41
417.511	220.31
417.972	234.71
418.432	243.71
418.893	287.31
419.353	244.11
419.814	196.71
420.274	174.51
420.734	176.41
421.195	186.31
421.655	181.71
422.115	186.11
422.576	185.61
423.036	192.61
423.496	204.51
423.956	210.91
424.416	225.41
424.876	251.91
425.336	246.81
425.797	248.11
426.257	253.61
426.717	235.81
427.177	223.51
427.637	213.51
428.097	228.31
428.556	230.71
429.016	260.11
429.476	250.01
429.936	257.21
430.396	257.11
430.856	275.11
431.315	291.41
431.775	328.21
432.235	361.31
432.694	338.81
433.154	343.31
433.614	363.81
434.073	318.21
434.533	265.61
434.993	253.21
435.452	260.71
435.912	277.91
436.371	262.91
436.83	265.91
437.29	247.71
437.749	233.61
438.209	237.31
438.668	263.21
439.127	265.91
439.587	258.11
440.046	237.91
440.505	242.71
440.964	268.41
441.424	311.51
441.883	302.91
442.342	251.11
442.801	226.21
443.26	219.51
443.719	228.31
444.178	220.41
444.637	212.21
445.096	220.91
445.555	224.61
446.014	223.21
446.473	229.61
446.932	230.21
447.391	224.11
447.849	230.71
448.308	221.51
448.767	229.71
449.226	233.01
449.685	241.31
450.143	252.21
450.602	238.31
451.061	228.61
451.519	232.91
451.978	220.91
452.436	233.61
452.895	242.51
453.353	246.61
453.812	238.01
454.27	236.11
454.729	245.91
455.187	241.41
455.646	250.51
456.104	242.51
456.562	256.91
457.021	264.51
457.479	259.61
457.937	272.11
458.395	257.71
458.854	253.41
459.312	250.81
459.77	268.81
460.228	253.11
460.686	252.51
461.144	258.21
461.602	251.41
462.06	247.71
462.518	256.01
462.976	258.21
463.434	259.11
463.892	259.01
464.35	270.91
464.808	277.91
465.266	261.71
465.724	270.31
466.181	278.91
466.639	268.91
467.097	295.11
467.555	305.71
468.012	306.81
468.47	317.61
468.928	325.21
469.385	346.61
469.843	345.31
470.3	350.01
470.758	361.21
471.215	384.61
471.673	399.31
472.13	408.41
472.588	414.91
473.045	377.11
473.503	384.11
473.96	397.21
474.417	392.41
474.875	429.71
475.332	472.61
475.789	464.61
476.246	467.91
476.704	478.71
477.161	496.81
477.618	513.01
478.075	547.81
478.532	602.91
478.989	675.91
479.446	780.11
479.903	744.21
480.36	772.11
480.817	817.61
481.274	906.01
481.731	990.21
482.188	1065.71
482.645	1187.21
483.102	1272.41
483.558	1400.31
484.015	1425.21
484.472	1407.41
484.929	1352.31
485.385	1330.31
485.842	1289.41
486.299	1247.91
486.755	1202.21
487.212	1034.11
487.668	883.51
488.125	809.61
488.582	752.51
489.038	726.91
489.494	692.91
489.951	672.01
490.407	660.21
490.864	636.71
491.32	630.61
491.776	640.31
492.233	640.61
492.689	599.71
493.145	605.61
493.602	602.81
494.058	604.81
494.514	605.41
494.97	629.81
495.426	648.61
495.882	610.51
496.338	613.81
496.794	611.81
497.251	614.81
497.707	615.51
498.163	632.11
498.618	639.01
499.074	637.01
499.53	661.91
499.986	660.91
500.442	647.41
500.898	624.41
501.354	612.91
501.809	620.91
502.265	627.81
502.721	636.81
503.177	641.51
503.632	641.91
504.088	644.61
504.543	671.71
504.999	685.81
505.455	656.71
505.91	632.81
506.366	639.11
506.821	632.61
507.277	633.81
507.732	637.51
508.187	640.31
508.643	649.41
509.098	650.81
509.553	666.91
510.009	671.31
510.464	676.41
510.919	696.71
511.375	706.41
511.83	717.01
512.285	725.21
512.74	754.31
513.195	785.21
513.65	770.21
514.105	770.91
514.56	775.41
515.015	796.01
515.47	795.31
515.925	784.61
516.38	793.11
516.835	789.91
517.29	783.01
517.745	780.01
518.2	766.21
518.655	765.31
519.109	746.81
519.564	749.11
520.019	737.91
520.474	721.61
520.928	723.91
521.383	729.61
521.838	717.61
522.292	719.71
522.747	724.41
523.201	710.31
523.656	708.61
524.11	701.71
524.565	702.71
525.019	696.71
525.474	709.91
525.928	703.61
526.382	704.81
526.837	702.01
527.291	710.61
527.745	704.41
528.2	702.11
528.654	691.81
529.108	694.31
529.562	699.61
530.016	694.31
530.47	706.31
530.925	700.41
531.379	702.31
531.833	706.31
532.287	691.31
532.741	701.81
533.195	707.61
533.649	712.21
534.103	727.91
534.556	713.51
535.01	715.91
535.464	704.41
535.918	720.61
536.372	732.71
536.826	718.81
537.279	708.11
537.733	720.31
538.187	716.21
538.64	726.51
539.094	731.21
539.548	730.21
540.001	739.01
540.455	730.81
540.908	748.51
541.362	749.31
541.815	762.61
542.269	768.01
542.722	772.71
543.175	779.81
543.629	788.31
544.082	808.91
544.536	789.51
544.989	802.51
545.442	806.81
545.895	805.71
546.349	812.81
546.802	807.21
547.255	809.51
547.708	832.31
548.161	826.91
548.614	834.61
549.067	839.41
549.52	829.81
549.973	829.11
550.426	828.21
550.879	810.91
551.332	816.21
551.785	818.21
552.238	825.61
552.691	835.31
553.144	844.61
553.596	857.31
554.049	872.11
554.502	904.21
554.955	923.51
555.407	930.71
555.86	915.11
556.313	900.91
556.765	895.61
557.218	899.71
557.67	895.51
558.123	894.11
558.576	898.81
559.028	897.21
559.48	900.71
559.933	884.11
560.385	860.11
560.838	843.41
561.29	812.61
561.742	813.61
562.195	790.61
562.647	784.31
563.099	795.61
563.551	794.41
564.004	794.01
564.456	785.51
564.908	782.01
565.36	767.41
565.812	737.01
566.264	734.11
566.716	736.61
567.168	724.61
567.62	722.31
568.072	709.11
568.524	704.11
568.976	706.91
569.428	699.61
569.88	692.31
570.332	702.21
570.784	697.01
571.235	698.81
571.687	716.51
572.139	715.51
572.59	725.21
573.042	732.41
573.494	729.21
573.945	723.51
574.397	706.71
574.849	714.01
575.3	707.61
575.752	704.11
576.203	701.21
576.655	697.81
577.106	686.31
577.557	679.31
578.009	681.01
578.46	675.71
578.912	681.31
579.363	677.91
579.814	681.61
580.265	672.91
580.717	687.01
581.168	695.61
581.619	694.11
582.07	694.11
582.521	691.01
582.972	685.41
583.423	694.71
583.875	698.71
584.326	699.21
584.777	716.51
585.227	738.51
585.678	752.41
586.129	768.21
586.58	794.01
587.031	820.71
587.482	852.21
587.933	882.31
588.384	840.71
588.834	817.31
589.285	789.31
589.736	794.31
590.186	802.21
590.637	795.81
591.088	761.61
591.538	765.41
591.989	742.81
592.439	750.31
592.89	737.51
593.34	737.21
593.791	719.61
594.241	711.51
594.692	722.41
595.142	706.51
595.593	716.81
596.043	718.91
596.493	724.31
596.943	717.91
597.394	741.11
597.844	735.91
598.294	753.91
598.744	785.01
599.195	799.21
599.645	853.51
600.095	880.81
600.545	947.71
600.995	994.31
601.445	1058.81
601.895	1119.21
602.345	1164.51
602.795	1157.31
603.245	1097.81
603.695	1042.91
604.145	984.21
604.594	927.11
605.044	880.21
605.494	824.91
605.944	782.11
606.393	769.31
606.843	749.01
607.293	762.21
607.743	739.91
608.192	769.71
608.642	772.01
609.091	773.21
609.541	774.21
609.99	777.21
610.44	784.21
610.889	744.31
611.339	719.21
611.788	709.91
612.238	702.31
612.687	726.11
613.136	715.71
613.586	728.51
614.035	733.51
614.484	732.91
614.933	723.31
615.383	739.81
615.832	725.81
616.281	727.01
616.73	681.31
617.179	680.51
617.628	659.61
618.077	645.31
618.526	642.11
618.975	639.01
619.424	628.51
619.873	626.71
620.322	631.41
620.771	628.01
621.22	630.41
621.669	612.71
622.118	602.41
622.567	598.51
623.015	581.71
623.464	584.01
623.913	567.21
624.361	561.01
624.81	562.91
625.259	568.21
625.707	571.61
626.156	569.91
626.604	584.21
627.053	587.81
627.501	584.21
627.95	594.01
628.398	598.41
628.847	586.41
629.295	596.71
629.744	599.31
630.192	578.01
630.64	577.61
631.089	563.41
631.537	556.51
631.985	538.91
632.433	556.51
632.881	543.71
633.33	540.81
633.778	550.21
634.226	530.21
634.674	562.51
635.122	554.21
635.57	572.01
636.018	575.81
636.466	581.91
636.914	574.91
637.362	596.61
637.81	586.61
638.258	605.31
638.705	600.21
639.153	634.31
639.601	642.71
640.049	656.41
640.497	696.01
640.944	715.81
641.392	664.61
641.84	634.31
642.287	612.41
642.735	586.31
643.182	580.71
643.63	579.81
644.078	578.41
644.525	599.61
644.973	588.51
645.42	612.21
645.867	637.31
646.315	650.81
646.762	677.41
647.21	695.21
647.657	722.81
648.104	755.01
648.551	771.21
648.999	825.41
649.446	909.71
649.893	986.01
650.34	1131.61
650.787	1354.31
651.234	1680.01
651.682	2154.01
652.129	2933.61
652.576	4162.81
653.023	6078.81
653.47	8198.51
653.917	10084.31
654.363	11514.11
654.81	12651.71
655.257	11964.31
655.704	7972.41
656.151	4792.11
656.598	3140.01
657.044	2284.71
657.491	1765.31
657.938	1426.81
658.385	1198.81
658.831	1036.31
659.278	941.01
659.724	846.11
660.171	787.31
660.618	725.51
661.064	697.41
661.511	675.51
661.957	662.71
662.404	650.91
662.85	655.41
663.296	626.31
663.743	572.31
664.189	553.41
664.635	559.81
665.082	549.11
665.528	535.51
665.974	532.81
666.42	525.51
666.867	521.71
667.313	500.11
667.759	478.21
668.205	463.91
668.651	471.01
669.097	457.61
669.543	459.11
669.989	462.91
670.435	459.21
670.881	458.71
671.327	479.91
671.773	490.11
672.219	508.41
672.665	567.71
673.11	606.91
673.556	651.11
674.002	687.21
674.448	685.61
674.893	579.01
675.339	496.71
675.785	462.41
676.23	440.01
676.676	417.21
677.122	402.31
677.567	393.91
678.013	384.71
678.458	371.31
678.904	373.11
679.349	361.71
679.794	372.21
680.24	374.11
680.685	365.31
681.131	363.01
681.576	368.91
682.021	371.71
682.466	361.01
682.912	370.01
683.357	371.81
683.802	403.21
684.247	436.21
684.692	480.11
685.137	520.21
685.583	566.11
686.028	591.71
686.473	540.51
686.918	467.31
687.363	440.21
687.807	417.51
688.252	384.51
688.697	368.41
689.142	360.01
689.587	347.61
690.032	343.81
690.477	362.81
690.921	365.01
691.366	404.11
691.811	422.81
692.255	453.51
692.7	483.61
693.145	540.81
693.589	752.41
694.034	1229.61
694.478	1644.01
694.923	1816.01
695.367	2354.81
695.812	1260.11
696.256	528.41
696.701	388.91
697.145	364.61
697.59	344.81
698.034	340.51
698.478	343.31
698.922	335.01
699.367	337.71
699.811	351.71
700.255	366.11
700.699	397.81
701.143	449.91
701.588	493.71
702.032	533.71
702.476	535.21
702.92	520.21
703.364	531.11
703.808	708.21
704.252	1138.41
704.696	1559.71
705.14	1736.31
705.584	2213.81
706.027	1121.21
706.471	551.21
706.915	420.21
707.359	367.91
707.803	334.81
708.246	325.71
708.69	332.91
709.134	333.41
709.577	322.61
710.021	329.51
710.465	314.91
710.908	313.51
711.352	314.11
711.795	325.51
712.239	375.61
712.682	406.31
713.126	435.61
713.569	477.61
714.012	376.81
714.456	321.21
714.899	302.51
715.342	292.31
715.786	277.91
716.229	266.71
716.672	267.41
717.115	268.21
717.558	266.11
718.002	269.71
718.445	270.91
718.888	300.71
719.331	308.41
719.774	321.91
720.217	318.41
720.66	303.91
721.103	277.31
721.546	265.71
721.989	261.21
722.432	244.71
722.874	247.31
723.317	236.51
723.76	240.71
724.203	264.81
724.645	340.81
725.088	479.81
725.531	598.21
725.974	675.11
726.416	577.01
726.859	328.31
727.301	264.91
727.744	253.01
728.187	246.21
728.629	250.21
729.071	257.81
729.514	270.81
729.956	286.91
730.399	296.21
730.841	298.11
731.283	291.11
731.726	281.61
732.168	273.81
732.61	288.01
733.053	307.01
733.495	338.71
733.937	364.71
734.379	421.81
734.821	471.81
735.263	592.51
735.705	921.61
736.148	1753.51
736.59	2777.01
737.032	3195.21
737.474	2615.91
737.916	868.81
738.357	457.61
738.799	345.51
739.241	309.71
739.683	299.91
740.125	315.91
740.567	312.41
741.008	340.01
741.45	334.91
741.892	332.01
742.334	367.71
742.775	376.21
743.217	364.71
743.658	286.71
744.1	270.41
744.542	281.21
744.983	335.11
745.425	372.61
745.866	362.81
746.307	296.31
746.749	297.21
747.19	350.71
747.632	503.61
748.073	999.41
748.514	2059.51
748.956	3045.61
749.397	3828.81
749.838	3185.71
750.279	3093.01
750.72	1586.41
751.162	591.21
751.603	342.41
752.044	272.51
752.485	227.21
752.926	220.11
753.367	210.41
753.808	200.71
754.249	198.21
754.69	198.41
755.131	193.71
755.572	192.01
756.013	188.91
756.453	189.81
756.894	196.11
757.335	199.71
757.776	198.41
758.216	207.01
758.657	203.71
759.098	213.81
759.538	236.61
759.979	290.81
760.42	405.61
760.86	796.91
761.301	2090.01
761.741	4863.51
762.182	6679.61
762.622	4732.01
763.063	1404.81
763.503	567.61
763.943	351.91
764.384	292.61
764.824	261.71
765.264	251.01
765.705	222.61
766.145	196.71
766.585	185.71
767.025	183.51
767.465	174.31
767.906	183.31
768.346	200.31
768.786	208.01
769.226	228.71
769.666	340.91
770.106	694.71
770.546	1726.61
770.986	2780.81
771.426	2466.31
771.866	843.51
772.306	349.61
772.745	221.21
773.185	184.11
773.625	163.91
774.065	156.21
774.505	166.71
774.944	222.61
775.384	388.61
775.824	609.21
776.263	586.21
776.703	286.91
777.142	169.11
777.582	140.61
778.021	124.61
778.461	125.61
778.9	128.41
779.34	128.91
779.779	120.91
780.219	112.31
780.658	112.01
781.097	113.81
781.537	116.11
781.976	118.11
782.415	114.81
782.855	110.51
783.294	108.61
783.733	107.61
784.172	110.71
784.611	105.31
785.05	115.61
785.489	115.61
785.928	126.11
786.367	121.11
786.806	120.81
787.245	138.71
787.684	150.41
788.123	150.31
788.562	136.71
789.001	129.21
789.44	132.61
789.879	124.61
790.317	121.41
790.756	133.81
791.195	136.41
791.634	156.21
792.072	220.71
792.511	405.51
792.95	1126.21
793.388	2244.51
793.827	1983.31
794.265	708.71
794.704	300.01
795.142	197.21
795.581	165.81
796.019	148.41
796.458	137.31
796.896	132.71
797.334	141.31
797.773	167.81
798.211	240.11
798.649	493.71
799.087	1116.81
799.526	1724.71
799.964	2156.11
800.402	2069.51
800.84	806.01
801.278	328.11
801.716	198.51
802.154	163.21
802.592	149.81
803.03	141.91
803.468	144.71
803.906	159.51
804.344	156.01
804.782	147.51
805.22	143.71
805.658	140.81
806.096	156.91
806.533	162.71
806.971	184.91
807.409	235.81
807.847	354.01
808.284	743.41
808.722	2076.21
809.16	3496.71
809.597	3445.61
810.035	5839.81
810.472	6027.71
810.91	2216.61
811.347	863.21
811.785	432.11
812.222	275.51
812.66	202.01
813.097	175.61
813.535	146.21
813.972	140.21
814.409	126.51
814.846	115.11
815.284	123.51
815.721	106.51
816.158	112.81
816.595	117.41
817.032	163.51
817.47	191.91
817.907	131.51
818.344	97.41
818.781	109.01
819.218	109.41
819.655	136.91
820.092	203.01
820.529	223.91
820.966	181.81
821.403	133.91
821.839	107.11
822.276	103.71
822.713	130.51
823.15	142.01
823.587	130.11
824.023	159.01
824.46	338.31
824.897	977.41
825.333	1410.71
825.77	610.81
826.206	251.01
826.643	142.81
827.08	111.91
827.516	82.41
827.953	78.11
828.389	79.21
828.825	76.01
829.262	74.41
829.698	64.91
830.135	69.31
830.571	61.81
831.007	67.71
831.443	67.11
831.88	64.01
832.316	64.21
832.752	64.21
833.188	68.71
833.624	66.21
834.06	67.31
834.497	71.51
834.933	72.51
835.369	73.91
835.805	73.01
836.241	77.01
836.677	79.31
837.112	97.61
837.548	106.51
837.984	148.41
838.42	226.71
838.856	554.91
839.292	1655.41
839.727	2426.61
840.163	1136.81
840.599	1028.91
841.034	2180.51
841.47	2189.91
841.906	827.91
842.341	355.61
842.777	215.81
843.212	221.31
843.648	194.21
844.083	116.01
844.519	89.71
844.954	75.11
845.39	55.11
845.825	52.11
846.261	57.71
846.696	53.61
847.131	57.31
847.566	63.01
848.002	52.81
848.437	50.51
848.872	60.81
849.307	64.71
849.742	87.81
850.177	204.31
850.613	618.71
851.048	919.41
851.483	401.41
851.918	164.31
852.353	91.11
852.788	62.71
853.223	56.31
853.657	55.71
854.092	50.41
854.527	39.81
854.962	42.11
855.397	44.21
855.832	49.01
856.266	46.01
856.701	40.61
857.136	37.01
857.57	46.01
858.005	50.81
858.44	58.81
858.874	46.51
859.309	57.61
859.743	38.91
860.178	52.21
860.612	49.31
861.047	57.71
861.481	66.11
861.915	82.01
862.35	53.81
862.784	31.91
863.218	41.31
863.653	36.21
864.087	50.51
864.521	58.31
864.955	68.31
865.39	171.61
865.824	188.21
866.258	124.21
866.692	180.61
867.126	189.31
867.56	108.51
867.994	61.61
868.428	41.91
868.862	47.31
869.296	63.51
869.73	62.41
870.164	49.51
870.598	51.41
871.031	38.91
871.465	30.41
871.899	28.71
872.333	22.71
872.766	25.01
873.2	24.31
873.634	30.21
874.067	29.41
874.501	32.11
874.935	36.11
875.368	30.01
875.802	32.41
876.235	27.31
876.669	24.11
877.102	20.11
877.535	29.01
877.969	17.31
878.402	21.11
878.836	16.41
879.269	24.91
879.702	24.21
880.135	19.61
880.569	19.81
881.002	27.11
881.435	26.01
881.868	18.41
882.301	17.41
882.734	18.41
883.167	21.51
883.601	24.31
884.034	20.21
884.467	14.81
884.899	16.31
885.332	16.81
885.765	9.21
886.198	21.91
886.631	23.91
887.064	20.91
887.497	24.51
887.929	20.71
888.362	10.51
888.795	13.21
889.228	15.61
889.66	22.61
890.093	15.31
890.526	23.61
890.958	17.61
891.391	13.11
891.823	18.91
892.256	19.11
892.688	19.61
893.121	17.11
893.553	13.61
893.985	27.61
894.418	20.61
894.85	12.21
895.282	14.71
895.715	19.91
896.147	20.41
896.579	14.81
897.011	14.71
897.444	23.01
897.876	11.01
898.308	18.31
898.74	13.01
899.172	17.61
899.604	22.41
900.036	17.81
900.468	12.41
900.9	15.21
901.332	15.21
901.764	9.11
902.196	18.31
902.628	19.61
903.06	14.51
903.491	30.71
903.923	23.11
904.355	20.71
904.787	24.91
905.218	23.81
905.65	22.61
906.082	8.91
906.513	13.31
906.945	18.41
907.376	10.81
907.808	18.31
908.239	16.41
908.671	19.71
909.102	24.11
909.534	33.01
909.965	56.71
910.397	102.61
910.828	335.01
911.259	495.91
911.691	229.11
912.122	115.21
912.553	57.51
912.984	37.51
913.415	21.41
913.847	25.01
914.278	15.81
914.709	15.01
915.14	14.91
915.571	20.41
916.002	13.01
916.433	18.41
916.864	14.81
917.295	14.21
917.726	20.71
918.157	19.11
918.587	31.71
919.018	21.41
919.449	22.31
919.88	21.71
920.311	35.91
920.741	45.91
921.172	178.51
921.603	160.21
922.033	78.91
922.464	46.11
922.895	23.51
923.325	21.41
923.756	15.91
924.186	12.21
924.617	20.31
925.047	16.11
925.478	21.31
925.908	21.51
926.338	17.21
926.769	14.71
927.199	15.71
927.629	7.71
928.06	17.11
928.49	9.21
928.92	11.01
929.35	13.51
929.78	11.51
930.21	6.61
930.641	6.41
931.071	10.61
931.501	4.21
931.931	2.91
932.361	5.61
932.791	4.31
933.221	6.31
933.651	4.01
934.08	15.51
934.51	29.01
934.94	5.71
935.37	4.91
935.8	1.91
936.229	0.61
936.659	9.61
937.089	-1.79
937.519	10.71
937.948	26.11
938.378	15.41
938.807	5.61
939.237	3.31
939.666	-0.89
940.096	-2.59
940.525	1.91
940.955	3.41
941.384	4.31
941.814	-3.39
942.243	-2.99
942.672	4.11
943.102	-6.59
943.531	2.41
943.96	1.31
944.39	-2.99
944.819	1.11
945.248	3.21
945.677	2.11
946.106	0.61
946.535	-2.29
946.964	-0.19
947.393	5.81
947.822	5.31
948.251	-2.69
948.68	3.41
949.109	4.41
949.538	9.21
949.967	-0.69
950.396	2.11
950.825	3.01
951.254	6.81
951.682	-1.39
952.111	4.11
952.54	7.91
952.969	-8.89
953.397	-3.59
953.826	-0.19
954.254	-9.09
954.683	1.01
955.112	-2.89
955.54	-0.69
955.969	2.61
956.397	2.81
956.826	-4.69
957.254	6.21
957.682	2.81
958.111	5.91
958.539	-0.89
958.967	-0.69
959.396	-1.59
959.824	-1.09
960.252	1.41
960.68	-2.59
961.109	-0.59
961.537	-7.59
961.965	0.71
962.393	2.21
962.821	-0.09
963.249	3.51
963.677	4.61
964.105	4.51
964.533	52.31
964.961	45.11
965.389	21.61
965.817	6.41
966.245	0.31
966.672	-2.29
967.1	-11.39
967.528	0.71
967.956	-0.59
968.383	-0.99
968.811	-1.39
969.239	-2.89
969.666	-3.69
970.094	-2.09
970.522	2.91
970.949	-2.19
971.377	-2.79
971.804	-1.09
972.232	-4.49
972.659	-2.99
973.087	-4.99
973.514	-11.79
973.941	-11.49
974.369	3.71
974.796	1.81
975.223	-2.19
975.651	-5.99
976.078	5.51
976.505	1.91
976.932	3.11
977.359	6.91
977.786	16.31
978.214	-0.39
978.641	-2.09
979.068	-3.69
979.495	-6.49
979.922	-3.49
980.349	-5.39
980.776	-3.79
981.202	-2.29
981.629	6.71
982.056	3.11
982.483	-1.79
982.91	8.21
983.337	-4.49
983.763	6.01
984.19	-2.19
984.617	-3.79
985.043	-6.69
985.47	-3.79
985.897	-0.19
986.323	-8.49
986.75	0.81
987.176	-2.89
987.603	-3.69
988.029	-2.29
988.456	-4.89
988.882	2.31
989.308	-0.29
989.735	-3.89
990.161	-0.89
990.587	-10.89
991.014	-3.49
991.44	1.21
991.866	-4.69
992.292	-4.59
992.719	1.41
993.145	2.21
993.571	-11.59
993.997	-2.59
994.423	-0.79
994.849	-8.39
995.275	-4.09
995.701	-0.09
996.127	-3.69
996.553	6.81
996.979	-4.59
997.405	-3.59
997.83	-4.59
998.256	-4.99
998.682	-1.29
999.108	-7.79
999.534	-7.49
999.959	-0.39
1000.385	1.11
1000.811	-3.29
1001.236	-9.29
1001.662	-4.19
1002.087	-12.19
1002.513	6.11
1002.938	-5.29
1003.364	-1.99
1003.789	1.21
1004.215	0.01
1004.64	-3.89
1005.066	2.61
1005.491	1.01
1005.916	-1.69
1006.342	-6.09
1006.767	-8.69
1007.192	3.91
1007.617	-9.39
1008.042	-6.39
1008.468	-6.39
1008.893	-7.19
1009.318	-1.99
1009.743	-5.89
1010.168	2.21
1010.593	3.21
1011.018	-8.39
1011.443	-5.39
1011.868	-0.79
1012.293	-7.09
1012.718	-5.39
1013.143	-0.49
1013.567	-1.59
1013.992	-0.59
1014.417	-11.99
1014.842	2.71
1015.267	-7.09
1015.691	-4.79
1016.116	1.01
1016.541	-5.49
1016.965	-1.09
1017.39	-0.39
1017.814	-2.99
1018.239	-2.79
1018.663	-6.59
1019.088	-13.29
1019.512	-4.19
1019.937	0.21
1020.361	-3.29
1020.785	-11.19
1021.21	-5.29
1021.634	-4.79
1022.058	-4.99
1022.483	-2.19
1022.907	-2.89
1023.331	-11.39
1023.755	-2.49
1024.179	-2.89
1024.604	-7.09
1025.028	-1.99
1025.452	-9.89
1025.876	-8.59
1026.3	-1.59
1026.724	-12.09
1027.148	-3.59
1027.572	-7.29
1027.996	-8.09
1028.42	-0.49
1028.843	-3.99
1029.267	-4.39
1029.691	-3.69
1030.115	-6.19
1030.539	-4.09
1030.962	-10.09
1031.386	-17.39
1031.81	0.91
1032.233	-6.49
1032.657	-5.59
1033.08	-2.69
1033.504	-7.59
1033.927	-4.99
1034.351	-0.99
1034.774	-6.99
1035.198	0.31
1035.621	-6.79
1036.045	-5.69
1036.468	3.41
1036.891	-13.99
1037.315	-9.49
1037.738	-7.89
1038.161	2.31
1038.584	-7.09
1039.008	-4.49
1039.431	-4.39
1039.854	-5.89
1040.277	-10.29
1040.7	-7.19
1041.123	-7.69
1041.546	-3.69
1041.969	-3.19
1042.392	-3.59
1042.815	-5.29
1043.238	-2.39
1043.661	-2.89
1044.084	-4.29
1044.507	-6.89
1044.93	-8.79
1045.352	-2.09
1045.775	-5.79
1046.198	-1.19
1046.621	-1.09
1047.043	1.81
1047.466	8.11
1047.889	-4.59
1048.311	-6.39
1048.734	-9.49
1049.156	-4.79
1049.579	-0.39
1050.001	-6.89
1050.424	-0.89
1050.846	-8.49
1051.269	-9.59
1051.691	-12.39
1052.113	-6.89
1052.536	-4.79
1052.958	-5.79
1053.38	-7.99
1053.802	-12.89
1054.225	-8.59
1054.647	-6.49
1055.069	-11.89
1055.491	1.41
1055.913	-9.89
1056.335	-5.09
1056.757	-4.59
1057.179	-9.29
1057.601	-5.69
1058.023	-7.49
1058.445	-7.09
1058.867	-8.89
1059.289	-4.19
1059.711	-6.19
1060.133	-6.39
1060.555	-5.69
1060.976	-12.59
1061.398	-4.59
1061.82	-2.79
1062.241	-10.49
1062.663	-13.09
1063.085	-4.19
1063.506	-5.39
1063.928	-6.99
1064.35	-3.99
1064.771	-10.39
1065.193	-0.89
1065.614	-9.79
1066.035	-3.69
1066.457	-13.09
1066.878	-2.79
1067.3	-5.49
1067.721	-5.69
1068.142	-1.09
1068.564	-6.89
1068.985	-2.29
1069.406	-7.99
1069.827	-10.39
1070.248	-0.49
1070.67	-12.59
1071.091	-7.79
1071.512	-5.39
1071.933	-5.29
1072.354	-9.89
1072.775	-6.29
1073.196	-8.89
1073.617	-5.99
1074.038	-5.59
1074.459	-9.29
1074.88	-3.49
1075.3	1.21
1075.721	-6.19
1076.142	-4.69
1076.563	-3.39
1076.983	-9.69
1077.404	-2.39
1077.825	-12.69
1078.246	-3.49
1078.666	-11.89
1079.087	-7.29
1079.507	-8.79
1079.928	-1.89
1080.348	-1.09
1080.769	-5.79
1081.189	-6.29
1081.61	-5.59
1082.03	-9.49
1082.451	-5.29
1082.871	0.01
1083.291	-7.99
1083.711	-9.49
1084.132	-5.39
1084.552	-6.09
1084.972	-6.29
1085.392	-15.19
1085.813	-10.69
1086.233	-4.29
1086.653	-6.69
1087.073	-5.09
1087.493	-8.69
1087.913	-8.69
1088.333	-10.49
1088.753	-8.69
1089.173	1.71
1089.593	-3.29
1090.013	7.21
1090.433	-1.39
1090.852	-7.59
1091.272	-7.39
1091.692	1.41
1092.112	-5.79
1092.531	-14.99
1092.951	-15.49
1093.371	-4.39
1093.79	0.41
1094.21	-10.99
1094.63	-5.49
1095.049	-5.59
1095.469	-2.39
1095.888	-6.19
1096.308	-3.29
1096.727	3.41
1097.146	-9.99
1097.566	0.81
1097.985	-5.49
1098.405	-7.49
1098.824	-10.79
1099.243	-10.29
1099.662	-9.29
1100.082	-8.39
1100.501	-4.49
1100.92	-10.59
1101.339	-3.69
1101.758	-11.09
