Data from 20171114-ORNL-Ar_H_NY_Subt18_08-06-43-664.txt Node
Date: Tue Nov 14 08:06:43 EST 2017
User: Ender
Spectrometer: HR+D1039
Trigger mode: 0
Integration Time (sec): 2.730000E-2
Scans to average: 10
Electric dark correction enabled: true
Nonlinearity correction enabled: false
Boxcar width: 0
XAxis mode: Wavelengths
Number of Pixels in Spectrum: 2048
>>>>>Begin Spectral Data<<<<<
187.836	-1.23
188.309	-1.23
188.782	-1.23
189.255	3.27
189.728	-2.73
190.201	0.38
190.674	4.47
191.147	3.37
191.619	-4.13
192.092	4.27
192.565	3.97
193.038	-4.53
193.511	-3.33
193.984	2.67
194.456	-7.73
194.929	4.27
195.402	-4.43
195.874	1.38
196.347	1.37
196.82	-4.12
197.292	4.67
197.765	-4.12
198.237	-9.73
198.71	0.07
199.182	-2.23
199.655	1.07
200.127	5.97
200.6	-1.43
201.072	0.47
201.544	-6.52
202.017	-0.93
202.489	7.77
202.961	-0.42
203.433	-3.43
203.906	-10.52
204.378	-9.12
204.85	-5.53
205.322	-9.13
205.794	-6.23
206.266	-5.33
206.739	-7.62
207.211	-3.12
207.683	-2.02
208.155	-5.33
208.627	-0.03
209.099	-5.53
209.57	-6.02
210.042	-3.73
210.514	-1.92
210.986	-4.02
211.458	-6.33
211.93	-7.33
212.402	1.47
212.873	-8.53
213.345	-8.83
213.817	-9.63
214.288	-2.33
214.76	-17.23
215.232	-2.92
215.703	-11.62
216.175	0.67
216.646	-7.62
217.118	-5.53
217.589	-4.73
218.061	-0.53
218.532	-1.92
219.004	-4.93
219.475	-5.52
219.946	-5.63
220.418	-1.92
220.889	-1.23
221.36	-2.12
221.832	-9.33
222.303	-7.62
222.774	2.67
223.245	-3.83
223.717	-5.53
224.188	1.67
224.659	-7.23
225.13	-5.12
225.601	-4.83
226.072	0.98
226.543	0.37
227.014	-9.93
227.485	-2.43
227.956	-11.83
228.427	-6.02
228.898	-2.12
229.369	-1.63
229.839	-6.93
230.31	-1.43
230.781	-0.43
231.252	-2.33
231.722	-6.93
232.193	-7.92
232.664	1.67
233.135	1.17
233.605	-2.12
234.076	-7.53
234.546	-1.23
235.017	-2.73
235.487	-1.62
235.958	1.48
236.428	-6.03
236.899	-0.02
237.369	2.38
237.84	-6.73
238.31	2.37
238.78	-5.23
239.251	-3.83
239.721	-4.02
240.191	-6.12
240.662	-3.42
241.132	-1.12
241.602	-6.23
242.072	-6.03
242.542	7.17
243.013	-3.93
243.483	-1.12
243.953	1.77
244.423	4.17
244.893	-7.23
245.363	2.47
245.833	-3.12
246.303	-7.12
246.773	4.07
247.243	1.67
247.712	0.57
248.182	7.57
248.652	7.37
249.122	-10.13
249.592	7.27
250.061	5.38
250.531	13.67
251.001	4.48
251.471	4.77
251.94	11.97
252.41	1.48
252.879	-0.93
253.349	11.57
253.818	3.47
254.288	-0.12
254.757	3.27
255.227	-1.83
255.696	0.77
256.166	6.17
256.635	0.88
257.105	8.48
257.574	1.87
258.043	4.17
258.513	-7.43
258.982	5.17
259.451	-0.83
259.92	-0.43
260.389	-0.62
260.859	3.97
261.328	8.27
261.797	-0.02
262.266	3.07
262.735	6.98
263.204	2.57
263.673	0.07
264.142	4.58
264.611	1.47
265.08	-0.43
265.549	-1.73
266.018	5.27
266.487	-1.23
266.955	-0.53
267.424	1.67
267.893	1.17
268.362	2.98
268.83	0.57
269.299	9.17
269.768	0.87
270.236	3.38
270.705	6.07
271.174	4.38
271.642	5.17
272.111	4.98
272.579	7.67
273.048	7.97
273.516	3.67
273.985	6.38
274.453	6.57
274.922	13.37
275.39	7.17
275.858	2.47
276.327	3.27
276.795	11.17
277.263	3.97
277.731	10.47
278.2	14.57
278.668	12.67
279.136	12.57
279.604	5.57
280.072	9.57
280.54	8.38
281.008	5.07
281.477	9.87
281.945	9.17
282.413	10.57
282.881	8.77
283.348	8.58
283.816	11.67
284.284	7.67
284.752	19.57
285.22	4.48
285.688	15.67
286.156	14.57
286.623	25.17
287.091	15.48
287.559	13.97
288.026	8.77
288.494	15.27
288.962	4.67
289.429	11.27
289.897	22.58
290.364	10.47
290.832	17.17
291.3	16.38
291.767	13.38
292.234	18.67
292.702	3.38
293.169	13.48
293.637	17.77
294.104	17.38
294.571	7.77
295.039	10.87
295.506	12.57
295.973	11.67
296.44	8.07
296.908	13.98
297.375	12.88
297.842	19.67
298.309	15.57
298.776	13.58
299.243	19.07
299.71	17.77
300.177	21.07
300.644	18.57
301.111	22.77
301.578	24.27
302.045	20.27
302.512	17.38
302.979	26.57
303.446	20.37
303.913	18.58
304.379	14.67
304.846	20.67
305.313	25.47
305.78	21.47
306.246	20.07
306.713	24.97
307.18	30.98
307.646	24.67
308.113	29.77
308.579	27.27
309.046	24.17
309.512	26.58
309.979	16.07
310.445	27.07
310.912	23.67
311.378	29.67
311.845	30.77
312.311	28.97
312.777	27.27
313.244	26.17
313.71	34.27
314.176	20.98
314.642	30.17
315.109	28.77
315.575	33.98
316.041	32.57
316.507	31.87
316.973	31.77
317.439	33.17
317.905	36.08
318.371	37.17
318.837	34.08
319.303	29.67
319.769	30.67
320.235	27.27
320.701	36.67
321.167	34.67
321.633	31.98
322.099	36.97
322.564	40.07
323.03	38.57
323.496	36.27
323.962	38.17
324.427	38.38
324.893	40.57
325.359	40.67
325.824	34.37
326.29	35.97
326.755	36.27
327.221	38.87
327.686	35.38
328.152	46.98
328.617	41.17
329.083	41.67
329.548	49.07
330.014	46.77
330.479	37.47
330.944	40.37
331.41	41.17
331.875	42.08
332.34	43.67
332.805	39.77
333.271	44.77
333.736	44.57
334.201	51.48
334.666	51.67
335.131	49.17
335.596	48.97
336.061	48.57
336.526	37.57
336.991	45.38
337.456	52.27
337.921	45.47
338.386	37.77
338.851	42.77
339.316	45.67
339.781	50.48
340.246	48.38
340.711	46.77
341.175	51.47
341.64	38.57
342.105	49.88
342.569	53.17
343.034	53.77
343.499	56.47
343.963	49.27
344.428	63.38
344.893	62.17
345.357	63.07
345.822	52.17
346.286	66.97
346.751	67.77
347.215	64.77
347.679	73.07
348.144	95.57
348.608	83.98
349.073	76.38
349.537	70.38
350.001	81.67
350.465	83.57
350.93	77.47
351.394	84.07
351.858	69.77
352.322	84.48
352.786	84.38
353.25	102.27
353.715	113.38
354.179	99.17
354.643	120.88
355.107	117.88
355.571	103.17
356.035	91.07
356.498	107.37
356.962	104.87
357.426	120.27
357.89	108.98
358.354	92.47
358.818	83.47
359.281	72.27
359.745	78.67
360.209	75.07
360.673	70.17
361.136	69.77
361.6	82.67
362.064	78.88
362.527	84.27
362.991	90.17
363.454	80.97
363.918	79.07
364.381	84.27
364.845	83.87
365.308	79.97
365.772	89.47
366.235	89.17
366.698	88.97
367.162	92.37
367.625	85.67
368.088	93.87
368.552	87.07
369.015	85.27
369.478	84.88
369.941	103.57
370.404	91.97
370.867	99.87
371.331	103.37
371.794	112.57
372.257	99.38
372.72	99.77
373.183	105.98
373.646	91.77
374.109	98.67
374.572	103.87
375.035	99.97
375.497	101.97
375.96	105.77
376.423	98.27
376.886	117.58
377.349	111.07
377.811	101.17
378.274	105.67
378.737	106.27
379.199	109.88
379.662	106.88
380.125	107.77
380.587	105.38
381.05	104.48
381.512	119.07
381.975	124.57
382.437	115.57
382.9	119.47
383.362	121.27
383.825	131.17
384.287	124.17
384.75	124.67
385.212	133.07
385.674	133.67
386.136	133.98
386.599	122.67
387.061	123.88
387.523	118.07
387.985	127.27
388.447	143.17
388.91	127.17
389.372	131.88
389.834	130.77
390.296	122.57
390.758	132.57
391.22	143.47
391.682	151.97
392.144	165.77
392.606	151.07
393.068	143.98
393.529	151.47
393.991	146.88
394.453	138.17
394.915	138.67
395.377	140.17
395.838	144.87
396.3	132.47
396.762	140.98
397.224	128.67
397.685	131.87
398.147	143.17
398.608	140.88
399.07	135.07
399.531	138.98
399.993	149.98
400.454	157.87
400.916	157.37
401.377	148.38
401.839	155.07
402.3	155.07
402.762	170.77
403.223	184.17
403.684	171.67
404.145	166.37
404.607	169.38
405.068	166.97
405.529	174.57
405.99	190.88
406.451	182.27
406.913	177.37
407.374	170.88
407.835	166.38
408.296	173.08
408.757	180.77
409.218	191.37
409.679	182.67
410.14	178.98
410.601	180.27
411.062	186.98
411.522	186.48
411.983	181.47
412.444	181.38
412.905	190.38
413.366	189.77
413.826	202.77
414.287	230.87
414.748	276.37
415.208	258.97
415.669	229.38
416.13	216.47
416.59	219.38
417.051	225.17
417.511	231.07
417.972	252.47
418.432	256.37
418.893	308.48
419.353	257.58
419.814	210.17
420.274	188.77
420.734	195.57
421.195	201.38
421.655	205.38
422.115	208.77
422.576	209.57
423.036	206.77
423.496	221.58
423.956	229.17
424.416	238.97
424.876	284.97
425.336	268.77
425.797	276.77
426.257	263.27
426.717	251.28
427.177	238.07
427.637	229.77
428.097	246.77
428.556	253.07
429.016	276.77
429.476	270.77
429.936	275.67
430.396	278.98
430.856	300.17
431.315	311.38
431.775	359.88
432.235	380.27
432.694	360.88
433.154	374.87
433.614	407.57
434.073	346.08
434.533	290.08
434.993	278.68
435.452	292.37
435.912	301.57
436.371	300.47
436.83	291.08
437.29	276.67
437.749	259.87
438.209	256.27
438.668	282.87
439.127	302.48
439.587	276.47
440.046	258.48
440.505	274.28
440.964	288.97
441.424	332.38
441.883	327.27
442.342	277.97
442.801	232.37
443.26	236.27
443.719	233.37
444.178	233.37
444.637	223.47
445.096	239.58
445.555	245.27
446.014	234.08
446.473	238.07
446.932	250.77
447.391	247.77
447.849	241.58
448.308	229.27
448.767	242.08
449.226	255.08
449.685	249.48
450.143	266.27
450.602	258.97
451.061	246.17
451.519	250.38
451.978	247.07
452.436	247.18
452.895	253.08
453.353	264.97
453.812	253.67
454.27	248.67
454.729	259.17
455.187	257.27
455.646	257.88
456.104	262.98
456.562	278.27
457.021	283.87
457.479	277.77
457.937	296.27
458.395	284.08
458.854	262.48
459.312	274.48
459.77	289.27
460.228	269.77
460.686	255.57
461.144	264.17
461.602	256.27
462.06	260.27
462.518	270.47
462.976	275.07
463.434	272.68
463.892	272.87
464.35	289.97
464.808	306.77
465.266	284.37
465.724	283.58
466.181	294.27
466.639	286.37
467.097	303.18
467.555	322.37
468.012	317.07
468.47	325.87
468.928	342.88
469.385	369.17
469.843	366.98
470.3	362.08
470.758	383.48
471.215	413.27
471.673	431.98
472.13	428.17
472.588	441.57
473.045	389.88
473.503	400.17
473.96	414.77
474.417	430.98
474.875	455.38
475.332	493.07
475.789	483.58
476.246	490.57
476.704	502.38
477.161	533.87
477.618	549.67
478.075	585.38
478.532	640.57
478.989	712.07
479.446	827.88
479.903	779.58
480.36	816.87
480.817	860.88
481.274	955.17
481.731	1041.58
482.188	1125.68
482.645	1240.77
483.102	1341.57
483.558	1465.58
484.015	1504.77
484.472	1477.77
484.929	1430.17
485.385	1395.17
485.842	1356.08
486.299	1325.78
486.755	1272.57
487.212	1107.27
487.668	929.77
488.125	860.98
488.582	799.78
489.038	764.48
489.494	739.88
489.951	699.48
490.407	689.88
490.864	674.97
491.32	673.27
491.776	670.27
492.233	678.07
492.689	642.07
493.145	621.88
493.602	642.07
494.058	647.57
494.514	637.97
494.97	659.97
495.426	680.48
495.882	653.87
496.338	644.68
496.794	657.48
497.251	637.98
497.707	664.58
498.163	662.77
498.618	671.57
499.074	668.57
499.53	703.17
499.986	698.07
500.442	671.38
500.898	653.38
501.354	645.17
501.809	645.77
502.265	663.37
502.721	665.97
503.177	675.38
503.632	673.57
504.088	678.88
504.543	703.77
504.999	732.18
505.455	693.38
505.91	663.27
506.366	669.17
506.821	661.57
507.277	659.38
507.732	670.38
508.187	659.48
508.643	665.18
509.098	675.27
509.553	697.88
510.009	703.27
510.464	714.57
510.919	720.57
511.375	735.17
511.83	744.07
512.285	756.97
512.74	791.57
513.195	813.98
513.65	800.88
514.105	813.38
514.56	805.97
515.015	821.97
515.47	834.87
515.925	811.88
516.38	828.27
516.835	831.27
517.29	812.58
517.745	812.47
518.2	805.07
518.655	785.38
519.109	783.78
519.564	779.27
520.019	767.57
520.474	759.78
520.928	755.47
521.383	759.67
521.838	741.07
522.292	755.18
522.747	745.98
523.201	739.17
523.656	733.57
524.11	738.38
524.565	737.57
525.019	737.58
525.474	738.77
525.928	723.08
526.382	737.77
526.837	734.07
527.291	737.77
527.745	742.47
528.2	731.58
528.654	723.57
529.108	722.77
529.562	727.48
530.016	724.88
530.47	719.57
530.925	725.77
531.379	725.57
531.833	734.67
532.287	732.67
532.741	727.08
533.195	737.17
533.649	747.67
534.103	748.07
534.556	754.07
535.01	736.47
535.464	731.57
535.918	744.38
536.372	754.27
536.826	749.27
537.279	725.88
537.733	745.77
538.187	746.17
538.64	746.07
539.094	742.07
539.548	764.58
540.001	742.88
540.455	764.97
540.908	758.48
541.362	768.37
541.815	778.48
542.269	781.47
542.722	793.87
543.175	803.67
543.629	808.17
544.082	819.77
544.536	836.37
544.989	824.97
545.442	833.98
545.895	823.38
546.349	828.88
546.802	826.97
547.255	842.27
547.708	853.37
548.161	858.47
548.614	857.57
549.067	861.07
549.52	856.27
549.973	848.77
550.426	842.77
550.879	832.98
551.332	845.17
551.785	853.77
552.238	846.77
552.691	856.88
553.144	869.88
553.596	886.28
554.049	896.57
554.502	936.07
554.955	947.67
555.407	944.37
555.86	954.77
556.313	927.48
556.765	933.17
557.218	935.17
557.67	914.67
558.123	915.67
558.576	910.67
559.028	919.28
559.48	934.58
559.933	913.57
560.385	881.67
560.838	855.97
561.29	816.37
561.742	825.97
562.195	798.37
562.647	802.97
563.099	810.67
563.551	809.27
564.004	821.47
564.456	807.38
564.908	799.57
565.36	777.77
565.812	756.67
566.264	753.88
566.716	750.28
567.168	734.77
567.62	743.67
568.072	730.98
568.524	733.17
568.976	722.47
569.428	704.27
569.88	706.77
570.332	711.08
570.784	720.07
571.235	718.97
571.687	731.68
572.139	742.38
572.59	742.47
573.042	739.07
573.494	744.97
573.945	737.47
574.397	717.77
574.849	721.48
575.3	727.57
575.752	718.07
576.203	721.88
576.655	712.47
577.106	702.27
577.557	692.88
578.009	702.58
578.46	699.77
578.912	687.47
579.363	697.37
579.814	699.67
580.265	694.58
580.717	683.17
581.168	696.37
581.619	705.28
582.07	716.78
582.521	703.07
582.972	695.88
583.423	705.97
583.875	691.98
584.326	707.38
584.777	721.58
585.227	755.48
585.678	765.98
586.129	792.58
586.58	811.58
587.031	830.48
587.482	874.07
587.933	920.37
588.384	889.08
588.834	827.87
589.285	798.97
589.736	802.67
590.186	801.17
590.637	791.77
591.088	771.08
591.538	758.27
591.989	759.48
592.439	753.67
592.89	755.27
593.34	730.67
593.791	740.27
594.241	725.47
594.692	728.27
595.142	719.87
595.593	712.48
596.043	735.08
596.493	732.27
596.943	729.88
597.394	741.48
597.844	744.48
598.294	763.78
598.744	773.98
599.195	812.27
599.645	862.68
600.095	892.77
600.545	945.38
600.995	991.97
601.445	1056.67
601.895	1109.97
602.345	1178.78
602.795	1152.67
603.245	1114.17
603.695	1046.97
604.145	1004.57
604.594	956.28
605.044	897.48
605.494	834.58
605.944	789.77
606.393	773.17
606.843	753.87
607.293	750.17
607.743	748.37
608.192	769.07
608.642	774.57
609.091	776.58
609.541	795.57
609.99	793.88
610.44	788.58
610.889	735.58
611.339	717.88
611.788	703.47
612.238	719.17
612.687	724.47
613.136	715.37
613.586	737.88
614.035	728.78
614.484	743.48
614.933	740.07
615.383	730.18
615.832	720.78
616.281	725.08
616.73	687.57
617.179	668.58
617.628	666.17
618.077	638.37
618.526	634.47
618.975	627.67
619.424	632.17
619.873	626.08
620.322	639.77
620.771	618.48
621.22	624.47
621.669	610.67
622.118	602.77
622.567	603.88
623.015	580.07
623.464	586.77
623.913	576.58
624.361	572.38
624.81	559.77
625.259	565.38
625.707	572.38
626.156	574.98
626.604	581.88
627.053	582.47
627.501	579.57
627.95	588.38
628.398	601.07
628.847	586.88
629.295	590.57
629.744	590.27
630.192	576.97
630.64	572.57
631.089	562.47
631.537	559.98
631.985	551.48
632.433	547.18
632.881	537.47
633.33	552.57
633.778	544.27
634.226	537.08
634.674	554.88
635.122	554.38
635.57	562.88
636.018	577.98
636.466	583.98
636.914	574.27
637.362	589.67
637.81	581.38
638.258	591.38
638.705	595.87
639.153	629.57
639.601	636.27
640.049	657.97
640.497	701.88
640.944	713.58
641.392	659.48
641.84	623.88
642.287	594.77
642.735	579.77
643.182	576.47
643.63	572.17
644.078	572.47
644.525	594.57
644.973	593.57
645.42	607.67
645.867	628.68
646.315	639.88
646.762	668.08
647.21	694.67
647.657	716.57
648.104	743.57
648.551	764.68
648.999	823.18
649.446	894.57
649.893	972.67
650.34	1127.17
650.787	1332.18
651.234	1634.47
651.682	2132.97
652.129	2847.97
652.576	4045.47
653.023	5907.27
653.47	8023.18
653.917	9961.77
654.363	11526.88
654.81	12727.08
655.257	12039.18
655.704	8000.17
656.151	4826.07
656.598	3167.18
657.044	2277.17
657.491	1766.97
657.938	1427.67
658.385	1198.47
658.831	1046.67
659.278	948.67
659.724	842.88
660.171	786.47
660.618	718.57
661.064	689.78
661.511	676.18
661.957	659.27
662.404	652.87
662.85	660.17
663.296	635.27
663.743	563.17
664.189	542.38
664.635	543.67
665.082	535.07
665.528	543.58
665.974	526.27
666.42	523.08
666.867	522.17
667.313	504.87
667.759	473.38
668.205	462.38
668.651	463.97
669.097	458.77
669.543	451.57
669.989	454.48
670.435	454.88
670.881	456.88
671.327	466.17
671.773	479.88
672.219	508.57
672.665	562.47
673.11	606.47
673.556	658.27
674.002	683.48
674.448	671.47
674.893	581.07
675.339	501.97
675.785	454.27
676.23	427.17
676.676	405.87
677.122	394.97
677.567	393.48
678.013	371.57
678.458	374.07
678.904	368.47
679.349	361.68
679.794	363.07
680.24	354.38
680.685	358.37
681.131	363.67
681.576	355.97
682.021	361.18
682.466	360.17
682.912	357.97
683.357	362.87
683.802	388.67
684.247	421.77
684.692	462.58
685.137	515.57
685.583	558.57
686.028	584.57
686.473	537.17
686.918	459.47
687.363	438.27
687.807	400.47
688.252	370.27
688.697	371.38
689.142	347.17
689.587	341.67
690.032	336.77
690.477	363.08
690.921	359.77
691.366	394.37
691.811	417.77
692.255	447.07
692.7	470.37
693.145	510.58
693.589	720.17
694.034	1164.88
694.478	1576.57
694.923	1790.57
695.367	2324.48
695.812	1231.77
696.256	512.57
696.701	378.77
697.145	349.98
697.59	341.07
698.034	323.47
698.478	340.38
698.922	328.67
699.367	336.27
699.811	342.37
700.255	364.97
700.699	394.27
701.143	430.67
701.588	483.27
702.032	522.77
702.476	524.28
702.92	501.58
703.364	509.07
703.808	656.57
704.252	1080.38
704.696	1495.68
705.14	1731.38
705.584	2210.68
706.027	1085.77
706.471	539.07
706.915	405.97
707.359	364.37
707.803	328.67
708.246	328.58
708.69	316.38
709.134	322.17
709.577	318.18
710.021	325.88
710.465	320.17
710.908	309.48
711.352	303.27
711.795	322.47
712.239	362.77
712.682	387.97
713.126	415.67
713.569	475.37
714.012	373.27
714.456	315.88
714.899	296.07
715.342	279.67
715.786	268.37
716.229	265.67
716.672	263.87
717.115	258.77
717.558	253.88
718.002	256.67
718.445	277.48
718.888	291.67
719.331	298.58
719.774	310.57
720.217	308.17
720.66	291.08
721.103	278.08
721.546	257.97
721.989	257.57
722.432	240.18
722.874	241.17
723.317	236.77
723.76	236.37
724.203	263.57
724.645	325.27
725.088	448.38
725.531	585.38
725.974	655.67
726.416	563.17
726.859	311.27
727.301	261.77
727.744	245.38
728.187	239.88
728.629	246.57
729.071	250.27
729.514	265.27
729.956	275.58
730.399	298.27
730.841	294.77
731.283	273.67
731.726	275.58
732.168	269.87
732.61	274.07
733.053	288.58
733.495	317.47
733.937	358.88
734.379	408.88
734.821	443.98
735.263	562.77
735.705	854.67
736.148	1633.88
736.59	2671.47
737.032	3154.97
737.474	2563.47
737.916	835.27
738.357	448.48
738.799	335.48
739.241	309.27
739.683	287.17
740.125	302.17
740.567	310.98
741.008	327.08
741.45	333.18
741.892	326.48
742.334	374.28
742.775	374.47
743.217	361.97
743.658	272.77
744.1	264.17
744.542	266.57
744.983	322.48
745.425	366.27
745.866	359.48
746.307	281.98
746.749	285.18
747.19	334.58
747.632	465.28
748.073	912.17
748.514	1925.47
748.956	2953.08
749.397	3717.97
749.838	3084.28
750.279	3061.97
750.72	1550.88
751.162	576.98
751.603	337.88
752.044	263.58
752.485	218.18
752.926	218.27
753.367	203.57
753.808	200.17
754.249	191.38
754.69	184.98
755.131	185.27
755.572	184.47
756.013	188.77
756.453	186.77
756.894	194.98
757.335	195.28
757.776	202.17
758.216	200.67
758.657	202.28
759.098	206.18
759.538	236.27
759.979	280.07
760.42	390.37
760.86	736.98
761.301	1898.47
761.741	4587.77
762.182	6664.67
762.622	4700.57
763.063	1356.77
763.503	550.67
763.943	345.27
764.384	280.97
764.824	274.97
765.264	255.57
765.705	228.58
766.145	188.67
766.585	183.97
767.025	174.27
767.465	166.87
767.906	187.07
768.346	213.77
768.786	218.88
769.226	222.77
769.666	323.67
770.106	631.38
770.546	1603.88
770.986	2718.48
771.426	2433.18
771.866	819.38
772.306	326.68
772.745	207.87
773.185	177.47
773.625	170.27
774.065	154.38
774.505	171.07
774.944	216.88
775.384	373.08
775.824	624.97
776.263	607.87
776.703	298.27
777.142	165.27
777.582	136.97
778.021	126.57
778.461	120.38
778.9	126.67
779.34	124.88
779.779	112.48
780.219	109.58
780.658	105.48
781.097	106.88
781.537	115.47
781.976	110.97
782.415	108.77
782.855	105.77
783.294	109.38
783.733	104.27
784.172	108.07
784.611	103.47
785.05	109.27
785.489	116.17
785.928	115.67
786.367	117.77
786.806	126.47
787.245	138.07
787.684	137.57
788.123	148.27
788.562	143.47
789.001	132.67
789.44	127.67
789.879	119.67
790.317	124.47
790.756	134.67
791.195	125.88
791.634	150.08
792.072	203.38
792.511	370.67
792.95	1016.58
793.388	2178.88
793.827	1971.67
794.265	684.67
794.704	290.87
795.142	184.38
795.581	151.87
796.019	139.27
796.458	136.38
796.896	127.07
797.334	138.17
797.773	160.88
798.211	226.27
798.649	452.17
799.087	1055.88
799.526	1639.88
799.964	2066.67
800.402	2077.77
800.84	789.07
801.278	312.57
801.716	189.47
802.154	155.87
802.592	155.17
803.03	148.88
803.468	143.17
803.906	151.48
804.344	162.98
804.782	144.27
805.22	140.67
805.658	131.87
806.096	148.48
806.533	160.17
806.971	186.47
807.409	224.27
807.847	333.17
808.284	680.08
808.722	1914.57
809.16	3403.88
809.597	3248.78
810.035	5608.97
810.472	6000.88
810.91	2173.77
811.347	828.17
811.785	419.38
812.222	270.47
812.66	201.17
813.097	172.27
813.535	145.67
813.972	133.57
814.409	123.27
814.846	115.67
815.284	113.77
815.721	101.97
816.158	110.08
816.595	107.98
817.032	160.87
817.47	187.77
817.907	147.57
818.344	102.07
818.781	96.38
819.218	104.27
819.655	129.27
820.092	192.27
820.529	221.07
820.966	176.27
821.403	122.97
821.839	108.67
822.276	95.67
822.713	122.37
823.15	139.77
823.587	122.38
824.023	150.27
824.46	307.08
824.897	920.68
825.333	1390.38
825.77	607.27
826.206	237.97
826.643	145.77
827.08	106.88
827.516	89.17
827.953	80.88
828.389	86.27
828.825	77.57
829.262	72.27
829.698	63.27
830.135	65.88
830.571	64.97
831.007	67.17
831.443	66.38
831.88	67.58
832.316	61.97
832.752	66.48
833.188	65.77
833.624	64.67
834.06	70.88
834.497	70.67
834.933	79.17
835.369	77.07
835.805	76.17
836.241	80.87
836.677	84.17
837.112	92.97
837.548	111.47
837.984	136.77
838.42	208.58
838.856	504.27
839.292	1562.67
839.727	2379.88
840.163	1107.67
840.599	951.37
841.034	2091.17
841.47	2192.97
841.906	792.08
842.341	342.48
842.777	207.67
843.212	210.67
843.648	198.57
844.083	109.47
844.519	80.38
844.954	71.98
845.39	55.57
845.825	62.97
846.261	59.27
846.696	56.57
847.131	57.27
847.566	60.37
848.002	46.07
848.437	55.38
848.872	68.07
849.307	67.67
849.742	83.17
850.177	186.88
850.613	572.17
851.048	914.08
851.483	397.38
851.918	151.97
852.353	88.87
852.788	47.57
853.223	56.37
853.657	51.77
854.092	51.27
854.527	44.97
854.962	38.97
855.397	43.38
855.832	54.17
856.266	43.27
856.701	45.67
857.136	38.98
857.57	46.08
858.005	50.67
858.44	57.57
858.874	44.17
859.309	56.27
859.743	40.17
860.178	46.47
860.612	40.67
861.047	53.67
861.481	69.57
861.915	77.98
862.35	56.97
862.784	37.67
863.218	40.77
863.653	39.87
864.087	51.27
864.521	56.98
864.955	64.98
865.39	159.57
865.824	184.58
866.258	119.67
866.692	181.07
867.126	189.47
867.56	107.27
867.994	55.07
868.428	38.38
868.862	45.77
869.296	59.58
869.73	65.87
870.164	55.37
870.598	49.38
871.031	35.27
871.465	33.17
871.899	34.17
872.333	22.98
872.766	22.67
873.2	30.67
873.634	26.27
874.067	19.47
874.501	30.77
874.935	35.27
875.368	36.97
875.802	29.47
876.235	27.87
876.669	26.27
877.102	27.77
877.535	25.88
877.969	27.77
878.402	29.17
878.836	18.47
879.269	29.27
879.702	21.37
880.135	22.27
880.569	24.47
881.002	19.67
881.435	28.47
881.868	16.88
882.301	22.38
882.734	18.57
883.167	22.67
883.601	23.27
884.034	21.07
884.467	13.67
884.899	15.27
885.332	16.27
885.765	14.08
886.198	19.77
886.631	21.37
887.064	17.57
887.497	23.17
887.929	28.97
888.362	18.67
888.795	12.27
889.228	20.97
889.66	19.37
890.093	19.87
890.526	16.27
890.958	20.67
891.391	17.38
891.823	24.77
892.256	25.47
892.688	10.97
893.121	11.98
893.553	17.77
893.985	24.17
894.418	22.27
894.85	14.38
895.282	13.17
895.715	17.38
896.147	18.27
896.579	19.57
897.011	18.88
897.444	15.38
897.876	12.88
898.308	15.97
898.74	13.08
899.172	6.67
899.604	20.67
900.036	17.57
900.468	15.77
900.9	13.97
901.332	20.27
901.764	20.38
902.196	17.27
902.628	23.27
903.06	14.17
903.491	27.77
903.923	23.17
904.355	22.67
904.787	25.87
905.218	24.08
905.65	28.37
906.082	11.47
906.513	13.97
906.945	17.47
907.376	10.77
907.808	17.88
908.239	19.98
908.671	22.98
909.102	17.48
909.534	25.98
909.965	47.67
910.397	96.57
910.828	326.48
911.259	485.88
911.691	225.07
912.122	112.38
912.553	57.38
912.984	36.58
913.415	29.88
913.847	23.38
914.278	16.47
914.709	16.67
915.14	17.08
915.571	16.88
916.002	10.88
916.433	23.67
916.864	15.07
917.295	14.37
917.726	18.38
918.157	17.57
918.587	27.27
919.018	23.88
919.449	17.38
919.88	21.07
920.311	33.88
920.741	52.97
921.172	172.88
921.603	155.07
922.033	79.47
922.464	45.98
922.895	28.77
923.325	18.88
923.756	9.17
924.186	9.17
924.617	15.58
925.047	22.67
925.478	24.27
925.908	21.17
926.338	12.17
926.769	12.38
927.199	18.27
927.629	5.48
928.06	18.17
928.49	10.08
928.92	17.77
929.35	9.77
929.78	11.77
930.21	5.37
930.641	6.57
931.071	10.17
931.501	2.17
931.931	5.08
932.361	10.77
932.791	7.47
933.221	8.38
933.651	3.48
934.08	17.87
934.51	32.47
934.94	10.57
935.37	8.08
935.8	7.77
936.229	3.07
936.659	11.57
937.089	8.27
937.519	24.77
937.948	27.47
938.378	22.98
938.807	8.57
939.237	2.88
939.666	6.08
940.096	-2.93
940.525	4.37
940.955	2.08
941.384	4.17
941.814	-9.83
942.243	0.57
942.672	7.17
943.102	2.58
943.531	0.98
943.96	5.57
944.39	5.37
944.819	-4.23
945.248	2.38
945.677	0.47
946.106	4.77
946.535	9.67
946.964	9.67
947.393	3.27
947.822	3.38
948.251	-3.03
948.68	2.38
949.109	9.97
949.538	5.98
949.967	-2.62
950.396	-5.23
950.825	0.27
951.254	-2.12
951.682	-5.43
952.111	8.17
952.54	5.17
952.969	-2.43
953.397	-9.03
953.826	-0.53
954.254	-3.83
954.683	0.67
955.112	-5.52
955.54	-0.83
955.969	2.98
956.397	-2.93
956.826	-0.23
957.254	3.67
957.682	3.47
958.111	7.27
958.539	2.48
958.967	2.17
959.396	-2.43
959.824	-3.42
960.252	-2.13
960.68	-2.93
961.109	-11.93
961.537	1.38
961.965	-1.63
962.393	-0.23
962.821	-5.02
963.249	2.17
963.677	5.17
964.105	3.87
964.533	48.88
964.961	43.07
965.389	20.88
965.817	9.07
966.245	5.87
966.672	-3.73
967.1	-7.42
967.528	0.07
967.956	-2.92
968.383	-0.03
968.811	-1.52
969.239	2.37
969.666	-8.12
970.094	-0.12
970.522	-0.12
970.949	0.07
971.377	-10.12
971.804	-6.33
972.232	0.27
972.659	-7.33
973.087	1.37
973.514	-4.63
973.941	-1.93
974.369	4.47
974.796	3.38
975.223	1.17
975.651	-2.83
976.078	5.27
976.505	-2.03
976.932	1.77
977.359	16.17
977.786	17.38
978.214	8.77
978.641	2.37
979.068	-4.23
979.495	-6.73
979.922	-1.43
980.349	-4.33
980.776	7.77
981.202	-0.63
981.629	9.07
982.056	4.07
982.483	3.38
982.91	2.17
983.337	-6.83
983.763	2.37
984.19	-6.93
984.617	-1.73
985.043	-5.53
985.47	1.38
985.897	-6.23
986.323	0.37
986.75	2.58
987.176	-2.73
987.603	4.77
988.029	-1.33
988.456	-3.93
988.882	-1.92
989.308	-7.03
989.735	-10.73
990.161	1.17
990.587	-3.13
991.014	-4.43
991.44	3.07
991.866	-3.02
992.292	-7.23
992.719	-2.13
993.145	2.57
993.571	-5.62
993.997	-1.93
994.423	-4.83
994.849	-6.73
995.275	1.88
995.701	-3.03
996.127	-1.23
996.553	0.67
996.979	-7.43
997.405	-2.02
997.83	-9.73
998.256	-8.13
998.682	0.48
999.108	-10.23
999.534	-4.93
999.959	-0.43
1000.385	-4.23
1000.811	-4.33
1001.236	-12.03
1001.662	-6.93
1002.087	-9.33
1002.513	2.87
1002.938	4.38
1003.364	-8.83
1003.789	0.17
1004.215	-0.62
1004.64	-5.53
1005.066	-0.73
1005.491	1.48
1005.916	-1.23
1006.342	-5.52
1006.767	-13.62
1007.192	7.07
1007.617	-6.83
1008.042	-3.83
1008.468	-0.23
1008.893	-2.62
1009.318	0.67
1009.743	3.87
1010.168	-1.03
1010.593	5.97
1011.018	-7.02
1011.443	2.07
1011.868	0.08
1012.293	-1.62
1012.718	-6.12
1013.143	2.77
1013.567	1.07
1013.992	-3.43
1014.417	-17.23
1014.842	0.07
1015.267	-2.03
1015.691	-2.93
1016.116	1.77
1016.541	2.17
1016.965	6.07
1017.39	3.87
1017.814	0.38
1018.239	-4.83
1018.663	-7.33
1019.088	-10.63
1019.512	-3.83
1019.937	-6.83
1020.361	-5.53
1020.785	-8.13
1021.21	-9.33
1021.634	1.77
1022.058	1.37
1022.483	-0.12
1022.907	-3.23
1023.331	-3.42
1023.755	3.97
1024.179	-2.03
1024.604	-3.23
1025.028	-7.43
1025.452	-8.03
1025.876	-3.53
1026.3	-2.03
1026.724	-14.53
1027.148	-1.93
1027.572	-9.52
1027.996	-2.43
1028.42	-0.73
1028.843	-8.83
1029.267	-7.93
1029.691	-4.23
1030.115	-5.62
1030.539	-9.93
1030.962	-5.23
1031.386	-7.02
1031.81	-3.02
1032.233	6.98
1032.657	-7.12
1033.08	0.38
1033.504	0.07
1033.927	-4.52
1034.351	0.67
1034.774	-7.23
1035.198	-1.12
1035.621	-3.42
1036.045	-6.83
1036.468	-0.13
1036.891	-10.63
1037.315	-15.43
1037.738	-9.83
1038.161	-1.93
1038.584	-1.83
1039.008	-1.83
1039.431	-4.23
1039.854	-4.93
1040.277	-6.43
1040.7	-8.33
1041.123	-2.63
1041.546	-8.83
1041.969	-13.83
1042.392	-4.13
1042.815	-2.73
1043.238	-1.73
1043.661	1.37
1044.084	-5.73
1044.507	-7.93
1044.93	-5.23
1045.352	-4.83
1045.775	-2.63
1046.198	-5.52
1046.621	-0.62
1047.043	1.98
1047.466	9.57
1047.889	-4.73
1048.311	-12.12
1048.734	-0.83
1049.156	1.07
1049.579	-3.23
1050.001	-2.02
1050.424	0.87
1050.846	-3.33
1051.269	-3.02
1051.691	-3.73
1052.113	-3.03
1052.536	-7.73
1052.958	0.17
1053.38	-4.33
1053.802	-7.03
1054.225	3.57
1054.647	-10.53
1055.069	0.37
1055.491	-0.62
1055.913	-6.43
1056.335	-1.93
1056.757	-3.02
1057.179	-6.93
1057.601	-7.73
1058.023	-6.62
1058.445	-4.03
1058.867	-7.12
1059.289	-5.93
1059.711	-5.83
1060.133	-6.23
1060.555	-5.53
1060.976	-6.63
1061.398	-5.43
1061.82	-6.73
1062.241	-5.33
1062.663	-8.53
1063.085	-0.83
1063.506	-6.83
1063.928	-3.23
1064.35	-0.12
1064.771	-8.43
1065.193	-9.13
1065.614	-6.43
1066.035	0.67
1066.457	-6.73
1066.878	-1.12
1067.3	-6.23
1067.721	-6.33
1068.142	-7.33
1068.564	-4.43
1068.985	-0.83
1069.406	-7.73
1069.827	-5.62
1070.248	-0.12
1070.67	-12.12
1071.091	-4.12
1071.512	-4.53
1071.933	-2.33
1072.354	-8.23
1072.775	-4.02
1073.196	-13.43
1073.617	-2.13
1074.038	-8.12
1074.459	-9.62
1074.88	-9.62
1075.3	-0.83
1075.721	-9.73
1076.142	-1.92
1076.563	-0.23
1076.983	-10.03
1077.404	-3.02
1077.825	-14.23
1078.246	-4.73
1078.666	-8.63
1079.087	-3.92
1079.507	-7.33
1079.928	4.67
1080.348	-2.02
1080.769	-5.93
1081.189	1.17
1081.61	-5.23
1082.03	-7.83
1082.451	-5.12
1082.871	-3.62
1083.291	-9.33
1083.711	-11.12
1084.132	-2.62
1084.552	-8.23
1084.972	0.48
1085.392	-16.93
1085.813	-8.53
1086.233	-6.03
1086.653	-8.43
1087.073	-2.02
1087.493	-8.23
1087.913	-6.03
1088.333	-7.53
1088.753	-7.63
1089.173	4.77
1089.593	-9.92
1090.013	-0.73
1090.433	-2.23
1090.852	-4.12
1091.272	-8.03
1091.692	1.17
1092.112	-4.43
1092.531	-5.53
1092.951	-13.52
1093.371	-3.83
1093.79	2.88
1094.21	-3.33
1094.63	-3.33
1095.049	-7.83
1095.469	-3.43
1095.888	-3.03
1096.308	3.67
1096.727	1.88
1097.146	-7.02
1097.566	-1.33
1097.985	-7.33
1098.405	-2.33
1098.824	-5.12
1099.243	-8.52
1099.662	-15.33
1100.082	-11.12
1100.501	-0.23
1100.92	-7.13
1101.339	-2.63
1101.758	-4.73
