Data from 20171114-ORNL-Ar_H_NY_Subt18_08-04-47-922.txt Node
Date: Tue Nov 14 08:04:47 EST 2017
User: Ender
Spectrometer: HR+D1039
Trigger mode: 0
Integration Time (sec): 2.730000E-2
Scans to average: 10
Electric dark correction enabled: true
Nonlinearity correction enabled: false
Boxcar width: 0
XAxis mode: Wavelengths
Number of Pixels in Spectrum: 2048
>>>>>Begin Spectral Data<<<<<
187.836	-0.48
188.309	-0.48
188.782	-0.48
189.255	-0.48
189.728	1.42
190.201	4.72
190.674	-1.48
191.147	1.82
191.619	-8.08
192.092	-0.18
192.565	3.22
193.038	-0.68
193.511	-0.18
193.984	2.52
194.456	0.52
194.929	1.23
195.402	-1.38
195.874	-2.58
196.347	-3.08
196.82	-5.08
197.292	9.02
197.765	-2.08
198.237	-8.48
198.71	4.22
199.182	-0.08
199.655	3.52
200.127	-0.78
200.6	-3.78
201.072	-3.18
201.544	0.12
202.017	-7.48
202.489	4.02
202.961	-4.77
203.433	-2.28
203.906	-10.98
204.378	1.33
204.85	1.92
205.322	-7.68
205.794	0.12
206.266	-0.48
206.739	-8.68
207.211	-0.77
207.683	-0.67
208.155	-6.38
208.627	-4.08
209.099	-1.48
209.57	-9.77
210.042	-5.68
210.514	-1.77
210.986	4.23
211.458	-10.78
211.93	-3.48
212.402	0.32
212.873	-8.38
213.345	-7.77
213.817	-7.48
214.288	-4.98
214.76	-8.18
215.232	2.52
215.703	-2.68
216.175	-2.58
216.646	-4.68
217.118	-0.58
217.589	-0.08
218.061	-2.78
218.532	-2.88
219.004	0.42
219.475	-0.58
219.946	-0.88
220.418	-8.77
220.889	4.12
221.36	-0.38
221.832	-2.68
222.303	-4.77
222.774	6.32
223.245	-11.67
223.717	-7.68
224.188	-6.58
224.659	-3.08
225.13	-8.58
225.601	-1.38
226.072	6.62
226.543	0.92
227.014	5.12
227.485	-0.48
227.956	-4.27
228.427	2.23
228.898	4.12
229.369	6.72
229.839	-3.28
230.31	0.32
230.781	5.12
231.252	-9.38
231.722	-9.48
232.193	-1.27
232.664	-3.27
233.135	2.02
233.605	1.12
234.076	-6.78
234.546	8.42
235.017	7.52
235.487	5.52
235.958	6.92
236.428	1.22
236.899	3.73
237.369	5.92
237.84	-2.38
238.31	4.32
238.78	4.92
239.251	1.33
239.721	-1.68
240.191	5.52
240.662	-0.08
241.132	-0.08
241.602	-7.98
242.072	1.12
242.542	7.73
243.013	7.52
243.483	10.92
243.953	6.73
244.423	7.83
244.893	-1.18
245.363	5.72
245.833	5.42
246.303	-3.18
246.773	10.22
247.243	7.02
247.712	5.32
248.182	10.02
248.652	12.22
249.122	3.82
249.592	9.42
250.061	24.62
250.531	30.52
251.001	19.12
251.471	28.52
251.94	17.62
252.41	11.52
252.879	5.23
253.349	11.52
253.818	15.82
254.288	8.92
254.757	6.92
255.227	8.02
255.696	3.22
256.166	7.73
256.635	7.42
257.105	11.23
257.574	9.82
258.043	5.33
258.513	13.52
258.982	19.62
259.451	4.22
259.92	19.82
260.389	15.32
260.859	14.72
261.328	10.42
261.797	19.62
262.266	16.22
262.735	16.52
263.204	3.52
263.673	3.72
264.142	11.12
264.611	1.02
265.08	3.82
265.549	4.92
266.018	9.73
266.487	0.52
266.955	5.52
267.424	-0.68
267.893	10.33
268.362	9.52
268.83	5.42
269.299	15.02
269.768	9.12
270.236	16.23
270.705	6.32
271.174	11.62
271.642	8.42
272.111	15.52
272.579	17.72
273.048	25.22
273.516	32.42
273.985	27.42
274.453	29.32
274.922	21.42
275.39	20.52
275.858	3.12
276.327	8.82
276.795	21.12
277.263	12.92
277.731	32.22
278.2	59.92
278.668	68.12
279.136	50.62
279.604	22.02
280.072	20.62
280.54	13.52
281.008	15.22
281.477	19.72
281.945	17.32
282.413	12.72
282.881	16.82
283.348	11.23
283.816	14.12
284.284	12.02
284.752	21.42
285.22	17.42
285.688	22.92
286.156	20.92
286.623	44.32
287.091	57.23
287.559	33.32
288.026	21.92
288.494	16.32
288.962	12.52
289.429	14.12
289.897	20.62
290.364	17.22
290.832	22.12
291.3	14.23
291.767	14.12
292.234	26.42
292.702	12.92
293.169	27.02
293.637	26.42
294.104	23.72
294.571	18.52
295.039	18.02
295.506	19.52
295.973	22.32
296.44	20.02
296.908	18.83
297.375	23.02
297.842	20.82
298.309	17.32
298.776	16.02
299.243	25.62
299.71	19.12
300.177	23.82
300.644	24.32
301.111	20.83
301.578	27.52
302.045	18.73
302.512	24.62
302.979	26.82
303.446	26.72
303.913	19.23
304.379	17.72
304.846	31.33
305.313	29.82
305.78	24.12
306.246	27.12
306.713	34.82
307.18	29.92
307.646	27.52
308.113	34.92
308.579	23.12
309.046	25.92
309.512	27.62
309.979	19.02
310.445	28.32
310.912	25.92
311.378	40.72
311.845	36.92
312.311	29.72
312.777	33.62
313.244	33.42
313.71	34.72
314.176	37.12
314.642	39.02
315.109	39.52
315.575	35.42
316.041	44.73
316.507	29.92
316.973	45.12
317.439	39.32
317.905	39.23
318.371	39.32
318.837	36.52
319.303	34.52
319.769	37.12
320.235	28.62
320.701	36.82
321.167	39.22
321.633	35.23
322.099	41.92
322.564	51.92
323.03	49.62
323.496	41.12
323.962	46.12
324.427	38.32
324.893	45.82
325.359	32.12
325.824	40.72
326.29	37.32
326.755	43.02
327.221	46.32
327.686	39.42
328.152	46.02
328.617	43.52
329.083	51.62
329.548	52.72
330.014	56.12
330.479	43.02
330.944	50.12
331.41	48.62
331.875	51.42
332.34	44.82
332.805	48.52
333.271	48.92
333.736	49.82
334.201	56.23
334.666	54.72
335.131	59.72
335.596	51.92
336.061	54.92
336.526	50.42
336.991	54.02
337.456	58.73
337.921	55.22
338.386	46.32
338.851	54.72
339.316	46.62
339.781	53.92
340.246	51.73
340.711	48.52
341.175	49.82
341.64	46.32
342.105	48.23
342.569	58.22
343.034	60.32
343.499	60.52
343.963	56.33
344.428	66.42
344.893	66.02
345.357	59.12
345.822	65.22
346.286	63.52
346.751	75.23
347.215	66.12
347.679	78.02
348.144	100.12
348.608	84.02
349.073	78.52
349.537	80.82
350.001	80.92
350.465	94.42
350.93	83.82
351.394	83.32
351.858	79.02
352.322	87.33
352.786	83.42
353.25	103.02
353.715	117.82
354.179	108.32
354.643	129.83
355.107	128.82
355.571	104.42
356.035	103.52
356.498	118.92
356.962	128.42
357.426	135.92
357.89	118.92
358.354	94.72
358.818	83.62
359.281	80.42
359.745	86.23
360.209	76.73
360.673	78.52
361.136	80.23
361.6	86.12
362.064	84.52
362.527	90.12
362.991	90.92
363.454	80.92
363.918	82.82
364.381	82.02
364.845	90.02
365.308	89.02
365.772	85.92
366.235	92.42
366.698	90.22
367.162	88.02
367.625	86.62
368.088	87.82
368.552	86.12
369.015	86.92
369.478	102.32
369.941	106.92
370.404	97.62
370.867	102.42
371.331	110.12
371.794	114.32
372.257	112.52
372.72	115.72
373.183	103.82
373.646	102.92
374.109	99.33
374.572	110.22
375.035	111.42
375.497	108.72
375.96	101.82
376.423	104.32
376.886	114.33
377.349	112.32
377.811	100.42
378.274	105.92
378.737	106.62
379.199	107.33
379.662	111.22
380.125	116.73
380.587	119.62
381.05	118.83
381.512	133.62
381.975	133.22
382.437	128.02
382.9	125.52
383.362	130.62
383.825	148.73
384.287	147.92
384.75	135.72
385.212	142.82
385.674	135.52
386.136	143.42
386.599	131.32
387.061	130.42
387.523	121.82
387.985	140.72
388.447	135.02
388.91	140.02
389.372	150.92
389.834	146.32
390.296	143.92
390.758	153.82
391.22	163.12
391.682	202.73
392.144	285.52
392.606	224.72
393.068	167.12
393.529	157.82
393.991	151.42
394.453	146.42
394.915	151.62
395.377	188.73
395.838	203.32
396.3	153.42
396.762	140.33
397.224	136.32
397.685	127.92
398.147	132.02
398.608	130.52
399.07	128.02
399.531	133.62
399.993	138.52
400.454	151.12
400.916	142.62
401.377	150.23
401.839	146.42
402.3	155.72
402.762	160.62
403.223	181.52
403.684	163.42
404.145	162.82
404.607	160.62
405.068	168.52
405.529	167.92
405.99	186.82
406.451	170.92
406.913	159.72
407.374	161.12
407.835	159.73
408.296	167.42
408.757	165.52
409.218	178.82
409.679	176.92
410.14	168.73
410.601	173.12
411.062	177.52
411.522	185.12
411.983	188.42
412.444	170.62
412.905	170.92
413.366	177.32
413.826	186.22
414.287	209.73
414.748	249.82
415.208	237.42
415.669	212.82
416.13	205.92
416.59	196.32
417.051	203.42
417.511	208.42
417.972	238.83
418.432	237.73
418.893	274.02
419.353	247.72
419.814	190.92
420.274	175.22
420.734	171.52
421.195	194.52
421.655	190.53
422.115	185.82
422.576	187.82
423.036	192.72
423.496	201.52
423.956	214.62
424.416	223.92
424.876	262.92
425.336	252.22
425.797	251.62
426.257	249.12
426.717	233.12
427.177	226.62
427.637	219.12
428.097	226.92
428.556	237.62
429.016	269.92
429.476	256.22
429.936	270.83
430.396	273.32
430.856	285.52
431.315	307.02
431.775	333.62
432.235	367.12
432.694	344.62
433.154	356.62
433.614	377.82
434.073	326.42
434.533	279.72
434.993	262.62
435.452	272.62
435.912	286.82
436.371	283.53
436.83	278.33
437.29	270.02
437.749	239.73
438.209	240.52
438.668	266.42
439.127	277.62
439.587	257.92
440.046	243.23
440.505	261.53
440.964	272.82
441.424	312.02
441.883	303.33
442.342	247.42
442.801	215.82
443.26	220.52
443.719	213.82
444.178	213.12
444.637	198.53
445.096	213.62
445.555	214.23
446.014	217.62
446.473	218.43
446.932	223.83
447.391	220.42
447.849	219.02
448.308	210.82
448.767	221.02
449.226	224.83
449.685	227.73
450.143	240.62
450.602	228.02
451.061	221.42
451.519	222.92
451.978	224.73
452.436	231.73
452.895	233.22
453.353	241.62
453.812	239.92
454.27	229.52
454.729	233.42
455.187	232.73
455.646	234.62
456.104	242.73
456.562	249.12
457.021	258.62
457.479	247.92
457.937	263.92
458.395	251.22
458.854	244.43
459.312	243.32
459.77	265.12
460.228	247.32
460.686	228.23
461.144	246.23
461.602	235.02
462.06	237.02
462.518	242.42
462.976	246.42
463.434	247.93
463.892	258.52
464.35	268.92
464.808	282.73
465.266	253.52
465.724	261.72
466.181	268.52
466.639	260.82
467.097	281.23
467.555	297.43
468.012	302.92
468.47	304.93
468.928	319.22
469.385	330.33
469.843	337.42
470.3	333.72
470.758	346.93
471.215	378.73
471.673	386.73
472.13	385.92
472.588	398.82
473.045	358.03
473.503	362.92
473.96	375.42
474.417	387.73
474.875	416.62
475.332	463.23
475.789	456.02
476.246	458.12
476.704	465.12
477.161	493.43
477.618	504.92
478.075	537.42
478.532	595.73
478.989	664.82
479.446	778.53
479.903	751.42
480.36	784.02
480.817	843.52
481.274	933.92
481.731	1034.62
482.188	1123.62
482.645	1255.42
483.102	1368.82
483.558	1505.02
484.015	1553.02
484.472	1536.42
484.929	1471.42
485.385	1439.53
485.842	1397.93
486.299	1328.82
486.755	1263.42
487.212	1064.62
487.668	903.42
488.125	828.73
488.582	760.92
489.038	732.02
489.494	685.62
489.951	671.82
490.407	651.33
490.864	630.92
491.32	621.43
491.776	616.12
492.233	622.52
492.689	597.02
493.145	589.02
493.602	574.23
494.058	597.12
494.514	599.53
494.97	614.53
495.426	624.52
495.882	593.73
496.338	593.32
496.794	608.02
497.251	602.23
497.707	613.92
498.163	612.12
498.618	625.42
499.074	623.02
499.53	654.72
499.986	652.22
500.442	631.83
500.898	606.22
501.354	602.42
501.809	621.52
502.265	613.73
502.721	641.72
503.177	648.33
503.632	641.23
504.088	655.52
504.543	687.02
504.999	682.02
505.455	639.92
505.91	614.43
506.366	620.02
506.821	601.82
507.277	601.52
507.732	605.72
508.187	601.42
508.643	617.02
509.098	626.73
509.553	635.82
510.009	648.02
510.464	651.73
510.919	665.02
511.375	670.12
511.83	679.02
512.285	698.82
512.74	725.12
513.195	751.52
513.65	748.12
514.105	747.22
514.56	748.62
515.015	762.33
515.47	779.43
515.925	760.03
516.38	770.02
516.835	769.12
517.29	750.92
517.745	750.72
518.2	731.02
518.655	717.92
519.109	721.42
519.564	705.12
520.019	705.32
520.474	709.42
520.928	689.62
521.383	696.52
521.838	677.62
522.292	681.43
522.747	675.93
523.201	674.62
523.656	675.52
524.11	672.72
524.565	665.23
525.019	654.33
525.474	672.12
525.928	670.33
526.382	661.92
526.837	666.32
527.291	676.23
527.745	667.32
528.2	666.22
528.654	663.82
529.108	661.23
529.562	659.23
530.016	656.12
530.47	662.73
530.925	665.73
531.379	669.32
531.833	679.22
532.287	672.52
532.741	676.92
533.195	679.92
533.649	691.52
534.103	691.12
534.556	685.32
535.01	686.42
535.464	682.42
535.918	694.12
536.372	697.22
536.826	688.22
537.279	679.72
537.733	684.73
538.187	689.23
538.64	690.12
539.094	688.32
539.548	693.22
540.001	692.52
540.455	699.72
540.908	690.02
541.362	707.93
541.815	718.93
542.269	720.82
542.722	722.82
543.175	728.82
543.629	732.42
544.082	748.12
544.536	753.62
544.989	739.03
545.442	750.23
545.895	748.92
546.349	747.12
546.802	746.82
547.255	747.62
547.708	771.32
548.161	770.32
548.614	780.72
549.067	782.43
549.52	774.62
549.973	768.73
550.426	771.32
550.879	759.52
551.332	748.83
551.785	759.52
552.238	767.42
552.691	780.12
553.144	791.02
553.596	806.22
554.049	818.42
554.502	846.82
554.955	871.92
555.407	859.23
555.86	864.23
556.313	840.12
556.765	830.52
557.218	835.72
557.67	836.72
558.123	823.02
558.576	825.82
559.028	826.03
559.48	838.22
559.933	831.62
560.385	787.92
560.838	762.22
561.29	734.52
561.742	736.33
562.195	725.32
562.647	721.22
563.099	724.62
563.551	724.93
564.004	738.32
564.456	727.72
564.908	719.42
565.36	701.32
565.812	687.72
566.264	672.53
566.716	684.03
567.168	669.42
567.62	683.72
568.072	660.93
568.524	649.22
568.976	654.32
569.428	619.43
569.88	630.82
570.332	639.72
570.784	639.52
571.235	637.12
571.687	654.43
572.139	658.92
572.59	668.12
573.042	668.52
573.494	661.22
573.945	653.92
574.397	632.52
574.849	647.02
575.3	645.23
575.752	646.62
576.203	634.32
576.655	632.62
577.106	628.93
577.557	614.53
578.009	619.22
578.46	620.02
578.912	610.83
579.363	623.32
579.814	614.92
580.265	623.02
580.717	617.42
581.168	634.92
581.619	627.03
582.07	644.72
582.521	624.42
582.972	624.52
583.423	635.83
583.875	632.52
584.326	652.12
584.777	690.62
585.227	768.23
585.678	843.92
586.129	930.72
586.58	976.83
587.031	1074.93
587.482	1225.42
587.933	1392.83
588.384	1205.02
588.834	895.23
589.285	750.52
589.736	718.62
590.186	722.92
590.637	713.42
591.088	689.12
591.538	680.73
591.989	676.02
592.439	675.12
592.89	669.62
593.34	657.12
593.791	659.02
594.241	651.22
594.692	656.82
595.142	656.43
595.593	648.82
596.043	653.52
596.493	652.02
596.943	662.42
597.394	667.62
597.844	658.93
598.294	672.12
598.744	693.42
599.195	713.82
599.645	744.23
600.095	789.22
600.545	836.52
600.995	873.33
601.445	936.62
601.895	1000.83
602.345	1051.03
602.795	1023.82
603.245	973.52
603.695	923.22
604.145	883.73
604.594	827.33
605.044	792.42
605.494	737.02
605.944	698.42
606.393	680.72
606.843	656.32
607.293	673.03
607.743	663.82
608.192	683.12
608.642	695.73
609.091	695.53
609.541	706.62
609.99	708.12
610.44	694.22
610.889	657.92
611.339	632.72
611.788	629.72
612.238	635.02
612.687	649.72
613.136	659.23
613.586	672.62
614.035	663.42
614.484	696.32
614.933	688.52
615.383	679.73
615.832	678.12
616.281	657.42
616.73	630.73
617.179	611.52
617.628	596.42
618.077	577.02
618.526	567.12
618.975	558.62
619.424	566.52
619.873	562.53
620.322	561.02
620.771	555.23
621.22	540.32
621.669	539.62
622.118	538.62
622.567	523.83
623.015	514.42
623.464	517.92
623.913	510.92
624.361	505.12
624.81	501.42
625.259	503.53
625.707	499.12
626.156	500.02
626.604	520.52
627.053	510.12
627.501	512.22
627.95	516.03
628.398	521.42
628.847	509.42
629.295	510.32
629.744	524.42
630.192	521.33
630.64	512.92
631.089	507.92
631.537	515.73
631.985	522.62
632.433	526.62
632.881	541.33
633.33	589.12
633.778	570.52
634.226	507.12
634.674	508.22
635.122	518.33
635.57	538.92
636.018	561.23
636.466	518.52
636.914	504.23
637.362	510.42
637.81	522.02
638.258	523.62
638.705	514.23
639.153	535.82
639.601	548.23
640.049	576.02
640.497	599.02
640.944	616.02
641.392	579.82
641.84	549.42
642.287	528.02
642.735	514.33
643.182	514.03
643.63	511.32
644.078	511.53
644.525	523.22
644.973	534.62
645.42	539.52
645.867	555.32
646.315	580.33
646.762	589.53
647.21	614.33
647.657	640.72
648.104	678.62
648.551	692.82
648.999	747.43
649.446	819.23
649.893	890.62
650.34	1028.02
650.787	1230.72
651.234	1528.82
651.682	1972.82
652.129	2705.22
652.576	3896.12
653.023	5752.62
653.47	7920.12
653.917	10037.93
654.363	11708.93
654.81	13143.73
655.257	12432.23
655.704	8099.52
656.151	4756.22
656.598	3091.82
657.044	2187.82
657.491	1688.72
657.938	1338.62
658.385	1110.62
658.831	972.33
659.278	865.62
659.724	759.12
660.171	696.62
660.618	642.62
661.064	606.83
661.511	593.02
661.957	574.52
662.404	573.52
662.85	574.03
663.296	544.82
663.743	497.52
664.189	473.52
664.635	472.12
665.082	477.32
665.528	475.92
665.974	459.02
666.42	451.42
666.867	449.12
667.313	438.43
667.759	428.83
668.205	420.83
668.651	432.22
669.097	426.02
669.543	443.52
669.989	415.23
670.435	402.22
670.881	392.33
671.327	399.52
671.773	421.02
672.219	434.92
672.665	482.83
673.11	511.12
673.556	556.32
674.002	599.43
674.448	590.92
674.893	492.32
675.339	421.12
675.785	389.32
676.23	372.62
676.676	351.82
677.122	337.72
677.567	331.32
678.013	325.42
678.458	316.12
678.904	305.72
679.349	296.02
679.794	310.12
680.24	309.92
680.685	310.52
681.131	309.02
681.576	305.92
682.021	308.73
682.466	310.33
682.912	304.12
683.357	301.52
683.802	334.53
684.247	358.62
684.692	400.72
685.137	437.73
685.583	472.73
686.028	497.72
686.473	458.22
686.918	394.82
687.363	366.92
687.807	343.92
688.252	320.22
688.697	316.42
689.142	300.92
689.587	294.33
690.032	278.62
690.477	312.83
690.921	300.22
691.366	341.23
691.811	352.92
692.255	381.52
692.7	400.82
693.145	437.12
693.589	592.12
694.034	958.02
694.478	1339.82
694.923	1543.02
695.367	2035.12
695.812	1058.62
696.256	434.62
696.701	326.72
697.145	297.32
697.59	287.92
698.034	286.62
698.478	288.53
698.922	280.22
699.367	292.02
699.811	292.23
700.255	311.22
700.699	335.62
701.143	369.33
701.588	419.33
702.032	456.62
702.476	457.72
702.92	431.62
703.364	428.92
703.808	544.42
704.252	886.12
704.696	1255.53
705.14	1475.22
705.584	1904.42
706.027	933.72
706.471	453.02
706.915	350.92
707.359	314.82
707.803	286.32
708.246	269.42
708.69	275.33
709.134	274.32
709.577	268.73
710.021	277.62
710.465	274.62
710.908	260.82
711.352	258.82
711.795	269.72
712.239	307.12
712.682	335.32
713.126	360.72
713.569	410.52
714.012	324.82
714.456	284.03
714.899	264.62
715.342	244.22
715.786	228.43
716.229	225.52
716.672	227.32
717.115	220.32
717.558	223.62
718.002	221.42
718.445	225.32
718.888	248.92
719.331	258.72
719.774	273.82
720.217	271.52
720.66	252.92
721.103	231.72
721.546	225.42
721.989	223.22
722.432	200.82
722.874	214.82
723.317	201.52
723.76	210.42
724.203	226.52
724.645	276.32
725.088	381.52
725.531	495.52
725.974	573.52
726.416	489.52
726.859	267.52
727.301	215.32
727.744	207.22
728.187	204.12
728.629	207.62
729.071	205.02
729.514	224.32
729.956	237.52
730.399	246.62
730.841	253.12
731.283	235.83
731.726	231.62
732.168	228.73
732.61	232.02
733.053	245.83
733.495	278.53
733.937	306.83
734.379	349.22
734.821	385.52
735.263	466.83
735.705	708.52
736.148	1326.72
736.59	2223.32
737.032	2734.82
737.474	2226.22
737.916	709.23
738.357	377.23
738.799	277.82
739.241	255.23
739.683	246.82
740.125	251.92
740.567	259.32
741.008	274.62
741.45	279.93
741.892	268.43
742.334	304.83
742.775	309.02
743.217	304.22
743.658	235.72
744.1	223.33
744.542	226.02
744.983	278.23
745.425	299.83
745.866	302.62
746.307	248.93
746.749	247.12
747.19	273.83
747.632	383.42
748.073	729.62
748.514	1577.82
748.956	2502.62
749.397	3114.72
749.838	2589.73
750.279	2645.92
750.72	1323.53
751.162	478.62
751.603	275.33
752.044	220.12
752.485	187.82
752.926	171.12
753.367	174.42
753.808	172.82
754.249	160.32
754.69	157.62
755.131	157.92
755.572	157.42
756.013	151.92
756.453	155.92
756.894	164.42
757.335	175.83
757.776	171.52
758.216	175.92
758.657	166.92
759.098	173.62
759.538	191.52
759.979	226.82
760.42	317.93
760.86	593.23
761.301	1525.43
761.741	3795.22
762.182	5780.02
762.622	4059.52
763.063	1145.83
763.503	466.42
763.943	292.42
764.384	285.33
764.824	351.53
765.264	387.32
765.705	267.22
766.145	184.72
766.585	165.32
767.025	158.82
767.465	167.42
767.906	208.52
768.346	271.83
768.786	293.22
769.226	219.82
769.666	273.32
770.106	510.82
770.546	1314.92
770.986	2327.62
771.426	2114.82
771.866	699.53
772.306	277.52
772.745	187.23
773.185	154.22
773.625	143.22
774.065	145.32
774.505	174.22
774.944	257.12
775.384	578.92
775.824	1067.42
776.263	1067.03
776.703	447.42
777.142	192.23
777.582	131.92
778.021	117.23
778.461	121.23
778.9	118.62
779.34	116.42
779.779	96.92
780.219	90.83
780.658	93.82
781.097	87.82
781.537	111.72
781.976	100.52
782.415	99.42
782.855	87.42
783.294	89.02
783.733	92.32
784.172	96.52
784.611	91.02
785.05	89.82
785.489	99.02
785.928	100.72
786.367	106.02
786.806	102.42
787.245	116.72
787.684	119.32
788.123	122.42
788.562	123.62
789.001	111.73
789.44	101.12
789.879	97.52
790.317	103.82
790.756	111.42
791.195	113.42
791.634	121.02
792.072	178.12
792.511	312.92
792.95	843.02
793.388	1867.93
793.827	1737.33
794.265	597.42
794.704	243.12
795.142	157.42
795.581	126.42
796.019	121.22
796.458	115.12
796.896	103.52
797.334	117.42
797.773	126.32
798.211	190.52
798.649	367.02
799.087	873.12
799.526	1378.82
799.964	1745.02
800.402	1795.22
800.84	665.12
801.278	265.02
801.716	158.82
802.154	133.12
802.592	128.92
803.03	123.62
803.468	113.83
803.906	129.62
804.344	133.32
804.782	117.92
805.22	117.72
805.658	107.72
806.096	128.83
806.533	141.02
806.971	142.32
807.409	189.42
807.847	264.92
808.284	551.02
808.722	1580.22
809.16	2893.73
809.597	2667.93
810.035	4726.12
810.472	5251.12
810.91	1877.02
811.347	697.62
811.785	353.83
812.222	224.02
812.66	172.12
813.097	142.62
813.535	118.92
813.972	119.23
814.409	101.82
814.846	100.12
815.284	95.62
815.721	87.02
816.158	88.12
816.595	103.92
817.032	152.02
817.47	175.52
817.907	138.52
818.344	129.92
818.781	98.73
819.218	88.42
819.655	105.23
820.092	165.52
820.529	190.52
820.966	157.23
821.403	116.52
821.839	92.42
822.276	90.42
822.713	107.02
823.15	120.92
823.587	101.92
824.023	124.62
824.46	247.42
824.897	766.12
825.333	1217.62
825.77	506.52
826.206	191.02
826.643	111.92
827.08	83.42
827.516	73.83
827.953	64.02
828.389	68.12
828.825	61.52
829.262	55.52
829.698	58.22
830.135	57.52
830.571	56.62
831.007	50.42
831.443	59.42
831.88	54.02
832.316	60.12
832.752	51.52
833.188	57.23
833.624	52.73
834.06	53.92
834.497	58.22
834.933	64.92
835.369	63.12
835.805	54.82
836.241	63.92
836.677	70.42
837.112	79.42
837.548	86.92
837.984	104.22
838.42	173.12
838.856	424.32
839.292	1302.73
839.727	2053.93
840.163	948.12
840.599	792.12
841.034	1760.42
841.47	1914.33
841.906	690.03
842.341	294.42
842.777	194.12
843.212	274.52
843.648	277.22
844.083	136.02
844.519	85.83
844.954	69.02
845.39	57.92
845.825	48.62
846.261	50.02
846.696	47.42
847.131	47.23
847.566	51.62
848.002	44.12
848.437	50.23
848.872	51.62
849.307	56.83
849.742	71.12
850.177	147.12
850.613	467.12
851.048	774.52
851.483	332.72
851.918	131.32
852.353	73.42
852.788	51.22
853.223	50.62
853.657	42.32
854.092	35.92
854.527	31.12
854.962	33.12
855.397	35.42
855.832	41.22
856.266	35.73
856.701	34.83
857.136	34.62
857.57	37.73
858.005	48.73
858.44	46.12
858.874	42.02
859.309	44.42
859.743	36.32
860.178	45.92
860.612	31.72
861.047	45.82
861.481	59.62
861.915	67.62
862.35	41.22
862.784	29.92
863.218	32.12
863.653	31.92
864.087	40.22
864.521	46.32
864.955	58.23
865.39	130.52
865.824	154.83
866.258	96.23
866.692	149.92
867.126	159.72
867.56	91.22
867.994	43.42
868.428	33.12
868.862	43.92
869.296	46.33
869.73	49.12
870.164	50.12
870.598	37.73
871.031	35.12
871.465	24.22
871.899	25.62
872.333	21.92
872.766	24.62
873.2	16.52
873.634	20.12
874.067	18.32
874.501	22.02
874.935	25.92
875.368	28.42
875.802	23.22
876.235	27.22
876.669	24.32
877.102	21.23
877.535	24.83
877.969	19.32
878.402	16.42
878.836	17.72
879.269	24.52
879.702	26.02
880.135	17.32
880.569	20.82
881.002	21.73
881.435	19.02
881.868	15.02
882.301	21.32
882.734	11.92
883.167	22.23
883.601	13.73
884.034	20.82
884.467	11.23
884.899	15.72
885.332	10.73
885.765	8.42
886.198	9.02
886.631	14.82
887.064	13.42
887.497	16.42
887.929	23.32
888.362	12.12
888.795	8.32
889.228	20.82
889.66	16.62
890.093	11.42
890.526	10.82
890.958	19.02
891.391	16.62
891.823	17.42
892.256	11.82
892.688	8.12
893.121	10.23
893.553	11.82
893.985	18.32
894.418	18.32
894.85	11.92
895.282	13.22
895.715	16.62
896.147	12.62
896.579	12.12
897.011	8.83
897.444	14.82
897.876	9.42
898.308	11.72
898.74	11.42
899.172	7.82
899.604	22.52
900.036	20.82
900.468	9.62
900.9	7.72
901.332	16.42
901.764	8.82
902.196	12.02
902.628	15.32
903.06	10.42
903.491	22.62
903.923	13.92
904.355	18.12
904.787	20.02
905.218	14.42
905.65	20.42
906.082	10.72
906.513	17.02
906.945	13.62
907.376	10.32
907.808	14.02
908.239	24.23
908.671	14.32
909.102	27.12
909.534	25.73
909.965	41.62
910.397	78.52
910.828	269.92
911.259	425.83
911.691	191.82
912.122	92.12
912.553	44.52
912.984	33.02
913.415	13.23
913.847	26.42
914.278	9.32
914.709	11.92
915.14	21.73
915.571	19.52
916.002	16.62
916.433	17.23
916.864	17.52
917.295	8.92
917.726	15.02
918.157	11.72
918.587	20.82
919.018	15.52
919.449	17.52
919.88	28.42
920.311	24.23
920.741	39.72
921.172	144.92
921.603	134.92
922.033	62.22
922.464	37.62
922.895	20.92
923.325	18.12
923.756	17.92
924.186	9.52
924.617	24.33
925.047	38.42
925.478	48.92
925.908	51.62
926.338	26.02
926.769	19.62
927.199	21.23
927.629	12.52
928.06	11.52
928.49	15.02
928.92	12.22
929.35	11.02
929.78	6.72
930.21	9.92
930.641	6.12
931.071	5.52
931.501	0.23
931.931	4.42
932.361	7.73
932.791	7.12
933.221	7.02
933.651	5.52
934.08	20.92
934.51	32.62
934.94	6.92
935.37	2.33
935.8	13.32
936.229	7.12
936.659	13.42
937.089	1.32
937.519	11.82
937.948	21.42
938.378	17.32
938.807	0.72
939.237	2.83
939.666	6.33
940.096	-4.18
940.525	0.82
940.955	-1.77
941.384	-0.98
941.814	-6.18
942.243	-4.38
942.672	3.12
943.102	-2.58
943.531	4.02
943.96	4.12
944.39	-0.28
944.819	2.42
945.248	2.72
945.677	4.02
946.106	3.92
946.535	0.72
946.964	2.72
947.393	2.22
947.822	5.92
948.251	-4.28
948.68	0.83
949.109	3.12
949.538	6.73
949.967	3.02
950.396	4.82
950.825	-6.08
951.254	1.23
951.682	-8.88
952.111	3.52
952.54	4.73
952.969	-2.78
953.397	-5.38
953.826	5.02
954.254	-1.98
954.683	3.32
955.112	1.32
955.54	-2.27
955.969	7.23
956.397	-2.68
956.826	-2.77
957.254	0.73
957.682	5.02
958.111	6.42
958.539	4.92
958.967	2.12
959.396	-0.88
959.824	0.02
960.252	3.12
960.68	-6.48
961.109	-4.38
961.537	-4.68
961.965	2.12
962.393	3.62
962.821	-3.08
963.249	6.42
963.677	6.12
964.105	8.22
964.533	38.23
964.961	39.52
965.389	19.12
965.817	7.02
966.245	8.32
966.672	-0.98
967.1	-5.77
967.528	0.22
967.956	-0.67
968.383	-3.78
968.811	-0.38
969.239	4.12
969.666	-2.88
970.094	2.92
970.522	2.02
970.949	-0.58
971.377	-7.58
971.804	0.42
972.232	-2.38
972.659	2.52
973.087	4.22
973.514	-4.58
973.941	-8.68
974.369	-1.08
974.796	-3.27
975.223	-4.68
975.651	1.92
976.078	7.32
976.505	-1.38
976.932	5.22
977.359	15.22
977.786	13.82
978.214	0.02
978.641	3.12
979.068	-4.78
979.495	-5.88
979.922	-4.98
980.349	0.92
980.776	4.42
981.202	2.72
981.629	2.72
982.056	2.42
982.483	1.73
982.91	4.32
983.337	-3.38
983.763	5.32
984.19	-1.98
984.617	-2.88
985.043	-1.38
985.47	0.73
985.897	-6.48
986.323	-1.88
986.75	-1.08
987.176	1.72
987.603	-4.38
988.029	0.92
988.456	0.42
988.882	4.52
989.308	-1.58
989.735	-7.08
990.161	5.52
990.587	-6.68
991.014	-1.28
991.44	7.02
991.866	2.42
992.292	-5.77
992.719	-0.78
993.145	2.52
993.571	-7.17
993.997	-4.58
994.423	2.02
994.849	-1.68
995.275	-7.27
995.701	-0.68
996.127	0.62
996.553	-0.68
996.979	-2.48
997.405	-0.58
997.83	0.72
998.256	-4.68
998.682	-3.17
999.108	-7.08
999.534	6.02
999.959	-2.88
1000.385	0.82
1000.811	0.02
1001.236	-6.18
1001.662	-4.48
1002.087	-10.17
1002.513	2.72
1002.938	-0.27
1003.364	-3.17
1003.789	-0.68
1004.215	6.32
1004.64	-0.88
1005.066	6.32
1005.491	0.73
1005.916	-1.68
1006.342	-4.88
1006.767	-5.58
1007.192	-1.68
1007.617	-7.78
1008.042	-0.77
1008.468	-10.58
1008.893	0.62
1009.318	-4.68
1009.743	1.42
1010.168	4.52
1010.593	6.42
1011.018	0.12
1011.443	-0.48
1011.868	2.62
1012.293	1.52
1012.718	-11.77
1013.143	0.02
1013.567	-1.48
1013.992	-3.28
1014.417	-13.58
1014.842	5.72
1015.267	-4.98
1015.691	0.02
1016.116	6.02
1016.541	2.12
1016.965	3.02
1017.39	-0.58
1017.814	0.12
1018.239	1.32
1018.663	-7.78
1019.088	-8.38
1019.512	-3.78
1019.937	-7.08
1020.361	-1.78
1020.785	-5.78
1021.21	-4.38
1021.634	-7.38
1022.058	-0.28
1022.483	1.92
1022.907	-4.98
1023.331	-3.67
1023.755	-4.98
1024.179	-1.38
1024.604	-0.88
1025.028	-3.58
1025.452	-2.68
1025.876	-6.48
1026.3	1.22
1026.724	-9.18
1027.148	-3.58
1027.572	-9.98
1027.996	-0.88
1028.42	-3.58
1028.843	-3.18
1029.267	-4.78
1029.691	-2.78
1030.115	-5.08
1030.539	-0.58
1030.962	-8.38
1031.386	-9.88
1031.81	-1.17
1032.233	-2.38
1032.657	3.12
1033.08	-0.58
1033.504	-5.08
1033.927	-1.67
1034.351	-7.58
1034.774	4.42
1035.198	1.72
1035.621	0.92
1036.045	-4.38
1036.468	2.92
1036.891	-9.28
1037.315	-6.88
1037.738	-4.77
1038.161	2.52
1038.584	-5.88
1039.008	-8.58
1039.431	-2.08
1039.854	-6.88
1040.277	-2.38
1040.7	-7.48
1041.123	-2.68
1041.546	-5.58
1041.969	0.73
1042.392	-7.58
1042.815	-3.48
1043.238	2.82
1043.661	-1.18
1044.084	-1.48
1044.507	-3.88
1044.93	-8.88
1045.352	-3.38
1045.775	-1.78
1046.198	1.52
1046.621	-3.27
1047.043	0.52
1047.466	4.92
1047.889	-7.88
1048.311	-4.27
1048.734	-2.38
1049.156	-0.88
1049.579	-4.38
1050.001	-4.77
1050.424	2.32
1050.846	-5.38
1051.269	-4.38
1051.691	-1.58
1052.113	0.62
1052.536	-1.48
1052.958	-5.68
1053.38	-2.78
1053.802	-3.88
1054.225	-1.98
1054.647	-8.78
1055.069	-8.98
1055.491	5.52
1055.913	-7.98
1056.335	-0.18
1056.757	2.52
1057.179	0.52
1057.601	-6.88
1058.023	-2.08
1058.445	-1.38
1058.867	-4.78
1059.289	-2.68
1059.711	-8.17
1060.133	2.82
1060.555	0.82
1060.976	-10.78
1061.398	-4.68
1061.82	-5.18
1062.241	-4.88
1062.663	-4.98
1063.085	-2.68
1063.506	-0.17
1063.928	2.12
1064.35	-2.68
1064.771	-7.48
1065.193	0.32
1065.614	-4.48
1066.035	-0.58
1066.457	-1.38
1066.878	4.52
1067.3	-6.88
1067.721	-4.88
1068.142	-3.28
1068.564	-3.08
1068.985	-3.68
1069.406	-6.58
1069.827	-1.68
1070.248	2.12
1070.67	-4.38
1071.091	-5.58
1071.512	-1.18
1071.933	-1.88
1072.354	-8.77
1072.775	-4.88
1073.196	-8.77
1073.617	5.22
1074.038	-5.68
1074.459	2.83
1074.88	-3.58
1075.3	1.32
1075.721	-4.28
1076.142	0.23
1076.563	3.82
1076.983	-4.18
1077.404	-6.08
1077.825	-9.27
1078.246	-7.08
1078.666	-8.38
1079.087	-3.27
1079.507	-10.38
1079.928	2.52
1080.348	-1.77
1080.769	-3.68
1081.189	0.83
1081.61	-2.77
1082.03	-4.88
1082.451	-5.38
1082.871	-1.67
1083.291	-7.68
1083.711	-6.18
1084.132	-7.08
1084.552	-6.38
1084.972	-2.68
1085.392	-7.68
1085.813	-10.98
1086.233	-4.28
1086.653	-4.18
1087.073	-2.27
1087.493	-6.98
1087.913	-7.18
1088.333	2.72
1088.753	-5.18
1089.173	3.12
1089.593	-1.98
1090.013	-5.08
1090.433	3.52
1090.852	-7.48
1091.272	-0.28
1091.692	0.72
1092.112	0.52
1092.531	-6.68
1092.951	-15.68
1093.371	-1.38
1093.79	-1.98
1094.21	-0.08
1094.63	-5.88
1095.049	-0.98
1095.469	-5.28
1095.888	-1.18
1096.308	3.32
1096.727	4.52
1097.146	-3.88
1097.566	2.92
1097.985	-0.58
1098.405	-3.67
1098.824	-1.58
1099.243	-9.18
1099.662	-7.88
1100.082	1.52
1100.501	-2.58
1100.92	-6.48
1101.339	-3.38
1101.758	-4.48
