Data from 20171114-ORNL-Ar_H_NY_Subt18_08-04-50-106.txt Node
Date: Tue Nov 14 08:04:50 EST 2017
User: Ender
Spectrometer: HR+D1039
Trigger mode: 0
Integration Time (sec): 2.730000E-2
Scans to average: 10
Electric dark correction enabled: true
Nonlinearity correction enabled: false
Boxcar width: 0
XAxis mode: Wavelengths
Number of Pixels in Spectrum: 2048
>>>>>Begin Spectral Data<<<<<
187.836	-10.67
188.309	-10.67
188.782	-10.67
189.255	-2.57
189.728	-2.77
190.201	4.13
190.674	2.53
191.147	6.53
191.619	-10.37
192.092	1.73
192.565	8.63
193.038	2.33
193.511	-1.27
193.984	-2.37
194.456	-0.27
194.929	4.13
195.402	0.33
195.874	-0.07
196.347	-0.37
196.82	-3.37
197.292	4.13
197.765	-2.27
198.237	-4.07
198.71	-2.37
199.182	-2.27
199.655	2.23
200.127	9.33
200.6	0.73
201.072	-3.17
201.544	-6.47
202.017	4.13
202.489	4.23
202.961	1.03
203.433	2.03
203.906	-2.07
204.378	-4.57
204.85	-0.27
205.322	-3.67
205.794	0.63
206.266	-1.87
206.739	-5.97
207.211	9.93
207.683	-2.07
208.155	-5.77
208.627	-4.57
209.099	-1.57
209.57	-2.57
210.042	-1.67
210.514	-0.27
210.986	-0.87
211.458	-6.47
211.93	-3.57
212.402	4.23
212.873	-6.57
213.345	-8.07
213.817	-9.47
214.288	-7.47
214.76	-15.17
215.232	-3.97
215.703	-1.77
216.175	-1.77
216.646	-2.97
217.118	1.83
217.589	-6.07
218.061	0.23
218.532	-2.27
219.004	0.93
219.475	-1.07
219.946	0.93
220.418	-4.37
220.889	1.43
221.36	-1.97
221.832	-0.57
222.303	-5.77
222.774	6.03
223.245	-4.87
223.717	-3.37
224.188	-4.27
224.659	-7.67
225.13	-3.47
225.601	-1.47
226.072	-2.77
226.543	-0.17
227.014	4.13
227.485	-0.17
227.956	-5.47
228.427	0.03
228.898	4.43
229.369	7.03
229.839	-0.47
230.31	-5.07
230.781	10.73
231.252	3.53
231.722	-1.07
232.193	-3.17
232.664	0.03
233.135	5.13
233.605	-0.77
234.076	-1.67
234.546	3.73
235.017	9.13
235.487	-2.17
235.958	1.93
236.428	-0.47
236.899	5.93
237.369	10.83
237.84	0.63
238.31	12.83
238.78	2.53
239.251	8.63
239.721	2.43
240.191	4.83
240.662	1.93
241.132	3.73
241.602	-0.87
242.072	8.03
242.542	8.23
243.013	-2.97
243.483	7.23
243.953	6.33
244.423	6.03
244.893	4.63
245.363	4.43
245.833	7.43
246.303	1.93
246.773	9.93
247.243	8.13
247.712	1.53
248.182	11.73
248.652	12.23
249.122	4.73
249.592	13.63
250.061	27.33
250.531	35.63
251.001	16.13
251.471	23.93
251.94	20.33
252.41	13.43
252.879	4.53
253.349	21.73
253.818	15.23
254.288	12.13
254.757	9.33
255.227	2.33
255.696	8.33
256.166	6.43
256.635	5.43
257.105	14.13
257.574	9.83
258.043	20.13
258.513	12.73
258.982	19.73
259.451	8.53
259.92	16.13
260.389	16.53
260.859	17.73
261.328	21.43
261.797	14.73
262.266	14.83
262.735	13.33
263.204	12.43
263.673	3.73
264.142	11.23
264.611	1.73
265.08	3.83
265.549	4.33
266.018	7.33
266.487	3.13
266.955	1.93
267.424	4.93
267.893	15.13
268.362	9.73
268.83	5.83
269.299	13.13
269.768	15.73
270.236	12.63
270.705	8.93
271.174	8.63
271.642	12.03
272.111	14.73
272.579	23.73
273.048	30.23
273.516	28.83
273.985	28.33
274.453	29.03
274.922	19.63
275.39	18.53
275.858	9.23
276.327	17.23
276.795	23.13
277.263	12.63
277.731	30.53
278.2	63.23
278.668	63.33
279.136	54.23
279.604	20.43
280.072	18.83
280.54	18.83
281.008	16.73
281.477	20.63
281.945	11.43
282.413	17.43
282.881	16.93
283.348	9.63
283.816	24.03
284.284	20.23
284.752	22.03
285.22	22.03
285.688	21.53
286.156	25.23
286.623	49.93
287.091	60.63
287.559	32.63
288.026	16.33
288.494	20.93
288.962	9.43
289.429	11.33
289.897	20.23
290.364	16.43
290.832	20.03
291.3	17.83
291.767	23.33
292.234	19.53
292.702	22.03
293.169	24.23
293.637	24.23
294.104	25.63
294.571	13.33
295.039	20.53
295.506	23.13
295.973	25.33
296.44	19.63
296.908	26.23
297.375	23.33
297.842	25.53
298.309	20.63
298.776	20.03
299.243	23.63
299.71	16.33
300.177	24.13
300.644	23.23
301.111	22.23
301.578	24.53
302.045	15.73
302.512	21.73
302.979	26.23
303.446	27.33
303.913	22.43
304.379	22.33
304.846	30.13
305.313	27.13
305.78	20.23
306.246	30.83
306.713	31.03
307.18	28.63
307.646	27.03
308.113	33.33
308.579	27.93
309.046	28.33
309.512	36.53
309.979	24.03
310.445	29.53
310.912	35.03
311.378	39.73
311.845	33.53
312.311	33.53
312.777	36.53
313.244	40.23
313.71	44.13
314.176	33.23
314.642	36.23
315.109	34.13
315.575	48.43
316.041	41.83
316.507	36.13
316.973	45.13
317.439	34.23
317.905	44.13
318.371	38.03
318.837	35.73
319.303	38.33
319.769	42.13
320.235	43.53
320.701	39.03
321.167	37.73
321.633	39.23
322.099	44.63
322.564	44.83
323.03	48.03
323.496	43.13
323.962	49.63
324.427	40.23
324.893	52.63
325.359	46.53
325.824	40.13
326.29	40.33
326.755	34.13
327.221	40.73
327.686	47.33
328.152	56.93
328.617	50.93
329.083	48.23
329.548	52.83
330.014	54.13
330.479	41.33
330.944	47.33
331.41	52.83
331.875	41.53
332.34	43.73
332.805	43.83
333.271	50.73
333.736	47.23
334.201	62.33
334.666	55.43
335.131	64.53
335.596	58.53
336.061	48.53
336.526	48.83
336.991	50.13
337.456	54.03
337.921	55.23
338.386	46.03
338.851	45.53
339.316	48.23
339.781	47.73
340.246	51.83
340.711	50.73
341.175	52.33
341.64	50.13
342.105	50.73
342.569	52.53
343.034	58.53
343.499	62.53
343.963	52.43
344.428	70.33
344.893	63.73
345.357	64.23
345.822	67.63
346.286	70.73
346.751	76.13
347.215	61.83
347.679	76.83
348.144	101.83
348.608	86.73
349.073	73.63
349.537	75.83
350.001	74.53
350.465	89.53
350.93	85.43
351.394	86.93
351.858	73.43
352.322	93.83
352.786	86.83
353.25	99.43
353.715	117.33
354.179	99.43
354.643	128.03
355.107	128.53
355.571	112.23
356.035	108.33
356.498	118.03
356.962	119.53
357.426	137.23
357.89	120.33
358.354	94.73
358.818	89.63
359.281	79.53
359.745	78.93
360.209	73.23
360.673	74.53
361.136	78.93
361.6	88.03
362.064	88.13
362.527	89.83
362.991	91.33
363.454	89.53
363.918	73.03
364.381	81.03
364.845	85.13
365.308	81.73
365.772	85.43
366.235	79.73
366.698	82.93
367.162	90.53
367.625	85.23
368.088	88.13
368.552	88.63
369.015	92.93
369.478	103.33
369.941	102.53
370.404	95.03
370.867	104.33
371.331	104.63
371.794	110.53
372.257	111.13
372.72	113.53
373.183	110.03
373.646	105.03
374.109	103.93
374.572	102.53
375.035	98.63
375.497	107.53
375.96	107.73
376.423	106.33
376.886	112.93
377.349	111.63
377.811	102.43
378.274	103.43
378.737	107.53
379.199	105.33
379.662	110.33
380.125	113.83
380.587	115.93
381.05	123.63
381.512	124.33
381.975	139.43
382.437	133.53
382.9	131.43
383.362	128.73
383.825	138.63
384.287	145.23
384.75	136.63
385.212	139.23
385.674	141.63
386.136	136.93
386.599	123.23
387.061	126.93
387.523	133.73
387.985	134.73
388.447	138.33
388.91	135.53
389.372	149.13
389.834	144.73
390.296	142.33
390.758	152.83
391.22	165.73
391.682	205.13
392.144	284.03
392.606	217.73
393.068	165.93
393.529	163.93
393.991	152.73
394.453	144.23
394.915	160.13
395.377	182.53
395.838	204.83
396.3	161.73
396.762	146.83
397.224	134.53
397.685	130.53
398.147	126.13
398.608	129.63
399.07	122.63
399.531	131.53
399.993	145.03
400.454	155.93
400.916	153.33
401.377	142.03
401.839	146.43
402.3	146.53
402.762	163.03
403.223	172.23
403.684	163.33
404.145	156.93
404.607	161.03
405.068	161.33
405.529	161.23
405.99	183.33
406.451	172.13
406.913	164.13
407.374	160.03
407.835	156.33
408.296	163.63
408.757	166.93
409.218	185.73
409.679	173.03
410.14	180.13
410.601	179.33
411.062	177.93
411.522	184.73
411.983	183.33
412.444	172.53
412.905	176.63
413.366	178.03
413.826	189.33
414.287	204.23
414.748	256.03
415.208	234.73
415.669	208.13
416.13	201.03
416.59	195.53
417.051	208.73
417.511	216.23
417.972	234.43
418.432	236.03
418.893	276.63
419.353	245.83
419.814	189.43
420.274	175.13
420.734	177.13
421.195	193.53
421.655	186.03
422.115	186.53
422.576	192.93
423.036	186.93
423.496	200.73
423.956	211.03
424.416	223.23
424.876	258.53
425.336	249.33
425.797	254.03
426.257	243.93
426.717	239.13
427.177	221.63
427.637	216.63
428.097	227.33
428.556	237.93
429.016	255.43
429.476	253.83
429.936	263.33
430.396	262.93
430.856	272.73
431.315	306.23
431.775	340.63
432.235	365.93
432.694	345.93
433.154	351.33
433.614	373.73
434.073	329.73
434.533	276.13
434.993	260.03
435.452	278.13
435.912	293.33
436.371	283.73
436.83	276.63
437.29	261.23
437.749	237.33
438.209	239.93
438.668	266.83
439.127	278.53
439.587	255.03
440.046	243.03
440.505	253.33
440.964	266.23
441.424	312.83
441.883	299.13
442.342	246.73
442.801	215.43
443.26	209.83
443.719	209.53
444.178	215.23
444.637	207.03
445.096	211.23
445.555	218.13
446.014	214.93
446.473	217.83
446.932	226.93
447.391	220.13
447.849	221.93
448.308	211.93
448.767	215.03
449.226	225.63
449.685	232.93
450.143	237.53
450.602	232.33
451.061	223.23
451.519	227.93
451.978	224.83
452.436	228.63
452.895	230.23
453.353	243.73
453.812	230.83
454.27	238.43
454.729	233.93
455.187	232.53
455.646	234.73
456.104	240.03
456.562	257.43
457.021	255.33
457.479	250.83
457.937	263.93
458.395	255.43
458.854	247.53
459.312	248.53
459.77	261.53
460.228	248.03
460.686	233.43
461.144	245.03
461.602	234.23
462.06	235.33
462.518	244.83
462.976	252.53
463.434	246.93
463.892	262.83
464.35	264.63
464.808	280.43
465.266	257.63
465.724	261.53
466.181	266.03
466.639	266.43
467.097	290.63
467.555	291.53
468.012	296.33
468.47	296.53
468.928	317.63
469.385	327.43
469.843	334.63
470.3	334.33
470.758	346.73
471.215	375.33
471.673	390.13
472.13	396.33
472.588	392.93
473.045	358.13
473.503	366.13
473.96	376.23
474.417	391.13
474.875	415.33
475.332	461.43
475.789	452.43
476.246	449.43
476.704	468.93
477.161	486.63
477.618	498.03
478.075	541.13
478.532	581.43
478.989	659.73
479.446	779.53
479.903	747.53
480.36	777.83
480.817	832.73
481.274	940.33
481.731	1035.43
482.188	1123.33
482.645	1248.83
483.102	1356.63
483.558	1503.43
484.015	1546.03
484.472	1520.83
484.929	1466.13
485.385	1426.83
485.842	1396.13
486.299	1328.83
486.755	1251.93
487.212	1053.33
487.668	895.33
488.125	815.53
488.582	760.93
489.038	725.03
489.494	684.33
489.951	668.73
490.407	652.43
490.864	628.63
491.32	621.63
491.776	626.13
492.233	626.23
492.689	588.33
493.145	594.23
493.602	577.63
494.058	594.13
494.514	595.53
494.97	610.63
495.426	627.23
495.882	600.53
496.338	594.13
496.794	605.83
497.251	599.73
497.707	620.83
498.163	619.23
498.618	624.53
499.074	633.83
499.53	657.53
499.986	647.73
500.442	637.83
500.898	614.93
501.354	613.43
501.809	610.13
502.265	614.23
502.721	641.53
503.177	647.33
503.632	632.63
504.088	653.63
504.543	687.73
504.999	683.53
505.455	629.63
505.91	610.43
506.366	621.33
506.821	600.73
507.277	599.33
507.732	600.23
508.187	602.43
508.643	609.53
509.098	603.53
509.553	633.13
510.009	641.53
510.464	646.13
510.919	662.03
511.375	678.03
511.83	681.53
512.285	693.73
512.74	735.63
513.195	758.23
513.65	739.43
514.105	733.63
514.56	751.43
515.015	761.53
515.47	784.03
515.925	762.63
516.38	757.73
516.835	760.43
517.29	760.23
517.745	748.23
518.2	735.33
518.655	715.53
519.109	717.43
519.564	713.03
520.019	709.33
520.474	701.03
520.928	700.73
521.383	689.33
521.838	684.13
522.292	682.33
522.747	679.23
523.201	677.63
523.656	666.33
524.11	660.53
524.565	667.73
525.019	658.63
525.474	670.43
525.928	681.73
526.382	665.33
526.837	663.43
527.291	682.93
527.745	668.63
528.2	666.23
528.654	666.93
529.108	654.03
529.562	657.63
530.016	663.53
530.47	662.73
530.925	674.03
531.379	671.53
531.833	680.53
532.287	674.43
532.741	677.63
533.195	685.63
533.649	687.53
534.103	694.23
534.556	678.63
535.01	690.43
535.464	683.53
535.918	688.03
536.372	693.73
536.826	693.03
537.279	676.93
537.733	686.73
538.187	684.83
538.64	677.73
539.094	695.33
539.548	700.73
540.001	686.63
540.455	681.33
540.908	691.73
541.362	700.53
541.815	702.53
542.269	731.73
542.722	721.23
543.175	728.83
543.629	729.03
544.082	751.13
544.536	752.03
544.989	749.53
545.442	753.53
545.895	745.93
546.349	746.73
546.802	764.63
547.255	756.83
547.708	773.23
548.161	773.13
548.614	791.43
549.067	784.93
549.52	782.43
549.973	777.03
550.426	770.33
550.879	758.53
551.332	758.03
551.785	765.53
552.238	775.73
552.691	774.23
553.144	788.13
553.596	793.63
554.049	826.33
554.502	843.13
554.955	866.83
555.407	865.73
555.86	861.93
556.313	851.03
556.765	833.63
557.218	845.23
557.67	840.33
558.123	838.03
558.576	826.13
559.028	829.83
559.48	834.23
559.933	829.53
560.385	798.13
560.838	764.33
561.29	745.43
561.742	737.03
562.195	722.43
562.647	721.63
563.099	729.83
563.551	730.53
564.004	744.13
564.456	723.23
564.908	713.13
565.36	704.43
565.812	690.73
566.264	681.63
566.716	671.63
567.168	678.93
567.62	677.33
568.072	664.93
568.524	653.43
568.976	660.03
569.428	641.63
569.88	633.83
570.332	630.63
570.784	635.13
571.235	635.63
571.687	644.33
572.139	654.73
572.59	672.23
573.042	664.23
573.494	669.13
573.945	668.73
574.397	641.03
574.849	649.73
575.3	646.73
575.752	640.83
576.203	629.93
576.655	643.13
577.106	625.93
577.557	614.63
578.009	623.33
578.46	620.13
578.912	617.83
579.363	627.23
579.814	628.93
580.265	627.33
580.717	618.13
581.168	627.83
581.619	631.63
582.07	636.43
582.521	625.83
582.972	620.13
583.423	641.43
583.875	632.33
584.326	650.63
584.777	690.23
585.227	761.93
585.678	850.13
586.129	926.83
586.58	993.13
587.031	1082.23
587.482	1241.83
587.933	1404.83
588.384	1218.23
588.834	909.03
589.285	740.03
589.736	741.33
590.186	710.83
590.637	714.33
591.088	684.63
591.538	683.93
591.989	682.43
592.439	675.13
592.89	671.63
593.34	656.43
593.791	652.53
594.241	660.13
594.692	657.13
595.142	645.03
595.593	648.23
596.043	654.73
596.493	654.73
596.943	668.93
597.394	670.33
597.844	654.13
598.294	678.13
598.744	693.33
599.195	714.13
599.645	746.93
600.095	787.83
600.545	848.83
600.995	896.13
601.445	947.63
601.895	986.93
602.345	1051.93
602.795	1039.03
603.245	972.13
603.695	932.23
604.145	887.03
604.594	837.83
605.044	794.23
605.494	735.53
605.944	698.93
606.393	694.53
606.843	667.73
607.293	677.43
607.743	677.73
608.192	685.23
608.642	700.03
609.091	703.03
609.541	709.03
609.99	706.63
610.44	700.13
610.889	663.63
611.339	642.63
611.788	628.53
612.238	637.03
612.687	657.43
613.136	658.63
613.586	676.53
614.035	674.23
614.484	687.23
614.933	693.33
615.383	688.23
615.832	675.43
616.281	651.53
616.73	621.63
617.179	606.83
617.628	600.13
618.077	576.33
618.526	567.03
618.975	559.73
619.424	558.33
619.873	569.73
620.322	571.83
620.771	544.53
621.22	551.03
621.669	546.33
622.118	539.43
622.567	533.43
623.015	521.63
623.464	513.83
623.913	523.13
624.361	498.53
624.81	508.23
625.259	512.23
625.707	504.23
626.156	509.83
626.604	514.93
627.053	511.93
627.501	507.93
627.95	517.83
628.398	524.63
628.847	517.23
629.295	515.53
629.744	522.13
630.192	514.83
630.64	509.63
631.089	514.83
631.537	512.73
631.985	523.33
632.433	542.73
632.881	551.83
633.33	588.13
633.778	572.83
634.226	506.93
634.674	523.43
635.122	520.73
635.57	540.23
636.018	559.73
636.466	534.03
636.914	499.63
637.362	512.33
637.81	528.23
638.258	520.03
638.705	521.13
639.153	546.53
639.601	557.83
640.049	585.93
640.497	612.83
640.944	633.33
641.392	572.83
641.84	551.23
642.287	529.63
642.735	511.73
643.182	514.53
643.63	513.63
644.078	523.53
644.525	527.03
644.973	536.83
645.42	547.93
645.867	559.13
646.315	567.93
646.762	599.73
647.21	628.73
647.657	637.83
648.104	681.23
648.551	699.83
648.999	758.33
649.446	815.23
649.893	906.73
650.34	1036.33
650.787	1241.33
651.234	1525.43
651.682	1983.53
652.129	2711.33
652.576	3905.43
653.023	5769.23
653.47	7957.53
653.917	10043.83
654.363	11709.43
654.81	13120.73
655.257	12465.23
655.704	8115.83
656.151	4775.43
656.598	3100.33
657.044	2180.33
657.491	1665.43
657.938	1334.43
658.385	1125.63
658.831	971.73
659.278	858.03
659.724	766.13
660.171	709.53
660.618	656.23
661.064	624.13
661.511	590.33
661.957	593.43
662.404	561.93
662.85	571.23
663.296	558.43
663.743	495.93
664.189	482.23
664.635	479.03
665.082	466.73
665.528	464.83
665.974	464.03
666.42	451.23
666.867	453.43
667.313	433.53
667.759	429.83
668.205	435.43
668.651	430.03
669.097	439.03
669.543	439.83
669.989	422.43
670.435	399.63
670.881	388.03
671.327	402.73
671.773	415.83
672.219	433.53
672.665	489.63
673.11	512.73
673.556	550.73
674.002	597.73
674.448	587.73
674.893	488.73
675.339	422.23
675.785	391.13
676.23	366.73
676.676	338.03
677.122	338.73
677.567	339.83
678.013	328.53
678.458	319.63
678.904	315.13
679.349	310.83
679.794	314.23
680.24	313.93
680.685	302.53
681.131	309.53
681.576	305.33
682.021	325.03
682.466	304.73
682.912	300.93
683.357	303.43
683.802	337.23
684.247	357.33
684.692	403.53
685.137	442.43
685.583	473.13
686.028	493.13
686.473	457.93
686.918	397.03
687.363	371.93
687.807	348.63
688.252	323.13
688.697	309.03
689.142	299.43
689.587	286.53
690.032	281.73
690.477	299.83
690.921	302.33
691.366	335.03
691.811	359.53
692.255	389.03
692.7	405.73
693.145	435.83
693.589	603.53
694.034	978.23
694.478	1330.23
694.923	1538.83
695.367	2033.93
695.812	1062.53
696.256	442.83
696.701	327.73
697.145	301.93
697.59	292.43
698.034	289.33
698.478	291.63
698.922	292.83
699.367	284.13
699.811	297.53
700.255	313.43
700.699	342.13
701.143	373.03
701.588	417.83
702.032	448.83
702.476	452.33
702.92	431.33
703.364	423.53
703.808	544.03
704.252	881.63
704.696	1261.23
705.14	1487.73
705.584	1916.83
706.027	940.53
706.471	468.33
706.915	351.83
707.359	311.33
707.803	279.73
708.246	271.03
708.69	279.43
709.134	280.53
709.577	277.53
710.021	280.33
710.465	270.83
710.908	266.63
711.352	263.13
711.795	274.13
712.239	311.13
712.682	334.03
713.126	365.83
713.569	413.13
714.012	324.73
714.456	280.03
714.899	264.43
715.342	245.13
715.786	229.13
716.229	225.33
716.672	229.83
717.115	211.43
717.558	219.33
718.002	221.93
718.445	226.73
718.888	253.53
719.331	256.43
719.774	272.73
720.217	267.43
720.66	247.93
721.103	239.33
721.546	227.53
721.989	222.33
722.432	191.43
722.874	210.53
723.317	199.33
723.76	205.23
724.203	221.23
724.645	275.13
725.088	380.63
725.531	497.43
725.974	565.83
726.416	491.93
726.859	274.03
727.301	218.13
727.744	211.23
728.187	201.13
728.629	209.03
729.071	217.43
729.514	231.93
729.956	242.23
730.399	245.83
730.841	251.53
731.283	237.23
731.726	229.23
732.168	219.13
732.61	231.93
733.053	249.13
733.495	275.73
733.937	297.33
734.379	350.93
734.821	377.23
735.263	471.43
735.705	707.43
736.148	1345.83
736.59	2247.63
737.032	2727.03
737.474	2219.43
737.916	698.83
738.357	376.53
738.799	284.93
739.241	258.23
739.683	241.93
740.125	251.43
740.567	260.13
741.008	269.73
741.45	272.33
741.892	272.63
742.334	304.53
742.775	317.83
743.217	303.33
743.658	235.13
744.1	222.93
744.542	233.33
744.983	274.43
745.425	306.73
745.866	310.13
746.307	250.83
746.749	246.03
747.19	278.63
747.632	390.23
748.073	739.93
748.514	1583.73
748.956	2489.63
749.397	3115.33
749.838	2601.43
750.279	2650.83
750.72	1331.23
751.162	478.53
751.603	273.33
752.044	224.83
752.485	188.43
752.926	182.93
753.367	180.93
753.808	176.93
754.249	163.93
754.69	165.23
755.131	157.83
755.572	156.23
756.013	159.03
756.453	157.23
756.894	165.83
757.335	161.93
757.776	171.83
758.216	168.73
758.657	176.53
759.098	180.93
759.538	193.93
759.979	223.63
760.42	313.23
760.86	603.03
761.301	1535.43
761.741	3781.73
762.182	5797.63
762.622	4051.13
763.063	1161.73
763.503	473.63
763.943	308.63
764.384	296.33
764.824	356.53
765.264	396.53
765.705	272.33
766.145	187.13
766.585	163.93
767.025	161.93
767.465	161.03
767.906	210.23
768.346	280.33
768.786	304.93
769.226	221.63
769.666	270.83
770.106	520.03
770.546	1317.33
770.986	2352.83
771.426	2115.03
771.866	704.73
772.306	286.03
772.745	182.83
773.185	154.13
773.625	150.23
774.065	148.03
774.505	160.13
774.944	266.73
775.384	572.53
775.824	1074.73
776.263	1063.13
776.703	448.13
777.142	192.73
777.582	139.83
778.021	119.03
778.461	122.63
778.9	123.33
779.34	114.23
779.779	96.83
780.219	98.93
780.658	94.73
781.097	97.53
781.537	98.43
781.976	98.43
782.415	94.33
782.855	93.93
783.294	90.73
783.733	94.33
784.172	96.53
784.611	86.93
785.05	100.33
785.489	98.53
785.928	107.53
786.367	105.43
786.806	103.63
787.245	118.83
787.684	124.83
788.123	132.43
788.562	118.03
789.001	113.43
789.44	110.93
789.879	99.73
790.317	102.63
790.756	117.43
791.195	116.53
791.634	127.53
792.072	180.03
792.511	307.93
792.95	846.63
793.388	1871.63
793.827	1745.83
794.265	600.53
794.704	245.33
795.142	160.03
795.581	136.03
796.019	118.73
796.458	110.13
796.896	112.83
797.334	114.73
797.773	130.63
798.211	187.13
798.649	365.93
799.087	876.73
799.526	1399.63
799.964	1750.63
800.402	1815.13
800.84	664.63
801.278	268.93
801.716	161.83
802.154	140.53
802.592	134.03
803.03	125.03
803.468	118.23
803.906	124.03
804.344	128.83
804.782	124.03
805.22	115.53
805.658	110.33
806.096	127.23
806.533	137.63
806.971	148.53
807.409	188.63
807.847	263.63
808.284	548.43
808.722	1581.03
809.16	2910.63
809.597	2698.53
810.035	4720.33
810.472	5235.13
810.91	1876.73
811.347	705.83
811.785	354.83
812.222	222.63
812.66	173.13
813.097	152.13
813.535	124.33
813.972	110.83
814.409	106.73
814.846	93.83
815.284	101.13
815.721	86.63
816.158	92.23
816.595	110.03
817.032	159.23
817.47	176.13
817.907	139.03
818.344	132.93
818.781	101.23
819.218	87.33
819.655	107.53
820.092	157.63
820.529	187.53
820.966	157.63
821.403	118.23
821.839	99.33
822.276	90.03
822.713	108.23
823.15	121.83
823.587	105.33
824.023	130.83
824.46	250.03
824.897	760.73
825.333	1215.93
825.77	515.13
826.206	196.03
826.643	121.43
827.08	95.13
827.516	72.53
827.953	70.53
828.389	68.83
828.825	67.43
829.262	57.43
829.698	60.73
830.135	62.63
830.571	51.23
831.007	58.23
831.443	56.43
831.88	50.43
832.316	61.13
832.752	57.33
833.188	55.93
833.624	57.53
834.06	60.53
834.497	58.43
834.933	66.73
835.369	65.93
835.805	59.83
836.241	66.23
836.677	69.73
837.112	78.13
837.548	93.33
837.984	108.23
838.42	167.13
838.856	422.03
839.292	1308.63
839.727	2055.73
840.163	959.63
840.599	788.63
841.034	1779.53
841.47	1921.93
841.906	690.23
842.341	295.83
842.777	199.73
843.212	279.43
843.648	282.43
844.083	135.23
844.519	94.43
844.954	71.33
845.39	51.83
845.825	53.23
846.261	47.23
846.696	44.23
847.131	46.83
847.566	50.83
848.002	52.13
848.437	50.13
848.872	58.63
849.307	59.63
849.742	74.63
850.177	147.63
850.613	479.13
851.048	788.03
851.483	338.43
851.918	133.63
852.353	77.73
852.788	54.43
853.223	54.73
853.657	53.73
854.092	46.93
854.527	43.63
854.962	33.63
855.397	38.93
855.832	47.33
856.266	37.73
856.701	39.73
857.136	34.23
857.57	37.53
858.005	38.43
858.44	47.33
858.874	33.53
859.309	53.13
859.743	33.03
860.178	43.53
860.612	33.63
861.047	48.23
861.481	60.53
861.915	65.63
862.35	43.33
862.784	32.13
863.218	36.83
863.653	33.43
864.087	36.73
864.521	45.43
864.955	63.33
865.39	131.43
865.824	157.23
866.258	96.73
866.692	142.13
867.126	160.73
867.56	98.63
867.994	48.63
868.428	34.33
868.862	43.13
869.296	50.33
869.73	48.83
870.164	53.33
870.598	45.23
871.031	38.43
871.465	32.63
871.899	25.63
872.333	22.73
872.766	21.13
873.2	25.83
873.634	25.73
874.067	26.23
874.501	29.33
874.935	30.03
875.368	24.13
875.802	25.13
876.235	19.33
876.669	18.53
877.102	23.83
877.535	26.53
877.969	22.83
878.402	28.53
878.836	16.73
879.269	25.13
879.702	22.23
880.135	14.93
880.569	19.33
881.002	24.23
881.435	17.93
881.868	15.13
882.301	17.33
882.734	17.03
883.167	19.83
883.601	17.63
884.034	17.73
884.467	13.53
884.899	16.93
885.332	15.73
885.765	17.53
886.198	16.23
886.631	22.03
887.064	16.43
887.497	25.03
887.929	22.63
888.362	12.53
888.795	12.83
889.228	17.53
889.66	16.93
890.093	16.83
890.526	16.73
890.958	19.63
891.391	16.13
891.823	22.63
892.256	18.03
892.688	10.63
893.121	16.63
893.553	18.43
893.985	22.63
894.418	18.63
894.85	13.43
895.282	14.93
895.715	12.53
896.147	15.43
896.579	10.03
897.011	15.33
897.444	18.13
897.876	15.73
898.308	14.63
898.74	14.33
899.172	14.13
899.604	20.33
900.036	17.13
900.468	16.63
900.9	11.43
901.332	16.63
901.764	10.03
902.196	11.83
902.628	13.23
903.06	10.93
903.491	26.23
903.923	18.23
904.355	13.13
904.787	20.33
905.218	18.43
905.65	16.23
906.082	10.73
906.513	11.73
906.945	13.43
907.376	12.63
907.808	21.93
908.239	19.23
908.671	19.43
909.102	18.13
909.534	22.23
909.965	39.73
910.397	81.93
910.828	274.23
911.259	430.53
911.691	199.83
912.122	93.13
912.553	44.63
912.984	30.13
913.415	27.03
913.847	21.83
914.278	17.73
914.709	16.33
915.14	16.73
915.571	18.93
916.002	17.03
916.433	21.13
916.864	17.03
917.295	17.23
917.726	20.53
918.157	13.33
918.587	25.83
919.018	19.93
919.449	17.73
919.88	22.73
920.311	30.53
920.741	42.83
921.172	144.33
921.603	136.43
922.033	63.83
922.464	39.23
922.895	19.83
923.325	16.83
923.756	14.13
924.186	19.13
924.617	25.03
925.047	36.33
925.478	52.03
925.908	44.33
926.338	24.93
926.769	17.33
927.199	20.43
927.629	9.03
928.06	11.13
928.49	13.53
928.92	9.53
929.35	11.83
929.78	8.83
930.21	9.03
930.641	10.43
931.071	9.73
931.501	5.53
931.931	9.43
932.361	11.33
932.791	-1.87
933.221	1.23
933.651	2.93
934.08	18.23
934.51	27.63
934.94	5.63
935.37	7.43
935.8	9.73
936.229	13.23
936.659	13.23
937.089	7.33
937.519	16.33
937.948	21.53
938.378	14.03
938.807	7.63
939.237	-0.47
939.666	3.93
940.096	-1.47
940.525	1.33
940.955	3.33
941.384	7.63
941.814	-2.17
942.243	2.33
942.672	5.23
943.102	2.63
943.531	0.53
943.96	6.23
944.39	4.73
944.819	6.03
945.248	0.53
945.677	0.83
946.106	2.83
946.535	8.43
946.964	1.33
947.393	9.33
947.822	5.53
948.251	-4.97
948.68	8.83
949.109	1.93
949.538	7.53
949.967	4.13
950.396	4.03
950.825	7.33
951.254	1.53
951.682	-2.77
952.111	7.43
952.54	7.13
952.969	-2.37
953.397	0.73
953.826	1.73
954.254	-3.97
954.683	2.13
955.112	-5.07
955.54	6.23
955.969	5.13
956.397	4.63
956.826	-2.77
957.254	4.63
957.682	4.33
958.111	10.43
958.539	3.33
958.967	6.03
959.396	0.33
959.824	0.23
960.252	-0.97
960.68	1.33
961.109	0.83
961.537	-3.07
961.965	-1.27
962.393	-1.07
962.821	-3.37
963.249	0.13
963.677	2.63
964.105	7.53
964.533	39.43
964.961	33.23
965.389	21.13
965.817	10.83
966.245	2.23
966.672	2.33
967.1	-7.77
967.528	1.23
967.956	-2.87
968.383	-0.97
968.811	-2.67
969.239	-0.37
969.666	-0.27
970.094	9.53
970.522	3.23
970.949	-0.57
971.377	-3.97
971.804	0.93
972.232	1.23
972.659	-3.57
973.087	-5.17
973.514	-3.27
973.941	-6.07
974.369	7.33
974.796	6.23
975.223	0.03
975.651	2.63
976.078	5.63
976.505	4.53
976.932	3.53
977.359	10.63
977.786	16.73
978.214	5.93
978.641	-5.57
979.068	-9.07
979.495	-2.07
979.922	-1.17
980.349	-7.27
980.776	8.43
981.202	3.43
981.629	5.83
982.056	3.73
982.483	-0.97
982.91	3.23
983.337	-4.47
983.763	8.23
984.19	-5.77
984.617	0.03
985.043	-2.27
985.47	-2.57
985.897	-1.07
986.323	-4.07
986.75	4.43
987.176	2.13
987.603	2.13
988.029	2.83
988.456	2.23
988.882	4.43
989.308	-4.07
989.735	-2.97
990.161	3.23
990.587	-3.57
991.014	0.23
991.44	9.43
991.866	-8.07
992.292	-7.77
992.719	-4.57
993.145	3.83
993.571	-3.17
993.997	-2.37
994.423	-3.47
994.849	-6.77
995.275	6.43
995.701	5.63
996.127	-3.37
996.553	2.93
996.979	-2.07
997.405	-6.37
997.83	-1.77
998.256	-1.17
998.682	-6.37
999.108	-12.37
999.534	5.23
999.959	2.63
1000.385	-2.67
1000.811	-0.07
1001.236	-9.37
1001.662	-3.07
1002.087	-10.87
1002.513	2.63
1002.938	3.53
1003.364	-0.47
1003.789	2.43
1004.215	8.13
1004.64	3.13
1005.066	5.43
1005.491	-1.67
1005.916	-4.87
1006.342	-1.37
1006.767	-9.77
1007.192	5.33
1007.617	1.13
1008.042	-1.37
1008.468	3.03
1008.893	-6.57
1009.318	-5.27
1009.743	-1.27
1010.168	0.63
1010.593	2.93
1011.018	-4.27
1011.443	-0.87
1011.868	0.23
1012.293	-1.97
1012.718	-9.27
1013.143	-3.77
1013.567	8.03
1013.992	-4.67
1014.417	-9.57
1014.842	5.43
1015.267	0.83
1015.691	-1.67
1016.116	6.93
1016.541	1.03
1016.965	3.33
1017.39	3.93
1017.814	1.73
1018.239	2.73
1018.663	-3.37
1019.088	-3.47
1019.512	-3.27
1019.937	2.03
1020.361	-6.57
1020.785	-11.27
1021.21	-5.37
1021.634	-4.27
1022.058	4.63
1022.483	-0.07
1022.907	-5.97
1023.331	-1.37
1023.755	2.43
1024.179	-1.17
1024.604	-4.57
1025.028	-3.07
1025.452	-3.37
1025.876	-2.17
1026.3	6.93
1026.724	-8.47
1027.148	-3.47
1027.572	-7.77
1027.996	1.03
1028.42	-0.77
1028.843	0.73
1029.267	0.33
1029.691	-2.17
1030.115	-1.57
1030.539	-4.57
1030.962	-2.77
1031.386	-9.67
1031.81	-0.17
1032.233	1.63
1032.657	-13.27
1033.08	-3.37
1033.504	-5.17
1033.927	-2.07
1034.351	-0.27
1034.774	-6.57
1035.198	1.83
1035.621	-3.87
1036.045	-6.77
1036.468	7.83
1036.891	-8.57
1037.315	-3.27
1037.738	-11.47
1038.161	-2.87
1038.584	-5.87
1039.008	-7.07
1039.431	-3.17
1039.854	-2.07
1040.277	-4.57
1040.7	-3.07
1041.123	-1.97
1041.546	-5.97
1041.969	1.63
1042.392	-4.47
1042.815	-3.97
1043.238	0.73
1043.661	-1.57
1044.084	-8.17
1044.507	-1.87
1044.93	-2.77
1045.352	-1.07
1045.775	3.53
1046.198	3.83
1046.621	0.53
1047.043	4.23
1047.466	7.03
1047.889	-3.47
1048.311	-1.77
1048.734	-6.17
1049.156	-1.77
1049.579	-7.77
1050.001	2.73
1050.424	2.13
1050.846	-0.97
1051.269	-3.87
1051.691	-7.27
1052.113	-1.57
1052.536	1.23
1052.958	0.93
1053.38	-3.57
1053.802	-6.47
1054.225	2.93
1054.647	-11.07
1055.069	-0.27
1055.491	0.13
1055.913	-4.67
1056.335	4.03
1056.757	-2.37
1057.179	-3.27
1057.601	-10.07
1058.023	4.03
1058.445	1.33
1058.867	-6.57
1059.289	-1.87
1059.711	-4.27
1060.133	-0.37
1060.555	1.13
1060.976	-5.47
1061.398	-5.97
1061.82	-3.87
1062.241	2.03
1062.663	-6.87
1063.085	-1.77
1063.506	1.83
1063.928	0.33
1064.35	-3.97
1064.771	-12.47
1065.193	-4.97
1065.614	-9.17
1066.035	-3.67
1066.457	-2.07
1066.878	2.93
1067.3	-0.67
1067.721	-1.57
1068.142	-2.17
1068.564	-1.87
1068.985	-3.17
1069.406	-1.87
1069.827	-4.27
1070.248	4.33
1070.67	-3.37
1071.091	-3.17
1071.512	-1.77
1071.933	2.23
1072.354	0.23
1072.775	-4.27
1073.196	0.23
1073.617	-0.67
1074.038	-3.77
1074.459	-1.37
1074.88	-7.87
1075.3	7.03
1075.721	4.43
1076.142	-2.07
1076.563	1.73
1076.983	-8.07
1077.404	-6.07
1077.825	-9.77
1078.246	-3.47
1078.666	-8.37
1079.087	-3.17
1079.507	-1.57
1079.928	-0.57
1080.348	-0.17
1080.769	-12.37
1081.189	3.23
1081.61	0.73
1082.03	7.03
1082.451	-8.57
1082.871	-8.67
1083.291	-3.47
1083.711	-6.37
1084.132	-5.27
1084.552	-5.17
1084.972	0.73
1085.392	-6.67
1085.813	-12.27
1086.233	-3.97
1086.653	-0.87
1087.073	-0.27
1087.493	-5.57
1087.913	-2.37
1088.333	-9.27
1088.753	-3.27
1089.173	1.93
1089.593	-0.47
1090.013	3.33
1090.433	-1.67
1090.852	6.23
1091.272	3.23
1091.692	-3.57
1092.112	-0.07
1092.531	-1.47
1092.951	-16.27
1093.371	-8.17
1093.79	4.43
1094.21	-1.67
1094.63	-2.97
1095.049	-5.87
1095.469	-5.47
1095.888	-3.07
1096.308	0.03
1096.727	7.63
1097.146	-4.27
1097.566	-0.57
1097.985	-5.47
1098.405	0.83
1098.824	-6.07
1099.243	0.13
1099.662	-6.17
1100.082	1.23
1100.501	-0.87
1100.92	-4.57
1101.339	-4.77
1101.758	0.23
