Data from 20171114-ORNL-Ar_H_NY_Subt18_08-09-29-147.txt Node
Date: Tue Nov 14 08:09:29 EST 2017
User: Ender
Spectrometer: HR+D1039
Trigger mode: 0
Integration Time (sec): 2.730000E-2
Scans to average: 10
Electric dark correction enabled: true
Nonlinearity correction enabled: false
Boxcar width: 0
XAxis mode: Wavelengths
Number of Pixels in Spectrum: 2048
>>>>>Begin Spectral Data<<<<<
187.836	-5.93
188.309	-5.93
188.782	-5.93
189.255	4.17
189.728	-2.43
190.201	9.37
190.674	0.67
191.147	2.17
191.619	-8.83
192.092	6.67
192.565	3.77
193.038	-2.33
193.511	3.27
193.984	-0.33
194.456	-4.12
194.929	-0.73
195.402	-5.03
195.874	-0.43
196.347	-3.33
196.82	-3.83
197.292	4.27
197.765	1.57
198.237	-2.83
198.71	6.07
199.182	-7.23
199.655	1.17
200.127	1.87
200.6	3.07
201.072	-3.33
201.544	-4.83
202.017	3.57
202.489	3.77
202.961	-0.93
203.433	-2.63
203.906	-2.62
204.378	-8.43
204.85	-1.53
205.322	-6.53
205.794	-0.43
206.266	0.57
206.739	-4.43
207.211	2.67
207.683	-9.73
208.155	-3.83
208.627	-5.83
209.099	-4.33
209.57	-12.33
210.042	-7.73
210.514	-3.33
210.986	-6.03
211.458	-14.53
211.93	-2.83
212.402	2.37
212.873	-6.63
213.345	-8.43
213.817	-10.13
214.288	-6.13
214.76	-11.33
215.232	-1.83
215.703	-3.03
216.175	-5.03
216.646	-8.83
217.118	-3.13
217.589	-10.33
218.061	0.77
218.532	-6.12
219.004	1.87
219.475	-5.62
219.946	-0.83
220.418	-5.62
220.889	5.77
221.36	-0.83
221.832	-7.23
222.303	-7.33
222.774	3.87
223.245	-6.93
223.717	-4.23
224.188	1.77
224.659	-6.53
225.13	-5.43
225.601	-1.63
226.072	0.77
226.543	-0.53
227.014	-3.63
227.485	-2.13
227.956	-7.73
228.427	-4.03
228.898	-5.43
229.369	0.37
229.839	-4.33
230.31	-8.43
230.781	2.27
231.252	-6.93
231.722	-7.33
232.193	-3.93
232.664	-1.53
233.135	-1.73
233.605	-0.52
234.076	-6.83
234.546	-0.63
235.017	1.57
235.487	-8.33
235.958	-1.12
236.428	-7.63
236.899	-1.73
237.369	-5.52
237.84	-6.43
238.31	1.87
238.78	6.48
239.251	-3.73
239.721	-5.73
240.191	-5.43
240.662	-2.12
241.132	0.37
241.602	-9.33
242.072	-7.33
242.542	-3.33
243.013	-1.73
243.483	0.57
243.953	-7.02
244.423	0.07
244.893	-2.53
245.363	1.07
245.833	-0.43
246.303	0.47
246.773	1.57
247.243	-4.33
247.712	0.17
248.182	-1.83
248.652	-3.13
249.122	-6.83
249.592	-0.03
250.061	0.07
250.531	6.27
251.001	-8.12
251.471	5.67
251.94	6.07
252.41	0.38
252.879	-6.62
253.349	8.17
253.818	5.07
254.288	-4.02
254.757	-2.12
255.227	-7.62
255.696	0.47
256.166	4.98
256.635	-1.12
257.105	-1.62
257.574	-3.83
258.043	0.38
258.513	-6.83
258.982	0.38
259.451	-4.23
259.92	-0.63
260.389	-1.53
260.859	4.97
261.328	1.57
261.797	-2.12
262.266	-0.33
262.735	2.98
263.204	2.97
263.673	2.27
264.142	1.27
264.611	-6.13
265.08	-0.73
265.549	-4.83
266.018	4.67
266.487	-3.63
266.955	-6.53
267.424	-7.03
267.893	6.48
268.362	-3.12
268.83	-5.23
269.299	5.77
269.768	-1.73
270.236	-0.53
270.705	0.17
271.174	0.57
271.642	1.07
272.111	-2.03
272.579	4.37
273.048	3.97
273.516	-2.12
273.985	4.38
274.453	1.57
274.922	7.87
275.39	0.07
275.858	1.57
276.327	0.77
276.795	8.07
277.263	-0.33
277.731	10.97
278.2	7.37
278.668	3.27
279.136	7.57
279.604	0.97
280.072	-0.43
280.54	1.97
281.008	2.97
281.477	7.27
281.945	2.37
282.413	7.77
282.881	7.97
283.348	0.77
283.816	10.07
284.284	3.27
284.752	12.67
285.22	7.67
285.688	9.77
286.156	7.88
286.623	13.77
287.091	4.77
287.559	8.77
288.026	3.57
288.494	9.07
288.962	-3.03
289.429	1.67
289.897	11.57
290.364	4.57
290.832	9.17
291.3	9.47
291.767	7.67
292.234	11.77
292.702	7.57
293.169	11.77
293.637	18.27
294.104	15.57
294.571	-1.03
295.039	7.67
295.506	6.77
295.973	4.07
296.44	2.47
296.908	5.57
297.375	8.07
297.842	9.47
298.309	7.38
298.776	3.48
299.243	16.47
299.71	6.47
300.177	11.67
300.644	15.97
301.111	9.38
301.578	13.17
302.045	10.07
302.512	15.47
302.979	14.77
303.446	13.67
303.913	8.57
304.379	6.27
304.846	19.27
305.313	13.27
305.78	9.67
306.246	16.77
306.713	19.67
307.18	14.88
307.646	15.37
308.113	20.27
308.579	14.17
309.046	13.48
309.512	11.57
309.979	11.97
310.445	13.97
310.912	12.97
311.378	21.77
311.845	18.27
312.311	23.37
312.777	23.57
313.244	21.77
313.71	25.87
314.176	20.88
314.642	9.37
315.109	18.07
315.575	18.57
316.041	24.47
316.507	22.77
316.973	24.57
317.439	20.47
317.905	21.67
318.371	27.17
318.837	29.98
319.303	24.97
319.769	24.57
320.235	25.17
320.701	23.57
321.167	24.37
321.633	27.38
322.099	25.37
322.564	30.67
323.03	21.77
323.496	24.57
323.962	29.17
324.427	29.27
324.893	29.27
325.359	22.07
325.824	22.37
326.29	22.97
326.755	30.37
327.221	23.17
327.686	24.17
328.152	34.07
328.617	31.97
329.083	31.97
329.548	39.87
330.014	31.77
330.479	25.97
330.944	38.27
331.41	30.87
331.875	36.38
332.34	30.88
332.805	27.37
333.271	32.77
333.736	37.27
334.201	39.27
334.666	36.37
335.131	38.17
335.596	34.87
336.061	37.17
336.526	33.87
336.991	35.88
337.456	44.67
337.921	37.07
338.386	27.97
338.851	39.57
339.316	36.57
339.781	35.97
340.246	39.67
340.711	36.97
341.175	37.17
341.64	32.97
342.105	37.67
342.569	43.87
343.034	44.77
343.499	42.07
343.963	45.07
344.428	50.48
344.893	44.77
345.357	50.67
345.822	47.27
346.286	47.37
346.751	57.38
347.215	50.17
347.679	55.88
348.144	68.87
348.608	62.77
349.073	55.17
349.537	56.67
350.001	57.07
350.465	67.27
350.93	63.67
351.394	64.67
351.858	52.48
352.322	66.48
352.786	70.88
353.25	73.77
353.715	81.38
354.179	80.17
354.643	99.07
355.107	91.37
355.571	80.57
356.035	73.77
356.498	79.67
356.962	87.97
357.426	100.97
357.89	81.47
358.354	65.77
358.818	65.37
359.281	66.67
359.745	64.48
360.209	61.38
360.673	53.77
361.136	61.67
361.6	69.27
362.064	67.48
362.527	64.67
362.991	69.47
363.454	61.17
363.918	63.07
364.381	64.67
364.845	71.17
365.308	74.37
365.772	72.27
366.235	71.07
366.698	69.67
367.162	71.07
367.625	69.97
368.088	73.37
368.552	69.67
369.015	72.88
369.478	80.77
369.941	74.27
370.404	74.57
370.867	80.47
371.331	86.87
371.794	87.67
372.257	82.88
372.72	89.37
373.183	84.77
373.646	79.37
374.109	80.17
374.572	92.47
375.035	85.27
375.497	88.07
375.96	86.67
376.423	85.67
376.886	94.17
377.349	91.07
377.811	87.47
378.274	90.57
378.737	83.07
379.199	95.57
379.662	89.77
380.125	90.88
380.587	94.27
381.05	94.67
381.512	97.47
381.975	107.27
382.437	100.38
382.9	103.07
383.362	108.47
383.825	108.67
384.287	113.17
384.75	105.77
385.212	108.57
385.674	112.87
386.136	120.17
386.599	108.57
387.061	98.77
387.523	103.37
387.985	110.87
388.447	119.17
388.91	119.67
389.372	114.48
389.834	115.87
390.296	116.27
390.758	118.77
391.22	120.87
391.682	134.07
392.144	143.17
392.606	137.87
393.068	124.88
393.529	137.47
393.991	128.67
394.453	120.97
394.915	119.07
395.377	130.97
395.838	134.87
396.3	123.47
396.762	125.57
397.224	125.17
397.685	117.17
398.147	123.17
398.608	124.17
399.07	125.38
399.531	120.27
399.993	137.27
400.454	147.37
400.916	136.17
401.377	131.48
401.839	138.87
402.3	140.17
402.762	151.47
403.223	166.27
403.684	154.67
404.145	150.57
404.607	148.57
405.068	155.37
405.529	158.88
405.99	163.27
406.451	156.17
406.913	156.67
407.374	148.57
407.835	153.38
408.296	153.77
408.757	159.57
409.218	165.37
409.679	162.57
410.14	163.27
410.601	160.97
411.062	170.67
411.522	171.77
411.983	167.77
412.444	164.67
412.905	167.38
413.366	177.57
413.826	185.97
414.287	202.27
414.748	256.38
415.208	238.77
415.669	204.97
416.13	200.77
416.59	187.97
417.051	205.27
417.511	207.97
417.972	233.07
418.432	238.38
418.893	279.27
419.353	248.98
419.814	193.87
420.274	179.97
420.734	177.97
421.195	195.37
421.655	180.48
422.115	186.87
422.576	193.67
423.036	192.27
423.496	204.97
423.956	203.98
424.416	220.57
424.876	251.87
425.336	257.57
425.797	253.87
426.257	247.77
426.717	218.98
427.177	221.47
427.637	215.17
428.097	223.47
428.556	232.17
429.016	254.07
429.476	250.57
429.936	257.37
430.396	263.38
430.856	273.77
431.315	297.57
431.775	320.27
432.235	361.27
432.694	330.37
433.154	336.17
433.614	362.57
434.073	322.77
434.533	269.37
434.993	258.38
435.452	262.17
435.912	272.17
436.371	263.57
436.83	264.27
437.29	251.47
437.749	237.47
438.209	242.77
438.668	261.57
439.127	268.47
439.587	255.07
440.046	241.67
440.505	249.87
440.964	265.47
441.424	295.67
441.883	288.27
442.342	250.37
442.801	223.47
443.26	226.97
443.719	222.08
444.178	220.67
444.637	213.07
445.096	223.07
445.555	222.27
446.014	223.07
446.473	226.47
446.932	235.37
447.391	223.97
447.849	220.17
448.308	217.77
448.767	223.37
449.226	232.67
449.685	232.47
450.143	248.07
450.602	245.67
451.061	225.17
451.519	228.98
451.978	231.17
452.436	223.58
452.895	241.48
453.353	247.87
453.812	237.87
454.27	236.67
454.729	237.87
455.187	240.38
455.646	242.87
456.104	248.67
456.562	261.48
457.021	262.38
457.479	254.88
457.937	266.07
458.395	258.37
458.854	247.38
459.312	254.38
459.77	273.08
460.228	253.47
460.686	242.38
461.144	250.77
461.602	250.77
462.06	246.48
462.518	249.48
462.976	254.17
463.434	256.58
463.892	258.97
464.35	278.67
464.808	280.27
465.266	262.58
465.724	270.68
466.181	270.58
466.639	270.77
467.097	289.17
467.555	297.08
468.012	301.88
468.47	303.27
468.928	326.07
469.385	344.27
469.843	342.67
470.3	340.87
470.758	358.47
471.215	381.67
471.673	401.77
472.13	399.98
472.588	416.38
473.045	373.48
473.503	378.07
473.96	398.47
474.417	404.17
474.875	430.37
475.332	466.17
475.789	456.17
476.246	464.27
476.704	488.17
477.161	499.38
477.618	506.07
478.075	553.07
478.532	600.47
478.989	675.77
479.446	773.68
479.903	739.57
480.36	771.07
480.817	805.57
481.274	894.57
481.731	988.07
482.188	1064.38
482.645	1182.38
483.102	1255.57
483.558	1367.88
484.015	1418.67
484.472	1398.07
484.929	1365.77
485.385	1315.07
485.842	1286.97
486.299	1234.37
486.755	1194.47
487.212	1021.78
487.668	885.77
488.125	808.57
488.582	760.48
489.038	718.38
489.494	691.27
489.951	670.97
490.407	636.98
490.864	630.17
491.32	631.67
491.776	633.97
492.233	631.67
492.689	597.97
493.145	594.48
493.602	591.97
494.058	607.88
494.514	607.87
494.97	624.68
495.426	639.27
495.882	610.08
496.338	599.17
496.794	607.17
497.251	610.57
497.707	626.57
498.163	616.07
498.618	627.37
499.074	629.97
499.53	659.87
499.986	661.97
500.442	632.07
500.898	607.98
501.354	621.47
501.809	616.47
502.265	616.88
502.721	618.57
503.177	640.87
503.632	640.67
504.088	651.98
504.543	655.27
504.999	683.38
505.455	647.37
505.91	635.58
506.366	644.47
506.821	630.57
507.277	634.17
507.732	619.27
508.187	633.97
508.643	653.47
509.098	645.47
509.553	665.67
510.009	660.77
510.464	678.47
510.919	686.97
511.375	683.77
511.83	707.17
512.285	718.37
512.74	752.17
513.195	774.58
513.65	766.77
514.105	760.87
514.56	773.87
515.015	782.68
515.47	801.58
515.925	771.98
516.38	767.97
516.835	786.27
517.29	774.48
517.745	772.37
518.2	759.17
518.655	747.77
519.109	741.77
519.564	739.27
520.019	721.97
520.474	722.87
520.928	724.48
521.383	717.87
521.838	715.88
522.292	710.97
522.747	709.58
523.201	716.07
523.656	706.67
524.11	695.57
524.565	698.38
525.019	687.57
525.474	704.97
525.928	706.48
526.382	695.97
526.837	694.27
527.291	704.88
527.745	698.17
528.2	705.87
528.654	695.58
529.108	686.77
529.562	693.38
530.016	688.87
530.47	695.07
530.925	693.67
531.379	700.97
531.833	703.87
532.287	700.67
532.741	701.18
533.195	697.48
533.649	705.67
534.103	712.27
534.556	698.47
535.01	702.17
535.464	695.38
535.918	710.68
536.372	717.07
536.826	717.17
537.279	707.37
537.733	713.47
538.187	707.47
538.64	706.67
539.094	723.27
539.548	724.17
540.001	728.77
540.455	720.87
540.908	729.38
541.362	731.08
541.815	752.88
542.269	762.77
542.722	766.27
543.175	774.77
543.629	778.97
544.082	789.27
544.536	792.88
544.989	780.68
545.442	800.88
545.895	796.67
546.349	802.98
546.802	796.87
547.255	798.17
547.708	808.17
548.161	819.57
548.614	826.67
549.067	830.58
549.52	822.17
549.973	812.77
550.426	815.77
550.879	807.88
551.332	807.07
551.785	825.57
552.238	819.88
552.691	824.18
553.144	830.47
553.596	851.98
554.049	874.57
554.502	894.47
554.955	912.17
555.407	921.07
555.86	907.07
556.313	896.67
556.765	878.67
557.218	886.07
557.67	882.37
558.123	881.77
558.576	876.17
559.028	891.07
559.48	879.27
559.933	885.58
560.385	847.77
560.838	819.87
561.29	802.47
561.742	791.68
562.195	766.27
562.647	782.07
563.099	788.67
563.551	785.58
564.004	785.47
564.456	775.98
564.908	763.67
565.36	742.47
565.812	736.98
566.264	730.98
566.716	731.27
567.168	711.27
567.62	708.48
568.072	707.88
568.524	695.57
568.976	697.37
569.428	682.77
569.88	688.77
570.332	689.77
570.784	695.87
571.235	693.37
571.687	704.17
572.139	714.57
572.59	717.97
573.042	715.57
573.494	718.87
573.945	710.97
574.397	688.77
574.849	697.27
575.3	702.08
575.752	707.88
576.203	682.37
576.655	699.77
577.106	678.58
577.557	664.98
578.009	681.48
578.46	680.48
578.912	669.87
579.363	665.17
579.814	681.87
580.265	666.57
580.717	668.17
581.168	670.27
581.619	677.07
582.07	692.68
582.521	681.97
582.972	678.07
583.423	690.07
583.875	681.88
584.326	688.37
584.777	703.07
585.227	721.88
585.678	745.57
586.129	761.48
586.58	781.07
587.031	802.77
587.482	830.67
587.933	869.58
588.384	843.98
588.834	792.77
589.285	785.07
589.736	779.07
590.186	775.57
590.637	769.27
591.088	759.68
591.538	750.97
591.989	734.97
592.439	731.67
592.89	727.67
593.34	719.57
593.791	715.67
594.241	698.98
594.692	705.97
595.142	712.08
595.593	705.17
596.043	720.27
596.493	716.77
596.943	716.48
597.394	731.67
597.844	732.88
598.294	743.48
598.744	769.27
599.195	800.97
599.645	832.88
600.095	885.17
600.545	933.17
600.995	997.47
601.445	1044.58
601.895	1111.08
602.345	1151.67
602.795	1136.97
603.245	1097.38
603.695	1035.28
604.145	984.88
604.594	936.87
605.044	869.07
605.494	813.57
605.944	771.88
606.393	757.17
606.843	737.27
607.293	737.98
607.743	740.88
608.192	749.97
608.642	757.58
609.091	776.57
609.541	779.17
609.99	776.48
610.44	774.57
610.889	723.98
611.339	702.17
611.788	693.98
612.238	707.17
612.687	710.27
613.136	715.58
613.586	712.17
614.035	705.77
614.484	719.67
614.933	716.38
615.383	717.08
615.832	713.87
616.281	713.18
616.73	685.17
617.179	664.98
617.628	651.57
618.077	630.57
618.526	622.97
618.975	618.27
619.424	627.47
619.873	621.07
620.322	630.38
620.771	619.77
621.22	614.57
621.669	595.77
622.118	589.07
622.567	593.37
623.015	578.47
623.464	579.47
623.913	574.37
624.361	552.77
624.81	556.07
625.259	565.57
625.707	560.77
626.156	567.27
626.604	578.87
627.053	572.27
627.501	578.97
627.95	568.18
628.398	598.87
628.847	577.27
629.295	579.17
629.744	580.57
630.192	582.57
630.64	572.47
631.089	549.47
631.537	547.58
631.985	544.17
632.433	542.38
632.881	526.57
633.33	550.67
633.778	532.07
634.226	540.37
634.674	548.48
635.122	544.37
635.57	561.67
636.018	565.88
636.466	574.47
636.914	568.38
637.362	586.48
637.81	592.67
638.258	590.07
638.705	592.07
639.153	606.77
639.601	636.88
640.049	649.27
640.497	678.48
640.944	709.48
641.392	660.77
641.84	631.27
642.287	598.97
642.735	577.37
643.182	570.98
643.63	564.77
644.078	571.87
644.525	579.47
644.973	590.67
645.42	600.27
645.867	616.58
646.315	632.98
646.762	664.07
647.21	690.77
647.657	715.87
648.104	750.77
648.551	767.97
648.999	820.58
649.446	895.38
649.893	985.78
650.34	1131.97
650.787	1335.87
651.234	1635.28
651.682	2130.57
652.129	2902.57
652.576	4144.58
653.023	6039.88
653.47	8128.48
653.917	10018.58
654.363	11468.78
654.81	12529.38
655.257	11893.38
655.704	7837.68
656.151	4753.27
656.598	3095.38
657.044	2237.18
657.491	1731.57
657.938	1404.97
658.385	1185.17
658.831	1039.87
659.278	918.97
659.724	835.87
660.171	772.77
660.618	718.47
661.064	682.18
661.511	654.27
661.957	639.37
662.404	633.27
662.85	652.68
663.296	622.57
663.743	566.87
664.189	539.27
664.635	531.77
665.082	541.38
665.528	535.98
665.974	527.07
666.42	527.17
666.867	507.38
667.313	492.47
667.759	475.87
668.205	454.98
668.651	460.57
669.097	454.37
669.543	453.37
669.989	452.67
670.435	454.77
670.881	462.18
671.327	458.77
671.773	481.37
672.219	507.07
672.665	567.17
673.11	597.07
673.556	649.88
674.002	695.47
674.448	683.27
674.893	574.88
675.339	497.57
675.785	453.58
676.23	424.07
676.676	403.47
677.122	398.98
677.567	381.07
678.013	379.57
678.458	378.08
678.904	370.68
679.349	364.27
679.794	364.77
680.24	367.57
680.685	357.88
681.131	363.27
681.576	362.67
682.021	376.38
682.466	357.87
682.912	359.77
683.357	370.58
683.802	404.27
684.247	424.17
684.692	472.07
685.137	512.67
685.583	555.07
686.028	584.47
686.473	542.37
686.918	466.57
687.363	427.77
687.807	404.77
688.252	380.77
688.697	368.27
689.142	345.57
689.587	349.77
690.032	330.37
690.477	358.87
690.921	358.98
691.366	398.57
691.811	415.98
692.255	444.97
692.7	478.38
693.145	527.07
693.589	754.37
694.034	1225.38
694.478	1623.67
694.923	1789.78
695.367	2312.97
695.812	1239.67
696.256	527.47
696.701	386.57
697.145	361.17
697.59	336.47
698.034	337.37
698.478	339.68
698.922	337.27
699.367	336.08
699.811	347.67
700.255	364.07
700.699	396.77
701.143	447.27
701.588	483.27
702.032	528.97
702.476	538.07
702.92	510.98
703.364	522.97
703.808	700.57
704.252	1127.78
704.696	1549.27
705.14	1731.37
705.584	2205.38
706.027	1115.97
706.471	544.37
706.915	416.17
707.359	368.07
707.803	334.47
708.246	324.27
708.69	327.07
709.134	321.47
709.577	319.77
710.021	320.98
710.465	315.57
710.908	314.88
711.352	316.38
711.795	328.57
712.239	369.77
712.682	405.57
713.126	420.17
713.569	469.77
714.012	370.58
714.456	315.77
714.899	289.67
715.342	282.48
715.786	271.38
716.229	268.87
716.672	264.88
717.115	254.08
717.558	257.18
718.002	252.77
718.445	268.17
718.888	292.17
719.331	305.68
719.774	324.17
720.217	309.47
720.66	303.48
721.103	272.37
721.546	268.48
721.989	258.77
722.432	245.88
722.874	248.07
723.317	232.88
723.76	245.97
724.203	270.57
724.645	334.47
725.088	471.27
725.531	596.77
725.974	663.27
726.416	572.37
726.859	318.07
727.301	260.08
727.744	246.07
728.187	239.07
728.629	254.17
729.071	249.67
729.514	268.47
729.956	289.27
730.399	289.57
730.841	302.27
731.283	287.57
731.726	282.37
732.168	276.27
732.61	285.07
733.053	299.37
733.495	332.68
733.937	373.27
734.379	428.47
734.821	459.27
735.263	589.57
735.705	915.88
736.148	1747.07
736.59	2770.18
737.032	3118.68
737.474	2566.27
737.916	858.58
738.357	451.88
738.799	341.07
739.241	321.67
739.683	298.17
740.125	305.07
740.567	309.07
741.008	330.17
741.45	331.88
741.892	334.38
742.334	365.68
742.775	373.67
743.217	359.07
743.658	282.77
744.1	264.77
744.542	276.17
744.983	327.97
745.425	362.87
745.866	356.17
746.307	303.77
746.749	294.38
747.19	349.98
747.632	498.37
748.073	993.57
748.514	2038.47
748.956	2996.47
749.397	3793.57
749.838	3134.77
750.279	3041.38
750.72	1572.67
751.162	578.88
751.603	336.17
752.044	268.87
752.485	225.77
752.926	217.07
753.367	205.27
753.808	206.07
754.249	196.27
754.69	193.17
755.131	199.07
755.572	189.47
756.013	195.57
756.453	194.07
756.894	196.07
757.335	200.48
757.776	199.47
758.216	194.07
758.657	207.07
759.098	211.38
759.538	233.27
759.979	288.97
760.42	410.67
760.86	800.27
761.301	2078.07
761.741	4844.98
762.182	6624.68
762.622	4664.98
763.063	1390.47
763.503	567.98
763.943	341.48
764.384	279.67
764.824	254.68
765.264	229.88
765.705	220.37
766.145	189.97
766.585	190.07
767.025	175.37
767.465	173.17
767.906	184.77
768.346	203.57
768.786	206.98
769.226	227.38
769.666	332.17
770.106	687.07
770.546	1723.97
770.986	2741.97
771.426	2421.77
771.866	834.37
772.306	348.38
772.745	209.67
773.185	173.07
773.625	170.97
774.065	151.27
774.505	170.57
774.944	222.87
775.384	392.98
775.824	623.27
776.263	591.97
776.703	290.77
777.142	171.17
777.582	134.87
778.021	127.17
778.461	125.77
778.9	130.57
779.34	123.98
779.779	119.38
780.219	115.27
780.658	111.67
781.097	113.97
781.537	115.87
781.976	108.47
782.415	107.07
782.855	110.87
783.294	107.98
783.733	112.47
784.172	112.07
784.611	101.87
785.05	104.37
785.489	116.57
785.928	121.07
786.367	126.97
786.806	128.07
787.245	136.87
787.684	138.67
788.123	148.87
788.562	138.67
789.001	127.67
789.44	124.17
789.879	120.47
790.317	131.67
790.756	135.77
791.195	132.48
791.634	160.88
792.072	225.07
792.511	407.57
792.95	1125.67
793.388	2228.07
793.827	1961.57
794.265	691.77
794.704	295.58
795.142	194.07
795.581	154.17
796.019	140.77
796.458	132.47
796.896	123.97
797.334	141.67
797.773	173.07
798.211	242.17
798.649	483.87
799.087	1103.37
799.526	1708.78
799.964	2156.07
800.402	2060.57
800.84	794.17
801.278	328.08
801.716	195.37
802.154	160.67
802.592	149.77
803.03	150.77
803.468	140.77
803.906	154.97
804.344	152.77
804.782	148.57
805.22	137.97
805.658	139.57
806.096	162.88
806.533	165.27
806.971	188.07
807.409	230.17
807.847	350.27
808.284	753.17
808.722	2061.97
809.16	3470.28
809.597	3451.88
810.035	5833.58
810.472	5907.18
810.91	2195.97
811.347	857.77
811.785	427.57
812.222	270.97
812.66	205.37
813.097	176.97
813.535	152.87
813.972	137.88
814.409	122.67
814.846	113.38
815.284	117.27
815.721	105.97
816.158	103.57
816.595	119.67
817.032	159.97
817.47	180.37
817.907	127.57
818.344	103.27
818.781	103.38
819.218	101.38
819.655	127.07
820.092	197.57
820.529	222.87
820.966	172.88
821.403	134.97
821.839	106.07
822.276	98.88
822.713	124.17
823.15	154.27
823.587	119.17
824.023	159.37
824.46	345.07
824.897	966.88
825.333	1394.07
825.77	602.17
826.206	240.17
826.643	146.67
827.08	102.67
827.516	86.57
827.953	87.67
828.389	81.57
828.825	73.27
829.262	73.27
829.698	68.47
830.135	57.88
830.571	63.67
831.007	70.88
831.443	63.97
831.88	63.07
832.316	62.47
832.752	66.88
833.188	65.07
833.624	63.88
834.06	73.97
834.497	75.17
834.933	74.17
835.369	76.47
835.805	69.07
836.241	85.67
836.677	92.27
837.112	99.87
837.548	111.87
837.984	139.27
838.42	222.98
838.856	567.07
839.292	1657.27
839.727	2393.18
840.163	1132.78
840.599	1027.17
841.034	2179.57
841.47	2167.47
841.906	805.68
842.341	353.47
842.777	210.27
843.212	217.87
843.648	196.17
844.083	121.67
844.519	88.48
844.954	76.27
845.39	54.67
845.825	61.77
846.261	56.88
846.696	52.77
847.131	56.17
847.566	62.17
848.002	51.77
848.437	57.88
848.872	58.38
849.307	65.38
849.742	90.27
850.177	208.37
850.613	614.37
851.048	912.77
851.483	393.17
851.918	171.07
852.353	93.27
852.788	62.37
853.223	54.77
853.657	50.47
854.092	46.27
854.527	38.07
854.962	38.37
855.397	44.97
855.832	52.87
856.266	42.57
856.701	43.27
857.136	36.57
857.57	42.67
858.005	51.98
858.44	62.07
858.874	45.17
859.309	59.38
859.743	39.77
860.178	47.87
860.612	50.67
861.047	56.87
861.481	68.37
861.915	69.77
862.35	51.87
862.784	35.77
863.218	42.17
863.653	39.67
864.087	54.57
864.521	56.07
864.955	72.48
865.39	167.87
865.824	177.57
866.258	119.48
866.692	177.47
867.126	184.67
867.56	113.77
867.994	51.87
868.428	39.97
868.862	46.48
869.296	61.88
869.73	60.07
870.164	59.97
870.598	50.57
871.031	41.07
871.465	32.87
871.899	31.48
872.333	27.57
872.766	32.27
873.2	24.57
873.634	37.57
874.067	30.47
874.501	28.47
874.935	40.07
875.368	36.67
875.802	32.77
876.235	26.27
876.669	20.47
877.102	28.47
877.535	26.57
877.969	24.17
878.402	21.87
878.836	23.67
879.269	30.57
879.702	32.17
880.135	21.57
880.569	26.27
881.002	28.17
881.435	24.67
881.868	22.97
882.301	23.88
882.734	20.57
883.167	23.57
883.601	21.67
884.034	27.37
884.467	12.27
884.899	18.17
885.332	17.27
885.765	18.27
886.198	18.07
886.631	16.57
887.064	21.67
887.497	23.77
887.929	26.87
888.362	11.57
888.795	16.97
889.228	14.87
889.66	26.97
890.093	15.67
890.526	14.77
890.958	18.67
891.391	18.57
891.823	24.07
892.256	20.67
892.688	14.57
893.121	15.57
893.553	27.27
893.985	29.67
894.418	24.17
894.85	15.97
895.282	17.67
895.715	24.07
896.147	16.67
896.579	22.47
897.011	16.57
897.444	18.17
897.876	10.38
898.308	16.07
898.74	19.27
899.172	15.27
899.604	21.48
900.036	18.57
900.468	17.57
900.9	19.37
901.332	16.87
901.764	16.47
902.196	24.67
902.628	18.67
903.06	17.97
903.491	28.37
903.923	23.47
904.355	26.77
904.787	28.27
905.218	24.67
905.65	28.57
906.082	16.57
906.513	16.17
906.945	14.87
907.376	13.77
907.808	16.87
908.239	20.67
908.671	23.27
909.102	22.38
909.534	28.57
909.965	51.38
910.397	95.47
910.828	345.67
911.259	497.57
911.691	230.47
912.122	119.17
912.553	48.87
912.984	29.57
913.415	31.07
913.847	26.47
914.278	20.67
914.709	13.37
915.14	23.27
915.571	19.37
916.002	18.77
916.433	28.67
916.864	15.57
917.295	9.97
917.726	24.17
918.157	21.87
918.587	32.77
919.018	24.77
919.449	23.98
919.88	26.47
920.311	35.97
920.741	53.27
921.172	174.27
921.603	161.47
922.033	78.37
922.464	52.07
922.895	27.27
923.325	24.38
923.756	18.87
924.186	11.88
924.617	18.07
925.047	22.97
925.478	28.07
925.908	18.97
926.338	17.57
926.769	14.38
927.199	23.67
927.629	9.38
928.06	18.17
928.49	10.17
928.92	8.67
929.35	11.98
929.78	9.87
930.21	7.97
930.641	5.07
931.071	11.77
931.501	0.67
931.931	7.88
932.361	7.77
932.791	3.67
933.221	9.57
933.651	9.38
934.08	18.07
934.51	34.07
934.94	7.17
935.37	11.27
935.8	11.97
936.229	4.77
936.659	12.17
937.089	1.38
937.519	14.77
937.948	24.47
938.378	20.57
938.807	11.67
939.237	2.77
939.666	1.38
940.096	-2.03
940.525	0.87
940.955	1.48
941.384	5.48
941.814	-6.23
942.243	-0.23
942.672	6.07
943.102	-3.33
943.531	-0.43
943.96	0.17
944.39	-3.03
944.819	1.27
945.248	7.17
945.677	4.37
946.106	3.77
946.535	6.27
946.964	0.07
947.393	3.67
947.822	5.27
948.251	-3.23
948.68	-1.02
949.109	3.97
949.538	5.98
949.967	3.87
950.396	-0.93
950.825	3.17
951.254	2.57
951.682	-9.63
952.111	5.07
952.54	8.97
952.969	3.17
953.397	-2.13
953.826	5.47
954.254	-4.93
954.683	2.87
955.112	-3.53
955.54	1.77
955.969	5.57
956.397	-0.93
956.826	-6.83
957.254	3.38
957.682	-0.93
958.111	7.87
958.539	0.97
958.967	4.97
959.396	3.07
959.824	0.17
960.252	-0.63
960.68	-0.03
961.109	2.07
961.537	-6.23
961.965	5.87
962.393	3.17
962.821	-3.93
963.249	1.87
963.677	2.07
964.105	4.07
964.533	48.98
964.961	43.57
965.389	21.07
965.817	7.17
966.245	0.77
966.672	-2.83
967.1	-4.93
967.528	-1.23
967.956	2.27
968.383	1.17
968.811	0.27
969.239	1.87
969.666	-3.43
970.094	-3.53
970.522	2.07
970.949	0.97
971.377	-5.52
971.804	-0.73
972.232	-5.73
972.659	2.88
973.087	-3.73
973.514	-8.83
973.941	-7.43
974.369	2.87
974.796	-0.23
975.223	-6.13
975.651	3.38
976.078	5.97
976.505	-0.83
976.932	5.17
977.359	17.27
977.786	15.37
978.214	1.17
978.641	-0.53
979.068	-3.83
979.495	-3.13
979.922	-1.73
980.349	-1.63
980.776	1.37
981.202	-2.43
981.629	3.77
982.056	7.17
982.483	-3.33
982.91	2.97
983.337	-5.13
983.763	3.07
984.19	-3.83
984.617	-2.23
985.043	0.27
985.47	1.47
985.897	-2.53
986.323	-5.53
986.75	4.77
987.176	0.77
987.603	-2.63
988.029	1.97
988.456	6.37
988.882	1.57
989.308	-5.43
989.735	-6.13
990.161	1.07
990.587	-9.23
991.014	-3.93
991.44	4.67
991.866	-4.93
992.292	-1.62
992.719	-2.53
993.145	3.47
993.571	-3.73
993.997	-3.23
994.423	-6.43
994.849	5.67
995.275	1.77
995.701	3.67
996.127	0.17
996.553	-4.53
996.979	-7.33
997.405	-1.83
997.83	-3.43
998.256	-5.63
998.682	1.77
999.108	-6.03
999.534	1.67
999.959	-5.83
1000.385	-1.13
1000.811	-3.53
1001.236	-7.63
1001.662	-12.73
1002.087	-3.23
1002.513	-2.23
1002.938	2.57
1003.364	-1.02
1003.789	3.17
1004.215	4.07
1004.64	-2.03
1005.066	-2.03
1005.491	5.98
1005.916	-3.13
1006.342	-1.93
1006.767	-4.33
1007.192	-1.03
1007.617	-7.43
1008.042	-2.12
1008.468	-6.73
1008.893	-4.83
1009.318	-1.03
1009.743	-0.73
1010.168	4.17
1010.593	-1.63
1011.018	-6.73
1011.443	-2.23
1011.868	4.48
1012.293	-2.52
1012.718	-8.43
1013.143	1.57
1013.567	-0.13
1013.992	1.47
1014.417	-11.23
1014.842	3.67
1015.267	-6.83
1015.691	-4.83
1016.116	2.07
1016.541	-3.63
1016.965	1.37
1017.39	4.77
1017.814	-3.12
1018.239	-3.03
1018.663	-6.53
1019.088	-8.33
1019.512	-0.23
1019.937	-3.43
1020.361	-2.53
1020.785	-6.33
1021.21	-0.83
1021.634	6.47
1022.058	-3.43
1022.483	1.07
1022.907	-7.03
1023.331	-5.62
1023.755	-4.73
1024.179	-4.33
1024.604	-2.62
1025.028	-3.23
1025.452	-2.33
1025.876	-2.53
1026.3	1.87
1026.724	-8.83
1027.148	-3.73
1027.572	-7.43
1027.996	2.87
1028.42	-4.03
1028.843	-5.73
1029.267	2.37
1029.691	-3.83
1030.115	-5.63
1030.539	-10.13
1030.962	-5.73
1031.386	-8.62
1031.81	3.57
1032.233	-6.53
1032.657	-4.02
1033.08	-1.43
1033.504	-0.23
1033.927	-3.33
1034.351	-4.23
1034.774	-6.73
1035.198	-1.03
1035.621	1.48
1036.045	-7.83
1036.468	0.57
1036.891	-10.63
1037.315	-10.23
1037.738	-7.33
1038.161	-0.33
1038.584	-3.93
1039.008	-4.03
1039.431	-5.93
1039.854	-3.33
1040.277	-6.53
1040.7	-10.73
1041.123	0.27
1041.546	-10.12
1041.969	-5.93
1042.392	-6.03
1042.815	-3.13
1043.238	-1.83
1043.661	4.97
1044.084	-6.12
1044.507	-5.73
1044.93	-7.63
1045.352	-6.33
1045.775	0.87
1046.198	-3.62
1046.621	0.07
1047.043	2.07
1047.466	7.27
1047.889	-4.03
1048.311	-5.93
1048.734	-4.43
1049.156	0.77
1049.579	-3.83
1050.001	0.77
1050.424	0.77
1050.846	-0.03
1051.269	0.67
1051.691	-6.52
1052.113	0.57
1052.536	-2.53
1052.958	-1.13
1053.38	-8.43
1053.802	-13.13
1054.225	3.47
1054.647	-9.13
1055.069	-4.93
1055.491	1.17
1055.913	-9.23
1056.335	1.27
1056.757	-1.23
1057.179	-10.23
1057.601	-5.53
1058.023	-1.52
1058.445	-7.93
1058.867	-1.73
1059.289	-5.33
1059.711	-6.33
1060.133	-2.53
1060.555	-4.83
1060.976	-8.83
1061.398	-3.63
1061.82	-4.43
1062.241	-7.93
1062.663	-8.63
1063.085	-10.63
1063.506	-1.83
1063.928	-7.73
1064.35	1.67
1064.771	-9.03
1065.193	1.77
1065.614	-10.03
1066.035	1.77
1066.457	-0.93
1066.878	-2.53
1067.3	-5.83
1067.721	-0.43
1068.142	-2.43
1068.564	-6.83
1068.985	2.57
1069.406	-0.93
1069.827	-6.53
1070.248	1.87
1070.67	-9.23
1071.091	-9.62
1071.512	-2.73
1071.933	-4.63
1072.354	-5.33
1072.775	-3.33
1073.196	-9.12
1073.617	-1.63
1074.038	-1.03
1074.459	-0.83
1074.88	-5.53
1075.3	-0.43
1075.721	-6.73
1076.142	-2.93
1076.563	2.37
1076.983	-14.23
1077.404	-10.02
1077.825	-10.23
1078.246	-1.83
1078.666	-9.53
1079.087	-6.52
1079.507	-3.93
1079.928	0.77
1080.348	-4.12
1080.769	-5.63
1081.189	0.38
1081.61	-5.12
1082.03	-0.23
1082.451	-7.43
1082.871	-2.83
1083.291	-9.53
1083.711	-5.53
1084.132	-8.53
1084.552	-3.13
1084.972	-1.73
1085.392	-9.03
1085.813	-5.63
1086.233	-8.03
1086.653	-5.93
1087.073	-2.12
1087.493	-6.83
1087.913	-3.83
1088.333	-8.23
1088.753	-4.13
1089.173	2.07
1089.593	-0.33
1090.013	3.37
1090.433	-1.03
1090.852	-2.43
1091.272	-0.93
1091.692	-1.23
1092.112	3.07
1092.531	-5.23
1092.951	-13.53
1093.371	-1.33
1093.79	1.17
1094.21	-3.73
1094.63	-2.73
1095.049	-8.43
1095.469	-5.83
1095.888	-4.13
1096.308	2.77
1096.727	2.88
1097.146	-9.83
1097.566	-3.93
1097.985	-4.73
1098.405	5.27
1098.824	-4.33
1099.243	-8.62
1099.662	-7.63
1100.082	-5.52
1100.501	-4.83
1100.92	-6.73
1101.339	-5.93
1101.758	-10.02
