Data from 20171114-ORNL-Ar_H_NY_Subt18_08-04-55-838.txt Node
Date: Tue Nov 14 08:04:55 EST 2017
User: Ender
Spectrometer: HR+D1039
Trigger mode: 0
Integration Time (sec): 2.730000E-2
Scans to average: 10
Electric dark correction enabled: true
Nonlinearity correction enabled: false
Boxcar width: 0
XAxis mode: Wavelengths
Number of Pixels in Spectrum: 2048
>>>>>Begin Spectral Data<<<<<
187.836	-1.98
188.309	-1.98
188.782	-1.98
189.255	-2.18
189.728	-0.18
190.201	6.22
190.674	-1.18
191.147	2.52
191.619	-7.28
192.092	1.42
192.565	0.22
193.038	0.62
193.511	1.72
193.984	1.42
194.456	1.42
194.929	-0.68
195.402	-0.88
195.874	-1.18
196.347	-1.28
196.82	-11.58
197.292	3.22
197.765	-4.78
198.237	-4.08
198.71	4.92
199.182	-2.08
199.655	6.62
200.127	4.52
200.6	1.72
201.072	-0.98
201.544	-0.88
202.017	0.12
202.489	3.02
202.961	-6.68
203.433	0.02
203.906	-7.78
204.378	-6.28
204.85	-5.88
205.322	-10.18
205.794	-3.78
206.266	1.72
206.739	-7.68
207.211	5.22
207.683	-5.28
208.155	-4.28
208.627	-2.28
209.099	-0.68
209.57	-9.08
210.042	-5.18
210.514	-3.78
210.986	2.72
211.458	-5.58
211.93	-2.78
212.402	4.22
212.873	-7.88
213.345	-12.88
213.817	-11.38
214.288	1.32
214.76	-5.88
215.232	-5.08
215.703	2.52
216.175	-6.08
216.646	-5.78
217.118	-5.58
217.589	-3.18
218.061	-6.78
218.532	-8.98
219.004	-4.88
219.475	-4.08
219.946	-1.38
220.418	-1.78
220.889	7.32
221.36	-6.68
221.832	-3.88
222.303	-8.08
222.774	0.42
223.245	-5.78
223.717	-4.68
224.188	-2.48
224.659	-7.38
225.13	-10.28
225.601	-2.88
226.072	3.02
226.543	-3.08
227.014	2.82
227.485	-4.28
227.956	-4.58
228.427	-5.58
228.898	3.82
229.369	3.42
229.839	-2.28
230.31	-10.78
230.781	4.62
231.252	-5.18
231.722	-6.58
232.193	2.12
232.664	2.02
233.135	1.42
233.605	2.92
234.076	-1.08
234.546	4.42
235.017	3.92
235.487	5.62
235.958	-1.28
236.428	-7.48
236.899	5.82
237.369	3.02
237.84	-0.48
238.31	7.02
238.78	1.82
239.251	1.62
239.721	5.52
240.191	-1.48
240.662	-0.38
241.132	4.32
241.602	-4.78
242.072	4.42
242.542	9.52
243.013	-2.28
243.483	5.42
243.953	5.42
244.423	1.32
244.893	-5.28
245.363	2.62
245.833	1.52
246.303	1.22
246.773	8.52
247.243	4.72
247.712	4.12
248.182	10.22
248.652	11.92
249.122	0.22
249.592	12.92
250.061	24.32
250.531	40.72
251.001	14.12
251.471	27.12
251.94	24.22
252.41	9.62
252.879	0.12
253.349	15.62
253.818	6.32
254.288	7.32
254.757	10.32
255.227	-1.88
255.696	6.02
256.166	8.42
256.635	11.62
257.105	15.32
257.574	9.42
258.043	15.02
258.513	13.62
258.982	17.32
259.451	14.72
259.92	10.12
260.389	13.02
260.859	15.62
261.328	19.82
261.797	21.62
262.266	4.22
262.735	16.62
263.204	7.12
263.673	4.82
264.142	3.92
264.611	3.72
265.08	4.52
265.549	8.52
266.018	7.62
266.487	3.52
266.955	-0.28
267.424	4.62
267.893	8.62
268.362	8.12
268.83	3.12
269.299	10.12
269.768	8.62
270.236	11.92
270.705	9.82
271.174	12.32
271.642	10.12
272.111	11.82
272.579	20.02
273.048	26.22
273.516	30.92
273.985	30.12
274.453	26.22
274.922	17.32
275.39	13.82
275.858	5.92
276.327	16.42
276.795	25.62
277.263	15.32
277.731	35.12
278.2	57.22
278.668	66.12
279.136	60.32
279.604	28.12
280.072	16.42
280.54	11.52
281.008	18.02
281.477	14.22
281.945	11.92
282.413	21.22
282.881	20.92
283.348	14.32
283.816	17.22
284.284	14.52
284.752	23.22
285.22	12.62
285.688	17.02
286.156	22.02
286.623	48.22
287.091	58.02
287.559	31.92
288.026	23.92
288.494	19.32
288.962	12.72
289.429	12.42
289.897	17.92
290.364	19.82
290.832	20.42
291.3	14.02
291.767	19.62
292.234	22.12
292.702	14.82
293.169	23.42
293.637	26.62
294.104	22.22
294.571	11.52
295.039	9.82
295.506	17.02
295.973	21.52
296.44	21.92
296.908	23.42
297.375	19.92
297.842	19.72
298.309	20.42
298.776	13.02
299.243	20.32
299.71	19.72
300.177	24.22
300.644	26.62
301.111	23.22
301.578	23.72
302.045	19.72
302.512	22.32
302.979	25.52
303.446	27.32
303.913	21.02
304.379	23.42
304.846	26.62
305.313	33.02
305.78	26.52
306.246	27.02
306.713	25.32
307.18	27.22
307.646	35.62
308.113	30.52
308.579	31.62
309.046	29.52
309.512	34.42
309.979	20.62
310.445	29.72
310.912	32.82
311.378	31.62
311.845	29.22
312.311	35.22
312.777	38.62
313.244	37.72
313.71	43.22
314.176	33.82
314.642	32.82
315.109	36.62
315.575	42.42
316.041	44.82
316.507	42.22
316.973	40.52
317.439	35.52
317.905	42.22
318.371	40.92
318.837	37.12
319.303	37.02
319.769	39.92
320.235	38.42
320.701	43.82
321.167	43.82
321.633	35.12
322.099	44.12
322.564	51.62
323.03	43.32
323.496	39.42
323.962	35.42
324.427	38.42
324.893	43.12
325.359	33.32
325.824	39.12
326.29	37.22
326.755	44.12
327.221	46.92
327.686	45.62
328.152	48.22
328.617	45.72
329.083	53.22
329.548	59.82
330.014	53.02
330.479	41.12
330.944	48.12
331.41	41.32
331.875	50.72
332.34	44.52
332.805	41.72
333.271	52.22
333.736	46.02
334.201	56.52
334.666	52.32
335.131	62.12
335.596	51.42
336.061	56.22
336.526	46.12
336.991	47.42
337.456	60.82
337.921	52.82
338.386	46.82
338.851	43.92
339.316	46.82
339.781	46.72
340.246	47.52
340.711	48.12
341.175	50.72
341.64	47.92
342.105	54.82
342.569	60.02
343.034	61.22
343.499	57.02
343.963	61.42
344.428	69.72
344.893	58.62
345.357	65.92
345.822	64.72
346.286	66.72
346.751	73.62
347.215	65.52
347.679	75.52
348.144	104.32
348.608	85.32
349.073	73.72
349.537	77.52
350.001	83.82
350.465	92.92
350.93	79.52
351.394	86.42
351.858	75.82
352.322	85.02
352.786	89.22
353.25	99.52
353.715	112.12
354.179	104.72
354.643	124.42
355.107	124.32
355.571	100.62
356.035	106.62
356.498	123.92
356.962	123.72
357.426	131.52
357.89	121.92
358.354	100.72
358.818	84.12
359.281	79.32
359.745	81.72
360.209	75.22
360.673	75.82
361.136	80.92
361.6	83.32
362.064	86.52
362.527	89.72
362.991	95.22
363.454	85.52
363.918	77.22
364.381	84.02
364.845	81.22
365.308	84.62
365.772	92.82
366.235	87.72
366.698	82.32
367.162	88.62
367.625	86.52
368.088	88.92
368.552	86.62
369.015	88.22
369.478	98.22
369.941	102.92
370.404	94.52
370.867	102.12
371.331	109.12
371.794	109.42
372.257	109.52
372.72	122.72
373.183	107.82
373.646	104.22
374.109	105.32
374.572	104.32
375.035	110.42
375.497	110.92
375.96	105.82
376.423	98.62
376.886	116.62
377.349	105.82
377.811	98.42
378.274	111.02
378.737	102.02
379.199	109.22
379.662	111.42
380.125	110.62
380.587	115.32
381.05	122.12
381.512	123.52
381.975	136.82
382.437	119.32
382.9	120.62
383.362	130.72
383.825	141.12
384.287	144.92
384.75	137.32
385.212	140.42
385.674	140.32
386.136	141.02
386.599	127.52
387.061	126.32
387.523	126.32
387.985	126.22
388.447	139.52
388.91	142.12
389.372	158.02
389.834	148.22
390.296	140.22
390.758	153.42
391.22	162.02
391.682	212.42
392.144	291.82
392.606	222.02
393.068	160.32
393.529	160.82
393.991	152.42
394.453	142.72
394.915	157.92
395.377	187.62
395.838	210.92
396.3	153.92
396.762	133.62
397.224	131.52
397.685	129.32
398.147	135.52
398.608	127.72
399.07	121.92
399.531	133.02
399.993	138.52
400.454	146.62
400.916	145.22
401.377	145.92
401.839	149.82
402.3	142.62
402.762	161.22
403.223	173.22
403.684	169.52
404.145	151.72
404.607	153.52
405.068	167.12
405.529	163.92
405.99	185.22
406.451	175.62
406.913	165.92
407.374	162.22
407.835	162.02
408.296	168.82
408.757	173.02
409.218	180.22
409.679	167.32
410.14	167.72
410.601	172.12
411.062	177.22
411.522	184.72
411.983	191.22
412.444	166.52
412.905	180.82
413.366	179.32
413.826	180.42
414.287	210.32
414.748	255.12
415.208	238.52
415.669	205.62
416.13	203.62
416.59	195.62
417.051	208.02
417.511	211.82
417.972	225.52
418.432	237.92
418.893	274.92
419.353	239.72
419.814	192.42
420.274	172.62
420.734	176.92
421.195	194.02
421.655	186.02
422.115	185.02
422.576	178.02
423.036	186.12
423.496	196.62
423.956	211.62
424.416	218.42
424.876	255.52
425.336	251.52
425.797	249.72
426.257	249.12
426.717	224.22
427.177	229.02
427.637	215.32
428.097	218.22
428.556	232.12
429.016	252.42
429.476	259.22
429.936	260.12
430.396	264.42
430.856	281.52
431.315	305.82
431.775	338.12
432.235	360.02
432.694	342.32
433.154	347.12
433.614	371.92
434.073	317.02
434.533	270.42
434.993	269.92
435.452	270.42
435.912	285.62
436.371	277.22
436.83	275.12
437.29	260.82
437.749	237.42
438.209	236.42
438.668	263.62
439.127	278.32
439.587	255.02
440.046	240.82
440.505	253.42
440.964	274.22
441.424	306.42
441.883	298.22
442.342	244.32
442.801	213.72
443.26	221.92
443.719	209.42
444.178	207.82
444.637	202.22
445.096	212.12
445.555	207.92
446.014	218.02
446.473	212.62
446.932	222.72
447.391	215.02
447.849	216.52
448.308	214.52
448.767	214.22
449.226	228.92
449.685	228.12
450.143	244.32
450.602	232.42
451.061	223.52
451.519	218.72
451.978	226.72
452.436	224.22
452.895	233.92
453.353	244.12
453.812	233.72
454.27	229.32
454.729	234.12
455.187	234.62
455.646	236.92
456.104	234.62
456.562	244.12
457.021	252.72
457.479	250.72
457.937	270.62
458.395	255.92
458.854	239.42
459.312	241.82
459.77	258.22
460.228	247.32
460.686	231.82
461.144	239.92
461.602	230.22
462.06	234.92
462.518	247.62
462.976	243.02
463.434	249.12
463.892	257.42
464.35	272.02
464.808	280.92
465.266	260.42
465.724	261.32
466.181	262.82
466.639	262.22
467.097	277.82
467.555	289.92
468.012	287.52
468.47	304.12
468.928	323.32
469.385	328.92
469.843	334.82
470.3	341.12
470.758	352.52
471.215	368.42
471.673	397.12
472.13	392.52
472.588	401.22
473.045	354.22
473.503	366.12
473.96	377.62
474.417	384.32
474.875	411.82
475.332	439.92
475.789	451.12
476.246	443.82
476.704	466.02
477.161	481.32
477.618	500.92
478.075	547.22
478.532	598.72
478.989	670.12
479.446	768.82
479.903	739.72
480.36	778.22
480.817	833.32
481.274	936.72
481.731	1051.42
482.188	1136.02
482.645	1261.52
483.102	1362.72
483.558	1507.82
484.015	1562.82
484.472	1525.22
484.929	1478.42
485.385	1436.42
485.842	1389.02
486.299	1321.02
486.755	1252.32
487.212	1064.62
487.668	885.82
488.125	821.72
488.582	758.92
489.038	730.42
489.494	691.22
489.951	670.62
490.407	644.12
490.864	627.12
491.32	621.22
491.776	616.12
492.233	621.12
492.689	593.02
493.145	582.02
493.602	571.02
494.058	580.72
494.514	593.52
494.97	604.92
495.426	613.92
495.882	605.02
496.338	588.22
496.794	602.02
497.251	602.72
497.707	620.22
498.163	622.52
498.618	622.32
499.074	619.92
499.53	661.92
499.986	649.92
500.442	636.42
500.898	604.92
501.354	598.52
501.809	610.32
502.265	624.22
502.721	632.42
503.177	648.62
503.632	633.92
504.088	648.72
504.543	682.92
504.999	683.82
505.455	631.52
505.91	605.72
506.366	607.52
506.821	606.92
507.277	596.92
507.732	600.42
508.187	592.02
508.643	601.12
509.098	612.72
509.553	625.32
510.009	638.12
510.464	646.62
510.919	655.82
511.375	665.22
511.83	683.62
512.285	695.32
512.74	734.72
513.195	760.32
513.65	752.22
514.105	740.62
514.56	742.82
515.015	768.22
515.47	791.92
515.925	767.62
516.38	759.32
516.835	764.12
517.29	748.72
517.745	753.12
518.2	736.52
518.655	723.72
519.109	710.72
519.564	716.72
520.019	708.12
520.474	698.92
520.928	709.32
521.383	693.22
521.838	686.02
522.292	686.22
522.747	689.02
523.201	675.12
523.656	667.42
524.11	665.52
524.565	666.52
525.019	662.72
525.474	677.02
525.928	675.12
526.382	659.52
526.837	662.12
527.291	672.22
527.745	665.32
528.2	670.62
528.654	668.22
529.108	658.92
529.562	663.22
530.016	663.02
530.47	659.02
530.925	665.72
531.379	661.22
531.833	677.32
532.287	672.72
532.741	676.62
533.195	682.82
533.649	692.12
534.103	692.72
534.556	683.22
535.01	671.22
535.464	682.82
535.918	693.72
536.372	692.72
536.826	682.22
537.279	678.62
537.733	679.42
538.187	685.52
538.64	684.52
539.094	689.82
539.548	693.52
540.001	687.82
540.455	691.82
540.908	692.72
541.362	704.32
541.815	710.52
542.269	725.32
542.722	718.12
543.175	737.82
543.629	732.02
544.082	745.12
544.536	762.62
544.989	749.12
545.442	745.42
545.895	750.02
546.349	744.12
546.802	754.32
547.255	752.92
547.708	756.32
548.161	772.62
548.614	781.62
549.067	791.52
549.52	788.62
549.973	774.22
550.426	772.22
550.879	757.52
551.332	756.32
551.785	768.42
552.238	780.52
552.691	775.22
553.144	785.82
553.596	804.62
554.049	818.32
554.502	862.52
554.955	867.72
555.407	858.02
555.86	854.72
556.313	842.22
556.765	832.82
557.218	831.12
557.67	837.82
558.123	836.72
558.576	821.42
559.028	829.62
559.48	842.32
559.933	821.22
560.385	793.32
560.838	762.92
561.29	745.22
561.742	734.22
562.195	722.02
562.647	725.52
563.099	727.42
563.551	728.82
564.004	738.22
564.456	723.62
564.908	719.02
565.36	709.12
565.812	696.12
566.264	678.02
566.716	683.02
567.168	674.82
567.62	686.62
568.072	664.72
568.524	655.02
568.976	650.42
569.428	640.32
569.88	636.02
570.332	636.42
570.784	641.42
571.235	640.92
571.687	638.62
572.139	661.32
572.59	676.62
573.042	667.92
573.494	675.92
573.945	661.82
574.397	648.62
574.849	651.62
575.3	657.22
575.752	647.92
576.203	638.32
576.655	647.82
577.106	630.52
577.557	629.22
578.009	629.42
578.46	628.82
578.912	619.42
579.363	624.32
579.814	627.12
580.265	623.32
580.717	626.22
581.168	622.72
581.619	634.52
582.07	630.42
582.521	635.42
582.972	629.42
583.423	631.82
583.875	643.62
584.326	651.92
584.777	691.82
585.227	771.52
585.678	870.82
586.129	948.92
586.58	1016.52
587.031	1091.02
587.482	1264.22
587.933	1424.92
588.384	1243.42
588.834	919.62
589.285	750.32
589.736	724.82
590.186	716.52
590.637	707.92
591.088	690.72
591.538	691.52
591.989	678.82
592.439	670.42
592.89	671.42
593.34	666.72
593.791	667.62
594.241	651.12
594.692	648.82
595.142	656.22
595.593	646.82
596.043	647.82
596.493	670.02
596.943	664.32
597.394	671.72
597.844	661.12
598.294	684.22
598.744	700.22
599.195	720.62
599.645	755.12
600.095	793.02
600.545	841.02
600.995	890.82
601.445	936.62
601.895	1012.92
602.345	1055.12
602.795	1027.22
603.245	994.02
603.695	937.62
604.145	879.22
604.594	850.12
605.044	785.02
605.494	735.52
605.944	690.22
606.393	681.92
606.843	670.12
607.293	682.32
607.743	664.32
608.192	688.72
608.642	696.22
609.091	705.82
609.541	717.02
609.99	710.62
610.44	707.72
610.889	670.02
611.339	643.02
611.788	626.42
612.238	644.32
612.687	664.22
613.136	668.22
613.586	679.22
614.035	678.82
614.484	702.52
614.933	704.32
615.383	687.82
615.832	676.12
616.281	660.82
616.73	642.62
617.179	609.22
617.628	599.42
618.077	583.22
618.526	566.42
618.975	566.82
619.424	561.32
619.873	559.62
620.322	565.02
620.771	558.92
621.22	549.32
621.669	544.12
622.118	540.52
622.567	528.02
623.015	515.62
623.464	529.52
623.913	512.32
624.361	505.52
624.81	509.22
625.259	501.02
625.707	504.72
626.156	514.42
626.604	513.82
627.053	508.92
627.501	504.72
627.95	521.52
628.398	524.22
628.847	517.62
629.295	524.22
629.744	524.22
630.192	513.22
630.64	512.22
631.089	513.62
631.537	526.22
631.985	531.62
632.433	544.32
632.881	552.82
633.33	605.52
633.778	582.72
634.226	512.62
634.674	521.52
635.122	530.22
635.57	545.22
636.018	557.22
636.466	534.82
636.914	506.82
637.362	519.52
637.81	524.62
638.258	521.62
638.705	517.32
639.153	550.72
639.601	564.52
640.049	577.22
640.497	608.32
640.944	626.92
641.392	579.32
641.84	548.22
642.287	532.02
642.735	521.32
643.182	519.22
643.63	514.12
644.078	517.42
644.525	535.52
644.973	531.42
645.42	531.62
645.867	557.22
646.315	570.52
646.762	594.62
647.21	620.52
647.657	641.82
648.104	672.42
648.551	699.82
648.999	748.82
649.446	817.12
649.893	904.02
650.34	1031.82
650.787	1252.72
651.234	1537.52
651.682	2013.32
652.129	2749.52
652.576	3958.42
653.023	5862.22
653.47	8126.32
653.917	10219.82
654.363	11925.72
654.81	13344.12
655.257	12666.92
655.704	8235.62
656.151	4850.72
656.598	3131.42
657.044	2231.32
657.491	1685.02
657.938	1353.82
658.385	1133.12
658.831	981.92
659.278	873.12
659.724	776.62
660.171	710.52
660.618	648.12
661.064	631.02
661.511	602.02
661.957	580.02
662.404	568.62
662.85	582.62
663.296	563.12
663.743	502.12
664.189	486.42
664.635	478.52
665.082	468.62
665.528	471.72
665.974	458.72
666.42	462.72
666.867	456.42
667.313	432.12
667.759	427.02
668.205	421.42
668.651	435.32
669.097	432.72
669.543	456.32
669.989	420.92
670.435	396.62
670.881	402.82
671.327	408.42
671.773	429.02
672.219	441.82
672.665	484.32
673.11	502.42
673.556	561.32
674.002	597.32
674.448	584.52
674.893	494.52
675.339	427.12
675.785	401.32
676.23	374.42
676.676	355.62
677.122	341.32
677.567	333.72
678.013	325.62
678.458	314.32
678.904	326.12
679.349	303.72
679.794	313.72
680.24	318.32
680.685	304.12
681.131	304.22
681.576	310.52
682.021	315.22
682.466	313.92
682.912	306.02
683.357	307.42
683.802	336.92
684.247	361.92
684.692	401.42
685.137	440.82
685.583	477.22
686.028	498.62
686.473	467.72
686.918	396.32
687.363	367.52
687.807	351.02
688.252	325.02
688.697	317.02
689.142	298.82
689.587	296.02
690.032	281.72
690.477	296.12
690.921	304.42
691.366	339.72
691.811	352.72
692.255	388.62
692.7	412.92
693.145	439.42
693.589	597.92
694.034	983.42
694.478	1353.42
694.923	1549.02
695.367	2052.52
695.812	1061.62
696.256	446.52
696.701	327.82
697.145	300.82
697.59	293.62
698.034	286.52
698.478	291.42
698.922	288.02
699.367	282.72
699.811	296.52
700.255	306.12
700.699	342.92
701.143	376.32
701.588	430.02
702.032	459.42
702.476	451.72
702.92	433.42
703.364	436.12
703.808	549.52
704.252	889.22
704.696	1268.72
705.14	1486.72
705.584	1921.42
706.027	945.82
706.471	459.62
706.915	342.12
707.359	307.12
707.803	277.92
708.246	271.92
708.69	276.82
709.134	277.82
709.577	278.82
710.021	284.42
710.465	272.92
710.908	262.42
711.352	267.32
711.795	278.42
712.239	305.72
712.682	336.32
713.126	367.92
713.569	405.72
714.012	323.72
714.456	289.02
714.899	266.92
715.342	240.92
715.786	230.92
716.229	229.72
716.672	224.62
717.115	217.02
717.558	222.22
718.002	216.32
718.445	235.22
718.888	256.72
719.331	255.72
719.774	274.32
720.217	266.22
720.66	249.72
721.103	240.62
721.546	221.92
721.989	213.42
722.432	202.32
722.874	216.32
723.317	205.82
723.76	202.32
724.203	228.32
724.645	272.52
725.088	382.82
725.531	493.72
725.974	577.92
726.416	490.42
726.859	272.92
727.301	220.92
727.744	210.82
728.187	209.12
728.629	213.92
729.071	211.02
729.514	225.02
729.956	237.82
730.399	248.12
730.841	251.52
731.283	244.82
731.726	237.62
732.168	230.52
732.61	235.02
733.053	253.72
733.495	278.22
733.937	305.02
734.379	353.62
734.821	373.52
735.263	470.92
735.705	708.62
736.148	1346.62
736.59	2246.02
737.032	2732.42
737.474	2231.82
737.916	717.62
738.357	376.92
738.799	282.12
739.241	260.62
739.683	247.72
740.125	254.12
740.567	266.02
741.008	269.32
741.45	273.92
741.892	274.52
742.334	306.92
742.775	322.42
743.217	304.22
743.658	239.22
744.1	222.22
744.542	229.22
744.983	276.12
745.425	303.22
745.866	303.32
746.307	253.02
746.749	249.42
747.19	286.72
747.632	386.42
748.073	750.12
748.514	1593.32
748.956	2489.22
749.397	3130.42
749.838	2616.52
750.279	2662.52
750.72	1321.72
751.162	480.12
751.603	282.52
752.044	225.02
752.485	190.22
752.926	181.52
753.367	175.72
753.808	173.72
754.249	163.42
754.69	161.52
755.131	156.52
755.572	164.32
756.013	149.62
756.453	166.32
756.894	165.12
757.335	165.82
757.776	180.32
758.216	174.02
758.657	175.82
759.098	177.22
759.538	198.52
759.979	236.22
760.42	320.52
760.86	600.82
761.301	1528.62
761.741	3805.72
762.182	5820.62
762.622	4072.82
763.063	1156.12
763.503	476.42
763.943	303.22
764.384	293.82
764.824	360.22
765.264	397.52
765.705	272.12
766.145	184.72
766.585	164.42
767.025	158.62
767.465	168.82
767.906	215.42
768.346	282.82
768.786	299.42
769.226	228.62
769.666	278.82
770.106	522.92
770.546	1318.42
770.986	2353.92
771.426	2136.52
771.866	707.52
772.306	291.42
772.745	184.02
773.185	155.92
773.625	145.92
774.065	143.02
774.505	177.02
774.944	266.52
775.384	587.42
775.824	1114.22
776.263	1123.62
776.703	461.82
777.142	201.02
777.582	142.52
778.021	125.22
778.461	125.02
778.9	127.12
779.34	119.72
779.779	100.52
780.219	91.92
780.658	92.42
781.097	97.92
781.537	99.32
781.976	96.02
782.415	101.22
782.855	89.62
783.294	89.12
783.733	89.72
784.172	92.72
784.611	88.22
785.05	93.92
785.489	104.72
785.928	108.32
786.367	106.32
786.806	106.22
787.245	116.12
787.684	119.42
788.123	131.22
788.562	121.12
789.001	111.42
789.44	106.02
789.879	104.32
790.317	96.72
790.756	111.32
791.195	110.42
791.634	130.12
792.072	175.62
792.511	306.12
792.95	841.12
793.388	1882.92
793.827	1743.42
794.265	608.52
794.704	250.12
795.142	162.02
795.581	138.12
796.019	127.72
796.458	109.62
796.896	112.52
797.334	115.12
797.773	139.72
798.211	192.92
798.649	371.82
799.087	878.22
799.526	1399.72
799.964	1766.92
800.402	1806.52
800.84	669.82
801.278	256.72
801.716	162.72
802.154	137.42
802.592	124.72
803.03	124.52
803.468	112.32
803.906	126.32
804.344	132.82
804.782	121.92
805.22	116.22
805.658	109.42
806.096	131.82
806.533	136.12
806.971	153.92
807.409	192.02
807.847	268.02
808.284	556.62
808.722	1611.02
809.16	2940.72
809.597	2710.72
810.035	4774.92
810.472	5289.52
810.91	1860.82
811.347	692.72
811.785	358.52
812.222	221.92
812.66	175.32
813.097	141.02
813.535	121.12
813.972	111.82
814.409	106.12
814.846	93.02
815.284	96.02
815.721	92.02
816.158	95.92
816.595	103.62
817.032	154.72
817.47	176.32
817.907	140.62
818.344	133.42
818.781	101.42
819.218	91.42
819.655	105.22
820.092	160.02
820.529	193.02
820.966	155.02
821.403	123.02
821.839	100.22
822.276	89.02
822.713	107.52
823.15	120.92
823.587	104.72
824.023	131.22
824.46	246.52
824.897	769.42
825.333	1221.82
825.77	510.72
826.206	200.42
826.643	117.02
827.08	89.02
827.516	74.72
827.953	62.22
828.389	72.62
828.825	63.62
829.262	58.22
829.698	56.42
830.135	55.32
830.571	50.22
831.007	56.02
831.443	58.72
831.88	49.82
832.316	56.02
832.752	58.82
833.188	54.72
833.624	60.12
834.06	54.62
834.497	57.82
834.933	62.52
835.369	71.52
835.805	57.72
836.241	63.42
836.677	70.12
837.112	77.12
837.548	84.92
837.984	116.72
838.42	168.12
838.856	421.72
839.292	1331.92
839.727	2072.32
840.163	956.32
840.599	797.72
841.034	1764.62
841.47	1939.72
841.906	701.72
842.341	287.12
842.777	201.82
843.212	284.12
843.648	294.02
844.083	137.12
844.519	85.22
844.954	71.62
845.39	52.82
845.825	50.62
846.261	50.32
846.696	51.22
847.131	44.72
847.566	56.12
848.002	44.82
848.437	44.02
848.872	52.02
849.307	49.62
849.742	75.82
850.177	150.82
850.613	472.82
851.048	782.12
851.483	335.02
851.918	135.22
852.353	72.62
852.788	55.22
853.223	48.82
853.657	48.52
854.092	37.82
854.527	31.32
854.962	38.62
855.397	35.92
855.832	42.42
856.266	34.82
856.701	41.12
857.136	33.42
857.57	42.22
858.005	44.92
858.44	51.32
858.874	41.82
859.309	45.42
859.743	37.42
860.178	38.32
860.612	39.32
861.047	47.52
861.481	64.22
861.915	67.82
862.35	46.52
862.784	30.72
863.218	37.02
863.653	31.22
864.087	47.32
864.521	46.32
864.955	59.42
865.39	132.32
865.824	159.52
866.258	100.72
866.692	145.02
867.126	160.02
867.56	98.42
867.994	44.42
868.428	33.22
868.862	42.92
869.296	46.92
869.73	52.22
870.164	46.62
870.598	43.32
871.031	32.72
871.465	24.72
871.899	26.12
872.333	19.72
872.766	20.82
873.2	24.12
873.634	30.32
874.067	25.42
874.501	23.52
874.935	36.02
875.368	27.42
875.802	26.72
876.235	22.62
876.669	27.22
877.102	20.12
877.535	26.52
877.969	20.42
878.402	26.02
878.836	12.82
879.269	19.92
879.702	21.62
880.135	22.42
880.569	22.12
881.002	30.82
881.435	20.92
881.868	18.82
882.301	18.72
882.734	16.12
883.167	21.32
883.601	16.72
884.034	16.02
884.467	17.12
884.899	16.02
885.332	14.12
885.765	16.42
886.198	15.82
886.631	18.62
887.064	18.62
887.497	23.42
887.929	28.82
888.362	13.92
888.795	11.82
889.228	18.72
889.66	19.82
890.093	13.62
890.526	13.12
890.958	21.12
891.391	11.52
891.823	18.12
892.256	8.22
892.688	7.82
893.121	13.82
893.553	21.02
893.985	22.92
894.418	14.52
894.85	7.42
895.282	13.62
895.715	19.62
896.147	16.72
896.579	15.72
897.011	11.02
897.444	9.72
897.876	14.92
898.308	17.52
898.74	10.82
899.172	6.92
899.604	18.62
900.036	21.52
900.468	15.22
900.9	15.32
901.332	14.52
901.764	10.92
902.196	14.52
902.628	18.12
903.06	13.32
903.491	26.62
903.923	14.82
904.355	12.42
904.787	24.62
905.218	18.92
905.65	16.22
906.082	5.62
906.513	6.62
906.945	15.12
907.376	12.52
907.808	16.02
908.239	17.02
908.671	20.02
909.102	21.62
909.534	21.92
909.965	44.42
910.397	81.62
910.828	275.52
911.259	431.32
911.691	196.92
912.122	94.82
912.553	45.02
912.984	30.32
913.415	28.12
913.847	18.82
914.278	16.12
914.709	15.32
915.14	16.72
915.571	12.02
916.002	11.02
916.433	19.02
916.864	14.92
917.295	13.62
917.726	22.32
918.157	12.52
918.587	28.22
919.018	20.32
919.449	14.92
919.88	17.62
920.311	31.92
920.741	44.72
921.172	150.52
921.603	133.92
922.033	67.22
922.464	37.22
922.895	20.52
923.325	21.82
923.756	16.62
924.186	20.02
924.617	27.02
925.047	38.02
925.478	52.32
925.908	41.92
926.338	22.92
926.769	14.32
927.199	22.22
927.629	7.32
928.06	17.22
928.49	12.92
928.92	12.32
929.35	11.32
929.78	6.82
930.21	3.42
930.641	6.72
931.071	7.42
931.501	1.72
931.931	7.92
932.361	2.32
932.791	-0.68
933.221	7.52
933.651	2.92
934.08	23.82
934.51	30.12
934.94	5.62
935.37	8.62
935.8	8.22
936.229	5.52
936.659	8.02
937.089	6.62
937.519	9.92
937.948	24.12
938.378	18.32
938.807	5.32
939.237	3.92
939.666	10.22
940.096	-6.48
940.525	-4.78
940.955	4.82
941.384	1.92
941.814	0.12
942.243	-0.68
942.672	6.02
943.102	0.02
943.531	-2.58
943.96	3.82
944.39	1.82
944.819	5.72
945.248	7.12
945.677	0.22
946.106	5.22
946.535	5.32
946.964	8.32
947.393	1.72
947.822	1.52
948.251	-9.18
948.68	-3.28
949.109	1.92
949.538	7.22
949.967	-2.08
950.396	-0.38
950.825	-5.78
951.254	-0.68
951.682	-6.88
952.111	3.92
952.54	-0.48
952.969	-3.88
953.397	-4.28
953.826	-0.48
954.254	-7.78
954.683	0.82
955.112	-4.28
955.54	-1.28
955.969	0.12
956.397	0.62
956.826	-0.18
957.254	1.02
957.682	-4.58
958.111	6.12
958.539	4.82
958.967	3.72
959.396	4.72
959.824	4.32
960.252	1.12
960.68	-9.48
961.109	-2.58
961.537	-2.08
961.965	3.22
962.393	1.02
962.821	-3.08
963.249	4.52
963.677	3.92
964.105	3.22
964.533	39.12
964.961	36.02
965.389	22.12
965.817	10.82
966.245	2.72
966.672	-2.38
967.1	-11.78
967.528	0.72
967.956	0.22
968.383	-2.98
968.811	-0.48
969.239	-2.28
969.666	-6.38
970.094	2.32
970.522	-0.98
970.949	-2.48
971.377	-0.68
971.804	3.92
972.232	-5.08
972.659	-1.28
973.087	-1.38
973.514	-9.08
973.941	-11.48
974.369	2.02
974.796	6.12
975.223	1.02
975.651	0.32
976.078	3.72
976.505	-6.28
976.932	1.42
977.359	14.22
977.786	12.52
978.214	-0.68
978.641	-5.68
979.068	-6.78
979.495	-1.58
979.922	-1.08
980.349	-2.28
980.776	0.02
981.202	-2.08
981.629	9.22
982.056	4.92
982.483	-0.98
982.91	-0.58
983.337	-10.78
983.763	1.22
984.19	-0.88
984.617	2.52
985.043	-4.58
985.47	0.92
985.897	-7.98
986.323	-2.38
986.75	6.52
987.176	-0.18
987.603	-0.38
988.029	4.02
988.456	-1.18
988.882	-0.68
989.308	-3.18
989.735	-9.18
990.161	2.82
990.587	-6.58
991.014	1.72
991.44	11.02
991.866	1.12
992.292	-0.38
992.719	-1.28
993.145	4.32
993.571	-5.08
993.997	0.42
994.423	-4.58
994.849	-5.58
995.275	1.22
995.701	4.72
996.127	-5.98
996.553	1.12
996.979	-3.48
997.405	3.72
997.83	-3.98
998.256	-4.38
998.682	-6.38
999.108	-8.18
999.534	-0.38
999.959	-0.68
1000.385	1.82
1000.811	5.62
1001.236	-5.58
1001.662	-9.38
1002.087	-6.58
1002.513	-2.38
1002.938	1.72
1003.364	-1.08
1003.789	-1.68
1004.215	8.72
1004.64	-1.08
1005.066	0.22
1005.491	3.42
1005.916	1.62
1006.342	-1.68
1006.767	-5.48
1007.192	2.02
1007.617	-6.98
1008.042	-2.88
1008.468	-6.78
1008.893	-5.78
1009.318	-5.38
1009.743	-4.08
1010.168	5.42
1010.593	-3.18
1011.018	-5.58
1011.443	-0.08
1011.868	-0.68
1012.293	1.82
1012.718	-7.88
1013.143	-0.98
1013.567	0.72
1013.992	-2.98
1014.417	-13.38
1014.842	3.72
1015.267	-9.38
1015.691	-5.88
1016.116	8.42
1016.541	-1.88
1016.965	-0.08
1017.39	7.02
1017.814	0.62
1018.239	1.52
1018.663	-3.98
1019.088	-6.28
1019.512	-1.18
1019.937	-6.28
1020.361	-2.38
1020.785	-9.18
1021.21	-7.68
1021.634	-1.48
1022.058	0.92
1022.483	0.42
1022.907	-8.68
1023.331	-1.48
1023.755	-9.28
1024.179	1.32
1024.604	-2.68
1025.028	-3.48
1025.452	-5.78
1025.876	-0.58
1026.3	0.52
1026.724	-12.38
1027.148	-6.88
1027.572	-8.28
1027.996	-4.68
1028.42	-1.58
1028.843	-6.68
1029.267	-10.38
1029.691	-1.48
1030.115	-6.18
1030.539	-6.18
1030.962	-4.98
1031.386	-4.98
1031.81	3.12
1032.233	0.22
1032.657	4.82
1033.08	-7.58
1033.504	1.02
1033.927	-4.48
1034.351	2.72
1034.774	-3.38
1035.198	-6.68
1035.621	-2.28
1036.045	-4.48
1036.468	-1.18
1036.891	-7.58
1037.315	-4.18
1037.738	-4.98
1038.161	-0.48
1038.584	-2.58
1039.008	-3.18
1039.431	-0.28
1039.854	5.32
1040.277	-11.18
1040.7	-10.28
1041.123	-0.58
1041.546	-7.38
1041.969	-5.78
1042.392	-5.28
1042.815	1.12
1043.238	-0.48
1043.661	2.62
1044.084	-3.08
1044.507	-9.18
1044.93	-11.08
1045.352	-11.88
1045.775	-1.68
1046.198	-0.48
1046.621	-5.58
1047.043	4.82
1047.466	10.42
1047.889	-1.88
1048.311	1.32
1048.734	7.92
1049.156	-2.68
1049.579	-1.18
1050.001	-7.48
1050.424	-0.48
1050.846	-5.48
1051.269	-0.28
1051.691	-2.68
1052.113	-5.78
1052.536	-0.98
1052.958	-0.08
1053.38	-1.18
1053.802	-11.38
1054.225	2.22
1054.647	-12.48
1055.069	-11.08
1055.491	3.02
1055.913	-6.98
1056.335	-4.18
1056.757	-2.18
1057.179	-9.48
1057.601	-10.38
1058.023	-1.08
1058.445	-5.48
1058.867	-6.68
1059.289	-3.38
1059.711	-5.68
1060.133	1.82
1060.555	-0.38
1060.976	-7.48
1061.398	-3.38
1061.82	-9.28
1062.241	-6.68
1062.663	-8.58
1063.085	-4.28
1063.506	4.02
1063.928	1.62
1064.35	-3.48
1064.771	-15.88
1065.193	-3.38
1065.614	-6.08
1066.035	-2.88
1066.457	-3.58
1066.878	4.42
1067.3	-4.98
1067.721	3.02
1068.142	-1.88
1068.564	-4.98
1068.985	-3.98
1069.406	-2.88
1069.827	-0.48
1070.248	-4.28
1070.67	-2.38
1071.091	-6.08
1071.512	-4.08
1071.933	-8.18
1072.354	-6.88
1072.775	-1.18
1073.196	-4.88
1073.617	-3.18
1074.038	-4.38
1074.459	-6.88
1074.88	-1.08
1075.3	-2.18
1075.721	-8.88
1076.142	0.62
1076.563	-4.28
1076.983	-6.38
1077.404	-8.68
1077.825	-4.18
1078.246	-5.18
1078.666	-5.28
1079.087	-3.48
1079.507	-6.08
1079.928	2.62
1080.348	0.62
1080.769	-10.78
1081.189	0.12
1081.61	0.42
1082.03	-7.08
1082.451	-3.98
1082.871	-4.08
1083.291	-2.08
1083.711	-7.78
1084.132	-0.38
1084.552	-5.38
1084.972	0.22
1085.392	-6.28
1085.813	-13.58
1086.233	-9.48
1086.653	-3.48
1087.073	-2.98
1087.493	-3.78
1087.913	-4.88
1088.333	-9.08
1088.753	-2.88
1089.173	3.72
1089.593	-3.98
1090.013	-0.58
1090.433	-0.18
1090.852	-4.98
1091.272	-3.68
1091.692	-2.18
1092.112	-1.38
1092.531	-2.78
1092.951	-8.48
1093.371	2.92
1093.79	-0.48
1094.21	-10.18
1094.63	-1.88
1095.049	-6.68
1095.469	-2.08
1095.888	-0.68
1096.308	0.92
1096.727	2.02
1097.146	-8.68
1097.566	1.72
1097.985	-4.68
1098.405	-2.08
1098.824	-8.58
1099.243	-6.98
1099.662	-7.18
1100.082	-4.18
1100.501	-2.18
1100.92	-6.28
1101.339	-2.28
1101.758	-2.78
