Data from 20171114-ORNL-Ar_H_NY_Subt18_08-05-51-253.txt Node
Date: Tue Nov 14 08:05:51 EST 2017
User: Ender
Spectrometer: HR+D1039
Trigger mode: 0
Integration Time (sec): 2.730000E-2
Scans to average: 10
Electric dark correction enabled: true
Nonlinearity correction enabled: false
Boxcar width: 0
XAxis mode: Wavelengths
Number of Pixels in Spectrum: 2048
>>>>>Begin Spectral Data<<<<<
187.836	-0.19
188.309	-0.19
188.782	-0.19
189.255	0.21
189.728	-1.19
190.201	0.51
190.674	1.01
191.147	2.81
191.619	-5.69
192.092	-0.49
192.565	3.11
193.038	0.21
193.511	-2.19
193.984	3.01
194.456	-3.89
194.929	2.51
195.402	-0.59
195.874	0.91
196.347	-3.89
196.82	-5.89
197.292	4.41
197.765	2.81
198.237	-2.79
198.71	-1.49
199.182	-1.39
199.655	0.31
200.127	1.91
200.6	-2.49
201.072	-4.89
201.544	-6.59
202.017	3.21
202.489	3.71
202.961	-0.79
203.433	-1.49
203.906	-5.99
204.378	-7.89
204.85	-2.69
205.322	-9.19
205.794	2.51
206.266	-1.79
206.739	-7.89
207.211	3.51
207.683	-9.79
208.155	-6.69
208.627	-4.39
209.099	-7.29
209.57	-9.99
210.042	-5.29
210.514	1.31
210.986	-0.79
211.458	-10.49
211.93	-4.69
212.402	0.21
212.873	-0.99
213.345	-12.39
213.817	-9.39
214.288	-6.39
214.76	-12.19
215.232	-4.89
215.703	1.01
216.175	-1.79
216.646	-6.99
217.118	-4.49
217.589	-2.49
218.061	0.61
218.532	-7.69
219.004	-7.29
219.475	-1.79
219.946	0.41
220.418	-6.49
220.889	-1.29
221.36	3.11
221.832	-3.99
222.303	-6.99
222.774	1.61
223.245	-2.59
223.717	-2.89
224.188	-5.09
224.659	-4.89
225.13	-9.69
225.601	-2.89
226.072	0.21
226.543	5.41
227.014	0.21
227.485	-1.19
227.956	-5.49
228.427	-4.79
228.898	-1.49
229.369	9.11
229.839	-4.39
230.31	-5.39
230.781	5.01
231.252	-0.49
231.722	-3.79
232.193	2.91
232.664	4.41
233.135	2.31
233.605	2.01
234.076	0.51
234.546	-0.69
235.017	0.71
235.487	3.11
235.958	-1.79
236.428	-0.89
236.899	4.31
237.369	6.11
237.84	-7.19
238.31	2.81
238.78	-2.19
239.251	2.01
239.721	4.11
240.191	0.91
240.662	0.91
241.132	-2.19
241.602	-5.39
242.072	1.01
242.542	2.31
243.013	0.11
243.483	4.51
243.953	6.31
244.423	2.81
244.893	-0.59
245.363	8.61
245.833	3.71
246.303	-0.79
246.773	7.71
247.243	2.51
247.712	3.71
248.182	8.01
248.652	10.81
249.122	-1.19
249.592	12.31
250.061	18.91
250.531	30.31
251.001	19.81
251.471	22.31
251.94	24.61
252.41	5.51
252.879	-0.49
253.349	10.11
253.818	6.81
254.288	3.11
254.757	6.91
255.227	5.41
255.696	7.51
256.166	12.61
256.635	6.81
257.105	13.41
257.574	10.91
258.043	12.61
258.513	13.91
258.982	18.91
259.451	12.81
259.92	15.91
260.389	14.11
260.859	18.11
261.328	19.71
261.797	18.51
262.266	10.51
262.735	10.71
263.204	5.81
263.673	6.91
264.142	7.61
264.611	-2.49
265.08	-2.09
265.549	1.51
266.018	8.21
266.487	-0.19
266.955	-4.19
267.424	2.61
267.893	7.71
268.362	2.81
268.83	3.91
269.299	9.31
269.768	3.51
270.236	10.71
270.705	8.51
271.174	7.31
271.642	15.41
272.111	13.21
272.579	14.31
273.048	26.21
273.516	31.71
273.985	28.51
274.453	27.21
274.922	18.11
275.39	11.11
275.858	8.01
276.327	14.41
276.795	18.11
277.263	12.91
277.731	31.91
278.2	66.01
278.668	57.21
279.136	54.21
279.604	18.91
280.072	13.51
280.54	14.91
281.008	13.41
281.477	7.01
281.945	14.51
282.413	15.11
282.881	18.61
283.348	13.91
283.816	13.71
284.284	21.01
284.752	20.41
285.22	11.81
285.688	19.31
286.156	17.61
286.623	48.41
287.091	51.81
287.559	30.61
288.026	21.71
288.494	26.31
288.962	10.51
289.429	13.41
289.897	21.01
290.364	11.81
290.832	21.41
291.3	16.11
291.767	24.31
292.234	17.81
292.702	12.21
293.169	19.81
293.637	22.41
294.104	25.31
294.571	9.61
295.039	14.41
295.506	20.61
295.973	20.51
296.44	18.51
296.908	27.01
297.375	21.81
297.842	26.21
298.309	19.81
298.776	9.71
299.243	24.01
299.71	16.81
300.177	22.41
300.644	17.31
301.111	21.51
301.578	24.51
302.045	18.01
302.512	23.51
302.979	27.81
303.446	27.71
303.913	24.61
304.379	22.71
304.846	28.21
305.313	29.41
305.78	22.41
306.246	27.11
306.713	30.71
307.18	26.81
307.646	29.91
308.113	21.01
308.579	24.71
309.046	26.41
309.512	31.91
309.979	21.21
310.445	30.31
310.912	32.11
311.378	36.41
311.845	28.91
312.311	32.41
312.777	37.71
313.244	34.31
313.71	40.71
314.176	32.51
314.642	33.01
315.109	34.31
315.575	38.21
316.041	47.81
316.507	36.11
316.973	42.61
317.439	33.41
317.905	42.11
318.371	31.71
318.837	33.81
319.303	33.21
319.769	38.71
320.235	36.91
320.701	31.61
321.167	44.81
321.633	37.31
322.099	41.91
322.564	45.81
323.03	42.31
323.496	38.01
323.962	43.81
324.427	37.31
324.893	50.61
325.359	45.61
325.824	34.11
326.29	38.41
326.755	40.41
327.221	47.01
327.686	41.21
328.152	44.31
328.617	38.81
329.083	43.11
329.548	53.21
330.014	49.61
330.479	41.71
330.944	48.61
331.41	46.41
331.875	45.11
332.34	42.31
332.805	48.61
333.271	49.81
333.736	47.71
334.201	54.61
334.666	56.71
335.131	59.81
335.596	52.61
336.061	51.61
336.526	44.41
336.991	55.31
337.456	61.51
337.921	54.81
338.386	48.81
338.851	51.51
339.316	55.11
339.781	47.91
340.246	52.81
340.711	52.31
341.175	55.41
341.64	45.91
342.105	48.41
342.569	56.61
343.034	65.31
343.499	56.11
343.963	52.61
344.428	70.41
344.893	65.91
345.357	65.81
345.822	61.51
346.286	73.31
346.751	78.61
347.215	76.21
347.679	83.31
348.144	102.81
348.608	86.21
349.073	78.51
349.537	83.41
350.001	90.61
350.465	92.11
350.93	88.41
351.394	89.71
351.858	76.61
352.322	91.51
352.786	86.41
353.25	104.71
353.715	116.11
354.179	98.51
354.643	125.51
355.107	133.61
355.571	112.71
356.035	115.61
356.498	122.91
356.962	134.51
357.426	132.11
357.89	124.51
358.354	92.01
358.818	84.71
359.281	77.31
359.745	82.01
360.209	81.51
360.673	81.91
361.136	88.01
361.6	93.51
362.064	84.21
362.527	91.31
362.991	89.61
363.454	84.41
363.918	79.21
364.381	83.71
364.845	87.91
365.308	85.11
365.772	93.61
366.235	86.31
366.698	89.91
367.162	94.21
367.625	92.61
368.088	94.61
368.552	91.81
369.015	97.81
369.478	103.21
369.941	109.51
370.404	97.01
370.867	110.51
371.331	112.51
371.794	124.91
372.257	113.61
372.72	120.81
373.183	112.11
373.646	106.81
374.109	107.71
374.572	109.11
375.035	114.31
375.497	115.61
375.96	108.41
376.423	102.11
376.886	111.61
377.349	117.01
377.811	104.51
378.274	115.41
378.737	109.51
379.199	112.61
379.662	116.71
380.125	123.41
380.587	123.21
381.05	123.51
381.512	129.01
381.975	133.21
382.437	138.31
382.9	125.41
383.362	133.81
383.825	146.71
384.287	156.81
384.75	145.01
385.212	146.31
385.674	145.61
386.136	140.21
386.599	130.81
387.061	133.71
387.523	133.91
387.985	140.01
388.447	144.71
388.91	149.11
389.372	167.31
389.834	159.91
390.296	151.51
390.758	158.81
391.22	166.81
391.682	214.41
392.144	295.01
392.606	238.81
393.068	176.41
393.529	173.41
393.991	156.71
394.453	157.11
394.915	161.61
395.377	198.41
395.838	217.31
396.3	156.51
396.762	148.01
397.224	138.81
397.685	136.81
398.147	137.51
398.608	132.71
399.07	137.81
399.531	141.91
399.993	155.71
400.454	157.21
400.916	149.91
401.377	151.31
401.839	154.71
402.3	146.81
402.762	167.21
403.223	185.61
403.684	179.01
404.145	171.91
404.607	166.91
405.068	172.11
405.529	177.41
405.99	198.11
406.451	181.21
406.913	172.31
407.374	169.11
407.835	169.71
408.296	175.91
408.757	176.71
409.218	192.01
409.679	181.81
410.14	179.21
410.601	182.61
411.062	188.41
411.522	201.61
411.983	194.51
412.444	180.31
412.905	186.91
413.366	190.51
413.826	195.51
414.287	229.21
414.748	270.11
415.208	250.41
415.669	217.11
416.13	216.71
416.59	206.11
417.051	214.91
417.511	220.91
417.972	240.41
418.432	259.71
418.893	305.11
419.353	261.51
419.814	202.41
420.274	187.91
420.734	189.61
421.195	202.41
421.655	202.91
422.115	202.21
422.576	200.31
423.036	204.71
423.496	214.61
423.956	219.41
424.416	236.81
424.876	281.91
425.336	272.01
425.797	271.21
426.257	260.21
426.717	253.61
427.177	236.21
427.637	235.41
428.097	245.01
428.556	252.91
429.016	280.01
429.476	270.31
429.936	285.91
430.396	290.41
430.856	297.81
431.315	332.01
431.775	361.41
432.235	397.81
432.694	373.21
433.154	373.01
433.614	406.01
434.073	348.01
434.533	292.81
434.993	277.81
435.452	293.01
435.912	303.91
436.371	300.11
436.83	289.41
437.29	279.61
437.749	259.31
438.209	260.31
438.668	283.01
439.127	298.41
439.587	267.41
440.046	256.21
440.505	267.71
440.964	282.71
441.424	334.01
441.883	328.21
442.342	272.01
442.801	236.21
443.26	219.21
443.719	229.11
444.178	230.41
444.637	217.71
445.096	226.01
445.555	227.61
446.014	227.81
446.473	233.51
446.932	237.91
447.391	231.71
447.849	237.71
448.308	228.61
448.767	229.01
449.226	244.61
449.685	243.91
450.143	251.91
450.602	251.31
451.061	236.01
451.519	241.61
451.978	234.71
452.436	245.21
452.895	244.91
453.353	266.81
453.812	252.51
454.27	246.31
454.729	247.31
455.187	238.61
455.646	252.81
456.104	246.61
456.562	257.61
457.021	279.01
457.479	273.71
457.937	281.21
458.395	273.91
458.854	256.51
459.312	270.41
459.77	285.91
460.228	266.41
460.686	246.11
461.144	256.01
461.602	256.41
462.06	250.61
462.518	256.81
462.976	265.51
463.434	262.41
463.892	273.91
464.35	283.21
464.808	298.81
465.266	275.91
465.724	279.11
466.181	281.31
466.639	280.21
467.097	303.91
467.555	301.81
468.012	309.21
468.47	316.61
468.928	341.61
469.385	357.01
469.843	366.81
470.3	358.81
470.758	380.51
471.215	394.51
471.673	426.91
472.13	415.81
472.588	430.91
473.045	388.41
473.503	387.41
473.96	405.91
474.417	411.71
474.875	449.21
475.332	484.41
475.789	476.61
476.246	480.11
476.704	493.41
477.161	524.61
477.618	540.41
478.075	588.41
478.532	634.11
478.989	714.41
479.446	828.91
479.903	800.41
480.36	843.11
480.817	888.91
481.274	982.11
481.731	1105.81
482.188	1192.71
482.645	1332.91
483.102	1455.21
483.558	1590.51
484.015	1631.91
484.472	1621.91
484.929	1572.21
485.385	1510.31
485.842	1462.81
486.299	1405.11
486.755	1343.81
487.212	1129.01
487.668	957.21
488.125	884.71
488.582	807.21
489.038	768.81
489.494	730.21
489.951	707.81
490.407	695.01
490.864	672.41
491.32	667.01
491.776	663.71
492.233	671.61
492.689	623.11
493.145	617.91
493.602	614.41
494.058	627.71
494.514	631.61
494.97	656.11
495.426	667.01
495.882	654.01
496.338	629.41
496.794	637.81
497.251	633.91
497.707	660.61
498.163	666.21
498.618	670.41
499.074	670.01
499.53	703.71
499.986	699.01
500.442	671.71
500.898	650.31
501.354	641.81
501.809	652.11
502.265	658.01
502.721	680.61
503.177	691.51
503.632	686.21
504.088	682.31
504.543	726.41
504.999	736.71
505.455	674.41
505.91	648.51
506.366	659.81
506.821	645.61
507.277	644.51
507.732	638.71
508.187	642.71
508.643	653.31
509.098	652.51
509.553	676.91
510.009	690.01
510.464	690.61
510.919	694.81
511.375	710.61
511.83	725.91
512.285	740.21
512.74	777.91
513.195	808.41
513.65	788.21
514.105	784.81
514.56	788.61
515.015	819.01
515.47	824.91
515.925	807.91
516.38	821.91
516.835	814.71
517.29	803.61
517.745	790.61
518.2	789.71
518.655	767.41
519.109	769.71
519.564	763.11
520.019	750.01
520.474	751.71
520.928	740.91
521.383	741.31
521.838	731.01
522.292	731.01
522.747	726.91
523.201	719.61
523.656	724.41
524.11	718.21
524.565	715.31
525.019	703.41
525.474	720.71
525.928	722.01
526.382	716.81
526.837	715.81
527.291	725.91
527.745	719.71
528.2	720.81
528.654	711.31
529.108	711.41
529.562	714.31
530.016	714.71
530.47	702.71
530.925	709.11
531.379	714.21
531.833	720.21
532.287	728.01
532.741	722.81
533.195	716.71
533.649	730.61
534.103	736.91
534.556	730.61
535.01	731.11
535.464	729.31
535.918	732.31
536.372	734.51
536.826	734.11
537.279	721.11
537.733	735.01
538.187	734.31
538.64	728.91
539.094	734.01
539.548	750.61
540.001	740.11
540.455	745.21
540.908	745.61
541.362	755.81
541.815	759.61
542.269	771.21
542.722	763.31
543.175	781.31
543.629	787.81
544.082	803.51
544.536	810.31
544.989	794.11
545.442	814.41
545.895	801.41
546.349	808.41
546.802	807.91
547.255	815.71
547.708	834.41
548.161	839.01
548.614	833.71
549.067	857.01
549.52	837.41
549.973	836.71
550.426	823.31
550.879	815.21
551.332	814.71
551.785	832.71
552.238	830.11
552.691	836.21
553.144	842.41
553.596	872.31
554.049	895.51
554.502	918.21
554.955	936.21
555.407	922.01
555.86	911.31
556.313	907.61
556.765	905.51
557.218	903.41
557.67	899.01
558.123	891.81
558.576	897.71
559.028	894.21
559.48	905.81
559.933	887.91
560.385	853.61
560.838	824.91
561.29	803.11
561.742	792.91
562.195	781.31
562.647	776.01
563.099	794.61
563.551	793.41
564.004	810.21
564.456	788.71
564.908	772.91
565.36	759.31
565.812	752.91
566.264	733.21
566.716	734.71
567.168	721.81
567.62	733.71
568.072	706.11
568.524	701.01
568.976	702.81
569.428	687.71
569.88	687.41
570.332	688.81
570.784	690.61
571.235	699.51
571.687	713.21
572.139	714.21
572.59	724.11
573.042	716.51
573.494	721.71
573.945	727.91
574.397	699.21
574.849	704.91
575.3	706.31
575.752	700.31
576.203	689.71
576.655	699.21
577.106	682.81
577.557	674.01
578.009	678.91
578.46	664.11
578.912	679.31
579.363	678.21
579.814	681.61
580.265	671.61
580.717	676.61
581.168	688.31
581.619	685.11
582.07	689.01
582.521	682.81
582.972	685.41
583.423	684.71
583.875	692.91
584.326	708.21
584.777	759.51
585.227	821.01
585.678	914.41
586.129	998.01
586.58	1074.41
587.031	1154.71
587.482	1317.51
587.933	1482.71
588.384	1307.01
588.834	989.21
589.285	808.21
589.736	796.01
590.186	791.31
590.637	770.31
591.088	753.41
591.538	747.31
591.989	740.21
592.439	742.21
592.89	718.71
593.34	718.61
593.791	714.71
594.241	709.21
594.692	721.01
595.142	707.61
595.593	703.51
596.043	717.71
596.493	719.81
596.943	721.01
597.394	724.71
597.844	715.91
598.294	736.01
598.744	745.41
599.195	784.91
599.645	826.21
600.095	860.41
600.545	931.51
600.995	981.81
601.445	1018.61
601.895	1096.91
602.345	1139.51
602.795	1118.71
603.245	1079.51
603.695	1021.11
604.145	967.11
604.594	929.31
605.044	872.21
605.494	810.01
605.944	762.51
606.393	738.91
606.843	727.21
607.293	736.31
607.743	733.61
608.192	749.61
608.642	765.01
609.091	763.31
609.541	774.51
609.99	776.21
610.44	767.41
610.889	720.41
611.339	712.21
611.788	687.81
612.238	702.11
612.687	722.41
613.136	726.21
613.586	740.31
614.035	743.01
614.484	754.11
614.933	754.31
615.383	754.71
615.832	738.01
616.281	730.51
616.73	684.71
617.179	676.91
617.628	653.41
618.077	633.31
618.526	625.81
618.975	621.11
619.424	624.71
619.873	616.61
620.322	618.21
620.771	610.11
621.22	605.71
621.669	595.31
622.118	589.91
622.567	587.81
623.015	566.51
623.464	579.21
623.913	558.31
624.361	551.61
624.81	558.41
625.259	561.51
625.707	550.81
626.156	553.21
626.604	569.81
627.053	566.31
627.501	565.91
627.95	568.41
628.398	579.81
628.847	564.41
629.295	569.91
629.744	575.71
630.192	565.71
630.64	567.81
631.089	571.91
631.537	576.81
631.985	575.01
632.433	601.61
632.881	604.21
633.33	661.71
633.778	643.61
634.226	562.41
634.674	579.51
635.122	588.71
635.57	599.41
636.018	622.81
636.466	579.61
636.914	555.11
637.362	572.71
637.81	569.51
638.258	580.41
638.705	577.41
639.153	600.51
639.601	614.61
640.049	646.11
640.497	669.31
640.944	697.41
641.392	650.61
641.84	617.61
642.287	595.01
642.735	570.01
643.182	567.51
643.63	573.01
644.078	570.71
644.525	597.11
644.973	588.31
645.42	593.41
645.867	621.61
646.315	642.81
646.762	661.31
647.21	698.91
647.657	715.01
648.104	742.51
648.551	764.21
648.999	830.21
649.446	909.61
649.893	1003.11
650.34	1141.31
650.787	1374.71
651.234	1717.11
651.682	2236.11
652.129	3049.51
652.576	4396.21
653.023	6486.21
653.47	8855.71
653.917	11132.71
654.363	12887.31
654.81	14288.81
655.257	13582.41
655.704	8882.81
656.151	5248.01
656.598	3408.71
657.044	2405.91
657.491	1868.01
657.938	1480.21
658.385	1241.11
658.831	1074.21
659.278	948.01
659.724	853.61
660.171	790.61
660.618	720.51
661.064	689.31
661.511	664.11
661.957	658.71
662.404	640.41
662.85	643.21
663.296	627.21
663.743	562.41
664.189	526.61
664.635	529.71
665.082	522.61
665.528	531.41
665.974	519.31
666.42	506.41
666.867	494.81
667.313	490.21
667.759	473.81
668.205	480.61
668.651	483.01
669.097	480.41
669.543	493.71
669.989	471.81
670.435	454.11
670.881	442.11
671.327	453.41
671.773	461.81
672.219	480.01
672.665	549.41
673.11	578.71
673.556	623.61
674.002	661.61
674.448	655.41
674.893	542.61
675.339	469.81
675.785	443.51
676.23	418.31
676.676	387.91
677.122	378.51
677.567	368.31
678.013	370.71
678.458	362.81
678.904	361.11
679.349	338.21
679.794	349.91
680.24	348.31
680.685	348.91
681.131	347.31
681.576	343.11
682.021	347.51
682.466	341.01
682.912	341.71
683.357	346.51
683.802	381.01
684.247	407.01
684.692	440.91
685.137	486.11
685.583	517.91
686.028	554.81
686.473	510.01
686.918	447.41
687.363	412.01
687.807	390.71
688.252	359.31
688.697	351.51
689.142	333.01
689.587	337.51
690.032	333.21
690.477	337.61
690.921	346.71
691.366	385.11
691.811	403.61
692.255	426.61
692.7	448.41
693.145	487.11
693.589	664.41
694.034	1099.41
694.478	1512.91
694.923	1717.81
695.367	2245.41
695.812	1175.61
696.256	488.41
696.701	373.41
697.145	335.51
697.59	326.91
698.034	322.31
698.478	327.01
698.922	320.21
699.367	325.81
699.811	331.61
700.255	351.21
700.699	381.01
701.143	417.01
701.588	470.51
702.032	510.51
702.476	512.11
702.92	485.11
703.364	491.71
703.808	612.01
704.252	1000.01
704.696	1420.41
705.14	1633.71
705.584	2103.41
706.027	1044.51
706.471	521.21
706.915	390.51
707.359	344.81
707.803	322.41
708.246	308.71
708.69	303.21
709.134	312.71
709.577	310.51
710.021	313.51
710.465	305.11
710.908	297.31
711.352	299.51
711.795	306.61
712.239	342.01
712.682	379.51
713.126	415.41
713.569	470.71
714.012	359.91
714.456	317.01
714.899	295.21
715.342	271.81
715.786	255.51
716.229	259.41
716.672	261.51
717.115	245.61
717.558	246.21
718.002	246.31
718.445	263.71
718.888	285.41
719.331	287.91
719.774	308.51
720.217	292.71
720.66	286.41
721.103	262.01
721.546	252.11
721.989	247.11
722.432	230.41
722.874	232.51
723.317	227.61
723.76	230.51
724.203	252.51
724.645	308.41
725.088	437.41
725.531	554.21
725.974	640.41
726.416	538.11
726.859	298.41
727.301	240.61
727.744	240.91
728.187	230.51
728.629	237.11
729.071	238.71
729.514	258.31
729.956	268.11
730.399	277.41
730.841	279.71
731.283	266.81
731.726	257.81
732.168	260.11
732.61	251.91
733.053	277.51
733.495	303.11
733.937	343.41
734.379	395.11
734.821	422.51
735.263	525.71
735.705	800.61
736.148	1514.91
736.59	2514.41
737.032	3004.31
737.474	2453.31
737.916	793.81
738.357	423.91
738.799	320.21
739.241	293.21
739.683	278.71
740.125	284.41
740.567	296.21
741.008	314.41
741.45	305.51
741.892	305.11
742.334	342.31
742.775	349.71
743.217	340.61
743.658	261.01
744.1	248.51
744.542	253.21
744.983	304.51
745.425	343.11
745.866	338.21
746.307	274.21
746.749	271.01
747.19	314.21
747.632	436.71
748.073	838.11
748.514	1792.61
748.956	2773.71
749.397	3467.31
749.838	2915.01
750.279	2919.71
750.72	1477.01
751.162	527.51
751.603	312.21
752.044	242.01
752.485	214.11
752.926	207.41
753.367	203.41
753.808	183.71
754.249	187.11
754.69	183.31
755.131	181.61
755.572	171.61
756.013	175.41
756.453	177.81
756.894	184.71
757.335	190.81
757.776	196.21
758.216	199.11
758.657	200.01
759.098	200.11
759.538	223.91
759.979	264.51
760.42	353.71
760.86	678.61
761.301	1730.11
761.741	4267.91
762.182	6358.81
762.622	4484.21
763.063	1288.41
763.503	530.91
763.943	341.31
764.384	332.81
764.824	386.11
765.264	421.11
765.705	296.11
766.145	200.61
766.585	184.51
767.025	179.71
767.465	184.71
767.906	239.51
768.346	309.01
768.786	339.31
769.226	254.81
769.666	309.61
770.106	591.71
770.546	1489.61
770.986	2593.21
771.426	2338.81
771.866	780.31
772.306	332.51
772.745	213.31
773.185	174.61
773.625	164.91
774.065	160.01
774.505	185.71
774.944	294.91
775.384	629.21
775.824	1170.81
776.263	1143.71
776.703	487.51
777.142	217.41
777.582	150.01
778.021	131.41
778.461	138.31
778.9	139.01
779.34	130.11
779.779	112.81
780.219	103.61
780.658	111.61
781.097	114.21
781.537	112.31
781.976	112.81
782.415	106.51
782.855	102.11
783.294	101.91
783.733	107.41
784.172	107.01
784.611	105.81
785.05	111.81
785.489	110.61
785.928	113.31
786.367	117.11
786.806	114.31
787.245	130.81
787.684	130.61
788.123	141.61
788.562	131.01
789.001	128.21
789.44	122.01
789.879	116.31
790.317	120.21
790.756	119.11
791.195	123.71
791.634	144.31
792.072	197.81
792.511	354.51
792.95	948.61
793.388	2093.91
793.827	1935.31
794.265	666.31
794.704	275.61
795.142	175.51
795.581	146.21
796.019	130.71
796.458	129.51
796.896	119.11
797.334	130.21
797.773	146.11
798.211	211.11
798.649	417.91
799.087	982.71
799.526	1543.91
799.964	1960.91
800.402	1982.91
800.84	741.21
801.278	297.21
801.716	179.31
802.154	154.51
802.592	142.51
803.03	139.71
803.468	134.01
803.906	141.01
804.344	151.61
804.782	140.01
805.22	136.51
805.658	135.91
806.096	140.31
806.533	147.21
806.971	170.51
807.409	209.91
807.847	306.51
808.284	629.21
808.722	1801.91
809.16	3222.91
809.597	3011.21
810.035	5258.31
810.472	5705.41
810.91	2059.61
811.347	775.51
811.785	399.51
812.222	252.11
812.66	193.81
813.097	162.51
813.535	136.71
813.972	119.01
814.409	118.71
814.846	107.71
815.284	108.31
815.721	98.81
816.158	108.81
816.595	118.01
817.032	171.11
817.47	188.31
817.907	176.01
818.344	143.21
818.781	107.91
819.218	96.41
819.655	112.61
820.092	182.21
820.529	213.21
820.966	175.41
821.403	129.51
821.839	112.31
822.276	100.61
822.713	123.01
823.15	127.61
823.587	117.71
824.023	142.81
824.46	285.81
824.897	862.61
825.333	1328.21
825.77	569.01
826.206	220.41
826.643	128.81
827.08	98.91
827.516	85.01
827.953	77.41
828.389	75.31
828.825	72.51
829.262	68.11
829.698	61.61
830.135	58.81
830.571	58.71
831.007	64.51
831.443	65.41
831.88	57.81
832.316	56.41
832.752	64.81
833.188	64.91
833.624	63.71
834.06	66.91
834.497	62.41
834.933	70.31
835.369	73.61
835.805	67.01
836.241	73.61
836.677	77.71
837.112	86.41
837.548	97.61
837.984	129.21
838.42	193.11
838.856	468.21
839.292	1451.21
839.727	2258.31
840.163	1043.51
840.599	882.11
841.034	1963.01
841.47	2106.81
841.906	769.91
842.341	320.91
842.777	220.51
843.212	308.11
843.648	302.61
844.083	151.81
844.519	93.11
844.954	77.71
845.39	62.01
845.825	56.51
846.261	58.91
846.696	52.61
847.131	51.91
847.566	52.91
848.002	55.91
848.437	52.81
848.872	62.21
849.307	62.81
849.742	87.81
850.177	176.81
850.613	533.81
851.048	871.51
851.483	377.61
851.918	155.41
852.353	84.11
852.788	56.41
853.223	57.61
853.657	55.71
854.092	44.01
854.527	47.01
854.962	44.71
855.397	46.21
855.832	49.91
856.266	41.01
856.701	40.71
857.136	38.51
857.57	43.81
858.005	53.41
858.44	58.71
858.874	41.71
859.309	53.51
859.743	38.11
860.178	45.41
860.612	40.31
861.047	54.11
861.481	64.31
861.915	76.91
862.35	51.61
862.784	33.71
863.218	38.21
863.653	33.91
864.087	47.11
864.521	55.11
864.955	70.21
865.39	154.01
865.824	168.31
866.258	101.91
866.692	160.91
867.126	167.11
867.56	98.51
867.994	53.31
868.428	39.51
868.862	47.91
869.296	55.01
869.73	56.71
870.164	53.51
870.598	49.21
871.031	38.91
871.465	33.71
871.899	33.11
872.333	21.21
872.766	24.01
873.2	21.31
873.634	32.81
874.067	22.01
874.501	26.21
874.935	29.31
875.368	26.81
875.802	24.51
876.235	33.61
876.669	23.51
877.102	23.61
877.535	31.31
877.969	24.01
878.402	25.91
878.836	27.01
879.269	22.51
879.702	28.81
880.135	24.11
880.569	24.71
881.002	25.21
881.435	20.31
881.868	15.11
882.301	24.31
882.734	14.11
883.167	19.81
883.601	16.51
884.034	23.51
884.467	15.21
884.899	17.91
885.332	15.11
885.765	15.31
886.198	16.01
886.631	11.51
887.064	18.51
887.497	20.41
887.929	27.11
888.362	14.01
888.795	17.71
889.228	18.31
889.66	22.01
890.093	22.71
890.526	15.61
890.958	15.11
891.391	15.11
891.823	27.71
892.256	16.91
892.688	11.01
893.121	9.91
893.553	12.81
893.985	27.61
894.418	17.71
894.85	12.31
895.282	17.41
895.715	16.31
896.147	19.21
896.579	15.01
897.011	15.81
897.444	19.51
897.876	11.41
898.308	15.61
898.74	14.01
899.172	17.51
899.604	24.21
900.036	16.51
900.468	10.71
900.9	14.51
901.332	17.81
901.764	15.61
902.196	16.01
902.628	20.31
903.06	19.71
903.491	30.61
903.923	21.81
904.355	21.51
904.787	25.01
905.218	25.41
905.65	16.71
906.082	13.51
906.513	11.91
906.945	16.11
907.376	19.41
907.808	12.21
908.239	22.61
908.671	26.11
909.102	22.61
909.534	23.11
909.965	43.11
910.397	92.01
910.828	303.71
911.259	467.81
911.691	205.31
912.122	106.51
912.553	47.91
912.984	36.51
913.415	25.51
913.847	18.11
914.278	14.61
914.709	22.91
915.14	23.31
915.571	23.21
916.002	13.71
916.433	25.31
916.864	24.61
917.295	7.71
917.726	15.41
918.157	21.01
918.587	20.81
919.018	23.71
919.449	16.51
919.88	25.01
920.311	34.01
920.741	42.71
921.172	167.41
921.603	147.01
922.033	69.21
922.464	39.11
922.895	20.11
923.325	24.61
923.756	18.01
924.186	17.31
924.617	31.11
925.047	42.51
925.478	50.11
925.908	47.31
926.338	24.41
926.769	20.41
927.199	18.61
927.629	9.91
928.06	18.71
928.49	11.51
928.92	9.81
929.35	9.11
929.78	10.81
930.21	8.91
930.641	9.51
931.071	12.11
931.501	6.41
931.931	9.71
932.361	13.91
932.791	3.11
933.221	6.81
933.651	4.71
934.08	15.61
934.51	30.81
934.94	9.21
935.37	12.11
935.8	13.01
936.229	16.11
936.659	3.91
937.089	9.51
937.519	14.21
937.948	17.01
938.378	16.51
938.807	2.91
939.237	6.01
939.666	9.41
940.096	-1.69
940.525	-1.09
940.955	0.01
941.384	-1.79
941.814	-7.49
942.243	1.91
942.672	0.81
943.102	-1.49
943.531	2.71
943.96	2.71
944.39	3.31
944.819	-0.79
945.248	1.91
945.677	1.01
946.106	2.31
946.535	5.41
946.964	-0.59
947.393	2.01
947.822	4.11
948.251	-2.79
948.68	7.41
949.109	10.61
949.538	3.51
949.967	9.01
950.396	-0.29
950.825	-4.49
951.254	4.61
951.682	-3.69
952.111	3.71
952.54	7.41
952.969	-5.59
953.397	-6.19
953.826	3.51
954.254	-4.99
954.683	5.91
955.112	-0.29
955.54	6.81
955.969	1.11
956.397	0.91
956.826	-5.39
957.254	11.71
957.682	-3.49
958.111	4.41
958.539	0.41
958.967	-4.49
959.396	0.61
959.824	-1.29
960.252	-0.29
960.68	-6.39
961.109	2.71
961.537	-2.89
961.965	-3.49
962.393	4.81
962.821	-0.99
963.249	6.51
963.677	-1.49
964.105	4.21
964.533	47.61
964.961	46.31
965.389	21.51
965.817	9.61
966.245	1.51
966.672	-2.29
967.1	-4.39
967.528	5.31
967.956	-1.99
968.383	6.01
968.811	0.41
969.239	0.61
969.666	-5.19
970.094	3.51
970.522	3.31
970.949	5.01
971.377	2.41
971.804	-0.09
972.232	-6.79
972.659	1.61
973.087	-0.49
973.514	-1.29
973.941	-1.59
974.369	2.01
974.796	3.21
975.223	2.81
975.651	3.31
976.078	-5.09
976.505	0.51
976.932	1.31
977.359	13.51
977.786	13.71
978.214	-3.19
978.641	-0.69
979.068	-2.69
979.495	-6.79
979.922	1.21
980.349	2.91
980.776	6.31
981.202	-0.99
981.629	3.81
982.056	5.11
982.483	3.71
982.91	8.01
983.337	-10.79
983.763	2.11
984.19	-3.39
984.617	-7.49
985.043	-7.29
985.47	-1.09
985.897	-2.19
986.323	-3.99
986.75	4.41
987.176	5.41
987.603	-4.49
988.029	-2.59
988.456	-1.09
988.882	1.81
989.308	-1.39
989.735	-6.39
990.161	7.21
990.587	-3.79
991.014	6.21
991.44	6.81
991.866	2.41
992.292	-1.29
992.719	-2.59
993.145	6.61
993.571	-7.49
993.997	2.61
994.423	1.61
994.849	-4.29
995.275	-1.29
995.701	-4.29
996.127	-6.09
996.553	3.31
996.979	-1.59
997.405	1.61
997.83	-10.49
998.256	-6.69
998.682	-4.39
999.108	-7.79
999.534	-3.39
999.959	-0.39
1000.385	-4.39
1000.811	-2.59
1001.236	-4.89
1001.662	-3.99
1002.087	-10.69
1002.513	-0.69
1002.938	0.31
1003.364	-1.59
1003.789	-6.69
1004.215	5.31
1004.64	-2.39
1005.066	-0.29
1005.491	-3.39
1005.916	-2.79
1006.342	-0.99
1006.767	-6.09
1007.192	11.51
1007.617	-3.29
1008.042	-7.99
1008.468	-12.99
1008.893	-2.79
1009.318	-0.89
1009.743	-6.29
1010.168	6.01
1010.593	1.21
1011.018	-6.49
1011.443	-4.39
1011.868	-0.19
1012.293	-4.49
1012.718	-6.39
1013.143	1.11
1013.567	-0.59
1013.992	-1.29
1014.417	-12.39
1014.842	6.51
1015.267	-4.19
1015.691	-4.39
1016.116	1.01
1016.541	1.21
1016.965	0.31
1017.39	-0.49
1017.814	-0.79
1018.239	-5.29
1018.663	-2.69
1019.088	-11.89
1019.512	-1.79
1019.937	-0.59
1020.361	-1.79
1020.785	-8.29
1021.21	-5.19
1021.634	0.21
1022.058	0.01
1022.483	4.31
1022.907	-4.49
1023.331	-7.19
1023.755	-5.59
1024.179	-3.69
1024.604	0.11
1025.028	-5.29
1025.452	-8.89
1025.876	-2.49
1026.3	3.51
1026.724	-13.09
1027.148	-4.79
1027.572	-10.69
1027.996	-3.69
1028.42	-5.39
1028.843	-1.59
1029.267	-9.79
1029.691	-2.79
1030.115	-1.59
1030.539	-9.19
1030.962	-3.49
1031.386	-8.19
1031.81	-1.29
1032.233	-0.09
1032.657	-2.79
1033.08	-2.09
1033.504	-2.29
1033.927	0.71
1034.351	-0.89
1034.774	-2.99
1035.198	-4.99
1035.621	-5.99
1036.045	-7.49
1036.468	0.21
1036.891	-7.89
1037.315	-3.79
1037.738	-10.49
1038.161	-2.89
1038.584	-7.19
1039.008	-8.69
1039.431	-1.99
1039.854	0.11
1040.277	-13.69
1040.7	-8.59
1041.123	0.21
1041.546	-7.09
1041.969	-5.69
1042.392	-7.09
1042.815	-0.59
1043.238	1.21
1043.661	5.21
1044.084	-0.19
1044.507	-5.99
1044.93	-7.89
1045.352	-0.79
1045.775	-10.09
1046.198	2.21
1046.621	-5.29
1047.043	-0.19
1047.466	3.41
1047.889	-3.49
1048.311	-3.39
1048.734	-4.89
1049.156	0.21
1049.579	2.11
1050.001	-3.19
1050.424	-6.99
1050.846	-1.09
1051.269	-2.49
1051.691	-7.69
1052.113	0.31
1052.536	2.51
1052.958	-0.89
1053.38	-5.49
1053.802	-13.59
1054.225	1.91
1054.647	-6.59
1055.069	-8.89
1055.491	4.31
1055.913	-0.09
1056.335	2.61
1056.757	-5.49
1057.179	-6.99
1057.601	-6.09
1058.023	-9.09
1058.445	-0.79
1058.867	-1.79
1059.289	-0.59
1059.711	-13.49
1060.133	-4.39
1060.555	-7.49
1060.976	-7.09
1061.398	-0.29
1061.82	-13.19
1062.241	-1.79
1062.663	-7.09
1063.085	-3.49
1063.506	-2.99
1063.928	-2.59
1064.35	-0.29
1064.771	-15.59
1065.193	-2.89
1065.614	-10.09
1066.035	-4.79
1066.457	-4.39
1066.878	2.01
1067.3	-6.39
1067.721	0.71
1068.142	3.21
1068.564	0.21
1068.985	0.31
1069.406	-3.89
1069.827	-5.99
1070.248	-2.59
1070.67	-2.69
1071.091	-8.29
1071.512	-5.19
1071.933	-3.69
1072.354	-7.89
1072.775	-10.59
1073.196	-8.49
1073.617	-2.49
1074.038	-6.19
1074.459	5.71
1074.88	-6.79
1075.3	3.01
1075.721	-4.79
1076.142	0.61
1076.563	-0.59
1076.983	-7.59
1077.404	-9.69
1077.825	-12.89
1078.246	-5.89
1078.666	-6.89
1079.087	-4.69
1079.507	-11.59
1079.928	-4.89
1080.348	-1.69
1080.769	-6.09
1081.189	-4.49
1081.61	-4.09
1082.03	-2.69
1082.451	-4.19
1082.871	-7.09
1083.291	-4.49
1083.711	-7.79
1084.132	-4.69
1084.552	-6.89
1084.972	-1.29
1085.392	-7.39
1085.813	-10.19
1086.233	-3.69
1086.653	-1.79
1087.073	-2.39
1087.493	-2.79
1087.913	-4.19
1088.333	-7.49
1088.753	-5.89
1089.173	0.61
1089.593	-1.59
1090.013	2.41
1090.433	-0.59
1090.852	-2.39
1091.272	-0.09
1091.692	0.71
1092.112	-6.99
1092.531	-10.19
1092.951	-14.49
1093.371	-8.59
1093.79	-1.29
1094.21	-4.59
1094.63	-4.69
1095.049	0.71
1095.469	-0.69
1095.888	-5.69
1096.308	2.71
1096.727	2.51
1097.146	-12.19
1097.566	-1.49
1097.985	-6.29
1098.405	-3.69
1098.824	-3.99
1099.243	-5.09
1099.662	-5.99
1100.082	4.11
1100.501	0.11
1100.92	-5.39
1101.339	-4.69
1101.758	-8.39
