Data from 20171114-ORNL-Ar_H_NY_Subt18_08-09-21-230.txt Node
Date: Tue Nov 14 08:09:21 EST 2017
User: Ender
Spectrometer: HR+D1039
Trigger mode: 0
Integration Time (sec): 2.730000E-2
Scans to average: 10
Electric dark correction enabled: true
Nonlinearity correction enabled: false
Boxcar width: 0
XAxis mode: Wavelengths
Number of Pixels in Spectrum: 2048
>>>>>Begin Spectral Data<<<<<
187.836	0.72
188.309	0.72
188.782	0.72
189.255	5.42
189.728	-3.28
190.201	-1.08
190.674	3.82
191.147	3.02
191.619	-4.78
192.092	1.02
192.565	2.42
193.038	-3.48
193.511	2.32
193.984	-1.58
194.456	2.02
194.929	-1.28
195.402	-3.48
195.874	-1.78
196.347	3.82
196.82	-4.58
197.292	7.42
197.765	2.32
198.237	-9.48
198.71	0.52
199.182	-4.48
199.655	5.62
200.127	1.92
200.6	-0.38
201.072	-1.18
201.544	-5.58
202.017	-0.28
202.489	4.12
202.961	-0.98
203.433	-6.48
203.906	-6.48
204.378	-4.38
204.85	-6.78
205.322	-9.28
205.794	-0.08
206.266	-4.58
206.739	-7.58
207.211	-2.08
207.683	-2.28
208.155	-11.18
208.627	-11.68
209.099	-1.28
209.57	-8.98
210.042	-7.08
210.514	-7.18
210.986	-5.18
211.458	-7.08
211.93	-5.38
212.402	2.32
212.873	-6.08
213.345	-9.28
213.817	-12.28
214.288	-1.28
214.76	-13.88
215.232	-10.88
215.703	-7.08
216.175	2.82
216.646	-9.58
217.118	-8.28
217.589	-8.88
218.061	-3.98
218.532	-11.88
219.004	-3.58
219.475	-2.18
219.946	-3.88
220.418	-5.88
220.889	0.62
221.36	-1.48
221.832	-5.38
222.303	-4.08
222.774	0.92
223.245	-11.78
223.717	-4.38
224.188	-6.88
224.659	-5.08
225.13	-5.28
225.601	-2.38
226.072	-0.78
226.543	-7.98
227.014	-1.68
227.485	-7.58
227.956	-10.18
228.427	-9.48
228.898	-4.08
229.369	4.12
229.839	-3.98
230.31	-8.18
230.781	-7.38
231.252	-2.38
231.722	-9.38
232.193	-12.08
232.664	-5.98
233.135	-7.58
233.605	-3.38
234.076	-11.48
234.546	-4.58
235.017	2.72
235.487	-5.38
235.958	-7.18
236.428	-5.98
236.899	-3.98
237.369	-2.18
237.84	-8.38
238.31	-3.08
238.78	-3.28
239.251	-9.28
239.721	-6.78
240.191	-5.08
240.662	-4.98
241.132	-4.58
241.602	-6.58
242.072	-7.88
242.542	-0.18
243.013	-8.48
243.483	0.72
243.953	-3.08
244.423	-9.18
244.893	-8.28
245.363	-0.38
245.833	-4.08
246.303	-10.18
246.773	2.32
247.243	1.22
247.712	-3.38
248.182	4.62
248.652	-3.78
249.122	-6.58
249.592	-5.88
250.061	-3.28
250.531	0.72
251.001	-1.18
251.471	-2.38
251.94	1.92
252.41	-0.28
252.879	-5.98
253.349	9.82
253.818	3.32
254.288	0.82
254.757	-4.38
255.227	-9.58
255.696	-2.38
256.166	-8.28
256.635	-2.78
257.105	-4.88
257.574	-5.78
258.043	-1.08
258.513	-6.18
258.982	-2.48
259.451	-5.38
259.92	0.42
260.389	2.02
260.859	1.72
261.328	-5.78
261.797	8.62
262.266	1.22
262.735	1.42
263.204	0.12
263.673	-3.78
264.142	3.72
264.611	-7.08
265.08	-5.08
265.549	-8.18
266.018	-1.48
266.487	-9.68
266.955	-7.68
267.424	-8.98
267.893	0.02
268.362	-3.08
268.83	-0.88
269.299	1.92
269.768	-2.78
270.236	2.02
270.705	-6.08
271.174	2.72
271.642	0.02
272.111	1.52
272.579	-5.18
273.048	-3.98
273.516	1.12
273.985	-7.88
274.453	0.22
274.922	7.62
275.39	6.32
275.858	-5.78
276.327	1.22
276.795	5.52
277.263	2.52
277.731	7.22
278.2	1.72
278.668	0.92
279.136	0.12
279.604	-3.58
280.072	10.22
280.54	7.42
281.008	0.92
281.477	4.92
281.945	5.42
282.413	7.52
282.881	10.52
283.348	-6.28
283.816	6.02
284.284	1.82
284.752	13.42
285.22	11.42
285.688	9.92
286.156	8.12
286.623	9.22
287.091	3.12
287.559	6.52
288.026	8.92
288.494	6.62
288.962	-5.68
289.429	2.72
289.897	17.72
290.364	4.22
290.832	6.52
291.3	5.62
291.767	7.22
292.234	9.42
292.702	2.32
293.169	4.32
293.637	4.52
294.104	9.62
294.571	1.72
295.039	7.62
295.506	7.52
295.973	2.42
296.44	9.02
296.908	6.62
297.375	4.32
297.842	3.42
298.309	6.82
298.776	5.52
299.243	8.32
299.71	3.42
300.177	12.32
300.644	11.02
301.111	10.62
301.578	14.12
302.045	5.02
302.512	9.22
302.979	17.02
303.446	15.62
303.913	12.12
304.379	11.12
304.846	20.52
305.313	12.32
305.78	15.42
306.246	9.92
306.713	14.92
307.18	12.12
307.646	10.32
308.113	20.82
308.579	11.72
309.046	15.62
309.512	15.32
309.979	6.82
310.445	11.62
310.912	23.42
311.378	15.32
311.845	16.22
312.311	18.52
312.777	16.92
313.244	19.12
313.71	21.82
314.176	15.22
314.642	16.02
315.109	14.82
315.575	20.12
316.041	22.72
316.507	16.92
316.973	17.12
317.439	21.12
317.905	24.52
318.371	28.12
318.837	24.32
319.303	18.42
319.769	20.02
320.235	17.02
320.701	19.72
321.167	20.52
321.633	22.52
322.099	18.52
322.564	27.82
323.03	22.82
323.496	20.62
323.962	25.72
324.427	20.82
324.893	31.22
325.359	22.52
325.824	27.52
326.29	23.82
326.755	23.62
327.221	23.62
327.686	27.62
328.152	36.42
328.617	25.72
329.083	30.62
329.548	35.82
330.014	29.72
330.479	22.02
330.944	29.22
331.41	27.72
331.875	29.02
332.34	29.02
332.805	24.12
333.271	31.92
333.736	23.72
334.201	36.12
334.666	32.62
335.131	39.22
335.596	35.22
336.061	36.32
336.526	33.42
336.991	33.72
337.456	37.12
337.921	31.42
338.386	30.92
338.851	33.52
339.316	28.62
339.781	33.12
340.246	38.12
340.711	30.32
341.175	32.32
341.64	36.62
342.105	32.82
342.569	44.22
343.034	44.72
343.499	50.52
343.963	38.82
344.428	48.32
344.893	43.22
345.357	42.82
345.822	45.32
346.286	52.22
346.751	51.12
347.215	51.22
347.679	47.22
348.144	70.02
348.608	58.22
349.073	49.02
349.537	58.22
350.001	53.62
350.465	71.72
350.93	59.82
351.394	52.22
351.858	55.02
352.322	65.92
352.786	60.62
353.25	74.62
353.715	77.12
354.179	70.42
354.643	82.22
355.107	89.72
355.571	69.12
356.035	71.72
356.498	79.32
356.962	79.32
357.426	87.92
357.89	77.22
358.354	75.62
358.818	65.52
359.281	60.12
359.745	53.52
360.209	63.72
360.673	54.12
361.136	62.32
361.6	68.22
362.064	68.92
362.527	67.22
362.991	68.22
363.454	66.22
363.918	58.02
364.381	64.32
364.845	67.12
365.308	68.32
365.772	72.92
366.235	73.32
366.698	56.82
367.162	68.22
367.625	67.72
368.088	69.52
368.552	70.82
369.015	68.82
369.478	75.22
369.941	79.22
370.404	75.12
370.867	77.82
371.331	80.32
371.794	84.92
372.257	75.12
372.72	85.02
373.183	78.32
373.646	79.22
374.109	83.32
374.572	78.62
375.035	81.22
375.497	79.82
375.96	87.22
376.423	85.12
376.886	87.82
377.349	91.72
377.811	79.42
378.274	84.22
378.737	81.92
379.199	91.32
379.662	86.52
380.125	95.52
380.587	85.92
381.05	88.52
381.512	90.12
381.975	103.42
382.437	100.12
382.9	92.82
383.362	104.42
383.825	108.62
384.287	101.92
384.75	98.42
385.212	103.82
385.674	107.92
386.136	105.62
386.599	103.02
387.061	103.62
387.523	102.22
387.985	104.32
388.447	119.12
388.91	105.62
389.372	112.42
389.834	107.82
390.296	110.92
390.758	112.12
391.22	114.42
391.682	126.02
392.144	127.62
392.606	126.62
393.068	122.82
393.529	134.12
393.991	118.52
394.453	117.42
394.915	117.52
395.377	112.72
395.838	115.42
396.3	113.62
396.762	119.62
397.224	113.62
397.685	116.12
398.147	114.82
398.608	115.82
399.07	106.72
399.531	120.72
399.993	127.92
400.454	134.42
400.916	128.62
401.377	125.62
401.839	128.62
402.3	134.52
402.762	146.02
403.223	153.92
403.684	154.22
404.145	147.42
404.607	146.12
405.068	141.22
405.529	149.62
405.99	163.32
406.451	154.12
406.913	159.22
407.374	155.92
407.835	149.22
408.296	144.52
408.757	154.22
409.218	168.22
409.679	158.02
410.14	154.32
410.601	154.32
411.062	159.22
411.522	158.72
411.983	163.72
412.444	151.12
412.905	165.82
413.366	174.72
413.826	185.02
414.287	205.12
414.748	243.62
415.208	229.42
415.669	202.02
416.13	195.62
416.59	193.82
417.051	208.32
417.511	203.42
417.972	220.02
418.432	229.72
418.893	266.72
419.353	236.62
419.814	185.52
420.274	172.32
420.734	174.02
421.195	185.02
421.655	173.02
422.115	182.32
422.576	185.12
423.036	189.62
423.496	192.72
423.956	209.22
424.416	212.42
424.876	246.82
425.336	238.92
425.797	240.72
426.257	238.62
426.717	227.02
427.177	215.72
427.637	203.02
428.097	215.02
428.556	231.22
429.016	251.82
429.476	240.92
429.936	254.42
430.396	248.22
430.856	259.12
431.315	291.52
431.775	309.52
432.235	336.42
432.694	322.72
433.154	328.42
433.614	352.22
434.073	306.92
434.533	257.02
434.993	254.22
435.452	258.22
435.912	267.52
436.371	262.62
436.83	257.62
437.29	245.92
437.749	239.22
438.209	225.22
438.668	250.82
439.127	270.92
439.587	242.72
440.046	228.12
440.505	238.62
440.964	246.62
441.424	293.22
441.883	277.82
442.342	245.22
442.801	211.32
443.26	212.62
443.719	210.02
444.178	208.42
444.637	201.82
445.096	218.62
445.555	218.32
446.014	219.32
446.473	224.22
446.932	219.82
447.391	219.82
447.849	224.82
448.308	211.62
448.767	212.22
449.226	234.52
449.685	232.62
450.143	241.12
450.602	226.82
451.061	216.22
451.519	223.72
451.978	216.32
452.436	224.32
452.895	225.52
453.353	234.72
453.812	237.92
454.27	232.82
454.729	228.72
455.187	233.32
455.646	234.32
456.104	241.32
456.562	257.32
457.021	256.92
457.479	252.62
457.937	258.52
458.395	253.52
458.854	239.52
459.312	250.12
459.77	267.02
460.228	249.52
460.686	239.02
461.144	241.02
461.602	231.52
462.06	237.82
462.518	255.62
462.976	253.12
463.434	253.82
463.892	259.22
464.35	265.22
464.808	276.32
465.266	263.62
465.724	268.52
466.181	268.72
466.639	260.32
467.097	283.02
467.555	290.62
468.012	298.02
468.47	293.12
468.928	322.32
469.385	335.62
469.843	337.22
470.3	335.32
470.758	347.52
471.215	376.02
471.673	387.52
472.13	391.52
472.588	400.32
473.045	362.72
473.503	370.42
473.96	386.52
474.417	390.32
474.875	423.92
475.332	458.82
475.789	444.72
476.246	458.92
476.704	471.62
477.161	481.92
477.618	501.72
478.075	541.02
478.532	582.92
478.989	642.32
479.446	755.12
479.903	721.32
480.36	751.22
480.817	789.82
481.274	877.82
481.731	963.22
482.188	1045.32
482.645	1154.92
483.102	1235.22
483.558	1341.92
484.015	1379.22
484.472	1358.82
484.929	1317.52
485.385	1284.12
485.842	1249.92
486.299	1210.92
486.755	1163.02
487.212	1002.02
487.668	853.42
488.125	799.32
488.582	741.62
489.038	710.62
489.494	671.52
489.951	653.52
490.407	634.72
490.864	614.42
491.32	619.22
491.776	617.72
492.233	622.72
492.689	599.72
493.145	584.42
493.602	585.92
494.058	596.62
494.514	599.02
494.97	612.92
495.426	629.72
495.882	594.02
496.338	593.52
496.794	604.62
497.251	587.82
497.707	616.22
498.163	610.82
498.618	620.82
499.074	624.52
499.53	644.72
499.986	648.22
500.442	618.32
500.898	605.32
501.354	596.32
501.809	606.62
502.265	598.82
502.721	618.32
503.177	617.22
503.632	623.22
504.088	636.12
504.543	644.92
504.999	672.62
505.455	635.62
505.91	625.42
506.366	631.82
506.821	625.12
507.277	615.62
507.732	615.62
508.187	615.72
508.643	630.52
509.098	622.62
509.553	648.32
510.009	660.02
510.464	655.22
510.919	681.62
511.375	683.02
511.83	693.32
512.285	699.42
512.74	732.12
513.195	767.12
513.65	750.22
514.105	752.82
514.56	751.82
515.015	771.12
515.47	781.62
515.925	761.62
516.38	769.32
516.835	771.42
517.29	759.42
517.745	757.32
518.2	747.42
518.655	734.42
519.109	733.72
519.564	738.22
520.019	717.72
520.474	715.52
520.928	708.82
521.383	714.62
521.838	703.52
522.292	712.32
522.747	700.12
523.201	698.92
523.656	692.52
524.11	699.52
524.565	672.52
525.019	684.92
525.474	689.52
525.928	697.42
526.382	677.82
526.837	682.92
527.291	691.82
527.745	685.32
528.2	683.92
528.654	679.52
529.108	672.32
529.562	686.52
530.016	675.52
530.47	677.62
530.925	671.12
531.379	687.62
531.833	685.82
532.287	685.52
532.741	685.12
533.195	683.72
533.649	701.42
534.103	704.32
534.556	692.42
535.01	695.82
535.464	692.52
535.918	695.72
536.372	701.22
536.826	709.22
537.279	689.52
537.733	702.92
538.187	700.82
538.64	709.52
539.094	706.62
539.548	714.32
540.001	714.52
540.455	722.12
540.908	721.22
541.362	740.72
541.815	736.22
542.269	758.42
542.722	747.72
543.175	753.22
543.629	760.92
544.082	774.12
544.536	775.32
544.989	779.12
545.442	784.02
545.895	781.22
546.349	779.42
546.802	782.72
547.255	796.12
547.708	805.92
548.161	808.72
548.614	814.02
549.067	825.12
549.52	809.32
549.973	803.72
550.426	801.02
550.879	797.82
551.332	797.02
551.785	804.12
552.238	800.62
552.691	816.82
553.144	843.72
553.596	858.92
554.049	853.42
554.502	896.22
554.955	908.72
555.407	906.82
555.86	897.22
556.313	879.32
556.765	875.12
557.218	870.62
557.67	871.32
558.123	869.92
558.576	869.12
559.028	870.12
559.48	870.82
559.933	876.82
560.385	830.72
560.838	808.72
561.29	786.22
561.742	785.82
562.195	780.12
562.647	758.42
563.099	772.62
563.551	768.92
564.004	771.92
564.456	762.22
564.908	761.52
565.36	744.52
565.812	732.52
566.264	719.12
566.716	712.02
567.168	707.22
567.62	707.92
568.072	687.62
568.524	688.62
568.976	680.52
569.428	671.32
569.88	670.52
570.332	686.22
570.784	694.32
571.235	690.22
571.687	698.42
572.139	705.12
572.59	706.52
573.042	710.52
573.494	712.92
573.945	707.02
574.397	691.62
574.849	683.12
575.3	686.72
575.752	683.72
576.203	685.42
576.655	679.72
577.106	673.42
577.557	657.92
578.009	661.52
578.46	670.42
578.912	657.82
579.363	655.22
579.814	663.42
580.265	658.12
580.717	661.42
581.168	666.12
581.619	675.62
582.07	674.82
582.521	671.02
582.972	670.32
583.423	676.92
583.875	670.22
584.326	676.62
584.777	694.92
585.227	718.82
585.678	720.62
586.129	734.92
586.58	754.82
587.031	763.52
587.482	799.02
587.933	813.42
588.384	798.92
588.834	777.52
589.285	772.42
589.736	761.82
590.186	769.72
590.637	767.92
591.088	752.42
591.538	736.92
591.989	732.92
592.439	727.92
592.89	712.12
593.34	708.12
593.791	701.72
594.241	700.52
594.692	692.72
595.142	702.22
595.593	689.52
596.043	704.62
596.493	698.12
596.943	712.52
597.394	716.52
597.844	719.32
598.294	741.22
598.744	761.32
599.195	779.82
599.645	829.52
600.095	878.72
600.545	923.32
600.995	989.12
601.445	1031.02
601.895	1085.72
602.345	1146.62
602.795	1117.02
603.245	1068.72
603.695	1021.62
604.145	961.82
604.594	919.92
605.044	872.32
605.494	806.32
605.944	760.62
606.393	751.12
606.843	734.52
607.293	732.52
607.743	726.72
608.192	737.32
608.642	753.02
609.091	761.72
609.541	766.02
609.99	757.32
610.44	767.02
610.889	718.12
611.339	691.02
611.788	682.22
612.238	688.62
612.687	697.42
613.136	690.82
613.586	707.32
614.035	700.72
614.484	712.52
614.933	707.52
615.383	707.62
615.832	705.72
616.281	707.52
616.73	680.62
617.179	664.12
617.628	643.62
618.077	636.52
618.526	625.42
618.975	624.12
619.424	628.72
619.873	618.42
620.322	615.02
620.771	610.22
621.22	609.12
621.669	599.22
622.118	583.72
622.567	582.12
623.015	565.92
623.464	575.32
623.913	563.02
624.361	559.82
624.81	556.42
625.259	556.22
625.707	558.12
626.156	554.02
626.604	579.82
627.053	561.32
627.501	564.62
627.95	569.82
628.398	585.92
628.847	574.22
629.295	577.62
629.744	586.02
630.192	563.22
630.64	568.42
631.089	550.92
631.537	542.52
631.985	529.32
632.433	531.42
632.881	530.22
633.33	535.12
633.778	526.72
634.226	538.52
634.674	543.52
635.122	546.42
635.57	550.12
636.018	563.52
636.466	563.72
636.914	559.92
637.362	581.42
637.81	583.32
638.258	594.92
638.705	585.72
639.153	616.72
639.601	623.62
640.049	647.62
640.497	676.52
640.944	698.22
641.392	647.42
641.84	620.22
642.287	581.02
642.735	556.42
643.182	561.02
643.63	563.42
644.078	557.52
644.525	569.92
644.973	581.92
645.42	590.12
645.867	623.42
646.315	633.22
646.762	663.42
647.21	690.62
647.657	703.42
648.104	737.22
648.551	759.52
648.999	818.12
649.446	881.72
649.893	973.62
650.34	1108.82
650.787	1330.02
651.234	1633.22
651.682	2108.92
652.129	2860.12
652.576	4069.32
653.023	5931.72
653.47	8002.72
653.917	9834.22
654.363	11256.42
654.81	12368.42
655.257	11705.42
655.704	7772.62
656.151	4657.32
656.598	3056.32
657.044	2191.32
657.491	1715.62
657.938	1383.32
658.385	1167.52
658.831	1024.82
659.278	918.02
659.724	824.62
660.171	770.12
660.618	705.52
661.064	672.92
661.511	656.22
661.957	646.02
662.404	633.22
662.85	640.92
663.296	612.92
663.743	566.02
664.189	536.52
664.635	536.82
665.082	529.12
665.528	521.12
665.974	520.62
666.42	510.22
666.867	509.02
667.313	481.62
667.759	469.52
668.205	451.42
668.651	449.42
669.097	452.02
669.543	454.42
669.989	448.22
670.435	453.72
670.881	450.32
671.327	457.02
671.773	475.42
672.219	495.42
672.665	554.42
673.11	600.72
673.556	643.12
674.002	680.42
674.448	673.82
674.893	566.42
675.339	487.82
675.785	455.62
676.23	422.22
676.676	400.82
677.122	397.52
677.567	374.52
678.013	368.22
678.458	368.92
678.904	368.22
679.349	353.52
679.794	357.12
680.24	354.52
680.685	353.52
681.131	354.62
681.576	355.52
682.021	364.82
682.466	352.22
682.912	347.72
683.357	356.12
683.802	389.72
684.247	424.62
684.692	473.32
685.137	513.32
685.583	547.72
686.028	578.82
686.473	529.62
686.918	459.72
687.363	423.82
687.807	401.12
688.252	368.82
688.697	362.32
689.142	349.12
689.587	341.02
690.032	332.32
690.477	350.32
690.921	366.82
691.366	394.82
691.811	409.12
692.255	448.52
692.7	481.82
693.145	526.62
693.589	751.62
694.034	1205.42
694.478	1626.92
694.923	1774.72
695.367	2287.32
695.812	1231.32
696.256	512.82
696.701	383.12
697.145	350.22
697.59	343.92
698.034	324.72
698.478	327.02
698.922	323.52
699.367	328.02
699.811	345.22
700.255	358.82
700.699	390.72
701.143	435.22
701.588	481.92
702.032	523.12
702.476	525.52
702.92	502.52
703.364	515.22
703.808	689.22
704.252	1119.02
704.696	1528.32
705.14	1717.22
705.584	2174.92
706.027	1108.62
706.471	541.92
706.915	421.12
707.359	358.42
707.803	333.32
708.246	317.32
708.69	317.82
709.134	323.02
709.577	321.32
710.021	324.52
710.465	311.02
710.908	310.22
711.352	310.92
711.795	315.02
712.239	357.72
712.682	393.42
713.126	412.52
713.569	463.22
714.012	367.22
714.456	310.32
714.899	299.72
715.342	281.02
715.786	271.52
716.229	261.02
716.672	267.62
717.115	255.82
717.558	259.52
718.002	261.82
718.445	268.72
718.888	289.92
719.331	299.12
719.774	312.22
720.217	307.52
720.66	285.22
721.103	271.32
721.546	261.32
721.989	255.02
722.432	237.42
722.874	243.42
723.317	236.92
723.76	242.92
724.203	264.42
724.645	332.22
725.088	466.72
725.531	592.02
725.974	654.32
726.416	554.82
726.859	313.62
727.301	253.72
727.744	255.42
728.187	240.82
728.629	245.72
729.071	245.42
729.514	271.22
729.956	280.52
730.399	287.82
730.841	294.22
731.283	288.82
731.726	281.72
732.168	271.42
732.61	282.52
733.053	298.02
733.495	327.82
733.937	358.82
734.379	417.52
734.821	463.72
735.263	577.22
735.705	910.72
736.148	1722.82
736.59	2728.12
737.032	3103.92
737.474	2568.92
737.916	845.02
738.357	444.82
738.799	349.62
739.241	304.32
739.683	292.12
740.125	302.92
740.567	307.42
741.008	317.32
741.45	320.82
741.892	330.62
742.334	361.22
742.775	374.02
743.217	351.42
743.658	286.82
744.1	265.42
744.542	281.22
744.983	323.82
745.425	356.42
745.866	345.72
746.307	287.52
746.749	284.12
747.19	341.52
747.632	491.52
748.073	992.62
748.514	2016.82
748.956	2987.22
749.397	3765.42
749.838	3113.02
750.279	3034.92
750.72	1544.92
751.162	580.92
751.603	339.32
752.044	266.62
752.485	219.32
752.926	219.22
753.367	206.22
753.808	197.12
754.249	196.22
754.69	187.12
755.131	186.32
755.572	186.32
756.013	188.62
756.453	194.32
756.894	197.82
757.335	200.02
757.776	206.32
758.216	196.12
758.657	208.82
759.098	219.52
759.538	240.02
759.979	277.72
760.42	403.52
760.86	795.12
761.301	2054.12
761.741	4780.42
762.182	6562.12
762.622	4625.52
763.063	1374.52
763.503	559.72
763.943	336.32
764.384	269.32
764.824	246.82
765.264	230.92
765.705	207.22
766.145	183.22
766.585	180.22
767.025	167.62
767.465	169.62
767.906	175.52
768.346	193.22
768.786	193.52
769.226	221.12
769.666	327.52
770.106	684.32
770.546	1715.62
770.986	2727.72
771.426	2392.92
771.866	816.22
772.306	339.42
772.745	206.12
773.185	174.42
773.625	163.92
774.065	156.22
774.505	170.22
774.944	211.72
775.384	380.72
775.824	588.22
776.263	561.12
776.703	278.32
777.142	164.22
777.582	139.92
778.021	128.42
778.461	123.92
778.9	128.42
779.34	121.82
779.779	117.32
780.219	107.82
780.658	100.62
781.097	111.72
781.537	116.42
781.976	108.32
782.415	101.92
782.855	107.42
783.294	103.62
783.733	107.62
784.172	105.12
784.611	106.42
785.05	105.92
785.489	112.32
785.928	121.02
786.367	128.62
786.806	114.12
787.245	129.92
787.684	133.72
788.123	151.02
788.562	135.52
789.001	132.02
789.44	121.32
789.879	116.72
790.317	121.32
790.756	129.62
791.195	134.42
791.634	151.82
792.072	215.22
792.511	393.42
792.95	1105.72
793.388	2214.52
793.827	1939.52
794.265	689.72
794.704	290.02
795.142	185.02
795.581	156.72
796.019	140.52
796.458	130.12
796.896	129.12
797.334	137.72
797.773	168.62
798.211	234.82
798.649	482.32
799.087	1102.12
799.526	1698.12
799.964	2137.72
800.402	2038.82
800.84	789.62
801.278	315.92
801.716	198.92
802.154	161.32
802.592	149.52
803.03	147.92
803.468	143.22
803.906	151.62
804.344	150.22
804.782	151.42
805.22	131.92
805.658	137.52
806.096	155.22
806.533	160.02
806.971	182.82
807.409	231.52
807.847	348.02
808.284	747.52
808.722	2030.62
809.16	3463.52
809.597	3413.62
810.035	5783.02
810.472	5897.22
810.91	2182.02
811.347	849.02
811.785	427.02
812.222	270.52
812.66	203.62
813.097	174.12
813.535	145.32
813.972	133.82
814.409	124.12
814.846	112.42
815.284	114.22
815.721	105.52
816.158	103.82
816.595	116.02
817.032	154.72
817.47	180.82
817.907	128.62
818.344	99.62
818.781	98.72
819.218	99.32
819.655	127.22
820.092	195.32
820.529	226.82
820.966	188.12
821.403	127.72
821.839	97.52
822.276	100.32
822.713	130.22
823.15	137.72
823.587	121.92
824.023	159.62
824.46	339.22
824.897	970.02
825.333	1381.82
825.77	601.22
826.206	243.42
826.643	138.12
827.08	102.72
827.516	86.92
827.953	76.12
828.389	84.42
828.825	77.52
829.262	77.12
829.698	65.32
830.135	64.42
830.571	62.42
831.007	59.02
831.443	64.92
831.88	57.72
832.316	65.32
832.752	62.02
833.188	68.92
833.624	58.42
834.06	70.42
834.497	68.22
834.933	69.12
835.369	76.52
835.805	65.92
836.241	81.62
836.677	82.12
837.112	90.22
837.548	109.22
837.984	134.02
838.42	211.92
838.856	542.82
839.292	1623.42
839.727	2362.52
840.163	1120.72
840.599	1009.42
841.034	2162.02
841.47	2151.02
841.906	806.32
842.341	346.52
842.777	207.22
843.212	204.12
843.648	188.82
844.083	103.82
844.519	84.72
844.954	68.32
845.39	55.52
845.825	57.62
846.261	57.32
846.696	55.92
847.131	51.22
847.566	53.72
848.002	54.72
848.437	54.82
848.872	64.62
849.307	65.12
849.742	87.42
850.177	198.42
850.613	596.02
851.048	902.82
851.483	392.02
851.918	160.02
852.353	84.02
852.788	51.12
853.223	47.42
853.657	51.82
854.092	50.12
854.527	40.72
854.962	41.72
855.397	46.92
855.832	49.02
856.266	46.22
856.701	45.92
857.136	38.12
857.57	43.52
858.005	49.12
858.44	62.22
858.874	44.42
859.309	47.82
859.743	39.92
860.178	43.92
860.612	42.02
861.047	56.02
861.481	72.02
861.915	70.42
862.35	52.12
862.784	34.22
863.218	36.52
863.653	33.92
864.087	45.52
864.521	52.72
864.955	71.22
865.39	162.32
865.824	177.82
866.258	123.22
866.692	179.42
867.126	185.22
867.56	109.12
867.994	54.82
868.428	40.12
868.862	52.92
869.296	53.92
869.73	62.42
870.164	56.82
870.598	57.02
871.031	41.02
871.465	32.82
871.899	27.92
872.333	25.72
872.766	17.02
873.2	23.32
873.634	30.12
874.067	24.72
874.501	22.72
874.935	38.42
875.368	31.62
875.802	29.12
876.235	26.92
876.669	24.12
877.102	18.62
877.535	24.32
877.969	16.72
878.402	22.92
878.836	18.12
879.269	23.62
879.702	26.62
880.135	23.52
880.569	16.82
881.002	27.32
881.435	18.42
881.868	16.12
882.301	21.92
882.734	14.92
883.167	20.72
883.601	20.02
884.034	24.72
884.467	14.02
884.899	19.02
885.332	13.82
885.765	14.82
886.198	15.32
886.631	13.32
887.064	25.42
887.497	21.82
887.929	22.52
888.362	12.02
888.795	18.02
889.228	18.62
889.66	21.02
890.093	13.62
890.526	14.62
890.958	14.52
891.391	16.62
891.823	16.62
892.256	12.82
892.688	9.72
893.121	10.72
893.553	10.12
893.985	20.82
894.418	16.12
894.85	10.92
895.282	14.42
895.715	16.32
896.147	17.12
896.579	17.62
897.011	15.42
897.444	19.32
897.876	12.42
898.308	10.32
898.74	19.12
899.172	12.72
899.604	24.22
900.036	18.92
900.468	9.92
900.9	17.72
901.332	21.32
901.764	12.12
902.196	20.72
902.628	20.02
903.06	16.92
903.491	29.62
903.923	25.32
904.355	23.52
904.787	19.92
905.218	28.02
905.65	23.72
906.082	12.92
906.513	13.62
906.945	13.12
907.376	14.12
907.808	19.22
908.239	13.02
908.671	17.12
909.102	22.42
909.534	26.32
909.965	50.02
910.397	98.22
910.828	328.22
911.259	483.52
911.691	228.82
912.122	121.72
912.553	55.52
912.984	30.62
913.415	30.12
913.847	25.42
914.278	17.32
914.709	11.42
915.14	20.62
915.571	14.62
916.002	13.32
916.433	19.82
916.864	14.32
917.295	17.32
917.726	21.82
918.157	19.02
918.587	27.52
919.018	23.82
919.449	18.42
919.88	27.62
920.311	33.22
920.741	53.62
921.172	170.62
921.603	152.62
922.033	66.42
922.464	51.02
922.895	24.92
923.325	18.02
923.756	7.32
924.186	9.62
924.617	16.92
925.047	17.72
925.478	26.12
925.908	22.12
926.338	11.12
926.769	13.72
927.199	15.12
927.629	12.12
928.06	13.12
928.49	11.02
928.92	12.32
929.35	12.82
929.78	9.12
930.21	12.92
930.641	9.72
931.071	1.82
931.501	3.32
931.931	7.52
932.361	8.92
932.791	4.12
933.221	4.52
933.651	-1.38
934.08	18.02
934.51	30.32
934.94	11.12
935.37	8.42
935.8	9.42
936.229	7.42
936.659	8.52
937.089	-4.78
937.519	8.82
937.948	24.52
938.378	16.22
938.807	3.42
939.237	7.02
939.666	8.42
940.096	-3.98
940.525	2.22
940.955	0.12
941.384	3.22
941.814	-3.78
942.243	0.62
942.672	-2.08
943.102	-5.78
943.531	-2.38
943.96	6.32
944.39	3.12
944.819	-1.88
945.248	3.12
945.677	5.92
946.106	2.22
946.535	3.92
946.964	-1.88
947.393	1.42
947.822	-2.68
948.251	-0.88
948.68	6.62
949.109	7.52
949.538	5.42
949.967	-0.38
950.396	-7.18
950.825	2.62
951.254	-1.78
951.682	-3.28
952.111	1.72
952.54	9.62
952.969	-8.08
953.397	-9.48
953.826	7.22
954.254	-8.58
954.683	3.62
955.112	-4.28
955.54	-2.98
955.969	-1.38
956.397	0.22
956.826	-3.48
957.254	-1.18
957.682	3.22
958.111	6.82
958.539	-6.58
958.967	3.62
959.396	-2.68
959.824	7.42
960.252	0.12
960.68	-3.98
961.109	-3.08
961.537	-2.48
961.965	-3.18
962.393	0.82
962.821	-8.98
963.249	1.52
963.677	5.62
964.105	7.22
964.533	43.82
964.961	35.22
965.389	22.72
965.817	4.62
966.245	1.52
966.672	-4.38
967.1	-8.88
967.528	-3.08
967.956	-7.78
968.383	-1.28
968.811	-2.48
969.239	-2.18
969.666	-3.68
970.094	-1.38
970.522	-4.58
970.949	-5.18
971.377	-10.78
971.804	-2.88
972.232	-2.18
972.659	-0.78
973.087	-0.08
973.514	1.22
973.941	-4.68
974.369	-0.18
974.796	-2.58
975.223	-3.98
975.651	-5.18
976.078	7.72
976.505	-0.08
976.932	0.82
977.359	13.52
977.786	18.02
978.214	-5.28
978.641	-3.08
979.068	-4.28
979.495	-5.98
979.922	-1.98
980.349	-5.08
980.776	1.02
981.202	-9.18
981.629	6.12
982.056	5.62
982.483	1.02
982.91	-2.78
983.337	-6.38
983.763	0.82
984.19	-3.78
984.617	-2.48
985.043	-2.98
985.47	-3.58
985.897	0.92
986.323	-5.38
986.75	1.02
987.176	3.32
987.603	0.42
988.029	-6.08
988.456	-5.08
988.882	2.52
989.308	-5.28
989.735	-6.38
990.161	-1.28
990.587	-2.58
991.014	-1.38
991.44	4.12
991.866	-5.78
992.292	-2.38
992.719	-1.88
993.145	0.32
993.571	-10.48
993.997	-5.28
994.423	0.12
994.849	-6.28
995.275	1.92
995.701	-2.38
996.127	0.22
996.553	2.52
996.979	-0.08
997.405	-1.38
997.83	-2.58
998.256	-12.18
998.682	-7.38
999.108	-7.78
999.534	1.32
999.959	-3.78
1000.385	-8.98
1000.811	0.22
1001.236	-14.68
1001.662	-12.58
1002.087	-11.18
1002.513	1.02
1002.938	2.12
1003.364	2.62
1003.789	-1.18
1004.215	-2.38
1004.64	-3.38
1005.066	3.82
1005.491	2.02
1005.916	-1.58
1006.342	-1.08
1006.767	-4.58
1007.192	2.62
1007.617	-4.28
1008.042	-4.68
1008.468	-2.88
1008.893	-3.48
1009.318	-1.38
1009.743	-6.48
1010.168	0.82
1010.593	0.52
1011.018	-9.68
1011.443	-2.58
1011.868	5.22
1012.293	-7.78
1012.718	-6.18
1013.143	-0.98
1013.567	-7.28
1013.992	-5.58
1014.417	-13.58
1014.842	2.82
1015.267	-5.08
1015.691	-5.68
1016.116	1.62
1016.541	-4.98
1016.965	2.52
1017.39	-2.08
1017.814	-1.08
1018.239	-2.18
1018.663	-8.48
1019.088	-10.68
1019.512	-8.98
1019.937	-1.38
1020.361	-5.28
1020.785	-12.98
1021.21	-6.88
1021.634	-0.58
1022.058	-4.48
1022.483	2.72
1022.907	-5.28
1023.331	-9.08
1023.755	-7.98
1024.179	-3.48
1024.604	-9.28
1025.028	-7.78
1025.452	-7.28
1025.876	-2.38
1026.3	-4.88
1026.724	-9.88
1027.148	-4.68
1027.572	-7.08
1027.996	-5.88
1028.42	0.22
1028.843	-8.28
1029.267	-8.48
1029.691	-7.28
1030.115	-12.08
1030.539	-10.88
1030.962	-9.48
1031.386	-9.08
1031.81	-2.58
1032.233	-0.08
1032.657	-0.98
1033.08	-3.28
1033.504	-4.18
1033.927	-2.68
1034.351	-3.88
1034.774	-7.58
1035.198	-0.68
1035.621	-9.48
1036.045	-8.48
1036.468	-6.88
1036.891	-11.68
1037.315	-16.78
1037.738	-8.68
1038.161	-4.18
1038.584	-10.88
1039.008	-4.68
1039.431	-5.28
1039.854	-4.78
1040.277	-9.48
1040.7	-9.08
1041.123	-2.28
1041.546	-6.18
1041.969	-2.68
1042.392	-6.58
1042.815	-3.58
1043.238	0.42
1043.661	-1.68
1044.084	-10.58
1044.507	-13.38
1044.93	-5.38
1045.352	-4.98
1045.775	-4.68
1046.198	-3.48
1046.621	-4.88
1047.043	-3.58
1047.466	7.62
1047.889	-1.88
1048.311	-2.98
1048.734	-4.08
1049.156	-0.58
1049.579	-3.28
1050.001	-7.98
1050.424	3.42
1050.846	-6.08
1051.269	-2.68
1051.691	-10.68
1052.113	-1.48
1052.536	0.22
1052.958	-2.08
1053.38	-4.48
1053.802	-8.58
1054.225	-4.78
1054.647	-9.88
1055.069	-4.58
1055.491	6.52
1055.913	-5.48
1056.335	-0.48
1056.757	-8.98
1057.179	-0.68
1057.601	-5.28
1058.023	-0.58
1058.445	-7.88
1058.867	-11.58
1059.289	-10.28
1059.711	-2.48
1060.133	-1.88
1060.555	-8.88
1060.976	-8.18
1061.398	-8.58
1061.82	-10.28
1062.241	-11.78
1062.663	-10.58
1063.085	-7.48
1063.506	-5.38
1063.928	-9.08
1064.35	1.42
1064.771	-12.38
1065.193	-5.68
1065.614	-8.58
1066.035	-2.98
1066.457	-8.98
1066.878	-6.88
1067.3	-7.58
1067.721	-11.38
1068.142	-4.48
1068.564	-2.78
1068.985	-5.58
1069.406	-8.08
1069.827	-15.68
1070.248	2.92
1070.67	-10.28
1071.091	-5.58
1071.512	-2.68
1071.933	-7.88
1072.354	-10.78
1072.775	-10.38
1073.196	-12.58
1073.617	-4.68
1074.038	-13.48
1074.459	-1.98
1074.88	-10.68
1075.3	-1.68
1075.721	-4.08
1076.142	-1.38
1076.563	-2.98
1076.983	-9.78
1077.404	-7.68
1077.825	-10.48
1078.246	-7.38
1078.666	-15.08
1079.087	-7.38
1079.507	-8.58
1079.928	-3.58
1080.348	-1.98
1080.769	-3.48
1081.189	-2.48
1081.61	-2.68
1082.03	-8.68
1082.451	-8.98
1082.871	-8.08
1083.291	-7.38
1083.711	-11.98
1084.132	-7.08
1084.552	-9.38
1084.972	-4.28
1085.392	-11.28
1085.813	-14.48
1086.233	-9.68
1086.653	-8.08
1087.073	-3.08
1087.493	-8.38
1087.913	-5.48
1088.333	-11.18
1088.753	-8.58
1089.173	1.32
1089.593	-1.78
1090.013	2.62
1090.433	2.02
1090.852	-3.68
1091.272	-4.48
1091.692	-3.48
1092.112	-5.68
1092.531	-2.58
1092.951	-13.78
1093.371	-2.48
1093.79	-2.58
1094.21	-11.38
1094.63	-6.38
1095.049	-7.18
1095.469	-5.38
1095.888	-6.18
1096.308	-5.08
1096.727	1.02
1097.146	-7.38
1097.566	-4.98
1097.985	-8.98
1098.405	-4.78
1098.824	-7.28
1099.243	-6.58
1099.662	-12.88
1100.082	-6.88
1100.501	-2.78
1100.92	-11.28
1101.339	-7.48
1101.758	-6.78
