Data from 20171114-ORNL-Ar_H_NY_Subt18_08-08-20-024.txt Node
Date: Tue Nov 14 08:08:20 EST 2017
User: Ender
Spectrometer: HR+D1039
Trigger mode: 0
Integration Time (sec): 2.730000E-2
Scans to average: 10
Electric dark correction enabled: true
Nonlinearity correction enabled: false
Boxcar width: 0
XAxis mode: Wavelengths
Number of Pixels in Spectrum: 2048
>>>>>Begin Spectral Data<<<<<
187.836	-5.13
188.309	-5.13
188.782	-5.13
189.255	-0.13
189.728	0.57
190.201	6.97
190.674	-0.23
191.147	4.37
191.619	-6.23
192.092	1.17
192.565	0.37
193.038	2.97
193.511	0.77
193.984	2.47
194.456	-3.93
194.929	-1.83
195.402	-5.83
195.874	3.67
196.347	-8.63
196.82	-4.73
197.292	5.67
197.765	1.17
198.237	-8.53
198.71	0.07
199.182	-5.13
199.655	5.27
200.127	-0.13
200.6	-6.13
201.072	-0.33
201.544	-5.33
202.017	0.57
202.489	3.87
202.961	3.37
203.433	1.57
203.906	-1.93
204.378	-4.63
204.85	-3.63
205.322	-6.13
205.794	-3.93
206.266	-0.63
206.739	-4.63
207.211	8.57
207.683	-6.13
208.155	-3.13
208.627	-5.33
209.099	-1.73
209.57	-8.13
210.042	-6.03
210.514	-4.13
210.986	-6.63
211.458	-10.43
211.93	-0.83
212.402	-1.83
212.873	-0.83
213.345	-0.63
213.817	-10.23
214.288	-6.13
214.76	-8.43
215.232	-2.13
215.703	-0.53
216.175	2.57
216.646	-7.93
217.118	-9.63
217.589	0.57
218.061	0.87
218.532	-2.53
219.004	-6.33
219.475	-5.63
219.946	-7.63
220.418	-10.63
220.889	-2.13
221.36	1.27
221.832	-2.93
222.303	-6.73
222.774	-0.53
223.245	-4.93
223.717	-3.63
224.188	-6.03
224.659	-5.93
225.13	-5.13
225.601	-4.73
226.072	0.17
226.543	0.67
227.014	3.17
227.485	1.77
227.956	-6.13
228.427	5.37
228.898	-8.83
229.369	0.97
229.839	-1.03
230.31	-4.93
230.781	1.67
231.252	3.27
231.722	-6.33
232.193	-9.33
232.664	-1.83
233.135	-1.13
233.605	2.27
234.076	-5.13
234.546	1.47
235.017	4.07
235.487	-0.13
235.958	0.57
236.428	-0.13
236.899	4.77
237.369	1.87
237.84	-1.53
238.31	4.77
238.78	-1.53
239.251	-0.83
239.721	2.17
240.191	-1.63
240.662	-4.83
241.132	0.57
241.602	-4.13
242.072	1.97
242.542	8.57
243.013	-1.53
243.483	5.97
243.953	2.07
244.423	-1.03
244.893	-6.33
245.363	2.77
245.833	0.97
246.303	5.17
246.773	5.37
247.243	1.47
247.712	0.37
248.182	10.17
248.652	8.07
249.122	0.27
249.592	9.87
250.061	17.87
250.531	31.17
251.001	18.07
251.471	17.97
251.94	18.47
252.41	2.47
252.879	4.17
253.349	5.97
253.818	7.97
254.288	10.27
254.757	3.67
255.227	1.97
255.696	-1.23
256.166	3.77
256.635	4.77
257.105	8.37
257.574	2.37
258.043	6.67
258.513	6.97
258.982	12.37
259.451	3.87
259.92	10.17
260.389	8.57
260.859	11.77
261.328	8.57
261.797	16.07
262.266	1.77
262.735	7.67
263.204	6.47
263.673	3.87
264.142	6.27
264.611	-0.73
265.08	0.47
265.549	-1.03
266.018	4.07
266.487	-0.33
266.955	0.57
267.424	2.07
267.893	10.77
268.362	-5.23
268.83	6.37
269.299	4.87
269.768	6.87
270.236	7.97
270.705	0.37
271.174	4.27
271.642	3.47
272.111	6.67
272.579	18.77
273.048	23.37
273.516	25.07
273.985	25.97
274.453	20.77
274.922	17.47
275.39	6.87
275.858	1.87
276.327	10.47
276.795	15.27
277.263	8.67
277.731	19.07
278.2	52.37
278.668	53.17
279.136	46.77
279.604	18.57
280.072	13.07
280.54	7.57
281.008	10.27
281.477	12.67
281.945	14.17
282.413	12.97
282.881	14.87
283.348	6.17
283.816	15.67
284.284	12.17
284.752	20.17
285.22	9.07
285.688	15.07
286.156	14.77
286.623	38.47
287.091	46.77
287.559	24.77
288.026	18.77
288.494	13.67
288.962	3.67
289.429	9.27
289.897	13.37
290.364	12.47
290.832	13.87
291.3	15.67
291.767	16.67
292.234	15.97
292.702	17.87
293.169	20.97
293.637	20.17
294.104	12.87
294.571	10.77
295.039	12.47
295.506	11.17
295.973	19.67
296.44	13.47
296.908	20.57
297.375	13.17
297.842	18.27
298.309	14.67
298.776	15.57
299.243	21.47
299.71	10.67
300.177	17.37
300.644	21.57
301.111	14.47
301.578	25.07
302.045	18.47
302.512	26.87
302.979	23.57
303.446	23.67
303.913	18.67
304.379	18.77
304.846	32.47
305.313	27.17
305.78	25.07
306.246	28.37
306.713	26.27
307.18	20.37
307.646	26.87
308.113	31.47
308.579	22.97
309.046	19.67
309.512	30.27
309.979	15.67
310.445	26.27
310.912	26.77
311.378	31.77
311.845	26.27
312.311	33.87
312.777	35.97
313.244	31.97
313.71	36.97
314.176	31.67
314.642	31.77
315.109	28.87
315.575	29.47
316.041	35.07
316.507	33.77
316.973	42.07
317.439	33.07
317.905	31.87
318.371	35.27
318.837	36.57
319.303	31.97
319.769	30.97
320.235	28.17
320.701	33.87
321.167	33.67
321.633	33.77
322.099	41.47
322.564	43.37
323.03	36.47
323.496	35.57
323.962	43.37
324.427	39.27
324.893	43.47
325.359	38.77
325.824	36.97
326.29	37.87
326.755	38.67
327.221	39.37
327.686	34.57
328.152	49.87
328.617	35.67
329.083	44.27
329.548	51.07
330.014	41.87
330.479	41.77
330.944	40.07
331.41	39.57
331.875	43.37
332.34	47.17
332.805	44.37
333.271	44.47
333.736	41.27
334.201	53.97
334.666	47.17
335.131	48.87
335.596	48.17
336.061	47.27
336.526	38.57
336.991	48.97
337.456	56.17
337.921	44.97
338.386	44.37
338.851	43.27
339.316	46.87
339.781	39.97
340.246	51.27
340.711	48.87
341.175	47.17
341.64	41.47
342.105	47.97
342.569	50.87
343.034	55.27
343.499	52.07
343.963	50.57
344.428	63.57
344.893	57.37
345.357	60.87
345.822	59.97
346.286	75.07
346.751	70.47
347.215	71.67
347.679	71.77
348.144	96.37
348.608	82.87
349.073	68.67
349.537	72.27
350.001	77.57
350.465	91.37
350.93	73.57
351.394	79.17
351.858	76.17
352.322	87.77
352.786	79.57
353.25	97.87
353.715	109.07
354.179	104.37
354.643	126.77
355.107	127.57
355.571	106.27
356.035	103.37
356.498	116.97
356.962	125.67
357.426	135.97
357.89	120.57
358.354	89.07
358.818	82.37
359.281	79.47
359.745	76.57
360.209	76.07
360.673	73.07
361.136	79.07
361.6	80.37
362.064	85.47
362.527	83.97
362.991	95.47
363.454	85.37
363.918	76.77
364.381	82.47
364.845	88.37
365.308	84.57
365.772	85.47
366.235	83.47
366.698	85.47
367.162	86.07
367.625	86.97
368.088	86.07
368.552	93.07
369.015	90.07
369.478	98.87
369.941	106.47
370.404	94.07
370.867	110.47
371.331	111.47
371.794	112.17
372.257	114.07
372.72	121.77
373.183	113.87
373.646	103.77
374.109	99.17
374.572	109.17
375.035	109.77
375.497	108.17
375.96	113.57
376.423	103.67
376.886	108.97
377.349	110.87
377.811	100.27
378.274	105.67
378.737	104.97
379.199	107.67
379.662	119.27
380.125	117.87
380.587	119.07
381.05	127.47
381.512	130.17
381.975	136.27
382.437	133.27
382.9	128.07
383.362	137.27
383.825	145.47
384.287	149.97
384.75	147.57
385.212	147.77
385.674	143.77
386.136	142.37
386.599	125.87
387.061	126.87
387.523	129.77
387.985	131.17
388.447	145.07
388.91	151.57
389.372	164.27
389.834	157.87
390.296	150.07
390.758	165.27
391.22	170.17
391.682	219.97
392.144	311.17
392.606	242.07
393.068	170.57
393.529	170.87
393.991	155.97
394.453	140.77
394.915	156.87
395.377	201.67
395.838	223.27
396.3	162.47
396.762	147.67
397.224	141.17
397.685	127.67
398.147	134.67
398.608	132.07
399.07	127.77
399.531	144.07
399.993	142.27
400.454	154.57
400.916	144.57
401.377	145.87
401.839	151.97
402.3	152.97
402.762	166.67
403.223	175.87
403.684	172.37
404.145	166.97
404.607	164.47
405.068	163.37
405.529	183.87
405.99	190.27
406.451	180.97
406.913	178.17
407.374	172.97
407.835	166.17
408.296	168.97
408.757	180.47
409.218	189.67
409.679	186.27
410.14	176.77
410.601	177.77
411.062	184.97
411.522	196.17
411.983	196.07
412.444	183.27
412.905	176.67
413.366	189.97
413.826	193.17
414.287	222.57
414.748	264.57
415.208	244.27
415.669	213.17
416.13	202.27
416.59	201.97
417.051	217.87
417.511	227.47
417.972	237.17
418.432	246.87
418.893	294.17
419.353	257.07
419.814	201.37
420.274	186.67
420.734	189.77
421.195	206.37
421.655	201.67
422.115	197.97
422.576	201.67
423.036	198.17
423.496	211.77
423.956	219.57
424.416	227.27
424.876	266.87
425.336	259.17
425.797	258.97
426.257	260.37
426.717	239.87
427.177	235.27
427.637	225.37
428.097	234.87
428.556	254.77
429.016	274.87
429.476	275.37
429.936	281.27
430.396	292.77
430.856	304.97
431.315	329.27
431.775	353.37
432.235	386.77
432.694	365.87
433.154	368.37
433.614	411.37
434.073	346.77
434.533	296.77
434.993	280.17
435.452	293.97
435.912	301.47
436.371	293.37
436.83	289.87
437.29	281.97
437.749	258.97
438.209	251.87
438.668	276.07
439.127	291.27
439.587	268.67
440.046	255.47
440.505	262.77
440.964	283.47
441.424	334.97
441.883	317.87
442.342	262.97
442.801	230.27
443.26	217.97
443.719	225.77
444.178	224.67
444.637	215.97
445.096	217.87
445.555	226.17
446.014	227.87
446.473	230.07
446.932	235.47
447.391	232.17
447.849	234.57
448.308	223.17
448.767	227.57
449.226	238.67
449.685	237.87
450.143	248.77
450.602	245.57
451.061	230.37
451.519	238.27
451.978	233.97
452.436	230.87
452.895	247.87
453.353	258.17
453.812	244.47
454.27	245.47
454.729	242.37
455.187	242.97
455.646	244.17
456.104	250.97
456.562	263.27
457.021	269.87
457.479	267.17
457.937	277.47
458.395	270.07
458.854	254.47
459.312	263.67
459.77	279.67
460.228	263.57
460.686	245.37
461.144	249.07
461.602	251.17
462.06	242.97
462.518	262.47
462.976	258.17
463.434	255.87
463.892	261.37
464.35	267.77
464.808	298.87
465.266	273.07
465.724	272.67
466.181	270.27
466.639	268.17
467.097	290.77
467.555	310.37
468.012	306.27
468.47	310.97
468.928	330.37
469.385	341.87
469.843	347.17
470.3	353.87
470.758	368.17
471.215	393.27
471.673	410.07
472.13	404.37
472.588	428.77
473.045	375.67
473.503	387.47
473.96	394.37
474.417	408.07
474.875	432.47
475.332	482.17
475.789	468.67
476.246	470.97
476.704	493.57
477.161	508.27
477.618	533.97
478.075	571.97
478.532	631.57
478.989	697.87
479.446	832.07
479.903	778.37
480.36	825.07
480.817	877.77
481.274	966.07
481.731	1084.77
482.188	1166.37
482.645	1322.07
483.102	1429.67
483.558	1551.67
484.015	1610.07
484.472	1586.77
484.929	1521.87
485.385	1481.97
485.842	1448.67
486.299	1369.47
486.755	1306.07
487.212	1098.97
487.668	926.97
488.125	861.17
488.582	786.27
489.038	744.67
489.494	711.87
489.951	685.07
490.407	672.67
490.864	652.07
491.32	647.77
491.776	643.37
492.233	644.87
492.689	609.97
493.145	610.87
493.602	599.77
494.058	626.37
494.514	616.77
494.97	647.47
495.426	650.57
495.882	624.77
496.338	618.97
496.794	623.67
497.251	615.87
497.707	631.17
498.163	627.97
498.618	640.47
499.074	640.67
499.53	668.97
499.986	682.57
500.442	652.17
500.898	624.47
501.354	625.37
501.809	636.57
502.265	639.37
502.721	662.37
503.177	676.97
503.632	663.47
504.088	671.77
504.543	714.67
504.999	704.07
505.455	656.97
505.91	638.57
506.366	628.67
506.821	622.87
507.277	633.07
507.732	633.87
508.187	622.87
508.643	639.87
509.098	630.57
509.553	655.57
510.009	666.87
510.464	668.47
510.919	684.37
511.375	695.67
511.83	704.57
512.285	723.17
512.74	758.07
513.195	781.87
513.65	769.87
514.105	762.47
514.56	769.97
515.015	790.67
515.47	798.47
515.925	783.57
516.38	789.77
516.835	787.07
517.29	778.97
517.745	778.77
518.2	760.17
518.655	742.77
519.109	736.97
519.564	749.67
520.019	721.47
520.474	715.97
520.928	717.87
521.383	715.97
521.838	705.67
522.292	710.67
522.747	702.37
523.201	701.07
523.656	696.47
524.11	695.57
524.565	698.97
525.019	685.27
525.474	705.47
525.928	705.77
526.382	701.97
526.837	684.17
527.291	699.97
527.745	696.27
528.2	692.87
528.654	687.27
529.108	682.97
529.562	689.17
530.016	691.77
530.47	693.67
530.925	691.87
531.379	693.27
531.833	706.27
532.287	703.67
532.741	709.57
533.195	697.07
533.649	712.37
534.103	716.57
534.556	700.77
535.01	708.47
535.464	707.07
535.918	715.67
536.372	716.77
536.826	717.97
537.279	702.87
537.733	710.77
538.187	720.97
538.64	716.67
539.094	721.77
539.548	729.07
540.001	716.57
540.455	719.87
540.908	731.97
541.362	741.17
541.815	747.17
542.269	755.47
542.722	759.47
543.175	766.97
543.629	771.07
544.082	779.37
544.536	790.17
544.989	785.57
545.442	793.87
545.895	783.27
546.349	790.47
546.802	788.57
547.255	800.37
547.708	801.27
548.161	812.27
548.614	824.77
549.067	818.77
549.52	812.47
549.973	815.67
550.426	804.17
550.879	793.17
551.332	789.57
551.785	799.87
552.238	804.67
552.691	820.47
553.144	828.57
553.596	841.77
554.049	861.77
554.502	885.97
554.955	904.37
555.407	910.87
555.86	900.37
556.313	891.57
556.765	871.07
557.218	881.37
557.67	880.17
558.123	873.77
558.576	871.77
559.028	871.87
559.48	882.67
559.933	877.27
560.385	839.87
560.838	807.97
561.29	790.27
561.742	775.67
562.195	771.57
562.647	760.87
563.099	767.17
563.551	774.77
564.004	779.67
564.456	770.67
564.908	762.57
565.36	749.47
565.812	726.87
566.264	719.67
566.716	727.77
567.168	718.87
567.62	720.17
568.072	712.77
568.524	701.47
568.976	690.37
569.428	682.07
569.88	673.37
570.332	685.87
570.784	683.87
571.235	687.77
571.687	692.77
572.139	709.47
572.59	704.27
573.042	702.47
573.494	714.57
573.945	706.77
574.397	682.17
574.849	683.97
575.3	681.07
575.752	691.57
576.203	683.77
576.655	690.47
577.106	680.47
577.557	668.57
578.009	669.47
578.46	664.07
578.912	656.47
579.363	666.97
579.814	653.37
580.265	657.87
580.717	673.77
581.168	666.37
581.619	679.07
582.07	685.57
582.521	678.07
582.972	668.07
583.423	677.07
583.875	682.37
584.326	705.47
584.777	753.17
585.227	841.17
585.678	931.27
586.129	1025.77
586.58	1108.17
587.031	1196.27
587.482	1340.87
587.933	1548.97
588.384	1339.47
588.834	995.97
589.285	821.57
589.736	790.67
590.186	782.47
590.637	765.67
591.088	749.77
591.538	746.17
591.989	737.07
592.439	727.77
592.89	729.57
593.34	720.77
593.791	706.87
594.241	698.37
594.692	708.37
595.142	707.87
595.593	696.77
596.043	713.67
596.493	725.57
596.943	726.87
597.394	721.57
597.844	723.37
598.294	734.27
598.744	754.27
599.195	791.67
599.645	827.57
600.095	857.27
600.545	916.27
600.995	971.67
601.445	1030.17
601.895	1096.77
602.345	1143.07
602.795	1124.97
603.245	1073.17
603.695	1010.87
604.145	953.97
604.594	913.47
605.044	863.47
605.494	803.27
605.944	746.77
606.393	746.27
606.843	733.07
607.293	740.87
607.743	739.07
608.192	750.07
608.642	763.47
609.091	776.17
609.541	785.67
609.99	773.57
610.44	773.37
610.889	733.17
611.339	709.27
611.788	677.17
612.238	699.97
612.687	723.27
613.136	727.97
613.586	739.77
614.035	750.27
614.484	771.27
614.933	766.57
615.383	754.87
615.832	750.67
616.281	728.97
616.73	689.57
617.179	672.67
617.628	653.07
618.077	641.17
618.526	627.97
618.975	621.87
619.424	619.67
619.873	622.57
620.322	615.97
620.771	618.07
621.22	612.27
621.669	593.97
622.118	599.67
622.567	589.77
623.015	572.47
623.464	578.17
623.913	565.77
624.361	560.97
624.81	552.47
625.259	562.47
625.707	560.97
626.156	555.77
626.604	563.87
627.053	575.57
627.501	569.27
627.95	575.37
628.398	577.37
628.847	581.77
629.295	572.27
629.744	573.17
630.192	574.37
630.64	573.27
631.089	566.47
631.537	587.37
631.985	594.07
632.433	601.57
632.881	627.17
633.33	668.17
633.778	662.87
634.226	572.67
634.674	585.87
635.122	597.57
635.57	609.47
636.018	643.97
636.466	587.87
636.914	554.67
637.362	583.77
637.81	584.07
638.258	587.47
638.705	588.67
639.153	621.37
639.601	618.57
640.049	646.57
640.497	671.77
640.944	703.57
641.392	640.07
641.84	621.87
642.287	588.37
642.735	574.07
643.182	572.97
643.63	577.57
644.078	587.57
644.525	598.77
644.973	607.07
645.42	606.57
645.867	625.27
646.315	649.17
646.762	673.97
647.21	696.27
647.657	723.27
648.104	759.47
648.551	787.07
648.999	853.87
649.446	936.87
649.893	1027.17
650.34	1184.37
650.787	1431.27
651.234	1786.77
651.682	2318.57
652.129	3206.67
652.576	4637.47
653.023	6847.37
653.47	9345.27
653.917	11546.37
654.363	13262.87
654.81	14569.87
655.257	13852.97
655.704	9076.67
656.151	5348.57
656.598	3465.27
657.044	2451.17
657.491	1888.67
657.938	1506.47
658.385	1259.57
658.831	1095.77
659.278	969.77
659.724	865.37
660.171	802.37
660.618	731.67
661.064	693.07
661.511	686.37
661.957	659.87
662.404	654.27
662.85	659.57
663.296	626.07
663.743	565.27
664.189	550.67
664.635	531.57
665.082	522.07
665.528	529.77
665.974	527.67
666.42	510.77
666.867	515.97
667.313	497.87
667.759	486.37
668.205	488.17
668.651	496.17
669.097	491.77
669.543	508.07
669.989	475.67
670.435	449.37
670.881	452.07
671.327	450.67
671.773	474.57
672.219	496.37
672.665	561.27
673.11	590.37
673.556	636.47
674.002	662.97
674.448	663.37
674.893	553.37
675.339	487.37
675.785	445.67
676.23	422.87
676.676	393.97
677.122	382.87
677.567	375.17
678.013	368.37
678.458	359.67
678.904	364.57
679.349	356.47
679.794	355.37
680.24	348.57
680.685	351.87
681.131	344.07
681.576	356.27
682.021	358.97
682.466	352.47
682.912	353.17
683.357	352.07
683.802	378.77
684.247	414.87
684.692	457.37
685.137	503.47
685.583	537.97
686.028	559.17
686.473	515.07
686.918	457.17
687.363	425.67
687.807	386.57
688.252	367.27
688.697	359.87
689.142	340.57
689.587	328.27
690.032	333.17
690.477	345.97
690.921	361.57
691.366	391.97
691.811	402.77
692.255	431.07
692.7	454.57
693.145	510.97
693.589	722.07
694.034	1168.87
694.478	1561.77
694.923	1731.57
695.367	2241.37
695.812	1194.77
696.256	504.87
696.701	366.77
697.145	347.77
697.59	328.57
698.034	321.47
698.478	331.67
698.922	325.67
699.367	329.57
699.811	340.67
700.255	363.07
700.699	396.97
701.143	435.17
701.588	487.27
702.032	519.47
702.476	517.17
702.92	497.07
703.364	505.27
703.808	667.97
704.252	1063.77
704.696	1477.07
705.14	1660.57
705.584	2114.67
706.027	1069.87
706.471	525.57
706.915	402.07
707.359	352.57
707.803	323.57
708.246	313.77
708.69	321.47
709.134	320.47
709.577	313.57
710.021	322.27
710.465	308.97
710.908	302.17
711.352	300.77
711.795	318.07
712.239	361.17
712.682	399.37
713.126	414.17
713.569	462.17
714.012	371.37
714.456	329.77
714.899	298.37
715.342	277.07
715.786	267.47
716.229	261.37
716.672	258.17
717.115	252.47
717.558	255.57
718.002	260.27
718.445	268.37
718.888	291.97
719.331	292.37
719.774	310.57
720.217	306.47
720.66	287.17
721.103	265.07
721.546	260.17
721.989	256.57
722.432	238.47
722.874	241.27
723.317	232.27
723.76	239.37
724.203	261.87
724.645	316.77
725.088	457.37
725.531	577.47
725.974	644.77
726.416	544.67
726.859	312.87
727.301	247.17
727.744	238.77
728.187	232.57
728.629	238.77
729.071	256.87
729.514	268.87
729.956	278.77
730.399	283.77
730.841	288.47
731.283	268.77
731.726	262.87
732.168	255.17
732.61	272.67
733.053	291.17
733.495	320.77
733.937	348.77
734.379	405.07
734.821	446.77
735.263	553.37
735.705	874.37
736.148	1647.47
736.59	2608.17
737.032	3013.57
737.474	2458.67
737.916	802.27
738.357	429.37
738.799	334.17
739.241	303.77
739.683	296.87
740.125	293.57
740.567	300.37
741.008	317.17
741.45	314.97
741.892	314.37
742.334	350.37
742.775	357.07
743.217	344.07
743.658	268.67
744.1	259.67
744.542	266.77
744.983	311.27
745.425	340.37
745.866	349.57
746.307	287.27
746.749	282.67
747.19	323.07
747.632	469.57
748.073	923.57
748.514	1938.37
748.956	2869.17
749.397	3593.27
749.838	2987.27
750.279	2944.87
750.72	1491.87
751.162	542.27
751.603	325.07
752.044	261.07
752.485	221.17
752.926	215.87
753.367	203.77
753.808	196.97
754.249	194.37
754.69	188.07
755.131	178.87
755.572	180.07
756.013	183.37
756.453	186.67
756.894	192.07
757.335	193.77
757.776	201.17
758.216	195.37
758.657	201.67
759.098	193.67
759.538	232.87
759.979	274.87
760.42	385.77
760.86	744.37
761.301	1918.57
761.741	4535.17
762.182	6339.27
762.622	4458.47
763.063	1314.77
763.503	544.17
763.943	349.07
764.384	360.47
764.824	427.77
765.264	462.37
765.705	313.67
766.145	220.07
766.585	190.67
767.025	181.87
767.465	196.27
767.906	257.87
768.346	337.97
768.786	352.27
769.226	281.87
769.666	334.57
770.106	657.07
770.546	1622.07
770.986	2630.67
771.426	2336.07
771.866	797.97
772.306	329.57
772.745	209.77
773.185	180.77
773.625	172.97
774.065	164.77
774.505	205.07
774.944	327.47
775.384	739.97
775.824	1268.57
776.263	1210.77
776.703	512.37
777.142	231.57
777.582	156.37
778.021	137.87
778.461	146.07
778.9	144.57
779.34	138.67
779.779	122.87
780.219	115.57
780.658	111.67
781.097	104.47
781.537	112.67
781.976	117.77
782.415	107.37
782.855	106.67
783.294	110.87
783.733	107.57
784.172	111.67
784.611	108.27
785.05	110.77
785.489	113.57
785.928	124.97
786.367	122.27
786.806	118.97
787.245	134.47
787.684	136.07
788.123	149.87
788.562	129.67
789.001	125.37
789.44	114.47
789.879	108.77
790.317	120.67
790.756	124.37
791.195	131.17
791.634	149.27
792.072	210.97
792.511	388.57
792.95	1059.47
793.388	2162.27
793.827	1922.27
794.265	676.57
794.704	291.47
795.142	190.67
795.581	149.77
796.019	135.97
796.458	133.77
796.896	120.77
797.334	135.77
797.773	150.37
798.211	228.97
798.649	462.97
799.087	1047.67
799.526	1632.57
799.964	2050.57
800.402	1988.87
800.84	760.37
801.278	299.27
801.716	188.17
802.154	156.37
802.592	144.97
803.03	143.47
803.468	135.87
803.906	138.57
804.344	151.67
804.782	138.97
805.22	133.17
805.658	127.87
806.096	146.27
806.533	168.57
806.971	172.77
807.409	224.77
807.847	330.07
808.284	688.37
808.722	1903.97
809.16	3273.97
809.597	3195.47
810.035	5470.67
810.472	5643.97
810.91	2071.17
811.347	792.67
811.785	403.67
812.222	255.27
812.66	194.87
813.097	167.67
813.535	143.77
813.972	130.17
814.409	119.37
814.846	117.17
815.284	111.07
815.721	100.87
816.158	112.97
816.595	124.57
817.032	192.97
817.47	200.27
817.907	165.97
818.344	155.27
818.781	119.47
819.218	103.47
819.655	125.47
820.092	186.87
820.529	209.77
820.966	175.07
821.403	137.17
821.839	108.27
822.276	102.57
822.713	126.57
823.15	131.37
823.587	118.17
824.023	148.87
824.46	311.57
824.897	917.07
825.333	1353.97
825.77	574.67
826.206	232.77
826.643	140.47
827.08	103.87
827.516	81.77
827.953	76.57
828.389	82.27
828.825	74.67
829.262	74.07
829.698	64.87
830.135	65.57
830.571	60.67
831.007	66.27
831.443	65.57
831.88	56.97
832.316	59.47
832.752	63.57
833.188	56.37
833.624	64.27
834.06	63.67
834.497	66.57
834.933	70.27
835.369	77.07
835.805	68.97
836.241	79.77
836.677	82.77
837.112	94.27
837.548	105.87
837.984	137.77
838.42	207.77
838.856	512.77
839.292	1548.97
839.727	2269.67
840.163	1060.47
840.599	954.17
841.034	2053.07
841.47	2077.17
841.906	770.87
842.341	339.37
842.777	238.97
843.212	330.67
843.648	317.77
844.083	152.47
844.519	93.57
844.954	72.77
845.39	53.77
845.825	59.77
846.261	59.57
846.696	51.47
847.131	55.77
847.566	66.17
848.002	54.67
848.437	60.77
848.872	65.97
849.307	61.77
849.742	85.17
850.177	186.97
850.613	571.77
851.048	869.67
851.483	376.57
851.918	149.57
852.353	86.47
852.788	58.97
853.223	58.67
853.657	55.57
854.092	48.87
854.527	42.17
854.962	41.47
855.397	38.37
855.832	51.67
856.266	43.57
856.701	38.47
857.136	46.07
857.57	44.97
858.005	49.37
858.44	61.57
858.874	45.37
859.309	56.17
859.743	39.27
860.178	43.87
860.612	41.97
861.047	52.87
861.481	68.47
861.915	64.17
862.35	50.47
862.784	34.07
863.218	40.37
863.653	29.07
864.087	49.57
864.521	50.77
864.955	77.57
865.39	154.77
865.824	170.47
866.258	113.57
866.692	161.87
867.126	175.47
867.56	96.57
867.994	50.37
868.428	38.87
868.862	49.37
869.296	48.77
869.73	57.47
870.164	53.47
870.598	46.87
871.031	41.37
871.465	35.77
871.899	30.17
872.333	19.17
872.766	30.57
873.2	25.67
873.634	27.37
874.067	26.87
874.501	28.47
874.935	37.97
875.368	31.67
875.802	25.37
876.235	24.17
876.669	31.37
877.102	24.77
877.535	24.97
877.969	23.57
878.402	19.87
878.836	20.37
879.269	27.97
879.702	24.47
880.135	24.07
880.569	20.57
881.002	27.27
881.435	20.37
881.868	21.37
882.301	25.27
882.734	7.97
883.167	20.87
883.601	21.77
884.034	25.87
884.467	11.67
884.899	18.17
885.332	14.97
885.765	15.07
886.198	16.37
886.631	23.67
887.064	17.47
887.497	21.27
887.929	26.97
888.362	13.57
888.795	14.57
889.228	19.67
889.66	18.17
890.093	20.57
890.526	16.87
890.958	17.57
891.391	18.27
891.823	19.67
892.256	18.17
892.688	15.67
893.121	16.27
893.553	17.67
893.985	24.37
894.418	14.67
894.85	15.47
895.282	16.87
895.715	18.27
896.147	17.57
896.579	17.07
897.011	16.57
897.444	14.97
897.876	12.47
898.308	17.27
898.74	18.27
899.172	14.77
899.604	30.77
900.036	21.87
900.468	14.57
900.9	13.37
901.332	17.57
901.764	20.57
902.196	13.67
902.628	18.87
903.06	18.07
903.491	32.87
903.923	21.77
904.355	20.37
904.787	22.27
905.218	21.47
905.65	26.57
906.082	10.97
906.513	12.57
906.945	10.37
907.376	14.87
907.808	21.97
908.239	23.57
908.671	19.27
909.102	23.07
909.534	27.27
909.965	47.57
910.397	98.07
910.828	323.17
911.259	472.67
911.691	217.47
912.122	108.57
912.553	56.07
912.984	39.47
913.415	28.77
913.847	26.57
914.278	23.17
914.709	18.57
915.14	18.07
915.571	16.17
916.002	13.27
916.433	20.77
916.864	17.17
917.295	10.37
917.726	22.17
918.157	17.47
918.587	29.17
919.018	22.17
919.449	14.27
919.88	24.37
920.311	36.77
920.741	54.47
921.172	171.57
921.603	151.87
922.033	68.77
922.464	46.77
922.895	23.97
923.325	23.47
923.756	17.77
924.186	16.87
924.617	25.47
925.047	44.47
925.478	53.67
925.908	44.07
926.338	21.47
926.769	16.97
927.199	24.97
927.629	11.27
928.06	18.27
928.49	12.67
928.92	14.57
929.35	12.37
929.78	13.77
930.21	7.57
930.641	10.87
931.071	10.47
931.501	3.77
931.931	12.47
932.361	10.37
932.791	6.67
933.221	5.87
933.651	7.17
934.08	14.77
934.51	30.37
934.94	11.07
935.37	11.97
935.8	16.67
936.229	3.97
936.659	12.97
937.089	5.47
937.519	13.07
937.948	29.07
938.378	12.97
938.807	7.67
939.237	1.97
939.666	13.67
940.096	-7.63
940.525	1.27
940.955	1.57
941.384	7.57
941.814	-5.33
942.243	-2.73
942.672	1.97
943.102	-2.53
943.531	1.67
943.96	2.37
944.39	5.57
944.819	0.37
945.248	1.37
945.677	-0.93
946.106	5.67
946.535	4.57
946.964	4.07
947.393	2.67
947.822	4.77
948.251	-2.43
948.68	3.67
949.109	7.67
949.538	7.17
949.967	-0.13
950.396	5.67
950.825	4.87
951.254	0.57
951.682	-8.83
952.111	2.67
952.54	4.97
952.969	-5.33
953.397	-2.43
953.826	-6.93
954.254	-9.33
954.683	-2.63
955.112	-4.33
955.54	6.77
955.969	1.97
956.397	2.97
956.826	-3.53
957.254	8.67
957.682	3.27
958.111	7.17
958.539	-5.23
958.967	6.07
959.396	1.17
959.824	5.17
960.252	8.67
960.68	-1.73
961.109	1.07
961.537	-3.53
961.965	0.07
962.393	0.37
962.821	-3.33
963.249	3.77
963.677	4.97
964.105	0.97
964.533	38.67
964.961	38.27
965.389	22.07
965.817	15.57
966.245	0.07
966.672	-2.33
967.1	-6.03
967.528	-2.03
967.956	-9.23
968.383	0.07
968.811	-5.23
969.239	3.57
969.666	0.97
970.094	2.57
970.522	3.17
970.949	-2.73
971.377	-6.73
971.804	-4.23
972.232	-2.73
972.659	-0.93
973.087	-3.63
973.514	-6.33
973.941	-0.93
974.369	5.67
974.796	2.77
975.223	0.07
975.651	2.17
976.078	1.27
976.505	-2.33
976.932	0.87
977.359	11.97
977.786	13.07
978.214	1.87
978.641	-3.63
979.068	-1.03
979.495	-1.73
979.922	2.77
980.349	-6.33
980.776	3.67
981.202	3.87
981.629	4.97
982.056	3.97
982.483	0.97
982.91	3.87
983.337	-5.23
983.763	5.07
984.19	-3.03
984.617	-2.73
985.043	-9.93
985.47	-3.03
985.897	0.67
986.323	-5.53
986.75	5.37
987.176	2.07
987.603	-4.23
988.029	0.07
988.456	0.17
988.882	1.17
989.308	-3.73
989.735	-2.33
990.161	-3.53
990.587	-4.73
991.014	1.57
991.44	8.67
991.866	-2.23
992.292	-2.43
992.719	-3.63
993.145	2.57
993.571	-7.43
993.997	-5.53
994.423	-1.73
994.849	-1.53
995.275	-0.63
995.701	-0.63
996.127	-4.53
996.553	2.37
996.979	1.07
997.405	-4.93
997.83	-2.53
998.256	-3.33
998.682	-3.63
999.108	-5.03
999.534	0.27
999.959	1.27
1000.385	-6.63
1000.811	2.17
1001.236	-10.33
1001.662	-5.73
1002.087	-7.73
1002.513	-3.83
1002.938	1.27
1003.364	-8.33
1003.789	-0.53
1004.215	5.07
1004.64	-2.13
1005.066	-5.63
1005.491	-0.63
1005.916	-4.03
1006.342	-8.53
1006.767	-2.53
1007.192	1.77
1007.617	-7.73
1008.042	-5.73
1008.468	-2.43
1008.893	-3.93
1009.318	-5.33
1009.743	0.27
1010.168	4.17
1010.593	7.37
1011.018	-7.33
1011.443	-1.23
1011.868	1.87
1012.293	-6.63
1012.718	-7.93
1013.143	2.97
1013.567	3.27
1013.992	-1.73
1014.417	-11.23
1014.842	3.37
1015.267	-0.93
1015.691	-2.63
1016.116	5.27
1016.541	-0.53
1016.965	3.67
1017.39	-3.23
1017.814	3.97
1018.239	0.87
1018.663	-2.53
1019.088	-6.23
1019.512	-2.73
1019.937	-5.13
1020.361	-3.43
1020.785	-7.03
1021.21	-12.53
1021.634	5.87
1022.058	-1.83
1022.483	0.47
1022.907	-3.73
1023.331	-6.33
1023.755	-6.03
1024.179	-0.83
1024.604	-2.53
1025.028	-1.53
1025.452	-6.23
1025.876	-6.53
1026.3	-4.03
1026.724	-9.63
1027.148	-2.63
1027.572	-13.03
1027.996	-8.23
1028.42	-4.43
1028.843	-0.43
1029.267	-5.63
1029.691	0.87
1030.115	-3.33
1030.539	-5.73
1030.962	-0.53
1031.386	-6.63
1031.81	1.07
1032.233	-0.43
1032.657	-4.43
1033.08	1.27
1033.504	-2.33
1033.927	-1.13
1034.351	1.07
1034.774	-10.33
1035.198	-2.73
1035.621	-5.63
1036.045	-6.53
1036.468	2.67
1036.891	-9.63
1037.315	-3.63
1037.738	-14.53
1038.161	7.17
1038.584	-2.03
1039.008	-3.83
1039.431	-2.93
1039.854	3.87
1040.277	-7.53
1040.7	-10.73
1041.123	-1.43
1041.546	-0.63
1041.969	-0.43
1042.392	-8.93
1042.815	-0.33
1043.238	-3.33
1043.661	3.97
1044.084	-7.93
1044.507	-10.13
1044.93	-3.33
1045.352	3.17
1045.775	0.57
1046.198	-1.23
1046.621	1.97
1047.043	1.07
1047.466	13.77
1047.889	1.77
1048.311	-3.73
1048.734	-7.33
1049.156	-1.13
1049.579	-0.63
1050.001	-2.43
1050.424	-2.03
1050.846	-2.93
1051.269	-0.43
1051.691	-5.73
1052.113	-5.23
1052.536	-3.13
1052.958	-2.63
1053.38	-0.83
1053.802	-4.93
1054.225	0.47
1054.647	-5.03
1055.069	-8.33
1055.491	0.47
1055.913	-4.63
1056.335	-3.13
1056.757	-8.23
1057.179	-6.43
1057.601	-6.93
1058.023	-4.53
1058.445	-8.23
1058.867	-1.23
1059.289	-0.93
1059.711	-10.13
1060.133	-4.23
1060.555	-8.03
1060.976	-5.33
1061.398	-2.73
1061.82	1.67
1062.241	-4.63
1062.663	-10.93
1063.085	-5.53
1063.506	-4.93
1063.928	-8.13
1064.35	-4.73
1064.771	-8.03
1065.193	-3.33
1065.614	-11.43
1066.035	-4.23
1066.457	-3.53
1066.878	-0.53
1067.3	-4.83
1067.721	-6.13
1068.142	-6.33
1068.564	-6.03
1068.985	-3.63
1069.406	-7.03
1069.827	-8.83
1070.248	-2.13
1070.67	-7.43
1071.091	-3.63
1071.512	-3.23
1071.933	-12.13
1072.354	-5.73
1072.775	-5.23
1073.196	-4.03
1073.617	-3.43
1074.038	-9.43
1074.459	-3.53
1074.88	-7.53
1075.3	0.67
1075.721	-4.53
1076.142	1.07
1076.563	-4.03
1076.983	-10.33
1077.404	-5.23
1077.825	-12.63
1078.246	-7.13
1078.666	-11.53
1079.087	-9.93
1079.507	-11.43
1079.928	-3.83
1080.348	1.87
1080.769	-5.83
1081.189	5.47
1081.61	-1.43
1082.03	-7.03
1082.451	-1.73
1082.871	-10.73
1083.291	-9.63
1083.711	-8.13
1084.132	-2.03
1084.552	-7.73
1084.972	-5.33
1085.392	-11.33
1085.813	-8.93
1086.233	0.07
1086.653	-5.33
1087.073	-4.13
1087.493	-3.03
1087.913	-2.63
1088.333	-7.13
1088.753	-3.53
1089.173	2.57
1089.593	-2.13
1090.013	1.17
1090.433	-3.33
1090.852	-2.33
1091.272	-1.93
1091.692	-8.33
1092.112	-3.83
1092.531	-9.33
1092.951	-16.23
1093.371	-7.43
1093.79	3.67
1094.21	-6.83
1094.63	-6.23
1095.049	-2.73
1095.469	-1.63
1095.888	-2.53
1096.308	1.67
1096.727	4.27
1097.146	-8.23
1097.566	-6.13
1097.985	-9.43
1098.405	-3.63
1098.824	-4.83
1099.243	-7.83
1099.662	-8.53
1100.082	-2.33
1100.501	0.67
1100.92	-5.23
1101.339	-0.43
1101.758	-7.03
