Data from 20171114-ORNL-Ar_H_NY_Subt18_08-06-59-224.txt Node
Date: Tue Nov 14 08:06:59 EST 2017
User: Ender
Spectrometer: HR+D1039
Trigger mode: 0
Integration Time (sec): 2.730000E-2
Scans to average: 10
Electric dark correction enabled: true
Nonlinearity correction enabled: false
Boxcar width: 0
XAxis mode: Wavelengths
Number of Pixels in Spectrum: 2048
>>>>>Begin Spectral Data<<<<<
187.836	-6.87
188.309	-6.87
188.782	-6.87
189.255	0.33
189.728	1.73
190.201	6.23
190.674	-1.97
191.147	1.53
191.619	-4.77
192.092	0.23
192.565	8.53
193.038	-1.57
193.511	-0.87
193.984	0.73
194.456	1.63
194.929	1.53
195.402	-3.97
195.874	-2.47
196.347	3.63
196.82	-8.67
197.292	4.23
197.765	-3.37
198.237	0.73
198.71	5.23
199.182	-1.87
199.655	0.33
200.127	8.63
200.6	-2.17
201.072	-3.27
201.544	-3.27
202.017	1.73
202.489	2.63
202.961	-2.27
203.433	-1.07
203.906	-6.07
204.378	-3.87
204.85	-2.57
205.322	-7.67
205.794	-5.27
206.266	-4.17
206.739	-4.97
207.211	0.93
207.683	-4.57
208.155	-5.07
208.627	-4.07
209.099	0.93
209.57	-1.37
210.042	-5.27
210.514	-1.67
210.986	0.63
211.458	-9.97
211.93	-0.17
212.402	-0.27
212.873	-7.67
213.345	-5.97
213.817	-11.67
214.288	0.53
214.76	-12.47
215.232	-2.57
215.703	-9.17
216.175	2.53
216.646	-3.17
217.118	-2.67
217.589	-1.47
218.061	-4.87
218.532	-6.37
219.004	-0.57
219.475	2.63
219.946	-7.37
220.418	-4.47
220.889	2.93
221.36	-0.87
221.832	-6.07
222.303	-2.87
222.774	2.73
223.245	-6.97
223.717	-5.57
224.188	-8.97
224.659	-8.17
225.13	-3.17
225.601	1.43
226.072	-3.87
226.543	4.83
227.014	5.33
227.485	-3.17
227.956	-6.27
228.427	-0.37
228.898	-0.87
229.369	6.03
229.839	-1.97
230.31	-7.87
230.781	0.83
231.252	-1.07
231.722	-4.17
232.193	0.03
232.664	-5.27
233.135	-2.17
233.605	1.23
234.076	-5.87
234.546	-0.37
235.017	-0.57
235.487	-1.57
235.958	-5.77
236.428	-3.67
236.899	-0.67
237.369	0.03
237.84	-6.07
238.31	0.33
238.78	-0.87
239.251	-7.87
239.721	-1.27
240.191	0.63
240.662	-9.07
241.132	-1.57
241.602	-0.77
242.072	-1.37
242.542	5.63
243.013	-3.87
243.483	0.53
243.953	0.43
244.423	-3.27
244.893	-6.47
245.363	0.63
245.833	1.93
246.303	-3.17
246.773	-0.57
247.243	-1.07
247.712	-2.77
248.182	8.13
248.652	1.53
249.122	-7.27
249.592	0.33
250.061	-0.07
250.531	9.73
251.001	-1.27
251.471	2.53
251.94	8.43
252.41	-4.77
252.879	0.33
253.349	10.63
253.818	3.13
254.288	5.53
254.757	0.23
255.227	-6.57
255.696	-2.37
256.166	3.73
256.635	3.93
257.105	5.13
257.574	4.63
258.043	3.53
258.513	-8.97
258.982	-2.37
259.451	-4.97
259.92	-0.57
260.389	0.43
260.859	3.83
261.328	2.43
261.797	-0.17
262.266	6.03
262.735	5.33
263.204	4.93
263.673	-2.97
264.142	1.33
264.611	0.63
265.08	-3.87
265.549	-0.17
266.018	6.83
266.487	-4.87
266.955	-3.77
267.424	0.83
267.893	6.33
268.362	-1.37
268.83	4.03
269.299	2.23
269.768	1.43
270.236	2.03
270.705	-1.37
271.174	3.53
271.642	2.43
272.111	1.43
272.579	6.63
273.048	4.33
273.516	0.43
273.985	6.83
274.453	7.83
274.922	20.73
275.39	7.33
275.858	3.73
276.327	4.73
276.795	11.73
277.263	-1.07
277.731	10.53
278.2	11.13
278.668	6.93
279.136	9.73
279.604	3.13
280.072	9.13
280.54	12.53
281.008	8.03
281.477	18.23
281.945	5.13
282.413	18.33
282.881	8.73
283.348	7.13
283.816	13.13
284.284	11.13
284.752	15.13
285.22	6.03
285.688	8.33
286.156	4.73
286.623	18.93
287.091	4.03
287.559	12.53
288.026	14.23
288.494	11.03
288.962	-5.27
289.429	4.73
289.897	10.43
290.364	9.63
290.832	13.73
291.3	17.13
291.767	15.93
292.234	13.83
292.702	7.93
293.169	14.53
293.637	15.03
294.104	18.93
294.571	6.83
295.039	7.43
295.506	10.73
295.973	15.13
296.44	11.33
296.908	13.53
297.375	7.53
297.842	22.63
298.309	11.73
298.776	9.33
299.243	19.33
299.71	10.73
300.177	21.73
300.644	15.33
301.111	18.83
301.578	23.03
302.045	11.93
302.512	19.03
302.979	10.33
303.446	13.63
303.913	9.63
304.379	12.23
304.846	17.13
305.313	18.93
305.78	15.73
306.246	24.43
306.713	15.83
307.18	21.73
307.646	25.63
308.113	20.83
308.579	18.33
309.046	19.53
309.512	18.33
309.979	12.63
310.445	19.73
310.912	27.23
311.378	25.23
311.845	23.13
312.311	30.23
312.777	30.43
313.244	31.33
313.71	32.03
314.176	22.73
314.642	23.73
315.109	26.63
315.575	25.83
316.041	34.83
316.507	28.33
316.973	28.63
317.439	27.83
317.905	27.23
318.371	28.83
318.837	28.53
319.303	29.63
319.769	19.73
320.235	31.83
320.701	26.53
321.167	29.03
321.633	25.63
322.099	26.13
322.564	38.03
323.03	32.43
323.496	35.43
323.962	38.63
324.427	25.83
324.893	37.13
325.359	36.43
325.824	31.93
326.29	32.83
326.755	29.13
327.221	38.13
327.686	35.43
328.152	38.93
328.617	34.13
329.083	44.73
329.548	50.43
330.014	43.43
330.479	36.23
330.944	30.63
331.41	34.53
331.875	38.53
332.34	40.23
332.805	41.13
333.271	40.33
333.736	35.93
334.201	44.13
334.666	40.93
335.131	46.43
335.596	50.63
336.061	43.43
336.526	34.03
336.991	46.53
337.456	52.73
337.921	47.43
338.386	39.13
338.851	47.03
339.316	45.43
339.781	43.73
340.246	46.53
340.711	41.83
341.175	48.73
341.64	44.23
342.105	46.43
342.569	55.13
343.034	56.63
343.499	46.63
343.963	49.03
344.428	58.83
344.893	57.03
345.357	56.03
345.822	53.43
346.286	54.73
346.751	69.13
347.215	59.43
347.679	62.13
348.144	81.03
348.608	77.23
349.073	64.53
349.537	69.63
350.001	75.93
350.465	81.73
350.93	69.53
351.394	70.93
351.858	62.93
352.322	81.23
352.786	73.63
353.25	85.63
353.715	91.93
354.179	89.23
354.643	100.43
355.107	106.93
355.571	93.73
356.035	91.43
356.498	101.83
356.962	101.73
357.426	112.53
357.89	101.73
358.354	79.33
358.818	78.13
359.281	67.03
359.745	68.43
360.209	69.33
360.673	66.33
361.136	76.63
361.6	73.73
362.064	80.23
362.527	77.53
362.991	81.13
363.454	73.23
363.918	75.33
364.381	73.93
364.845	78.13
365.308	70.13
365.772	83.73
366.235	86.63
366.698	77.03
367.162	82.13
367.625	78.23
368.088	81.63
368.552	81.33
369.015	87.43
369.478	84.93
369.941	90.53
370.404	85.33
370.867	92.43
371.331	99.33
371.794	102.63
372.257	94.83
372.72	96.53
373.183	97.23
373.646	86.43
374.109	84.93
374.572	95.93
375.035	89.83
375.497	95.43
375.96	98.63
376.423	103.03
376.886	110.93
377.349	97.03
377.811	96.93
378.274	96.73
378.737	99.33
379.199	100.63
379.662	102.63
380.125	101.63
380.587	97.93
381.05	103.33
381.512	112.93
381.975	114.73
382.437	116.83
382.9	107.43
383.362	116.93
383.825	118.73
384.287	121.53
384.75	114.83
385.212	120.33
385.674	129.33
386.136	131.13
386.599	126.03
387.061	117.83
387.523	115.23
387.985	114.13
388.447	126.13
388.91	125.23
389.372	117.83
389.834	122.53
390.296	116.63
390.758	127.03
391.22	126.63
391.682	142.03
392.144	150.93
392.606	144.03
393.068	144.43
393.529	143.83
393.991	140.73
394.453	128.23
394.915	127.73
395.377	128.13
395.838	136.53
396.3	131.83
396.762	136.33
397.224	135.13
397.685	127.13
398.147	127.13
398.608	129.13
399.07	132.93
399.531	136.63
399.993	141.83
400.454	149.53
400.916	147.13
401.377	141.33
401.839	142.53
402.3	150.03
402.762	158.53
403.223	176.23
403.684	166.93
404.145	153.43
404.607	154.33
405.068	157.83
405.529	165.13
405.99	181.93
406.451	170.13
406.913	165.93
407.374	170.33
407.835	166.43
408.296	164.23
408.757	163.03
409.218	187.03
409.679	176.43
410.14	174.03
410.601	171.83
411.062	174.33
411.522	181.53
411.983	169.33
412.444	170.93
412.905	187.13
413.366	183.03
413.826	199.13
414.287	214.93
414.748	256.63
415.208	253.03
415.669	216.13
416.13	208.83
416.59	205.23
417.051	218.73
417.511	230.73
417.972	248.93
418.432	247.23
418.893	286.83
419.353	254.93
419.814	207.13
420.274	186.63
420.734	186.63
421.195	199.43
421.655	202.53
422.115	201.73
422.576	197.63
423.036	203.23
423.496	208.63
423.956	222.93
424.416	242.03
424.876	269.33
425.336	264.03
425.797	255.43
426.257	261.73
426.717	241.53
427.177	237.03
427.637	227.53
428.097	238.83
428.556	249.33
429.016	267.33
429.476	260.63
429.936	274.13
430.396	277.93
430.856	294.53
431.315	306.73
431.775	339.43
432.235	374.23
432.694	345.33
433.154	359.13
433.614	374.53
434.073	324.63
434.533	284.73
434.993	277.63
435.452	279.13
435.912	286.93
436.371	285.83
436.83	280.13
437.29	264.83
437.749	253.73
438.209	250.13
438.668	267.83
439.127	280.43
439.587	270.73
440.046	245.03
440.505	259.93
440.964	279.83
441.424	321.43
441.883	305.63
442.342	264.03
442.801	228.63
443.26	228.63
443.719	227.63
444.178	230.43
444.637	225.63
445.096	228.93
445.555	236.03
446.014	238.03
446.473	238.43
446.932	238.43
447.391	230.03
447.849	236.23
448.308	235.03
448.767	237.43
449.226	249.13
449.685	250.43
450.143	251.23
450.602	242.63
451.061	240.13
451.519	236.33
451.978	240.43
452.436	236.33
452.895	248.53
453.353	264.13
453.812	251.13
454.27	247.73
454.729	251.53
455.187	244.13
455.646	250.53
456.104	254.33
456.562	272.13
457.021	273.23
457.479	268.13
457.937	285.53
458.395	273.73
458.854	261.33
459.312	266.63
459.77	281.43
460.228	270.73
460.686	253.23
461.144	258.73
461.602	261.13
462.06	258.43
462.518	270.13
462.976	267.13
463.434	267.13
463.892	274.63
464.35	283.03
464.808	304.83
465.266	272.63
465.724	287.63
466.181	291.33
466.639	287.33
467.097	307.93
467.555	308.43
468.012	314.93
468.47	325.73
468.928	347.93
469.385	362.33
469.843	364.43
470.3	364.73
470.758	375.33
471.215	398.43
471.673	416.53
472.13	412.73
472.588	433.83
473.045	396.03
473.503	393.63
473.96	410.73
474.417	415.33
474.875	441.93
475.332	489.23
475.789	482.33
476.246	477.63
476.704	501.23
477.161	513.63
477.618	537.93
478.075	568.43
478.532	635.63
478.989	698.33
479.446	797.63
479.903	766.23
480.36	805.93
480.817	841.83
481.274	941.63
481.731	1030.03
482.188	1121.23
482.645	1233.83
483.102	1327.83
483.558	1448.83
484.015	1480.83
484.472	1463.53
484.929	1424.23
485.385	1387.23
485.842	1334.43
486.299	1295.33
486.755	1261.73
487.212	1080.73
487.668	915.13
488.125	828.53
488.582	778.03
489.038	746.13
489.494	724.53
489.951	699.03
490.407	676.73
490.864	660.23
491.32	665.63
491.776	658.93
492.233	664.53
492.689	630.83
493.145	627.53
493.602	614.63
494.058	635.43
494.514	638.03
494.97	653.13
495.426	673.03
495.882	649.13
496.338	626.13
496.794	654.23
497.251	644.33
497.707	664.83
498.163	660.53
498.618	663.13
499.074	671.23
499.53	697.13
499.986	702.53
500.442	670.63
500.898	658.83
501.354	630.63
501.809	644.13
502.265	642.83
502.721	657.03
503.177	668.43
503.632	666.53
504.088	677.73
504.543	692.13
504.999	720.23
505.455	688.83
505.91	671.43
506.366	669.73
506.821	666.03
507.277	654.83
507.732	664.63
508.187	662.83
508.643	667.53
509.098	678.03
509.553	681.13
510.009	690.53
510.464	705.83
510.919	724.43
511.375	730.63
511.83	734.13
512.285	760.93
512.74	791.93
513.195	818.33
513.65	803.33
514.105	804.13
514.56	797.73
515.015	823.03
515.47	830.83
515.925	811.33
516.38	811.63
516.835	826.43
517.29	809.13
517.745	807.03
518.2	799.53
518.655	783.33
519.109	776.83
519.564	778.23
520.019	762.83
520.474	758.73
520.928	762.83
521.383	750.63
521.838	746.93
522.292	741.73
522.747	739.83
523.201	745.33
523.656	727.73
524.11	729.53
524.565	727.23
525.019	728.43
525.474	721.83
525.928	725.33
526.382	727.43
526.837	728.93
527.291	740.33
527.745	735.93
528.2	731.13
528.654	730.33
529.108	717.83
529.562	721.33
530.016	729.53
530.47	721.13
530.925	727.93
531.379	722.53
531.833	734.03
532.287	735.63
532.741	729.93
533.195	727.43
533.649	742.83
534.103	751.33
534.556	730.43
535.01	737.53
535.464	741.53
535.918	753.93
536.372	751.03
536.826	743.73
537.279	732.93
537.733	747.93
538.187	749.33
538.64	761.03
539.094	758.03
539.548	757.13
540.001	753.73
540.455	755.63
540.908	769.13
541.362	769.03
541.815	780.23
542.269	789.93
542.722	787.13
543.175	797.53
543.629	803.73
544.082	824.83
544.536	825.43
544.989	817.73
545.442	842.93
545.895	830.13
546.349	842.83
546.802	845.33
547.255	825.33
547.708	860.43
548.161	862.73
548.614	857.43
549.067	872.53
549.52	863.93
549.973	857.63
550.426	854.13
550.879	818.83
551.332	846.83
551.785	850.43
552.238	853.33
552.691	862.73
553.144	872.93
553.596	883.53
554.049	901.23
554.502	932.13
554.955	954.43
555.407	949.03
555.86	948.63
556.313	931.73
556.765	924.53
557.218	927.93
557.67	919.93
558.123	919.73
558.576	913.73
559.028	914.53
559.48	939.03
559.933	918.83
560.385	875.03
560.838	850.23
561.29	832.63
561.742	828.83
562.195	809.83
562.647	805.83
563.099	814.13
563.551	811.93
564.004	823.93
564.456	813.43
564.908	803.23
565.36	773.73
565.812	761.53
566.264	757.83
566.716	756.13
567.168	732.03
567.62	739.43
568.072	721.53
568.524	730.53
568.976	728.23
569.428	701.43
569.88	706.83
570.332	722.83
570.784	724.23
571.235	721.83
571.687	728.23
572.139	729.13
572.59	753.83
573.042	748.03
573.494	738.13
573.945	748.33
574.397	729.23
574.849	728.13
575.3	720.83
575.752	715.63
576.203	716.53
576.655	719.03
577.106	710.93
577.557	703.23
578.009	696.23
578.46	690.83
578.912	697.33
579.363	702.43
579.814	709.63
580.265	700.83
580.717	707.73
581.168	706.63
581.619	701.63
582.07	709.33
582.521	702.43
582.972	695.53
583.423	701.93
583.875	708.63
584.326	705.33
584.777	728.33
585.227	753.53
585.678	770.03
586.129	782.53
586.58	801.13
587.031	818.73
587.482	856.43
587.933	887.23
588.384	866.53
588.834	824.73
589.285	805.13
589.736	802.83
590.186	803.03
590.637	786.33
591.088	778.23
591.538	775.83
591.989	766.03
592.439	762.43
592.89	743.63
593.34	732.43
593.791	736.73
594.241	724.43
594.692	728.33
595.142	721.43
595.593	712.13
596.043	727.53
596.493	731.43
596.943	733.03
597.394	749.13
597.844	748.33
598.294	770.63
598.744	789.33
599.195	817.33
599.645	862.83
600.095	896.13
600.545	958.73
600.995	1009.63
601.445	1076.73
601.895	1123.13
602.345	1179.53
602.795	1170.13
603.245	1120.53
603.695	1054.73
604.145	1004.63
604.594	957.13
605.044	889.53
605.494	835.83
605.944	789.93
606.393	779.83
606.843	752.23
607.293	758.93
607.743	756.33
608.192	769.53
608.642	783.93
609.091	783.43
609.541	790.03
609.99	788.33
610.44	788.33
610.889	745.73
611.339	723.13
611.788	705.53
612.238	713.43
612.687	728.53
613.136	711.63
613.586	734.33
614.035	721.73
614.484	736.33
614.933	730.03
615.383	733.13
615.832	732.63
616.281	723.03
616.73	692.43
617.179	667.33
617.628	669.63
618.077	648.13
618.526	642.73
618.975	643.03
619.424	636.23
619.873	621.73
620.322	644.73
620.771	634.83
621.22	626.23
621.669	612.03
622.118	607.73
622.567	607.63
623.015	584.63
623.464	582.03
623.913	580.93
624.361	583.03
624.81	567.53
625.259	579.13
625.707	575.93
626.156	569.53
626.604	584.23
627.053	581.23
627.501	578.13
627.95	599.23
628.398	606.33
628.847	590.73
629.295	589.73
629.744	603.43
630.192	595.43
630.64	585.33
631.089	566.33
631.537	559.03
631.985	554.73
632.433	554.33
632.881	542.33
633.33	545.63
633.778	547.43
634.226	540.33
634.674	552.83
635.122	556.53
635.57	568.23
636.018	583.73
636.466	581.03
636.914	577.23
637.362	594.63
637.81	598.83
638.258	606.03
638.705	599.33
639.153	637.03
639.601	647.43
640.049	661.93
640.497	690.23
640.944	717.33
641.392	671.63
641.84	641.43
642.287	600.73
642.735	588.13
643.182	579.13
643.63	576.03
644.078	573.13
644.525	592.03
644.973	599.33
645.42	602.03
645.867	623.43
646.315	656.23
646.762	673.13
647.21	689.93
647.657	715.73
648.104	758.43
648.551	772.63
648.999	833.03
649.446	905.33
649.893	984.13
650.34	1132.23
650.787	1353.63
651.234	1654.63
651.682	2123.93
652.129	2869.33
652.576	4101.43
653.023	5978.13
653.47	8080.53
653.917	10050.13
654.363	11566.83
654.81	12779.83
655.257	12074.63
655.704	7977.43
656.151	4820.23
656.598	3173.43
657.044	2282.83
657.491	1777.13
657.938	1433.93
658.385	1212.53
658.831	1054.03
659.278	949.33
659.724	853.93
660.171	785.43
660.618	718.53
661.064	690.03
661.511	671.73
661.957	660.33
662.404	656.83
662.85	658.83
663.296	630.03
663.743	575.93
664.189	547.23
664.635	535.73
665.082	541.53
665.528	543.03
665.974	532.03
666.42	527.73
666.867	515.63
667.313	489.53
667.759	479.63
668.205	464.63
668.651	464.93
669.097	464.13
669.543	450.53
669.989	457.33
670.435	464.83
670.881	465.63
671.327	461.03
671.773	488.03
672.219	507.83
672.665	571.73
673.11	606.63
673.556	648.93
674.002	701.83
674.448	686.73
674.893	572.23
675.339	494.33
675.785	453.73
676.23	428.83
676.676	406.23
677.122	401.13
677.567	390.33
678.013	376.83
678.458	376.73
678.904	375.03
679.349	363.03
679.794	379.13
680.24	369.03
680.685	364.13
681.131	366.03
681.576	367.33
682.021	375.13
682.466	364.83
682.912	360.23
683.357	366.03
683.802	398.03
684.247	427.93
684.692	478.93
685.137	509.13
685.583	557.43
686.028	586.43
686.473	542.93
686.918	464.33
687.363	425.93
687.807	407.73
688.252	377.33
688.697	370.53
689.142	353.83
689.587	339.53
690.032	340.93
690.477	360.03
690.921	368.13
691.366	400.23
691.811	411.83
692.255	439.93
692.7	482.83
693.145	520.33
693.589	729.53
694.034	1179.93
694.478	1610.53
694.923	1812.13
695.367	2371.33
695.812	1246.73
696.256	517.23
696.701	385.73
697.145	359.53
697.59	342.13
698.034	335.63
698.478	337.43
698.922	326.13
699.367	331.83
699.811	353.23
700.255	373.23
700.699	401.53
701.143	428.43
701.588	482.23
702.032	530.63
702.476	532.73
702.92	498.13
703.364	511.83
703.808	676.23
704.252	1094.63
704.696	1527.23
705.14	1747.73
705.584	2217.83
706.027	1107.73
706.471	539.03
706.915	412.53
707.359	364.93
707.803	324.33
708.246	322.73
708.69	318.93
709.134	315.03
709.577	324.23
710.021	325.13
710.465	322.83
710.908	309.43
711.352	301.83
711.795	323.63
712.239	361.03
712.682	400.43
713.126	424.93
713.569	474.43
714.012	379.03
714.456	312.43
714.899	298.83
715.342	281.53
715.786	268.23
716.229	271.43
716.672	268.13
717.115	252.63
717.558	267.23
718.002	268.43
718.445	275.93
718.888	292.83
719.331	299.73
719.774	321.13
720.217	316.23
720.66	297.63
721.103	276.23
721.546	261.03
721.989	256.23
722.432	245.53
722.874	246.33
723.317	237.33
723.76	241.73
724.203	267.93
724.645	320.63
725.088	466.93
725.531	594.33
725.974	664.43
726.416	568.13
726.859	315.13
727.301	256.13
727.744	243.03
728.187	244.93
728.629	247.13
729.071	256.33
729.514	272.23
729.956	283.83
730.399	294.53
730.841	304.83
731.283	284.53
731.726	272.93
732.168	274.13
732.61	280.23
733.053	296.83
733.495	328.13
733.937	368.23
734.379	417.03
734.821	460.23
735.263	569.23
735.705	880.13
736.148	1659.23
736.59	2716.53
737.032	3182.83
737.474	2595.83
737.916	847.63
738.357	454.53
738.799	341.83
739.241	311.13
739.683	302.73
740.125	314.83
740.567	311.63
741.008	326.83
741.45	341.03
741.892	331.93
742.334	366.73
742.775	379.53
743.217	362.43
743.658	286.73
744.1	267.73
744.542	271.73
744.983	329.33
745.425	364.93
745.866	357.73
746.307	293.13
746.749	292.73
747.19	334.23
747.632	478.83
748.073	922.93
748.514	1950.13
748.956	2991.73
749.397	3748.23
749.838	3134.33
750.279	3107.83
750.72	1566.03
751.162	586.93
751.603	334.43
752.044	270.03
752.485	229.63
752.926	217.43
753.367	209.23
753.808	204.93
754.249	205.93
754.69	191.83
755.131	192.53
755.572	186.53
756.013	195.73
756.453	187.43
756.894	195.73
757.335	203.33
757.776	200.83
758.216	207.53
758.657	207.23
759.098	212.93
759.538	246.23
759.979	278.33
760.42	395.23
760.86	736.13
761.301	1923.23
761.741	4668.93
762.182	6741.13
762.622	4766.43
763.063	1364.03
763.503	559.73
763.943	340.93
764.384	278.93
764.824	252.23
765.264	243.23
765.705	217.83
766.145	183.33
766.585	180.43
767.025	173.83
767.465	165.13
767.906	187.03
768.346	203.63
768.786	210.13
769.226	224.53
769.666	311.03
770.106	650.83
770.546	1637.23
770.986	2749.43
771.426	2472.03
771.866	824.03
772.306	338.33
772.745	212.63
773.185	172.23
773.625	167.43
774.065	159.13
774.505	168.83
774.944	211.53
775.384	372.03
775.824	623.23
776.263	591.13
776.703	293.83
777.142	161.03
777.582	136.83
778.021	132.83
778.461	122.93
778.9	136.93
779.34	129.93
779.779	122.83
780.219	118.33
780.658	112.93
781.097	112.13
781.537	121.33
781.976	114.33
782.415	108.73
782.855	113.83
783.294	106.13
783.733	112.63
784.172	112.03
784.611	114.63
785.05	111.23
785.489	113.73
785.928	123.73
786.367	131.43
786.806	126.03
787.245	133.73
787.684	139.53
788.123	149.83
788.562	137.63
789.001	135.73
789.44	127.93
789.879	121.83
790.317	122.83
790.756	137.93
791.195	135.23
791.634	155.23
792.072	213.63
792.511	382.73
792.95	1044.43
793.388	2215.93
793.827	2002.83
794.265	709.53
794.704	293.03
795.142	191.13
795.581	157.93
796.019	138.53
796.458	135.93
796.896	126.83
797.334	132.43
797.773	160.03
798.211	228.23
798.649	472.33
799.087	1076.93
799.526	1683.13
799.964	2094.93
800.402	2093.03
800.84	785.13
801.278	320.73
801.716	206.13
802.154	162.53
802.592	154.43
803.03	146.43
803.468	139.33
803.906	148.93
804.344	159.93
804.782	142.33
805.22	138.53
805.658	132.93
806.096	160.43
806.533	165.33
806.971	177.53
807.409	231.13
807.847	333.33
808.284	698.23
808.722	1968.53
809.16	3470.13
809.597	3311.83
810.035	5697.13
810.472	6063.43
810.91	2205.03
811.347	837.33
811.785	429.63
812.222	273.03
812.66	205.23
813.097	175.03
813.535	154.53
813.972	137.93
814.409	132.43
814.846	115.93
815.284	115.23
815.721	106.53
816.158	112.93
816.595	117.93
817.032	159.23
817.47	184.23
817.907	151.33
818.344	104.53
818.781	98.93
819.218	101.23
819.655	127.23
820.092	197.63
820.529	217.73
820.966	178.73
821.403	133.23
821.839	102.23
822.276	99.23
822.713	122.73
823.15	142.03
823.587	128.73
824.023	154.43
824.46	317.53
824.897	940.33
825.333	1409.03
825.77	611.53
826.206	244.83
826.643	138.33
827.08	106.93
827.516	81.63
827.953	88.83
828.389	87.93
828.825	77.13
829.262	73.93
829.698	66.33
830.135	69.63
830.571	63.33
831.007	72.53
831.443	70.23
831.88	67.03
832.316	60.13
832.752	74.53
833.188	64.93
833.624	62.13
834.06	68.23
834.497	68.23
834.933	74.93
835.369	72.03
835.805	80.43
836.241	85.03
836.677	83.93
837.112	98.03
837.548	110.43
837.984	140.43
838.42	208.93
838.856	520.73
839.292	1598.03
839.727	2417.33
840.163	1129.43
840.599	973.03
841.034	2118.63
841.47	2221.13
841.906	814.13
842.341	351.83
842.777	213.93
843.212	209.13
843.648	192.43
844.083	115.23
844.519	85.13
844.954	77.73
845.39	61.43
845.825	49.73
846.261	58.13
846.696	62.03
847.131	51.33
847.566	67.03
848.002	50.63
848.437	57.33
848.872	65.53
849.307	69.43
849.742	85.93
850.177	191.63
850.613	594.73
851.048	910.73
851.483	396.03
851.918	169.23
852.353	92.83
852.788	55.33
853.223	55.93
853.657	52.83
854.092	47.43
854.527	45.43
854.962	43.33
855.397	49.73
855.832	55.53
856.266	43.53
856.701	44.13
857.136	35.93
857.57	45.23
858.005	53.43
858.44	63.33
858.874	45.73
859.309	65.23
859.743	37.43
860.178	51.03
860.612	45.13
861.047	56.23
861.481	76.83
861.915	82.83
862.35	59.83
862.784	37.73
863.218	42.33
863.653	31.23
864.087	46.43
864.521	55.53
864.955	72.03
865.39	160.93
865.824	187.03
866.258	126.73
866.692	183.93
867.126	196.43
867.56	118.13
867.994	60.83
868.428	44.03
868.862	53.93
869.296	62.53
869.73	61.93
870.164	55.43
870.598	53.93
871.031	38.93
871.465	36.23
871.899	35.43
872.333	22.63
872.766	28.63
873.2	28.83
873.634	24.73
874.067	31.43
874.501	28.83
874.935	35.63
875.368	36.13
875.802	29.23
876.235	23.33
876.669	23.43
877.102	28.53
877.535	25.43
877.969	17.23
878.402	26.33
878.836	24.03
879.269	22.93
879.702	28.43
880.135	19.33
880.569	25.13
881.002	29.43
881.435	29.63
881.868	17.13
882.301	21.03
882.734	13.93
883.167	26.23
883.601	24.33
884.034	17.63
884.467	17.73
884.899	14.93
885.332	17.93
885.765	18.03
886.198	21.43
886.631	14.83
887.064	21.33
887.497	21.93
887.929	25.63
888.362	22.63
888.795	20.33
889.228	20.73
889.66	20.43
890.093	20.33
890.526	19.53
890.958	17.93
891.391	21.33
891.823	20.63
892.256	13.43
892.688	15.23
893.121	19.73
893.553	18.43
893.985	24.43
894.418	25.43
894.85	12.83
895.282	18.33
895.715	17.93
896.147	21.83
896.579	23.73
897.011	19.43
897.444	15.43
897.876	16.23
898.308	20.93
898.74	17.93
899.172	16.63
899.604	23.53
900.036	22.93
900.468	19.53
900.9	20.83
901.332	20.53
901.764	16.93
902.196	14.13
902.628	17.73
903.06	23.33
903.491	29.93
903.923	27.33
904.355	19.83
904.787	25.53
905.218	18.03
905.65	18.13
906.082	18.13
906.513	17.43
906.945	15.03
907.376	18.23
907.808	18.83
908.239	17.03
908.671	15.03
909.102	26.53
909.534	29.33
909.965	50.53
910.397	103.53
910.828	336.03
911.259	496.73
911.691	233.13
912.122	113.23
912.553	59.73
912.984	35.13
913.415	24.03
913.847	30.53
914.278	12.23
914.709	13.93
915.14	16.53
915.571	21.73
916.002	9.83
916.433	20.43
916.864	20.83
917.295	17.03
917.726	26.53
918.157	20.73
918.587	34.53
919.018	25.13
919.449	28.13
919.88	29.03
920.311	28.53
920.741	51.63
921.172	178.73
921.603	158.93
922.033	75.33
922.464	45.43
922.895	27.13
923.325	28.13
923.756	12.53
924.186	15.13
924.617	19.03
925.047	26.33
925.478	25.93
925.908	23.93
926.338	16.83
926.769	7.13
927.199	20.73
927.629	10.23
928.06	16.83
928.49	18.23
928.92	16.33
929.35	13.33
929.78	12.83
930.21	12.23
930.641	8.93
931.071	4.73
931.501	6.13
931.931	11.83
932.361	6.63
932.791	7.73
933.221	10.33
933.651	9.23
934.08	21.83
934.51	32.53
934.94	12.83
935.37	11.13
935.8	13.33
936.229	7.63
936.659	8.73
937.089	0.93
937.519	11.03
937.948	23.83
938.378	22.33
938.807	5.83
939.237	5.83
939.666	13.23
940.096	-2.97
940.525	7.53
940.955	-1.97
941.384	7.03
941.814	-2.07
942.243	-4.27
942.672	4.03
943.102	-0.97
943.531	2.13
943.96	3.83
944.39	7.23
944.819	4.93
945.248	7.43
945.677	2.13
946.106	12.23
946.535	5.33
946.964	7.13
947.393	10.63
947.822	5.03
948.251	-3.67
948.68	2.43
949.109	11.93
949.538	10.83
949.967	2.03
950.396	2.13
950.825	0.63
951.254	-0.27
951.682	-7.97
952.111	3.53
952.54	11.23
952.969	2.93
953.397	-5.27
953.826	2.33
954.254	-4.67
954.683	0.03
955.112	1.43
955.54	-1.07
955.969	4.93
956.397	3.13
956.826	4.93
957.254	9.93
957.682	2.53
958.111	5.23
958.539	1.73
958.967	12.43
959.396	-1.97
959.824	7.33
960.252	2.53
960.68	-4.97
961.109	-3.37
961.537	-4.57
961.965	4.23
962.393	1.73
962.821	-3.47
963.249	3.63
963.677	2.53
964.105	8.43
964.533	46.73
964.961	47.63
965.389	21.73
965.817	8.63
966.245	8.13
966.672	1.43
967.1	-3.87
967.528	5.13
967.956	1.33
968.383	-3.07
968.811	-9.87
969.239	0.53
969.666	-2.57
970.094	-0.57
970.522	4.03
970.949	-0.17
971.377	-5.77
971.804	-8.17
972.232	-0.87
972.659	-0.57
973.087	0.23
973.514	-3.97
973.941	0.33
974.369	6.13
974.796	0.43
975.223	9.93
975.651	-1.17
976.078	2.73
976.505	0.13
976.932	3.63
977.359	19.93
977.786	19.33
978.214	0.93
978.641	-6.67
979.068	2.13
979.495	-1.67
979.922	1.13
980.349	1.83
980.776	0.53
981.202	4.33
981.629	3.73
982.056	2.63
982.483	3.13
982.91	2.03
983.337	-1.97
983.763	-0.77
984.19	-1.67
984.617	-1.17
985.043	-6.37
985.47	1.43
985.897	-3.47
986.323	-5.77
986.75	2.23
987.176	1.13
987.603	6.43
988.029	4.43
988.456	-5.07
988.882	0.43
989.308	-2.27
989.735	-4.57
990.161	-2.47
990.587	2.23
991.014	-3.27
991.44	10.43
991.866	1.13
992.292	-3.97
992.719	1.83
993.145	6.63
993.571	-9.17
993.997	-0.07
994.423	-3.37
994.849	-4.57
995.275	3.93
995.701	3.43
996.127	-0.67
996.553	-1.37
996.979	-1.77
997.405	2.63
997.83	0.03
998.256	-5.07
998.682	-5.07
999.108	-5.37
999.534	-4.97
999.959	-5.27
1000.385	-3.07
1000.811	6.43
1001.236	-12.67
1001.662	-5.97
1002.087	-6.87
1002.513	1.03
1002.938	3.73
1003.364	-2.97
1003.789	4.83
1004.215	1.03
1004.64	1.13
1005.066	0.43
1005.491	0.93
1005.916	1.13
1006.342	-4.57
1006.767	-0.87
1007.192	5.93
1007.617	-1.77
1008.042	-1.47
1008.468	-6.37
1008.893	-0.57
1009.318	-1.97
1009.743	-2.77
1010.168	6.63
1010.593	8.03
1011.018	-6.77
1011.443	-4.87
1011.868	2.73
1012.293	3.23
1012.718	-10.57
1013.143	-1.17
1013.567	4.03
1013.992	-3.17
1014.417	-11.07
1014.842	3.33
1015.267	-3.97
1015.691	-6.07
1016.116	12.33
1016.541	-0.37
1016.965	3.43
1017.39	1.93
1017.814	7.23
1018.239	3.13
1018.663	-9.17
1019.088	-12.87
1019.512	-2.47
1019.937	-1.67
1020.361	-2.47
1020.785	-8.17
1021.21	-7.97
1021.634	-3.97
1022.058	-3.47
1022.483	-0.77
1022.907	2.73
1023.331	-3.77
1023.755	-0.07
1024.179	-5.27
1024.604	-3.07
1025.028	2.03
1025.452	-8.27
1025.876	-1.77
1026.3	-0.77
1026.724	-12.87
1027.148	-6.97
1027.572	-4.97
1027.996	-4.57
1028.42	-0.17
1028.843	-3.97
1029.267	-3.57
1029.691	-3.37
1030.115	-9.17
1030.539	-9.27
1030.962	-8.47
1031.386	-2.27
1031.81	-0.97
1032.233	4.53
1032.657	-5.47
1033.08	1.63
1033.504	2.73
1033.927	-1.67
1034.351	2.63
1034.774	-8.17
1035.198	-5.87
1035.621	-6.37
1036.045	-7.27
1036.468	4.33
1036.891	-9.47
1037.315	-7.37
1037.738	-11.17
1038.161	1.93
1038.584	-4.57
1039.008	-2.67
1039.431	-6.67
1039.854	-6.07
1040.277	-11.17
1040.7	-8.07
1041.123	3.23
1041.546	-9.67
1041.969	-5.77
1042.392	-4.37
1042.815	-0.67
1043.238	0.83
1043.661	3.33
1044.084	-9.57
1044.507	-9.27
1044.93	-8.97
1045.352	-4.27
1045.775	-0.07
1046.198	-4.07
1046.621	0.93
1047.043	0.63
1047.466	8.13
1047.889	-6.37
1048.311	-0.17
1048.734	-0.67
1049.156	-0.97
1049.579	-1.07
1050.001	-1.37
1050.424	0.23
1050.846	5.03
1051.269	-2.67
1051.691	-7.87
1052.113	-10.87
1052.536	1.53
1052.958	2.83
1053.38	-4.77
1053.802	-6.67
1054.225	6.23
1054.647	-8.57
1055.069	-4.17
1055.491	4.83
1055.913	-7.47
1056.335	0.13
1056.757	-4.17
1057.179	-0.77
1057.601	1.63
1058.023	-2.87
1058.445	-5.97
1058.867	-4.17
1059.289	-2.17
1059.711	-3.27
1060.133	4.33
1060.555	-2.87
1060.976	-9.67
1061.398	-10.97
1061.82	-9.97
1062.241	-8.67
1062.663	-4.17
1063.085	-3.47
1063.506	2.13
1063.928	-3.57
1064.35	4.23
1064.771	-8.47
1065.193	0.33
1065.614	-9.57
1066.035	-5.97
1066.457	-4.17
1066.878	4.33
1067.3	-0.97
1067.721	-8.07
1068.142	-3.37
1068.564	0.43
1068.985	-4.77
1069.406	0.13
1069.827	-7.37
1070.248	-1.57
1070.67	-4.67
1071.091	-3.97
1071.512	-3.67
1071.933	-4.67
1072.354	-5.77
1072.775	-4.97
1073.196	-8.77
1073.617	-4.27
1074.038	0.03
1074.459	-5.97
1074.88	-7.97
1075.3	1.53
1075.721	-5.37
1076.142	-4.17
1076.563	-0.17
1076.983	-11.07
1077.404	-7.07
1077.825	-11.47
1078.246	-9.77
1078.666	-14.17
1079.087	-4.87
1079.507	-6.87
1079.928	1.53
1080.348	-3.37
1080.769	-2.37
1081.189	-1.17
1081.61	-8.17
1082.03	-9.17
1082.451	-2.27
1082.871	-4.27
1083.291	-10.27
1083.711	-7.57
1084.132	-4.27
1084.552	-2.47
1084.972	-3.77
1085.392	-8.77
1085.813	-8.57
1086.233	-2.77
1086.653	-3.87
1087.073	-1.57
1087.493	-8.37
1087.913	-2.87
1088.333	-4.77
1088.753	-5.07
1089.173	6.83
1089.593	-7.57
1090.013	1.23
1090.433	1.93
1090.852	-4.77
1091.272	-5.67
1091.692	-1.37
1092.112	-2.47
1092.531	-9.17
1092.951	-12.57
1093.371	1.33
1093.79	1.83
1094.21	-4.17
1094.63	-5.47
1095.049	-1.47
1095.469	-0.37
1095.888	-1.67
1096.308	3.53
1096.727	3.43
1097.146	-10.47
1097.566	-0.97
1097.985	-7.37
1098.405	-3.47
1098.824	-8.57
1099.243	-3.57
1099.662	-4.67
1100.082	-3.77
1100.501	-4.37
1100.92	-6.27
1101.339	-4.37
1101.758	-6.17
