Data from 20171114-ORNL-Ar_H_NY_Subt18_08-04-51-471.txt Node
Date: Tue Nov 14 08:04:51 EST 2017
User: Ender
Spectrometer: HR+D1039
Trigger mode: 0
Integration Time (sec): 2.730000E-2
Scans to average: 10
Electric dark correction enabled: true
Nonlinearity correction enabled: false
Boxcar width: 0
XAxis mode: Wavelengths
Number of Pixels in Spectrum: 2048
>>>>>Begin Spectral Data<<<<<
187.836	-7.09
188.309	-7.09
188.782	-7.09
189.255	-2.39
189.728	-3.79
190.201	9.81
190.674	1.31
191.147	1.41
191.619	-7.29
192.092	-1.79
192.565	6.41
193.038	-1.59
193.511	5.61
193.984	-3.99
194.456	0.91
194.929	-1.89
195.402	1.51
195.874	2.81
196.347	-4.69
196.82	-2.79
197.292	9.91
197.765	1.11
198.237	-5.19
198.71	3.01
199.182	-3.39
199.655	3.91
200.127	5.61
200.6	2.51
201.072	-3.59
201.544	-3.39
202.017	-2.89
202.489	0.71
202.961	1.51
203.433	-0.09
203.906	-1.19
204.378	-2.69
204.85	-1.99
205.322	-8.79
205.794	-0.49
206.266	3.61
206.739	-9.09
207.211	4.81
207.683	-3.39
208.155	0.61
208.627	-3.49
209.099	1.81
209.57	-4.19
210.042	-2.29
210.514	-1.69
210.986	-1.29
211.458	-9.09
211.93	-7.29
212.402	3.21
212.873	-2.89
213.345	-2.19
213.817	-10.69
214.288	0.31
214.76	-8.29
215.232	-5.29
215.703	2.31
216.175	-5.89
216.646	-1.99
217.118	-9.19
217.589	-4.19
218.061	0.21
218.532	-4.49
219.004	-1.19
219.475	-0.79
219.946	1.21
220.418	-4.99
220.889	7.51
221.36	-1.39
221.832	-3.69
222.303	-3.59
222.774	3.31
223.245	-2.89
223.717	-2.19
224.188	1.91
224.659	-7.39
225.13	-4.99
225.601	1.41
226.072	1.81
226.543	2.61
227.014	-0.09
227.485	3.01
227.956	-7.29
228.427	3.61
228.898	4.41
229.369	7.51
229.839	0.21
230.31	-6.49
230.781	-1.29
231.252	-5.09
231.722	-4.59
232.193	-0.49
232.664	3.41
233.135	1.91
233.605	1.91
234.076	-5.89
234.546	0.81
235.017	0.21
235.487	-3.09
235.958	-3.29
236.428	-6.49
236.899	5.01
237.369	5.71
237.84	-1.49
238.31	10.31
238.78	8.11
239.251	3.91
239.721	3.11
240.191	2.21
240.662	-0.19
241.132	3.21
241.602	-2.29
242.072	8.21
242.542	8.11
243.013	0.01
243.483	4.41
243.953	3.31
244.423	5.41
244.893	1.91
245.363	4.51
245.833	7.31
246.303	6.71
246.773	13.51
247.243	3.51
247.712	7.31
248.182	9.11
248.652	11.61
249.122	0.81
249.592	13.81
250.061	26.31
250.531	33.31
251.001	20.81
251.471	31.01
251.94	21.71
252.41	15.81
252.879	3.41
253.349	12.21
253.818	13.11
254.288	8.11
254.757	6.41
255.227	0.81
255.696	12.81
256.166	13.51
256.635	9.41
257.105	15.91
257.574	8.91
258.043	12.21
258.513	17.61
258.982	17.91
259.451	15.31
259.92	16.41
260.389	9.11
260.859	20.01
261.328	13.31
261.797	20.31
262.266	10.71
262.735	9.11
263.204	5.71
263.673	1.71
264.142	11.91
264.611	-1.89
265.08	2.31
265.549	1.11
266.018	10.91
266.487	3.41
266.955	6.31
267.424	3.31
267.893	3.41
268.362	2.61
268.83	1.11
269.299	19.01
269.768	10.91
270.236	7.51
270.705	8.41
271.174	11.11
271.642	13.61
272.111	6.11
272.579	23.21
273.048	21.71
273.516	26.11
273.985	29.61
274.453	23.81
274.922	20.51
275.39	14.71
275.858	7.01
276.327	16.21
276.795	18.71
277.263	9.31
277.731	34.51
278.2	56.21
278.668	57.91
279.136	49.51
279.604	26.91
280.072	20.21
280.54	16.31
281.008	12.31
281.477	11.41
281.945	18.01
282.413	16.61
282.881	21.41
283.348	13.71
283.816	22.81
284.284	10.01
284.752	24.21
285.22	14.21
285.688	19.71
286.156	19.31
286.623	47.11
287.091	57.91
287.559	33.21
288.026	22.01
288.494	24.11
288.962	6.21
289.429	19.21
289.897	18.41
290.364	15.71
290.832	19.81
291.3	15.81
291.767	16.51
292.234	23.61
292.702	21.71
293.169	25.71
293.637	29.21
294.104	22.41
294.571	10.51
295.039	17.21
295.506	23.01
295.973	22.81
296.44	19.01
296.908	24.41
297.375	15.41
297.842	28.01
298.309	24.01
298.776	12.31
299.243	26.71
299.71	17.71
300.177	21.71
300.644	22.71
301.111	21.01
301.578	26.81
302.045	21.31
302.512	20.61
302.979	32.51
303.446	24.61
303.913	26.91
304.379	18.71
304.846	32.11
305.313	25.71
305.78	29.81
306.246	27.51
306.713	30.91
307.18	33.01
307.646	35.91
308.113	38.01
308.579	27.81
309.046	31.11
309.512	26.71
309.979	19.81
310.445	30.11
310.912	30.81
311.378	34.51
311.845	31.01
312.311	34.71
312.777	39.31
313.244	34.11
313.71	42.71
314.176	35.41
314.642	38.11
315.109	35.51
315.575	41.71
316.041	45.81
316.507	32.61
316.973	45.51
317.439	33.11
317.905	38.51
318.371	40.51
318.837	35.51
319.303	37.21
319.769	40.71
320.235	38.71
320.701	39.71
321.167	41.01
321.633	42.31
322.099	43.21
322.564	52.41
323.03	48.61
323.496	42.51
323.962	40.41
324.427	32.31
324.893	44.81
325.359	40.31
325.824	46.51
326.29	44.01
326.755	42.61
327.221	40.11
327.686	43.91
328.152	52.01
328.617	46.31
329.083	50.81
329.548	53.81
330.014	49.81
330.479	39.91
330.944	48.81
331.41	41.51
331.875	49.71
332.34	44.51
332.805	47.21
333.271	49.31
333.736	53.81
334.201	55.71
334.666	56.21
335.131	52.61
335.596	62.41
336.061	56.01
336.526	45.51
336.991	52.41
337.456	54.51
337.921	46.21
338.386	48.31
338.851	54.01
339.316	45.31
339.781	43.01
340.246	57.91
340.711	47.91
341.175	53.41
341.64	47.31
342.105	55.71
342.569	55.71
343.034	61.01
343.499	60.61
343.963	53.51
344.428	67.71
344.893	66.51
345.357	57.81
345.822	68.41
346.286	69.91
346.751	74.81
347.215	71.41
347.679	74.21
348.144	97.51
348.608	82.81
349.073	71.31
349.537	75.01
350.001	86.71
350.465	99.71
350.93	83.71
351.394	83.51
351.858	68.91
352.322	90.61
352.786	86.01
353.25	100.21
353.715	113.91
354.179	100.71
354.643	118.21
355.107	125.41
355.571	110.81
356.035	103.81
356.498	115.71
356.962	130.51
357.426	132.21
357.89	118.01
358.354	96.61
358.818	86.71
359.281	77.91
359.745	78.51
360.209	72.61
360.673	72.31
361.136	84.91
361.6	79.61
362.064	83.71
362.527	88.21
362.991	88.01
363.454	80.11
363.918	83.31
364.381	87.61
364.845	75.31
365.308	89.21
365.772	83.81
366.235	88.61
366.698	85.41
367.162	86.01
367.625	80.51
368.088	83.71
368.552	91.31
369.015	92.61
369.478	96.51
369.941	96.31
370.404	92.31
370.867	103.21
371.331	107.51
371.794	122.11
372.257	114.91
372.72	112.41
373.183	106.51
373.646	108.01
374.109	103.41
374.572	103.51
375.035	108.11
375.497	112.41
375.96	108.21
376.423	105.01
376.886	113.71
377.349	109.91
377.811	100.31
378.274	102.11
378.737	105.01
379.199	107.91
379.662	106.01
380.125	112.61
380.587	113.71
381.05	116.51
381.512	118.61
381.975	140.41
382.437	128.01
382.9	127.61
383.362	131.21
383.825	136.91
384.287	152.71
384.75	134.21
385.212	133.41
385.674	134.21
386.136	137.71
386.599	124.81
387.061	131.91
387.523	126.71
387.985	125.61
388.447	143.81
388.91	144.51
389.372	150.21
389.834	145.31
390.296	138.31
390.758	150.61
391.22	161.71
391.682	197.41
392.144	288.01
392.606	223.21
393.068	164.31
393.529	170.11
393.991	148.31
394.453	145.91
394.915	152.61
395.377	186.41
395.838	201.81
396.3	149.01
396.762	140.91
397.224	129.11
397.685	125.41
398.147	126.91
398.608	130.11
399.07	127.81
399.531	130.21
399.993	141.11
400.454	149.61
400.916	137.51
401.377	137.81
401.839	150.61
402.3	150.11
402.762	159.01
403.223	179.91
403.684	165.01
404.145	156.71
404.607	162.21
405.068	157.11
405.529	163.11
405.99	181.91
406.451	175.31
406.913	173.21
407.374	159.81
407.835	161.31
408.296	157.81
408.757	164.01
409.218	178.21
409.679	172.61
410.14	173.51
410.601	168.71
411.062	181.11
411.522	182.81
411.983	184.11
412.444	170.21
412.905	168.91
413.366	174.01
413.826	193.51
414.287	212.71
414.748	245.81
415.208	241.01
415.669	202.61
416.13	202.11
416.59	198.01
417.051	206.61
417.511	211.81
417.972	230.21
418.432	238.21
418.893	277.91
419.353	236.61
419.814	186.11
420.274	172.51
420.734	176.61
421.195	193.41
421.655	188.51
422.115	188.11
422.576	183.31
423.036	183.11
423.496	196.21
423.956	207.21
424.416	225.91
424.876	256.51
425.336	251.11
425.797	254.31
426.257	248.21
426.717	226.41
427.177	230.31
427.637	216.11
428.097	232.01
428.556	239.31
429.016	256.81
429.476	254.61
429.936	264.71
430.396	269.21
430.856	279.21
431.315	312.31
431.775	337.01
432.235	364.11
432.694	330.91
433.154	346.71
433.614	382.01
434.073	322.41
434.533	274.71
434.993	267.11
435.452	275.41
435.912	287.61
436.371	271.31
436.83	273.01
437.29	266.51
437.749	240.31
438.209	236.21
438.668	269.21
439.127	275.21
439.587	256.81
440.046	236.71
440.505	255.31
440.964	271.01
441.424	306.81
441.883	305.41
442.342	252.01
442.801	216.71
443.26	207.41
443.719	209.61
444.178	217.91
444.637	203.71
445.096	212.61
445.555	209.41
446.014	219.21
446.473	214.51
446.932	220.41
447.391	217.91
447.849	224.31
448.308	211.31
448.767	213.51
449.226	222.21
449.685	220.11
450.143	237.71
450.602	226.21
451.061	216.11
451.519	226.81
451.978	223.21
452.436	221.41
452.895	233.81
453.353	244.21
453.812	233.91
454.27	239.91
454.729	230.21
455.187	233.61
455.646	235.71
456.104	245.81
456.562	248.71
457.021	262.21
457.479	247.31
457.937	257.81
458.395	251.91
458.854	245.11
459.312	242.21
459.77	266.81
460.228	245.91
460.686	236.51
461.144	241.51
461.602	239.41
462.06	237.11
462.518	246.11
462.976	247.81
463.434	253.01
463.892	252.41
464.35	264.11
464.808	275.11
465.266	256.51
465.724	263.41
466.181	268.21
466.639	264.91
467.097	285.21
467.555	297.91
468.012	289.91
468.47	300.51
468.928	324.11
469.385	322.21
469.843	340.71
470.3	335.61
470.758	346.91
471.215	370.61
471.673	397.31
472.13	390.81
472.588	400.21
473.045	355.11
473.503	362.01
473.96	383.81
474.417	400.81
474.875	413.61
475.332	458.91
475.789	439.71
476.246	450.11
476.704	473.31
477.161	488.51
477.618	501.21
478.075	540.31
478.532	585.21
478.989	662.91
479.446	766.51
479.903	739.01
480.36	781.41
480.817	825.51
481.274	946.51
481.731	1036.01
482.188	1125.91
482.645	1260.21
483.102	1354.81
483.558	1500.61
484.015	1548.61
484.472	1522.81
484.929	1461.71
485.385	1425.11
485.842	1388.71
486.299	1328.61
486.755	1262.01
487.212	1057.11
487.668	883.61
488.125	818.61
488.582	747.31
489.038	720.81
489.494	677.81
489.951	662.91
490.407	633.81
490.864	628.41
491.32	619.01
491.776	614.41
492.233	617.51
492.689	590.21
493.145	577.81
493.602	573.71
494.058	596.11
494.514	588.01
494.97	612.61
495.426	621.81
495.882	599.81
496.338	594.51
496.794	600.81
497.251	594.91
497.707	606.51
498.163	611.41
498.618	624.31
499.074	629.81
499.53	662.71
499.986	655.71
500.442	625.51
500.898	614.71
501.354	599.31
501.809	611.71
502.265	615.21
502.721	626.51
503.177	639.81
503.632	640.51
504.088	650.01
504.543	675.61
504.999	682.21
505.455	637.51
505.91	603.21
506.366	613.31
506.821	605.41
507.277	597.01
507.732	604.11
508.187	600.11
508.643	607.41
509.098	609.21
509.553	636.21
510.009	632.21
510.464	638.61
510.919	654.01
511.375	665.41
511.83	685.91
512.285	702.11
512.74	730.11
513.195	756.41
513.65	739.01
514.105	738.01
514.56	745.61
515.015	763.21
515.47	785.71
515.925	765.31
516.38	773.11
516.835	770.31
517.29	754.81
517.745	748.01
518.2	733.01
518.655	718.61
519.109	709.91
519.564	726.61
520.019	701.71
520.474	698.01
520.928	699.61
521.383	692.91
521.838	676.21
522.292	687.51
522.747	677.71
523.201	676.21
523.656	672.21
524.11	661.11
524.565	662.81
525.019	664.71
525.474	659.21
525.928	675.01
526.382	663.21
526.837	668.01
527.291	671.61
527.745	669.61
528.2	673.91
528.654	660.11
529.108	665.31
529.562	660.51
530.016	659.41
530.47	661.81
530.925	658.81
531.379	669.71
531.833	677.01
532.287	678.71
532.741	683.01
533.195	675.21
533.649	691.31
534.103	691.11
534.556	682.21
535.01	675.81
535.464	684.41
535.918	697.71
536.372	692.61
536.826	694.01
537.279	677.01
537.733	689.81
538.187	688.71
538.64	681.21
539.094	690.31
539.548	695.21
540.001	696.51
540.455	691.51
540.908	698.71
541.362	699.51
541.815	713.31
542.269	721.31
542.722	726.11
543.175	737.41
543.629	731.01
544.082	736.51
544.536	753.51
544.989	742.61
545.442	749.81
545.895	739.21
546.349	752.21
546.802	745.31
547.255	746.71
547.708	753.21
548.161	769.31
548.614	773.71
549.067	788.11
549.52	786.71
549.973	773.01
550.426	757.81
550.879	765.31
551.332	760.51
551.785	765.11
552.238	765.51
552.691	769.71
553.144	784.51
553.596	791.81
554.049	820.31
554.502	838.71
554.955	870.11
555.407	860.31
555.86	860.41
556.313	847.81
556.765	833.21
557.218	837.71
557.67	841.71
558.123	837.71
558.576	818.11
559.028	832.01
559.48	839.41
559.933	833.11
560.385	791.91
560.838	762.41
561.29	740.31
561.742	737.41
562.195	719.41
562.647	715.81
563.099	737.11
563.551	728.21
564.004	730.31
564.456	730.51
564.908	727.71
565.36	711.81
565.812	693.31
566.264	682.11
566.716	690.51
567.168	664.81
567.62	685.51
568.072	656.81
568.524	644.41
568.976	641.01
569.428	626.11
569.88	630.81
570.332	637.31
570.784	641.51
571.235	645.21
571.687	654.61
572.139	653.71
572.59	671.61
573.042	672.91
573.494	663.51
573.945	670.11
574.397	633.91
574.849	637.41
575.3	643.11
575.752	645.71
576.203	631.61
576.655	634.71
577.106	631.11
577.557	620.41
578.009	627.61
578.46	619.41
578.912	623.11
579.363	624.81
579.814	625.91
580.265	626.01
580.717	625.81
581.168	625.41
581.619	641.71
582.07	632.71
582.521	628.11
582.972	621.21
583.423	617.31
583.875	634.61
584.326	652.41
584.777	691.41
585.227	763.51
585.678	841.91
586.129	931.41
586.58	998.71
587.031	1063.81
587.482	1230.01
587.933	1402.91
588.384	1214.31
588.834	902.41
589.285	746.31
589.736	731.61
590.186	722.51
590.637	709.51
591.088	700.11
591.538	690.61
591.989	676.71
592.439	673.91
592.89	667.81
593.34	655.61
593.791	655.41
594.241	649.41
594.692	662.81
595.142	645.91
595.593	647.81
596.043	657.51
596.493	662.31
596.943	652.21
597.394	670.71
597.844	668.31
598.294	675.91
598.744	694.41
599.195	709.31
599.645	752.91
600.095	788.51
600.545	848.71
600.995	893.61
601.445	951.91
601.895	995.91
602.345	1039.31
602.795	1024.61
603.245	986.21
603.695	942.61
604.145	883.41
604.594	845.31
605.044	787.01
605.494	736.91
605.944	697.71
606.393	686.51
606.843	659.71
607.293	672.21
607.743	672.81
608.192	692.41
608.642	695.51
609.091	699.81
609.541	702.11
609.99	700.31
610.44	698.81
610.889	654.51
611.339	641.51
611.788	623.51
612.238	644.01
612.687	651.91
613.136	653.41
613.586	680.71
614.035	673.31
614.484	698.01
614.933	695.91
615.383	689.91
615.832	680.61
616.281	660.11
616.73	633.21
617.179	609.81
617.628	602.61
618.077	575.81
618.526	574.91
618.975	557.41
619.424	565.71
619.873	560.91
620.322	572.31
620.771	549.11
621.22	548.41
621.669	534.91
622.118	530.41
622.567	528.01
623.015	523.21
623.464	520.91
623.913	512.41
624.361	497.11
624.81	501.51
625.259	512.91
625.707	506.41
626.156	509.31
626.604	514.91
627.053	516.31
627.501	516.31
627.95	518.01
628.398	527.81
628.847	514.91
629.295	522.11
629.744	523.81
630.192	510.31
630.64	508.41
631.089	505.81
631.537	524.91
631.985	541.41
632.433	544.01
632.881	543.21
633.33	589.21
633.778	571.01
634.226	511.01
634.674	520.21
635.122	528.71
635.57	533.81
636.018	564.61
636.466	526.21
636.914	507.71
637.362	516.51
637.81	526.21
638.258	521.01
638.705	520.61
639.153	545.51
639.601	554.31
640.049	575.31
640.497	609.51
640.944	625.31
641.392	575.91
641.84	558.81
642.287	521.41
642.735	508.31
643.182	513.21
643.63	513.71
644.078	524.31
644.525	546.71
644.973	537.31
645.42	542.71
645.867	564.71
646.315	567.91
646.762	592.01
647.21	624.71
647.657	645.91
648.104	673.41
648.551	687.81
648.999	748.91
649.446	817.31
649.893	893.51
650.34	1036.51
650.787	1237.31
651.234	1524.21
651.682	1997.01
652.129	2712.31
652.576	3914.71
653.023	5784.81
653.47	8029.11
653.917	10076.91
654.363	11776.01
654.81	13183.31
655.257	12566.91
655.704	8115.11
656.151	4788.41
656.598	3083.21
657.044	2195.61
657.491	1677.31
657.938	1349.01
658.385	1108.21
658.831	979.71
659.278	864.51
659.724	771.51
660.171	712.71
660.618	651.11
661.064	608.61
661.511	595.71
661.957	585.11
662.404	573.21
662.85	583.41
663.296	564.61
663.743	499.11
664.189	487.61
664.635	483.81
665.082	466.01
665.528	477.51
665.974	465.21
666.42	461.81
666.867	450.91
667.313	444.21
667.759	428.61
668.205	426.81
668.651	430.81
669.097	427.01
669.543	447.51
669.989	414.71
670.435	406.41
670.881	405.61
671.327	409.21
671.773	423.01
672.219	433.51
672.665	480.41
673.11	517.51
673.556	550.01
674.002	605.61
674.448	587.31
674.893	486.51
675.339	423.31
675.785	394.81
676.23	367.91
676.676	345.61
677.122	339.81
677.567	339.81
678.013	327.81
678.458	319.01
678.904	321.51
679.349	304.91
679.794	312.41
680.24	311.11
680.685	307.11
681.131	298.61
681.576	311.91
682.021	318.01
682.466	309.01
682.912	309.31
683.357	303.31
683.802	341.31
684.247	360.01
684.692	411.31
685.137	441.41
685.583	481.31
686.028	499.01
686.473	464.41
686.918	395.01
687.363	366.41
687.807	356.41
688.252	320.21
688.697	311.01
689.142	298.81
689.587	289.51
690.032	286.71
690.477	302.41
690.921	304.81
691.366	330.31
691.811	357.81
692.255	379.41
692.7	415.31
693.145	434.61
693.589	605.81
694.034	964.01
694.478	1334.31
694.923	1547.11
695.367	2040.31
695.812	1050.11
696.256	442.01
696.701	330.61
697.145	300.01
697.59	293.51
698.034	286.91
698.478	292.31
698.922	287.21
699.367	290.81
699.811	304.01
700.255	313.21
700.699	333.41
701.143	376.91
701.588	423.51
702.032	458.41
702.476	456.61
702.92	431.61
703.364	432.11
703.808	538.81
704.252	881.01
704.696	1255.11
705.14	1495.71
705.584	1919.91
706.027	941.31
706.471	456.11
706.915	351.31
707.359	308.21
707.803	273.31
708.246	277.11
708.69	276.01
709.134	281.61
709.577	274.31
710.021	279.31
710.465	274.31
710.908	269.11
711.352	272.21
711.795	271.11
712.239	300.91
712.682	338.11
713.126	361.51
713.569	411.91
714.012	331.21
714.456	281.91
714.899	258.11
715.342	245.61
715.786	235.51
716.229	223.41
716.672	221.61
717.115	211.61
717.558	215.91
718.002	215.81
718.445	235.61
718.888	251.21
719.331	252.61
719.774	268.71
720.217	270.21
720.66	250.01
721.103	239.41
721.546	223.01
721.989	222.61
722.432	206.41
722.874	211.01
723.317	199.41
723.76	207.81
724.203	225.01
724.645	273.51
725.088	386.01
725.531	508.71
725.974	572.01
726.416	481.21
726.859	267.01
727.301	213.81
727.744	206.81
728.187	210.71
728.629	209.11
729.071	206.61
729.514	226.61
729.956	238.71
730.399	255.31
730.841	251.71
731.283	239.21
731.726	230.41
732.168	226.51
732.61	239.61
733.053	247.71
733.495	268.11
733.937	312.51
734.379	351.91
734.821	373.41
735.263	466.71
735.705	715.71
736.148	1348.91
736.59	2237.51
737.032	2713.71
737.474	2219.71
737.916	704.91
738.357	371.61
738.799	283.11
739.241	259.21
739.683	247.41
740.125	253.91
740.567	257.51
741.008	277.81
741.45	281.21
741.892	273.51
742.334	304.41
742.775	310.01
743.217	303.91
743.658	244.21
744.1	220.31
744.542	228.51
744.983	278.61
745.425	308.81
745.866	302.91
746.307	247.81
746.749	242.21
747.19	281.21
747.632	386.11
748.073	736.61
748.514	1577.61
748.956	2489.91
749.397	3122.21
749.838	2588.21
750.279	2652.81
750.72	1337.01
751.162	482.81
751.603	282.81
752.044	217.21
752.485	186.31
752.926	187.01
753.367	174.91
753.808	176.71
754.249	169.71
754.69	159.91
755.131	158.31
755.572	162.51
756.013	151.31
756.453	161.01
756.894	163.61
757.335	161.31
757.776	172.71
758.216	169.31
758.657	177.31
759.098	177.11
759.538	191.41
759.979	225.21
760.42	313.51
760.86	588.21
761.301	1525.21
761.741	3792.61
762.182	5773.21
762.622	4073.01
763.063	1162.71
763.503	470.91
763.943	308.61
764.384	296.51
764.824	355.41
765.264	386.31
765.705	269.81
766.145	178.11
766.585	161.01
767.025	161.81
767.465	162.51
767.906	210.21
768.346	280.51
768.786	300.11
769.226	223.31
769.666	270.21
770.106	511.71
770.546	1316.21
770.986	2331.01
771.426	2117.21
771.866	690.31
772.306	283.01
772.745	184.51
773.185	155.11
773.625	146.61
774.065	140.71
774.505	167.61
774.944	261.91
775.384	578.81
775.824	1084.71
776.263	1081.81
776.703	447.11
777.142	195.21
777.582	138.61
778.021	122.81
778.461	118.51
778.9	124.81
779.34	111.21
779.779	94.21
780.219	96.91
780.658	95.91
781.097	99.71
781.537	96.31
781.976	92.91
782.415	93.21
782.855	92.71
783.294	88.71
783.733	89.71
784.172	96.31
784.611	89.81
785.05	94.71
785.489	103.61
785.928	103.41
786.367	107.11
786.806	103.01
787.245	109.01
787.684	121.61
788.123	127.11
788.562	115.51
789.001	113.01
789.44	106.21
789.879	99.61
790.317	104.11
790.756	109.91
791.195	116.61
791.634	130.21
792.072	177.01
792.511	318.01
792.95	842.01
793.388	1871.61
793.827	1751.11
794.265	590.41
794.704	247.71
795.142	158.51
795.581	136.41
796.019	123.91
796.458	116.81
796.896	109.61
797.334	116.31
797.773	136.11
798.211	181.81
798.649	376.51
799.087	879.41
799.526	1383.41
799.964	1756.41
800.402	1800.51
800.84	673.31
801.278	267.31
801.716	161.61
802.154	133.71
802.592	125.01
803.03	125.41
803.468	112.31
803.906	123.61
804.344	134.01
804.782	124.21
805.22	118.21
805.658	109.11
806.096	123.71
806.533	135.71
806.971	156.81
807.409	187.11
807.847	266.01
808.284	549.01
808.722	1582.61
809.16	2900.51
809.597	2675.51
810.035	4724.01
810.472	5255.51
810.91	1873.01
811.347	699.01
811.785	356.51
812.222	229.91
812.66	167.31
813.097	141.01
813.535	124.61
813.972	114.51
814.409	104.21
814.846	99.31
815.284	103.81
815.721	92.21
816.158	95.01
816.595	99.11
817.032	155.21
817.47	180.11
817.907	142.51
818.344	129.91
818.781	103.91
819.218	89.11
819.655	112.01
820.092	167.71
820.529	191.61
820.966	156.91
821.403	128.01
821.839	102.61
822.276	97.21
822.713	109.21
823.15	117.91
823.587	105.41
824.023	128.91
824.46	245.51
824.897	762.61
825.333	1207.31
825.77	511.21
826.206	201.31
826.643	111.21
827.08	85.11
827.516	74.71
827.953	72.01
828.389	75.41
828.825	54.41
829.262	59.01
829.698	56.91
830.135	55.71
830.571	56.61
831.007	56.01
831.443	56.41
831.88	58.81
832.316	60.31
832.752	54.61
833.188	57.31
833.624	56.01
834.06	52.01
834.497	61.31
834.933	62.81
835.369	66.31
835.805	54.51
836.241	67.91
836.677	73.71
837.112	71.41
837.548	87.91
837.984	117.01
838.42	173.71
838.856	418.21
839.292	1308.71
839.727	2067.41
840.163	955.71
840.599	790.31
841.034	1764.01
841.47	1921.91
841.906	684.71
842.341	291.21
842.777	202.91
843.212	280.31
843.648	282.11
844.083	130.81
844.519	79.11
844.954	64.81
845.39	56.91
845.825	49.21
846.261	53.31
846.696	54.11
847.131	49.11
847.566	49.81
848.002	47.21
848.437	42.61
848.872	48.41
849.307	54.71
849.742	73.51
850.177	153.31
850.613	474.21
851.048	787.71
851.483	338.01
851.918	135.11
852.353	74.11
852.788	54.51
853.223	47.31
853.657	44.51
854.092	45.41
854.527	35.11
854.962	44.11
855.397	38.01
855.832	42.81
856.266	34.01
856.701	32.31
857.136	32.11
857.57	38.31
858.005	46.81
858.44	52.61
858.874	41.51
859.309	54.21
859.743	29.81
860.178	46.61
860.612	34.41
861.047	45.81
861.481	54.01
861.915	61.71
862.35	45.31
862.784	32.41
863.218	35.11
863.653	33.31
864.087	43.71
864.521	48.51
864.955	59.01
865.39	135.61
865.824	152.11
866.258	103.41
866.692	147.91
867.126	158.21
867.56	99.41
867.994	52.71
868.428	34.21
868.862	39.21
869.296	48.81
869.73	48.81
870.164	55.71
870.598	38.21
871.031	33.21
871.465	29.31
871.899	33.31
872.333	19.11
872.766	25.41
873.2	18.81
873.634	30.11
874.067	20.11
874.501	27.11
874.935	27.01
875.368	33.41
875.802	28.71
876.235	25.11
876.669	23.71
877.102	18.21
877.535	26.61
877.969	25.31
878.402	25.51
878.836	19.91
879.269	23.81
879.702	18.81
880.135	17.61
880.569	18.01
881.002	26.61
881.435	23.21
881.868	14.11
882.301	21.21
882.734	13.11
883.167	22.61
883.601	18.31
884.034	20.61
884.467	10.31
884.899	21.11
885.332	21.01
885.765	7.31
886.198	13.71
886.631	14.71
887.064	15.41
887.497	18.01
887.929	24.01
888.362	9.41
888.795	4.01
889.228	13.31
889.66	24.51
890.093	17.11
890.526	19.21
890.958	18.01
891.391	17.71
891.823	15.31
892.256	13.51
892.688	10.81
893.121	10.01
893.553	13.81
893.985	23.71
894.418	17.21
894.85	10.11
895.282	15.71
895.715	15.11
896.147	16.21
896.579	16.51
897.011	13.81
897.444	9.71
897.876	12.11
898.308	19.61
898.74	14.11
899.172	8.41
899.604	21.31
900.036	19.91
900.468	15.61
900.9	13.41
901.332	18.71
901.764	14.71
902.196	15.71
902.628	17.61
903.06	14.31
903.491	27.11
903.923	18.51
904.355	18.71
904.787	23.31
905.218	22.01
905.65	15.71
906.082	8.31
906.513	13.01
906.945	14.01
907.376	13.51
907.808	13.91
908.239	24.71
908.671	13.41
909.102	20.21
909.534	19.51
909.965	37.81
910.397	80.51
910.828	276.81
911.259	431.81
911.691	197.01
912.122	92.51
912.553	50.21
912.984	31.81
913.415	30.61
913.847	22.41
914.278	16.51
914.709	13.51
915.14	11.91
915.571	15.41
916.002	16.41
916.433	25.61
916.864	9.41
917.295	16.01
917.726	19.21
918.157	16.31
918.587	28.41
919.018	21.01
919.449	19.01
919.88	22.01
920.311	25.71
920.741	45.21
921.172	146.61
921.603	128.91
922.033	61.61
922.464	41.01
922.895	19.11
923.325	21.21
923.756	15.41
924.186	14.31
924.617	26.31
925.047	40.91
925.478	47.21
925.908	40.51
926.338	19.51
926.769	20.31
927.199	15.71
927.629	10.61
928.06	14.81
928.49	11.81
928.92	7.21
929.35	11.31
929.78	5.41
930.21	10.51
930.641	10.31
931.071	12.11
931.501	11.21
931.931	10.51
932.361	9.01
932.791	4.61
933.221	7.01
933.651	3.51
934.08	14.31
934.51	28.11
934.94	9.51
935.37	8.41
935.8	14.31
936.229	10.21
936.659	9.31
937.089	-0.09
937.519	17.71
937.948	19.61
938.378	18.81
938.807	2.91
939.237	7.81
939.666	10.21
940.096	2.01
940.525	2.51
940.955	2.41
941.384	6.71
941.814	-1.29
942.243	0.31
942.672	2.41
943.102	1.41
943.531	-3.59
943.96	13.21
944.39	3.41
944.819	4.51
945.248	7.11
945.677	0.71
946.106	6.21
946.535	3.61
946.964	5.21
947.393	2.81
947.822	1.01
948.251	-2.09
948.68	3.41
949.109	5.61
949.538	4.11
949.967	-1.39
950.396	5.91
950.825	5.11
951.254	0.41
951.682	-1.79
952.111	3.11
952.54	4.21
952.969	-2.79
953.397	-5.29
953.826	5.41
954.254	-3.09
954.683	3.71
955.112	-1.19
955.54	1.71
955.969	2.11
956.397	-2.29
956.826	0.31
957.254	6.21
957.682	-0.59
958.111	3.01
958.539	7.11
958.967	1.31
959.396	-2.29
959.824	4.21
960.252	4.71
960.68	-4.39
961.109	1.41
961.537	-1.59
961.965	0.41
962.393	-0.89
962.821	-4.99
963.249	-3.99
963.677	0.31
964.105	0.11
964.533	40.71
964.961	37.71
965.389	23.91
965.817	12.41
966.245	0.31
966.672	-0.09
967.1	-8.89
967.528	5.51
967.956	1.81
968.383	1.11
968.811	0.01
969.239	5.31
969.666	-0.49
970.094	4.91
970.522	1.51
970.949	1.81
971.377	-5.39
971.804	-3.89
972.232	-1.19
972.659	0.21
973.087	-0.79
973.514	2.21
973.941	-3.29
974.369	5.71
974.796	2.31
975.223	0.11
975.651	-2.29
976.078	1.11
976.505	0.91
976.932	4.61
977.359	15.51
977.786	20.71
978.214	0.31
978.641	-1.79
979.068	-8.29
979.495	1.51
979.922	-3.89
980.349	-2.49
980.776	6.41
981.202	-0.19
981.629	10.21
982.056	4.31
982.483	2.01
982.91	-0.29
983.337	-8.59
983.763	0.41
984.19	-1.59
984.617	-8.69
985.043	-1.09
985.47	-0.09
985.897	2.41
986.323	-10.09
986.75	4.51
987.176	-6.69
987.603	-2.49
988.029	2.11
988.456	1.01
988.882	2.61
989.308	-4.39
989.735	-9.09
990.161	-1.69
990.587	-5.69
991.014	-0.09
991.44	8.51
991.866	-2.89
992.292	1.01
992.719	3.61
993.145	5.01
993.571	-4.89
993.997	-4.39
994.423	-1.69
994.849	-2.89
995.275	7.21
995.701	4.11
996.127	-5.99
996.553	1.81
996.979	-3.49
997.405	-2.79
997.83	-4.89
998.256	-11.49
998.682	-1.29
999.108	-7.39
999.534	1.21
999.959	3.61
1000.385	-0.69
1000.811	3.11
1001.236	-5.69
1001.662	-7.09
1002.087	-9.19
1002.513	-0.29
1002.938	1.91
1003.364	-2.49
1003.789	-3.59
1004.215	6.91
1004.64	-3.79
1005.066	3.61
1005.491	-0.19
1005.916	-1.19
1006.342	-3.89
1006.767	-5.99
1007.192	-0.09
1007.617	1.01
1008.042	0.01
1008.468	-3.19
1008.893	-1.39
1009.318	-1.59
1009.743	-4.29
1010.168	5.31
1010.593	0.31
1011.018	-6.89
1011.443	-1.79
1011.868	-0.09
1012.293	4.01
1012.718	-5.19
1013.143	4.51
1013.567	-1.09
1013.992	0.71
1014.417	-7.89
1014.842	1.31
1015.267	-5.19
1015.691	-2.79
1016.116	4.31
1016.541	1.61
1016.965	5.61
1017.39	3.11
1017.814	0.71
1018.239	-2.49
1018.663	-8.59
1019.088	-8.89
1019.512	-1.19
1019.937	0.21
1020.361	0.11
1020.785	-14.89
1021.21	-4.89
1021.634	-1.79
1022.058	6.11
1022.483	8.71
1022.907	-9.49
1023.331	-4.79
1023.755	-6.19
1024.179	-2.99
1024.604	-10.19
1025.028	-6.39
1025.452	-5.29
1025.876	-0.89
1026.3	2.51
1026.724	-7.39
1027.148	-2.29
1027.572	-2.29
1027.996	-6.99
1028.42	-2.49
1028.843	-4.69
1029.267	-9.79
1029.691	-9.19
1030.115	-4.89
1030.539	-10.19
1030.962	-9.19
1031.386	-9.99
1031.81	1.61
1032.233	-2.59
1032.657	-1.49
1033.08	-0.59
1033.504	2.71
1033.927	4.81
1034.351	-3.49
1034.774	-7.29
1035.198	-4.49
1035.621	3.31
1036.045	-6.09
1036.468	2.61
1036.891	-11.19
1037.315	-5.09
1037.738	-4.69
1038.161	0.61
1038.584	-4.69
1039.008	-2.19
1039.431	2.21
1039.854	-4.89
1040.277	-8.59
1040.7	-12.19
1041.123	4.21
1041.546	-4.29
1041.969	-9.19
1042.392	-5.59
1042.815	-2.49
1043.238	-1.89
1043.661	-1.99
1044.084	-3.79
1044.507	-0.99
1044.93	-7.39
1045.352	-12.19
1045.775	2.31
1046.198	4.91
1046.621	-2.59
1047.043	-1.09
1047.466	4.61
1047.889	-4.59
1048.311	-6.99
1048.734	-2.49
1049.156	2.11
1049.579	0.61
1050.001	-4.79
1050.424	-5.99
1050.846	-1.29
1051.269	-1.19
1051.691	-5.39
1052.113	-6.19
1052.536	1.91
1052.958	2.21
1053.38	-5.19
1053.802	-11.79
1054.225	4.91
1054.647	-8.29
1055.069	-0.79
1055.491	0.91
1055.913	-9.59
1056.335	-0.99
1056.757	-6.89
1057.179	-6.39
1057.601	-0.89
1058.023	-5.49
1058.445	-1.89
1058.867	0.51
1059.289	1.31
1059.711	-8.49
1060.133	-0.89
1060.555	-8.99
1060.976	-6.89
1061.398	-2.69
1061.82	-9.49
1062.241	-4.59
1062.663	-9.89
1063.085	-3.19
1063.506	1.81
1063.928	-0.09
1064.35	-0.09
1064.771	-9.69
1065.193	-1.09
1065.614	-4.99
1066.035	4.41
1066.457	1.61
1066.878	3.51
1067.3	-4.99
1067.721	-2.69
1068.142	-5.49
1068.564	-6.79
1068.985	-5.79
1069.406	-14.69
1069.827	-1.79
1070.248	-2.79
1070.67	-2.69
1071.091	2.11
1071.512	-0.19
1071.933	-3.59
1072.354	-5.29
1072.775	0.51
1073.196	-4.79
1073.617	-2.99
1074.038	-4.19
1074.459	0.01
1074.88	-2.79
1075.3	-0.89
1075.721	-4.99
1076.142	7.81
1076.563	3.11
1076.983	-6.19
1077.404	-4.79
1077.825	-8.79
1078.246	-4.99
1078.666	-11.39
1079.087	-2.19
1079.507	-5.99
1079.928	5.31
1080.348	4.01
1080.769	-5.89
1081.189	-0.79
1081.61	2.51
1082.03	-5.99
1082.451	-4.89
1082.871	-1.09
1083.291	-3.59
1083.711	-8.69
1084.132	-2.39
1084.552	-12.49
1084.972	-1.99
1085.392	-11.49
1085.813	-6.69
1086.233	-1.59
1086.653	-3.29
1087.073	-0.19
1087.493	-8.89
1087.913	-3.89
1088.333	-6.19
1088.753	-0.19
1089.173	-1.49
1089.593	-7.09
1090.013	3.41
1090.433	5.21
1090.852	0.81
1091.272	-0.79
1091.692	-6.89
1092.112	3.41
1092.531	-7.89
1092.951	-14.09
1093.371	-1.19
1093.79	1.31
1094.21	-6.59
1094.63	-4.39
1095.049	-2.69
1095.469	-6.39
1095.888	0.11
1096.308	2.31
1096.727	8.91
1097.146	-4.69
1097.566	-1.79
1097.985	-11.09
1098.405	-4.59
1098.824	-4.19
1099.243	-4.19
1099.662	-3.49
1100.082	-3.79
1100.501	1.91
1100.92	-2.79
1101.339	-5.39
1101.758	-1.19
