Data from 20171114-ORNL-Ar_H_NY_Subt18_08-08-42-710.txt Node
Date: Tue Nov 14 08:08:42 EST 2017
User: Ender
Spectrometer: HR+D1039
Trigger mode: 0
Integration Time (sec): 2.730000E-2
Scans to average: 10
Electric dark correction enabled: true
Nonlinearity correction enabled: false
Boxcar width: 0
XAxis mode: Wavelengths
Number of Pixels in Spectrum: 2048
>>>>>Begin Spectral Data<<<<<
187.836	-7.79
188.309	-7.79
188.782	-7.79
189.255	4.01
189.728	-1.89
190.201	4.61
190.674	1.41
191.147	0.81
191.619	-7.59
192.092	2.41
192.565	6.31
193.038	0.51
193.511	0.71
193.984	0.71
194.456	-3.89
194.929	2.61
195.402	-2.29
195.874	-0.69
196.347	-0.49
196.82	-3.29
197.292	1.31
197.765	-4.39
198.237	-4.29
198.71	6.21
199.182	-3.39
199.655	1.61
200.127	-1.89
200.6	5.41
201.072	-2.59
201.544	-0.69
202.017	-1.99
202.489	7.41
202.961	-1.89
203.433	-5.59
203.906	-3.69
204.378	-6.49
204.85	-2.19
205.322	-6.89
205.794	5.71
206.266	2.91
206.739	-3.89
207.211	1.01
207.683	-11.09
208.155	-5.89
208.627	-7.89
209.099	-5.49
209.57	-8.89
210.042	-7.09
210.514	-10.39
210.986	-2.19
211.458	-8.99
211.93	-5.79
212.402	0.01
212.873	-7.29
213.345	-8.89
213.817	-9.69
214.288	-6.39
214.76	-13.49
215.232	1.71
215.703	0.91
216.175	-3.19
216.646	0.41
217.118	-9.79
217.589	-2.19
218.061	-3.29
218.532	-4.39
219.004	5.21
219.475	-2.09
219.946	-3.89
220.418	-4.99
220.889	0.11
221.36	0.01
221.832	0.61
222.303	-8.29
222.774	3.01
223.245	-6.99
223.717	-2.89
224.188	-2.89
224.659	-7.29
225.13	-3.89
225.601	-2.09
226.072	-0.79
226.543	-0.79
227.014	-1.39
227.485	-4.89
227.956	-4.69
228.427	-0.39
228.898	-0.29
229.369	4.21
229.839	-3.09
230.31	-4.29
230.781	-0.59
231.252	-0.79
231.722	-5.09
232.193	-2.39
232.664	0.61
233.135	-3.59
233.605	1.51
234.076	-2.69
234.546	1.81
235.017	5.21
235.487	-0.69
235.958	0.31
236.428	-7.99
236.899	0.11
237.369	-4.59
237.84	-0.99
238.31	-2.19
238.78	-0.19
239.251	-2.69
239.721	-1.19
240.191	1.71
240.662	-1.79
241.132	-4.19
241.602	-4.69
242.072	-1.69
242.542	10.91
243.013	0.41
243.483	0.61
243.953	-0.69
244.423	-2.09
244.893	-3.99
245.363	2.01
245.833	1.31
246.303	-2.69
246.773	3.11
247.243	2.01
247.712	2.01
248.182	7.71
248.652	-0.99
249.122	-5.29
249.592	4.81
250.061	11.71
250.531	17.31
251.001	1.61
251.471	14.31
251.94	14.61
252.41	4.21
252.879	-6.79
253.349	13.71
253.818	3.21
254.288	4.51
254.757	3.61
255.227	-0.89
255.696	-0.99
256.166	4.31
256.635	7.41
257.105	1.61
257.574	0.31
258.043	1.51
258.513	2.21
258.982	2.91
259.451	-3.49
259.92	3.31
260.389	2.71
260.859	13.51
261.328	4.11
261.797	7.61
262.266	2.01
262.735	7.41
263.204	14.01
263.673	-2.19
264.142	5.91
264.611	-2.49
265.08	-3.69
265.549	-9.19
266.018	4.71
266.487	1.61
266.955	-5.79
267.424	-3.49
267.893	0.41
268.362	1.71
268.83	4.61
269.299	11.81
269.768	-0.99
270.236	6.41
270.705	3.31
271.174	7.21
271.642	7.81
272.111	2.51
272.579	8.11
273.048	8.71
273.516	15.51
273.985	10.41
274.453	14.71
274.922	15.11
275.39	9.31
275.858	5.81
276.327	6.91
276.795	17.01
277.263	5.91
277.731	22.71
278.2	29.51
278.668	27.31
279.136	32.21
279.604	10.21
280.072	15.61
280.54	5.31
281.008	3.21
281.477	10.71
281.945	13.21
282.413	9.91
282.881	5.51
283.348	7.51
283.816	5.81
284.284	12.81
284.752	12.31
285.22	10.81
285.688	8.21
286.156	9.91
286.623	28.11
287.091	36.21
287.559	24.61
288.026	11.31
288.494	13.81
288.962	6.01
289.429	7.01
289.897	7.61
290.364	11.21
290.832	17.61
291.3	12.71
291.767	14.61
292.234	12.21
292.702	10.41
293.169	11.81
293.637	21.01
294.104	11.71
294.571	5.21
295.039	7.41
295.506	11.81
295.973	13.61
296.44	7.41
296.908	14.31
297.375	16.01
297.842	18.41
298.309	14.21
298.776	8.51
299.243	14.91
299.71	-0.19
300.177	14.31
300.644	15.71
301.111	11.41
301.578	12.61
302.045	15.21
302.512	17.21
302.979	18.91
303.446	14.61
303.913	11.91
304.379	14.71
304.846	22.61
305.313	18.21
305.78	17.51
306.246	24.01
306.713	19.91
307.18	17.61
307.646	19.91
308.113	26.01
308.579	20.01
309.046	19.71
309.512	20.11
309.979	13.21
310.445	17.51
310.912	21.71
311.378	30.71
311.845	21.41
312.311	34.01
312.777	27.21
313.244	20.71
313.71	36.61
314.176	24.01
314.642	18.91
315.109	14.81
315.575	24.31
316.041	31.41
316.507	24.31
316.973	30.81
317.439	31.81
317.905	30.61
318.371	30.51
318.837	27.31
319.303	28.31
319.769	28.11
320.235	29.31
320.701	23.71
321.167	27.41
321.633	23.61
322.099	38.41
322.564	30.31
323.03	32.81
323.496	32.21
323.962	35.01
324.427	33.31
324.893	36.51
325.359	31.81
325.824	32.21
326.29	33.41
326.755	33.21
327.221	37.61
327.686	36.71
328.152	47.31
328.617	36.11
329.083	42.41
329.548	48.11
330.014	44.71
330.479	36.81
330.944	32.61
331.41	37.21
331.875	37.81
332.34	32.01
332.805	43.51
333.271	43.61
333.736	32.91
334.201	47.21
334.666	46.91
335.131	45.21
335.596	48.91
336.061	41.91
336.526	35.31
336.991	37.41
337.456	49.41
337.921	41.71
338.386	44.71
338.851	41.91
339.316	40.01
339.781	40.41
340.246	46.51
340.711	42.01
341.175	45.21
341.64	34.51
342.105	42.31
342.569	47.41
343.034	50.21
343.499	50.31
343.963	48.91
344.428	56.41
344.893	51.61
345.357	54.71
345.822	54.31
346.286	60.71
346.751	62.21
347.215	57.51
347.679	66.41
348.144	82.01
348.608	74.11
349.073	59.81
349.537	68.41
350.001	72.21
350.465	73.81
350.93	68.31
351.394	80.91
351.858	62.31
352.322	87.41
352.786	69.71
353.25	83.41
353.715	92.61
354.179	94.71
354.643	106.91
355.107	109.31
355.571	95.01
356.035	97.21
356.498	103.71
356.962	103.31
357.426	113.91
357.89	94.71
358.354	85.51
358.818	78.61
359.281	76.01
359.745	67.01
360.209	69.21
360.673	64.71
361.136	75.51
361.6	81.31
362.064	77.71
362.527	82.81
362.991	79.91
363.454	72.41
363.918	73.51
364.381	73.51
364.845	77.01
365.308	81.11
365.772	77.31
366.235	86.61
366.698	79.21
367.162	78.41
367.625	77.51
368.088	81.31
368.552	78.21
369.015	80.11
369.478	91.31
369.941	89.81
370.404	81.41
370.867	95.21
371.331	93.81
371.794	100.31
372.257	100.01
372.72	103.21
373.183	107.81
373.646	88.51
374.109	96.51
374.572	100.91
375.035	99.51
375.497	97.51
375.96	102.61
376.423	99.71
376.886	108.51
377.349	98.81
377.811	97.51
378.274	94.61
378.737	98.01
379.199	104.31
379.662	110.11
380.125	106.01
380.587	103.41
381.05	110.41
381.512	117.11
381.975	117.11
382.437	117.21
382.9	110.71
383.362	114.01
383.825	128.01
384.287	128.61
384.75	119.91
385.212	129.21
385.674	126.81
386.136	126.91
386.599	122.51
387.061	119.31
387.523	121.91
387.985	125.81
388.447	132.81
388.91	129.01
389.372	144.11
389.834	137.31
390.296	126.41
390.758	140.41
391.22	150.81
391.682	174.61
392.144	216.31
392.606	183.61
393.068	148.71
393.529	156.81
393.991	143.21
394.453	138.61
394.915	138.91
395.377	155.21
395.838	170.61
396.3	150.31
396.762	141.61
397.224	128.71
397.685	129.41
398.147	131.01
398.608	130.81
399.07	129.91
399.531	134.01
399.993	142.41
400.454	145.91
400.916	148.11
401.377	144.31
401.839	153.61
402.3	156.61
402.762	157.21
403.223	175.01
403.684	164.11
404.145	162.21
404.607	150.01
405.068	158.91
405.529	153.71
405.99	189.01
406.451	173.81
406.913	173.81
407.374	163.41
407.835	165.11
408.296	165.01
408.757	178.41
409.218	183.41
409.679	175.41
410.14	174.61
410.601	168.31
411.062	177.21
411.522	180.11
411.983	179.61
412.444	175.11
412.905	177.21
413.366	182.21
413.826	195.81
414.287	221.91
414.748	266.61
415.208	247.21
415.669	211.71
416.13	202.81
416.59	199.81
417.051	217.61
417.511	220.01
417.972	243.11
418.432	249.41
418.893	291.41
419.353	253.81
419.814	200.41
420.274	187.91
420.734	185.91
421.195	191.31
421.655	194.01
422.115	190.31
422.576	196.41
423.036	198.51
423.496	206.91
423.956	224.91
424.416	228.71
424.876	265.21
425.336	260.71
425.797	268.01
426.257	259.01
426.717	244.71
427.177	231.71
427.637	220.61
428.097	238.71
428.556	247.31
429.016	271.71
429.476	261.61
429.936	283.41
430.396	277.61
430.856	286.71
431.315	309.71
431.775	343.11
432.235	371.81
432.694	347.61
433.154	361.41
433.614	383.21
434.073	336.71
434.533	289.51
434.993	273.41
435.452	276.21
435.912	287.61
436.371	279.61
436.83	282.51
437.29	269.91
437.749	243.61
438.209	244.21
438.668	279.21
439.127	284.21
439.587	263.11
440.046	239.31
440.505	253.71
440.964	272.21
441.424	321.91
441.883	306.71
442.342	263.51
442.801	224.91
443.26	225.51
443.719	226.31
444.178	223.11
444.637	214.21
445.096	223.91
445.555	230.11
446.014	226.91
446.473	236.11
446.932	240.71
447.391	230.51
447.849	230.31
448.308	222.81
448.767	229.31
449.226	236.71
449.685	238.91
450.143	253.71
450.602	237.71
451.061	233.11
451.519	235.51
451.978	231.11
452.436	237.31
452.895	238.91
453.353	250.91
453.812	245.81
454.27	242.21
454.729	245.61
455.187	237.11
455.646	252.91
456.104	252.91
456.562	267.51
457.021	272.21
457.479	263.31
457.937	267.11
458.395	269.11
458.854	250.91
459.312	258.01
459.77	278.91
460.228	259.71
460.686	248.01
461.144	259.41
461.602	250.51
462.06	256.41
462.518	267.61
462.976	268.61
463.434	271.61
463.892	264.81
464.35	273.81
464.808	292.21
465.266	260.41
465.724	277.41
466.181	281.71
466.639	270.71
467.097	298.21
467.555	309.91
468.012	302.31
468.47	314.91
468.928	330.51
469.385	344.01
469.843	354.41
470.3	359.61
470.758	362.01
471.215	389.71
471.673	407.31
472.13	412.21
472.588	419.61
473.045	378.81
473.503	388.71
473.96	400.61
474.417	413.11
474.875	437.71
475.332	476.11
475.789	468.51
476.246	470.91
476.704	490.71
477.161	511.41
477.618	529.21
478.075	572.11
478.532	614.41
478.989	688.41
479.446	801.81
479.903	755.31
480.36	796.41
480.817	840.91
481.274	936.81
481.731	1027.41
482.188	1126.21
482.645	1242.21
483.102	1340.41
483.558	1464.81
484.015	1507.61
484.472	1493.41
484.929	1432.11
485.385	1398.21
485.842	1352.61
486.299	1307.81
486.755	1261.11
487.212	1062.81
487.668	915.01
488.125	842.61
488.582	775.51
489.038	752.91
489.494	714.21
489.951	682.91
490.407	659.01
490.864	650.31
491.32	641.31
491.776	646.91
492.233	642.81
492.689	617.21
493.145	613.81
493.602	613.61
494.058	625.41
494.514	617.71
494.97	642.51
495.426	658.81
495.882	627.21
496.338	611.81
496.794	627.61
497.251	621.51
497.707	634.21
498.163	636.91
498.618	641.61
499.074	640.41
499.53	682.51
499.986	681.81
500.442	657.41
500.898	630.41
501.354	631.31
501.809	638.21
502.265	643.41
502.721	655.41
503.177	662.31
503.632	672.21
504.088	671.41
504.543	694.51
504.999	706.61
505.455	666.41
505.91	639.81
506.366	638.71
506.821	635.61
507.277	641.31
507.732	649.71
508.187	634.51
508.643	653.11
509.098	647.91
509.553	667.91
510.009	679.41
510.464	689.41
510.919	699.71
511.375	705.81
511.83	717.81
512.285	735.21
512.74	780.91
513.195	799.51
513.65	787.41
514.105	775.21
514.56	775.51
515.015	802.51
515.47	818.61
515.925	796.51
516.38	800.11
516.835	792.31
517.29	795.61
517.745	794.41
518.2	775.41
518.655	761.01
519.109	757.61
519.564	763.01
520.019	746.91
520.474	738.61
520.928	725.71
521.383	731.61
521.838	724.71
522.292	729.31
522.747	718.61
523.201	721.21
523.656	712.01
524.11	715.61
524.565	704.11
525.019	705.01
525.474	713.81
525.928	705.81
526.382	708.31
526.837	713.21
527.291	711.81
527.745	713.11
528.2	712.31
528.654	712.61
529.108	703.51
529.562	699.31
530.016	702.11
530.47	699.31
530.925	697.21
531.379	710.11
531.833	712.91
532.287	724.01
532.741	708.71
533.195	711.71
533.649	726.31
534.103	725.61
534.556	717.31
535.01	725.51
535.464	703.81
535.918	732.01
536.372	724.71
536.826	723.11
537.279	716.11
537.733	726.31
538.187	730.31
538.64	714.61
539.094	744.01
539.548	742.51
540.001	744.01
540.455	740.91
540.908	744.81
541.362	752.51
541.815	773.01
542.269	770.31
542.722	783.61
543.175	780.31
543.629	792.61
544.082	804.41
544.536	811.41
544.989	807.41
545.442	794.91
545.895	812.21
546.349	802.81
546.802	818.81
547.255	813.21
547.708	825.81
548.161	836.01
548.614	839.21
549.067	840.31
549.52	829.51
549.973	825.91
550.426	828.71
550.879	818.71
551.332	810.51
551.785	818.91
552.238	831.11
552.691	846.31
553.144	856.51
553.596	871.41
554.049	888.91
554.502	903.11
554.955	923.51
555.407	939.01
555.86	919.31
556.313	912.51
556.765	903.31
557.218	895.71
557.67	902.41
558.123	898.61
558.576	893.61
559.028	893.51
559.48	897.01
559.933	892.81
560.385	858.31
560.838	830.81
561.29	802.01
561.742	799.01
562.195	796.21
562.647	785.11
563.099	795.01
563.551	792.71
564.004	804.91
564.456	784.31
564.908	783.31
565.36	761.81
565.812	747.71
566.264	732.41
566.716	730.91
567.168	723.11
567.62	737.41
568.072	714.41
568.524	713.31
568.976	716.01
569.428	693.91
569.88	695.11
570.332	695.61
570.784	704.61
571.235	699.11
571.687	714.21
572.139	715.71
572.59	728.31
573.042	733.01
573.494	731.31
573.945	731.11
574.397	704.41
574.849	700.01
575.3	710.71
575.752	700.61
576.203	686.11
576.655	695.21
577.106	688.31
577.557	677.51
578.009	687.41
578.46	683.41
578.912	673.21
579.363	681.91
579.814	681.71
580.265	680.51
580.717	683.11
581.168	687.61
581.619	685.31
582.07	691.61
582.521	689.51
582.972	688.71
583.423	704.71
583.875	700.91
584.326	711.81
584.777	738.21
585.227	786.01
585.678	841.01
586.129	899.61
586.58	948.81
587.031	990.21
587.482	1086.81
587.933	1202.81
588.384	1083.01
588.834	896.41
589.285	803.31
589.736	790.91
590.186	786.31
590.637	790.51
591.088	763.71
591.538	760.81
591.989	753.61
592.439	752.51
592.89	738.61
593.34	725.51
593.791	727.61
594.241	730.11
594.692	715.41
595.142	719.91
595.593	718.71
596.043	717.11
596.493	727.91
596.943	718.51
597.394	735.41
597.844	734.81
598.294	753.91
598.744	767.71
599.195	810.21
599.645	846.11
600.095	882.31
600.545	944.21
600.995	1002.21
601.445	1056.41
601.895	1112.01
602.345	1166.11
602.795	1147.71
603.245	1099.21
603.695	1049.71
604.145	992.21
604.594	934.91
605.044	884.61
605.494	826.91
605.944	778.61
606.393	774.01
606.843	750.81
607.293	749.61
607.743	766.81
608.192	763.21
608.642	767.21
609.091	783.31
609.541	786.51
609.99	789.41
610.44	779.31
610.889	745.51
611.339	730.31
611.788	702.31
612.238	708.01
612.687	730.71
613.136	719.31
613.586	743.31
614.035	737.31
614.484	748.51
614.933	752.01
615.383	737.11
615.832	732.41
616.281	730.51
616.73	701.21
617.179	683.81
617.628	663.31
618.077	653.61
618.526	642.41
618.975	651.11
619.424	636.51
619.873	637.01
620.322	632.11
620.771	625.31
621.22	628.81
621.669	606.11
622.118	598.61
622.567	596.91
623.015	589.51
623.464	586.81
623.913	577.91
624.361	573.71
624.81	578.71
625.259	575.21
625.707	569.11
626.156	564.21
626.604	590.51
627.053	575.01
627.501	580.61
627.95	592.81
628.398	606.31
628.847	589.91
629.295	573.61
629.744	582.81
630.192	581.11
630.64	584.71
631.089	577.61
631.537	573.31
631.985	572.41
632.433	592.91
632.881	588.01
633.33	614.21
633.778	603.11
634.226	560.71
634.674	574.71
635.122	578.11
635.57	589.51
636.018	606.31
636.466	591.91
636.914	576.51
637.362	581.41
637.81	595.51
638.258	601.51
638.705	610.41
639.153	633.61
639.601	649.41
640.049	660.21
640.497	701.41
640.944	706.91
641.392	660.01
641.84	633.31
642.287	607.01
642.735	595.41
643.182	587.11
643.63	585.61
644.078	578.21
644.525	597.61
644.973	601.21
645.42	617.41
645.867	628.71
646.315	646.01
646.762	669.61
647.21	704.81
647.657	723.81
648.104	755.51
648.551	780.81
648.999	846.91
649.446	919.51
649.893	1006.31
650.34	1164.51
650.787	1390.61
651.234	1722.61
651.682	2237.51
652.129	3064.41
652.576	4394.21
653.023	6415.11
653.47	8678.31
653.917	10758.71
654.363	12281.31
654.81	13483.51
655.257	12793.51
655.704	8445.21
656.151	5024.61
656.598	3289.31
657.044	2371.21
657.491	1819.01
657.938	1464.81
658.385	1242.61
658.831	1067.31
659.278	943.91
659.724	859.51
660.171	796.41
660.618	740.31
661.064	700.71
661.511	675.21
661.957	672.31
662.404	646.41
662.85	661.91
663.296	637.61
663.743	577.71
664.189	554.51
664.635	551.41
665.082	539.91
665.528	541.91
665.974	535.81
666.42	520.21
666.867	515.71
667.313	494.51
667.759	489.91
668.205	479.31
668.651	486.31
669.097	479.51
669.543	489.01
669.989	471.21
670.435	464.11
670.881	462.81
671.327	460.41
671.773	490.11
672.219	519.21
672.665	571.41
673.11	604.41
673.556	653.31
674.002	678.91
674.448	683.71
674.893	571.41
675.339	492.81
675.785	453.81
676.23	430.61
676.676	413.51
677.122	390.01
677.567	388.81
678.013	383.81
678.458	374.01
678.904	375.71
679.349	361.41
679.794	372.41
680.24	367.31
680.685	371.31
681.131	367.61
681.576	359.11
682.021	370.41
682.466	359.71
682.912	359.21
683.357	364.81
683.802	396.01
684.247	437.51
684.692	482.41
685.137	520.61
685.583	556.41
686.028	584.71
686.473	541.31
686.918	466.91
687.363	437.21
687.807	414.31
688.252	381.01
688.697	373.11
689.142	348.31
689.587	346.61
690.032	338.91
690.477	356.91
690.921	367.81
691.366	400.01
691.811	414.81
692.255	441.01
692.7	485.01
693.145	537.21
693.589	745.41
694.034	1210.51
694.478	1631.71
694.923	1790.31
695.367	2329.61
695.812	1241.61
696.256	513.21
696.701	390.61
697.145	358.31
697.59	343.61
698.034	333.21
698.478	340.91
698.922	333.21
699.367	335.61
699.811	342.31
700.255	367.71
700.699	398.41
701.143	440.01
701.588	494.01
702.032	538.11
702.476	530.21
702.92	516.81
703.364	522.61
703.808	691.11
704.252	1119.41
704.696	1539.51
705.14	1731.01
705.584	2201.41
706.027	1108.51
706.471	550.91
706.915	412.21
707.359	369.71
707.803	334.51
708.246	321.71
708.69	323.31
709.134	327.51
709.577	323.61
710.021	327.91
710.465	319.11
710.908	309.41
711.352	310.01
711.795	333.21
712.239	373.21
712.682	402.21
713.126	430.81
713.569	476.21
714.012	376.61
714.456	325.41
714.899	307.91
715.342	285.81
715.786	270.41
716.229	268.01
716.672	271.31
717.115	257.51
717.558	266.31
718.002	260.81
718.445	276.41
718.888	300.91
719.331	307.91
719.774	324.21
720.217	312.91
720.66	300.51
721.103	277.71
721.546	264.51
721.989	259.41
722.432	247.11
722.874	250.11
723.317	237.81
723.76	245.91
724.203	274.71
724.645	341.71
725.088	463.21
725.531	599.91
725.974	661.71
726.416	568.91
726.859	319.01
727.301	252.81
727.744	248.41
728.187	238.41
728.629	242.61
729.071	255.31
729.514	272.71
729.956	287.21
730.399	292.41
730.841	299.91
731.283	283.41
731.726	282.51
732.168	271.51
732.61	274.51
733.053	299.91
733.495	337.01
733.937	374.61
734.379	420.61
734.821	466.71
735.263	577.81
735.705	902.71
736.148	1708.61
736.59	2745.01
737.032	3140.41
737.474	2558.11
737.916	848.01
738.357	458.41
738.799	349.31
739.241	303.91
739.683	299.91
740.125	312.41
740.567	310.61
741.008	336.21
741.45	332.41
741.892	337.01
742.334	354.61
742.775	379.31
743.217	355.11
743.658	280.01
744.1	263.71
744.542	275.81
744.983	326.21
745.425	360.21
745.866	361.01
746.307	295.71
746.749	296.01
747.19	342.11
747.632	487.41
748.073	976.01
748.514	2037.41
748.956	3005.21
749.397	3765.01
749.838	3119.91
750.279	3068.71
750.72	1557.01
751.162	574.71
751.603	342.81
752.044	265.81
752.485	225.51
752.926	217.01
753.367	214.71
753.808	202.31
754.249	205.31
754.69	199.01
755.131	190.01
755.572	186.31
756.013	182.91
756.453	194.61
756.894	198.61
757.335	195.11
757.776	205.81
758.216	206.71
758.657	210.01
759.098	216.21
759.538	242.61
759.979	287.81
760.42	408.61
760.86	785.41
761.301	2015.51
761.741	4763.61
762.182	6584.01
762.622	4666.71
763.063	1372.51
763.503	571.91
763.943	352.51
764.384	325.71
764.824	326.21
765.264	342.11
765.705	270.71
766.145	202.41
766.585	191.21
767.025	183.31
767.465	183.91
767.906	225.91
768.346	268.31
768.786	279.91
769.226	260.41
769.666	330.41
770.106	677.11
770.546	1694.61
770.986	2751.21
771.426	2424.61
771.866	819.11
772.306	349.21
772.745	217.21
773.185	178.91
773.625	172.71
774.065	161.51
774.505	191.51
774.944	264.11
775.384	531.91
775.824	884.71
776.263	848.01
776.703	390.81
777.142	197.71
777.582	149.81
778.021	138.81
778.461	136.01
778.9	136.11
779.34	140.61
779.779	125.21
780.219	116.91
780.658	111.61
781.097	113.41
781.537	116.31
781.976	108.31
782.415	113.91
782.855	115.81
783.294	106.11
783.733	112.81
784.172	114.91
784.611	105.11
785.05	111.01
785.489	117.21
785.928	125.51
786.367	130.71
786.806	118.71
787.245	136.81
787.684	142.61
788.123	145.91
788.562	134.91
789.001	134.41
789.44	128.91
789.879	130.31
790.317	124.31
790.756	141.01
791.195	130.41
791.634	147.21
792.072	218.71
792.511	400.21
792.95	1112.11
793.388	2224.21
793.827	1969.81
794.265	697.81
794.704	296.01
795.142	191.61
795.581	156.31
796.019	141.81
796.458	130.91
796.896	131.31
797.334	142.21
797.773	163.51
798.211	234.91
798.649	481.41
799.087	1095.71
799.526	1698.81
799.964	2131.01
800.402	2045.91
800.84	795.51
801.278	316.31
801.716	192.91
802.154	166.61
802.592	157.41
803.03	148.41
803.468	145.61
803.906	153.01
804.344	161.71
804.782	153.61
805.22	138.41
805.658	135.91
806.096	152.71
806.533	165.81
806.971	185.11
807.409	232.81
807.847	341.71
808.284	733.01
808.722	2022.11
809.16	3436.11
809.597	3364.21
810.035	5713.11
810.472	5871.81
810.91	2152.91
811.347	832.81
811.785	426.01
812.222	268.51
812.66	202.11
813.097	177.01
813.535	146.11
813.972	135.81
814.409	124.11
814.846	118.51
815.284	113.71
815.721	108.81
816.158	104.21
816.595	121.91
817.032	169.11
817.47	198.01
817.907	146.91
818.344	128.41
818.781	114.21
819.218	108.71
819.655	133.11
820.092	198.71
820.529	224.41
820.966	181.11
821.403	127.51
821.839	102.91
822.276	104.11
822.713	129.31
823.15	134.71
823.587	125.21
824.023	157.91
824.46	328.11
824.897	956.91
825.333	1387.11
825.77	598.11
826.206	241.21
826.643	144.61
827.08	106.21
827.516	89.81
827.953	79.41
828.389	91.21
828.825	75.81
829.262	74.51
829.698	65.41
830.135	75.01
830.571	71.31
831.007	66.71
831.443	70.61
831.88	67.91
832.316	65.11
832.752	66.21
833.188	72.21
833.624	63.11
834.06	68.71
834.497	77.01
834.933	72.41
835.369	73.11
835.805	67.41
836.241	84.11
836.677	78.61
837.112	95.01
837.548	108.31
837.984	146.11
838.42	224.91
838.856	547.21
839.292	1614.81
839.727	2357.81
840.163	1119.01
840.599	1008.51
841.034	2159.21
841.47	2171.31
841.906	807.51
842.341	345.71
842.777	220.51
843.212	257.71
843.648	241.01
844.083	130.21
844.519	88.61
844.954	71.81
845.39	60.21
845.825	59.71
846.261	51.41
846.696	53.81
847.131	54.91
847.566	55.21
848.002	58.31
848.437	55.81
848.872	62.01
849.307	65.21
849.742	97.21
850.177	205.21
850.613	585.11
851.048	899.31
851.483	394.11
851.918	160.71
852.353	87.71
852.788	60.01
853.223	53.21
853.657	55.51
854.092	50.71
854.527	45.51
854.962	38.81
855.397	42.21
855.832	51.91
856.266	49.71
856.701	44.01
857.136	43.81
857.57	44.11
858.005	51.61
858.44	58.61
858.874	46.41
859.309	59.01
859.743	44.81
860.178	47.01
860.612	47.81
861.047	54.71
861.481	73.11
861.915	73.41
862.35	55.61
862.784	31.41
863.218	42.31
863.653	39.01
864.087	55.31
864.521	56.11
864.955	71.21
865.39	163.31
865.824	177.71
866.258	119.21
866.692	177.21
867.126	185.91
867.56	109.51
867.994	55.21
868.428	43.51
868.862	48.81
869.296	59.11
869.73	61.31
870.164	59.21
870.598	49.41
871.031	37.01
871.465	33.41
871.899	30.11
872.333	25.61
872.766	25.71
873.2	28.71
873.634	36.01
874.067	30.91
874.501	28.81
874.935	35.51
875.368	31.61
875.802	33.31
876.235	25.11
876.669	25.21
877.102	23.81
877.535	24.41
877.969	20.11
878.402	22.91
878.836	21.41
879.269	22.41
879.702	21.61
880.135	23.81
880.569	23.61
881.002	31.21
881.435	18.31
881.868	17.21
882.301	26.21
882.734	18.31
883.167	20.21
883.601	19.01
884.034	26.01
884.467	14.91
884.899	19.31
885.332	17.41
885.765	18.71
886.198	17.91
886.631	18.71
887.064	24.51
887.497	22.81
887.929	24.51
888.362	15.61
888.795	19.81
889.228	23.31
889.66	24.91
890.093	16.01
890.526	16.91
890.958	21.01
891.391	19.11
891.823	24.21
892.256	13.61
892.688	8.51
893.121	20.31
893.553	20.21
893.985	26.31
894.418	19.51
894.85	18.51
895.282	14.31
895.715	19.71
896.147	15.01
896.579	22.81
897.011	13.91
897.444	18.81
897.876	22.51
898.308	16.71
898.74	17.01
899.172	15.41
899.604	23.61
900.036	23.31
900.468	19.51
900.9	19.11
901.332	19.01
901.764	11.41
902.196	15.51
902.628	22.01
903.06	17.81
903.491	26.91
903.923	27.21
904.355	22.81
904.787	23.91
905.218	29.01
905.65	20.21
906.082	13.21
906.513	12.91
906.945	18.61
907.376	16.81
907.808	27.01
908.239	26.81
908.671	18.41
909.102	20.11
909.534	28.31
909.965	48.41
910.397	104.11
910.828	321.51
911.259	481.41
911.691	224.81
912.122	112.71
912.553	57.51
912.984	40.91
913.415	29.31
913.847	23.81
914.278	18.01
914.709	16.81
915.14	16.01
915.571	20.91
916.002	12.61
916.433	17.91
916.864	23.21
917.295	16.51
917.726	22.41
918.157	19.51
918.587	28.41
919.018	24.91
919.449	22.61
919.88	27.81
920.311	38.11
920.741	51.61
921.172	178.41
921.603	156.71
922.033	72.81
922.464	49.11
922.895	24.61
923.325	23.91
923.756	16.31
924.186	17.01
924.617	22.41
925.047	31.81
925.478	36.11
925.908	33.11
926.338	24.21
926.769	16.31
927.199	20.21
927.629	12.01
928.06	16.41
928.49	14.31
928.92	15.21
929.35	14.71
929.78	10.61
930.21	10.51
930.641	10.41
931.071	8.21
931.501	8.61
931.931	9.51
932.361	9.41
932.791	5.11
933.221	2.21
933.651	7.41
934.08	18.61
934.51	29.31
934.94	10.51
935.37	13.21
935.8	12.71
936.229	9.81
936.659	9.11
937.089	1.41
937.519	14.61
937.948	18.21
938.378	15.91
938.807	10.81
939.237	6.71
939.666	4.71
940.096	-4.29
940.525	3.71
940.955	5.01
941.384	4.01
941.814	-4.19
942.243	3.61
942.672	4.41
943.102	-1.09
943.531	3.51
943.96	8.81
944.39	5.01
944.819	4.61
945.248	2.11
945.677	1.71
946.106	3.61
946.535	5.21
946.964	-2.29
947.393	3.31
947.822	1.81
948.251	-2.09
948.68	3.31
949.109	6.21
949.538	3.11
949.967	3.81
950.396	-3.39
950.825	0.61
951.254	-3.39
951.682	1.81
952.111	2.11
952.54	9.21
952.969	-3.39
953.397	0.71
953.826	4.61
954.254	-2.19
954.683	4.81
955.112	-2.99
955.54	0.81
955.969	-2.19
956.397	3.01
956.826	-3.99
957.254	3.01
957.682	0.41
958.111	8.21
958.539	-3.49
958.967	3.41
959.396	-3.29
959.824	1.31
960.252	2.71
960.68	-3.89
961.109	-4.29
961.537	-2.39
961.965	4.11
962.393	2.91
962.821	-0.19
963.249	1.81
963.677	7.41
964.105	8.31
964.533	47.81
964.961	39.21
965.389	25.91
965.817	7.81
966.245	3.61
966.672	6.11
967.1	-0.59
967.528	1.71
967.956	-0.59
968.383	0.81
968.811	1.11
969.239	-0.99
969.666	-4.49
970.094	-0.79
970.522	0.21
970.949	2.01
971.377	-7.29
971.804	4.01
972.232	-1.19
972.659	-4.69
973.087	-3.69
973.514	2.21
973.941	-4.99
974.369	0.01
974.796	-0.69
975.223	-2.59
975.651	0.01
976.078	5.41
976.505	-2.39
976.932	0.61
977.359	14.11
977.786	14.21
978.214	1.21
978.641	4.21
979.068	-1.29
979.495	-0.09
979.922	1.61
980.349	-4.69
980.776	-0.89
981.202	-2.59
981.629	6.01
982.056	1.81
982.483	0.91
982.91	1.41
983.337	-5.49
983.763	7.71
984.19	-4.19
984.617	-2.69
985.043	-3.99
985.47	-1.79
985.897	-6.29
986.323	-1.99
986.75	4.21
987.176	-6.49
987.603	1.41
988.029	3.91
988.456	1.31
988.882	4.71
989.308	-6.59
989.735	-0.39
990.161	2.71
990.587	-2.79
991.014	-1.89
991.44	5.11
991.866	1.81
992.292	-0.39
992.719	-5.39
993.145	3.41
993.571	-5.49
993.997	1.61
994.423	-1.39
994.849	-4.59
995.275	-1.69
995.701	4.41
996.127	-3.89
996.553	5.91
996.979	1.61
997.405	-2.29
997.83	-6.69
998.256	-7.59
998.682	1.01
999.108	-7.49
999.534	0.11
999.959	-2.89
1000.385	-4.79
1000.811	-0.79
1001.236	-9.59
1001.662	-0.09
1002.087	-11.49
1002.513	1.01
1002.938	-5.19
1003.364	4.11
1003.789	5.11
1004.215	4.51
1004.64	2.11
1005.066	3.91
1005.491	6.71
1005.916	1.31
1006.342	-1.09
1006.767	-8.39
1007.192	8.91
1007.617	-2.59
1008.042	-7.79
1008.468	-5.49
1008.893	-5.49
1009.318	2.41
1009.743	4.01
1010.168	4.01
1010.593	0.11
1011.018	-12.29
1011.443	-1.89
1011.868	0.61
1012.293	-3.09
1012.718	-4.09
1013.143	-1.39
1013.567	-2.69
1013.992	-2.09
1014.417	-13.59
1014.842	1.51
1015.267	-8.59
1015.691	-3.19
1016.116	5.71
1016.541	0.21
1016.965	3.01
1017.39	2.81
1017.814	0.11
1018.239	-1.59
1018.663	-4.59
1019.088	-10.09
1019.512	-5.69
1019.937	-0.29
1020.361	1.11
1020.785	-7.09
1021.21	-4.69
1021.634	-1.39
1022.058	1.71
1022.483	1.61
1022.907	-4.49
1023.331	-7.29
1023.755	-4.79
1024.179	-4.89
1024.604	-3.99
1025.028	-5.79
1025.452	-4.89
1025.876	-3.99
1026.3	5.91
1026.724	-11.79
1027.148	-1.49
1027.572	-10.39
1027.996	-1.29
1028.42	-1.89
1028.843	-2.29
1029.267	-6.19
1029.691	-0.29
1030.115	-4.79
1030.539	-7.49
1030.962	1.51
1031.386	-3.69
1031.81	2.11
1032.233	1.61
1032.657	-1.29
1033.08	-2.59
1033.504	-3.19
1033.927	-7.69
1034.351	0.31
1034.774	-3.99
1035.198	0.81
1035.621	-6.29
1036.045	-5.49
1036.468	-0.79
1036.891	-9.09
1037.315	-15.79
1037.738	-6.99
1038.161	1.01
1038.584	-5.79
1039.008	-4.19
1039.431	-3.49
1039.854	-5.49
1040.277	-12.79
1040.7	-8.09
1041.123	-1.89
1041.546	-4.69
1041.969	-4.49
1042.392	-6.09
1042.815	0.81
1043.238	3.21
1043.661	1.21
1044.084	-3.29
1044.507	-6.89
1044.93	-1.59
1045.352	-3.69
1045.775	-5.59
1046.198	-3.69
1046.621	-0.79
1047.043	0.51
1047.466	4.01
1047.889	-3.79
1048.311	-8.39
1048.734	-8.49
1049.156	-1.39
1049.579	-6.29
1050.001	-4.89
1050.424	2.21
1050.846	2.51
1051.269	-5.39
1051.691	-7.29
1052.113	-3.29
1052.536	-2.79
1052.958	4.71
1053.38	-5.29
1053.802	-0.09
1054.225	-1.09
1054.647	-1.99
1055.069	-0.69
1055.491	-1.59
1055.913	-8.59
1056.335	1.51
1056.757	0.41
1057.179	-5.89
1057.601	-7.59
1058.023	-3.09
1058.445	-0.89
1058.867	-4.59
1059.289	-4.79
1059.711	-6.29
1060.133	0.91
1060.555	-5.89
1060.976	-8.19
1061.398	-7.29
1061.82	-8.29
1062.241	-4.09
1062.663	-8.79
1063.085	-6.29
1063.506	-0.69
1063.928	-3.49
1064.35	-2.69
1064.771	-7.49
1065.193	-6.19
1065.614	-5.39
1066.035	-1.99
1066.457	-4.59
1066.878	-2.49
1067.3	-3.69
1067.721	-6.09
1068.142	-8.29
1068.564	-4.29
1068.985	-8.49
1069.406	-3.49
1069.827	-9.19
1070.248	-9.89
1070.67	-5.29
1071.091	-5.99
1071.512	-7.89
1071.933	-6.09
1072.354	-7.79
1072.775	-1.29
1073.196	-3.49
1073.617	-0.39
1074.038	-2.89
1074.459	-5.69
1074.88	-8.29
1075.3	6.31
1075.721	-3.19
1076.142	3.61
1076.563	-1.99
1076.983	-13.39
1077.404	-10.09
1077.825	-1.49
1078.246	-3.09
1078.666	-7.59
1079.087	-6.19
1079.507	-5.39
1079.928	2.01
1080.348	-3.29
1080.769	-2.89
1081.189	-6.39
1081.61	-4.69
1082.03	-2.99
1082.451	-1.99
1082.871	-2.89
1083.291	-7.09
1083.711	-10.39
1084.132	-0.69
1084.552	-6.09
1084.972	-6.69
1085.392	-6.09
1085.813	-13.99
1086.233	-6.89
1086.653	-8.19
1087.073	-4.89
1087.493	-6.59
1087.913	-4.09
1088.333	-9.79
1088.753	-1.99
1089.173	0.21
1089.593	-4.49
1090.013	-3.19
1090.433	-2.49
1090.852	-3.59
1091.272	-2.49
1091.692	-0.49
1092.112	0.01
1092.531	-5.79
1092.951	-11.19
1093.371	-8.59
1093.79	5.11
1094.21	-9.39
1094.63	-1.19
1095.049	-7.79
1095.469	-2.69
1095.888	2.81
1096.308	3.21
1096.727	-0.79
1097.146	-4.09
1097.566	-3.39
1097.985	-7.19
1098.405	-2.89
1098.824	-10.79
1099.243	-5.59
1099.662	-11.09
1100.082	-2.89
1100.501	-5.09
1100.92	-2.59
1101.339	-4.79
1101.758	-1.09
