Data from 20171114-ORNL-Ar_H_NY_Subt18_08-05-25-593.txt Node
Date: Tue Nov 14 08:05:25 EST 2017
User: Ender
Spectrometer: HR+D1039
Trigger mode: 0
Integration Time (sec): 2.730000E-2
Scans to average: 10
Electric dark correction enabled: true
Nonlinearity correction enabled: false
Boxcar width: 0
XAxis mode: Wavelengths
Number of Pixels in Spectrum: 2048
>>>>>Begin Spectral Data<<<<<
187.836	-9.23
188.309	-9.23
188.782	-9.23
189.255	-0.23
189.728	-2.63
190.201	3.67
190.674	-0.13
191.147	5.87
191.619	-5.43
192.092	4.27
192.565	6.37
193.038	-0.63
193.511	-0.33
193.984	-2.13
194.456	1.37
194.929	-2.23
195.402	5.67
195.874	-4.23
196.347	-0.43
196.82	-9.03
197.292	0.17
197.765	-3.33
198.237	-7.83
198.71	-2.33
199.182	-4.23
199.655	4.17
200.127	0.97
200.6	-3.83
201.072	-6.93
201.544	-6.23
202.017	-1.33
202.489	-1.63
202.961	-6.53
203.433	-6.13
203.906	-3.43
204.378	-7.83
204.85	2.47
205.322	-3.93
205.794	-7.83
206.266	-6.73
206.739	-7.83
207.211	-3.53
207.683	-11.43
208.155	-7.83
208.627	-11.23
209.099	2.87
209.57	-12.13
210.042	-0.13
210.514	-4.73
210.986	-6.43
211.458	-12.03
211.93	-6.33
212.402	5.97
212.873	-4.73
213.345	-3.53
213.817	-9.53
214.288	-6.83
214.76	-11.93
215.232	-4.53
215.703	-1.83
216.175	-4.53
216.646	-7.63
217.118	-7.23
217.589	-1.73
218.061	-0.23
218.532	-8.53
219.004	-0.53
219.475	-2.53
219.946	0.57
220.418	-5.53
220.889	0.27
221.36	-1.73
221.832	-5.73
222.303	-5.13
222.774	-1.23
223.245	-10.83
223.717	-1.93
224.188	-3.23
224.659	-7.03
225.13	-3.33
225.601	-3.03
226.072	0.97
226.543	-3.43
227.014	-4.13
227.485	-3.53
227.956	-13.53
228.427	-0.13
228.898	4.37
229.369	5.97
229.839	-3.33
230.31	-6.23
230.781	5.57
231.252	-7.23
231.722	-5.73
232.193	-2.23
232.664	-3.03
233.135	-2.43
233.605	3.67
234.076	-5.23
234.546	4.37
235.017	6.47
235.487	-5.93
235.958	-5.03
236.428	0.57
236.899	0.87
237.369	0.67
237.84	-5.83
238.31	9.37
238.78	5.97
239.251	3.07
239.721	4.77
240.191	0.47
240.662	-3.43
241.132	-0.83
241.602	-2.43
242.072	-1.23
242.542	-1.63
243.013	-0.73
243.483	4.97
243.953	3.97
244.423	-3.83
244.893	-2.73
245.363	-1.23
245.833	3.77
246.303	-4.33
246.773	7.97
247.243	2.27
247.712	2.07
248.182	9.57
248.652	6.47
249.122	1.67
249.592	10.27
250.061	22.37
250.531	35.77
251.001	23.17
251.471	25.57
251.94	19.67
252.41	8.47
252.879	2.07
253.349	13.17
253.818	10.87
254.288	5.17
254.757	4.27
255.227	-3.33
255.696	2.27
256.166	3.27
256.635	6.07
257.105	6.97
257.574	8.17
258.043	8.07
258.513	12.17
258.982	19.67
259.451	8.57
259.92	12.57
260.389	15.87
260.859	13.07
261.328	7.27
261.797	20.27
262.266	8.27
262.735	12.67
263.204	6.87
263.673	-1.03
264.142	7.37
264.611	-2.83
265.08	2.77
265.549	0.97
266.018	8.87
266.487	-5.73
266.955	2.57
267.424	0.67
267.893	5.47
268.362	-0.23
268.83	4.87
269.299	13.87
269.768	6.07
270.236	12.17
270.705	7.17
271.174	4.07
271.642	7.27
272.111	13.67
272.579	18.27
273.048	26.07
273.516	22.87
273.985	28.47
274.453	25.37
274.922	18.87
275.39	10.97
275.858	4.67
276.327	18.37
276.795	19.57
277.263	4.67
277.731	33.97
278.2	58.27
278.668	70.17
279.136	55.97
279.604	24.47
280.072	14.97
280.54	12.97
281.008	9.57
281.477	12.97
281.945	17.57
282.413	19.47
282.881	19.87
283.348	5.67
283.816	17.17
284.284	20.87
284.752	18.07
285.22	14.67
285.688	19.87
286.156	23.07
286.623	50.67
287.091	56.17
287.559	31.47
288.026	23.17
288.494	16.77
288.962	3.77
289.429	11.37
289.897	16.97
290.364	19.07
290.832	12.47
291.3	16.37
291.767	19.67
292.234	21.07
292.702	13.67
293.169	14.17
293.637	19.77
294.104	17.77
294.571	12.47
295.039	18.77
295.506	17.67
295.973	16.67
296.44	20.77
296.908	19.37
297.375	20.97
297.842	14.57
298.309	15.97
298.776	19.07
299.243	17.47
299.71	7.97
300.177	25.07
300.644	21.97
301.111	14.77
301.578	26.87
302.045	19.37
302.512	26.47
302.979	25.27
303.446	21.37
303.913	21.27
304.379	24.87
304.846	27.77
305.313	24.97
305.78	23.57
306.246	26.37
306.713	20.97
307.18	26.07
307.646	28.67
308.113	30.57
308.579	27.47
309.046	29.57
309.512	28.27
309.979	24.27
310.445	28.87
310.912	26.57
311.378	31.47
311.845	27.77
312.311	30.37
312.777	29.37
313.244	37.17
313.71	40.87
314.176	29.17
314.642	30.67
315.109	34.97
315.575	39.77
316.041	34.67
316.507	37.27
316.973	44.07
317.439	36.27
317.905	36.07
318.371	42.47
318.837	38.07
319.303	30.37
319.769	35.47
320.235	34.47
320.701	36.47
321.167	38.57
321.633	36.57
322.099	37.17
322.564	50.27
323.03	40.47
323.496	44.87
323.962	42.47
324.427	40.07
324.893	45.57
325.359	41.77
325.824	33.47
326.29	38.27
326.755	35.97
327.221	40.97
327.686	48.17
328.152	43.27
328.617	42.07
329.083	56.07
329.548	53.97
330.014	53.47
330.479	44.57
330.944	44.27
331.41	47.67
331.875	48.07
332.34	44.57
332.805	46.77
333.271	48.27
333.736	44.67
334.201	53.77
334.666	56.77
335.131	57.57
335.596	55.67
336.061	55.17
336.526	43.47
336.991	57.07
337.456	59.77
337.921	47.07
338.386	43.77
338.851	43.07
339.316	41.67
339.781	51.67
340.246	52.27
340.711	48.27
341.175	55.17
341.64	47.47
342.105	51.87
342.569	53.97
343.034	62.97
343.499	60.07
343.963	52.97
344.428	67.47
344.893	60.67
345.357	67.07
345.822	65.57
346.286	75.07
346.751	69.77
347.215	65.57
347.679	79.67
348.144	93.67
348.608	84.67
349.073	69.57
349.537	75.97
350.001	90.67
350.465	93.97
350.93	81.07
351.394	79.57
351.858	71.67
352.322	88.77
352.786	84.07
353.25	101.67
353.715	116.97
354.179	102.57
354.643	125.97
355.107	128.97
355.571	113.57
356.035	107.57
356.498	122.97
356.962	131.87
357.426	126.47
357.89	120.87
358.354	83.97
358.818	84.87
359.281	78.17
359.745	77.67
360.209	86.47
360.673	74.77
361.136	85.27
361.6	83.97
362.064	83.77
362.527	80.27
362.991	91.17
363.454	80.27
363.918	77.97
364.381	75.47
364.845	85.27
365.308	84.87
365.772	87.97
366.235	87.67
366.698	83.47
367.162	93.57
367.625	91.37
368.088	91.67
368.552	86.37
369.015	90.17
369.478	94.57
369.941	100.17
370.404	93.47
370.867	100.57
371.331	108.57
371.794	115.07
372.257	114.57
372.72	120.37
373.183	103.37
373.646	103.17
374.109	101.87
374.572	105.67
375.035	118.07
375.497	106.67
375.96	108.27
376.423	100.87
376.886	105.97
377.349	105.77
377.811	102.97
378.274	104.27
378.737	110.87
379.199	114.77
379.662	111.77
380.125	119.67
380.587	115.37
381.05	116.87
381.512	127.67
381.975	130.17
382.437	129.17
382.9	128.57
383.362	132.67
383.825	140.27
384.287	150.47
384.75	146.77
385.212	140.87
385.674	142.27
386.136	138.27
386.599	128.77
387.061	129.97
387.523	126.27
387.985	133.27
388.447	142.27
388.91	139.87
389.372	155.37
389.834	147.47
390.296	143.07
390.758	153.67
391.22	164.07
391.682	205.87
392.144	291.87
392.606	223.07
393.068	170.57
393.529	168.17
393.991	149.17
394.453	144.97
394.915	154.27
395.377	186.17
395.838	209.67
396.3	156.77
396.762	134.77
397.224	129.57
397.685	128.27
398.147	128.67
398.608	127.67
399.07	127.17
399.531	130.67
399.993	141.67
400.454	151.37
400.916	146.87
401.377	149.57
401.839	147.17
402.3	147.07
402.762	163.77
403.223	175.77
403.684	167.57
404.145	161.77
404.607	161.87
405.068	163.07
405.529	171.77
405.99	186.17
406.451	176.77
406.913	169.27
407.374	163.67
407.835	163.47
408.296	160.37
408.757	167.07
409.218	186.07
409.679	174.87
410.14	171.77
410.601	179.57
411.062	180.97
411.522	185.57
411.983	187.57
412.444	171.17
412.905	173.87
413.366	183.07
413.826	191.47
414.287	216.67
414.748	251.47
415.208	240.57
415.669	205.87
416.13	204.27
416.59	200.27
417.051	210.97
417.511	213.97
417.972	239.17
418.432	240.07
418.893	280.37
419.353	248.87
419.814	201.57
420.274	179.67
420.734	173.97
421.195	192.67
421.655	194.37
422.115	195.97
422.576	194.07
423.036	191.67
423.496	203.77
423.956	215.57
424.416	232.47
424.876	259.27
425.336	258.57
425.797	259.27
426.257	253.57
426.717	241.67
427.177	232.17
427.637	218.57
428.097	234.27
428.556	243.97
429.016	263.17
429.476	261.57
429.936	274.17
430.396	275.57
430.856	285.37
431.315	313.37
431.775	345.07
432.235	372.27
432.694	343.07
433.154	360.87
433.614	387.97
434.073	335.27
434.533	285.47
434.993	267.27
435.452	281.87
435.912	294.97
436.371	290.07
436.83	284.07
437.29	263.27
437.749	248.57
438.209	242.87
438.668	268.87
439.127	289.07
439.587	259.97
440.046	247.97
440.505	262.27
440.964	272.87
441.424	315.37
441.883	306.77
442.342	256.17
442.801	220.77
443.26	216.47
443.719	217.07
444.178	215.17
444.637	216.17
445.096	217.97
445.555	211.67
446.014	218.57
446.473	222.87
446.932	222.17
447.391	214.17
447.849	224.27
448.308	213.67
448.767	226.67
449.226	228.17
449.685	231.67
450.143	244.27
450.602	243.27
451.061	223.87
451.519	231.87
451.978	238.17
452.436	227.97
452.895	245.47
453.353	242.47
453.812	234.67
454.27	237.37
454.729	238.27
455.187	234.77
455.646	247.17
456.104	242.07
456.562	262.17
457.021	261.77
457.479	252.17
457.937	266.67
458.395	260.37
458.854	242.17
459.312	251.07
459.77	272.67
460.228	249.17
460.686	240.77
461.144	240.97
461.602	238.27
462.06	242.57
462.518	249.67
462.976	247.27
463.434	254.07
463.892	259.17
464.35	277.67
464.808	287.17
465.266	265.47
465.724	262.67
466.181	270.47
466.639	274.07
467.097	279.17
467.555	297.87
468.012	308.07
468.47	306.97
468.928	330.77
469.385	337.37
469.843	337.37
470.3	344.77
470.758	362.97
471.215	379.27
471.673	405.77
472.13	397.17
472.588	415.17
473.045	362.07
473.503	371.77
473.96	390.87
474.417	397.67
474.875	425.37
475.332	475.27
475.789	460.37
476.246	463.47
476.704	486.57
477.161	503.47
477.618	521.17
478.075	553.57
478.532	607.77
478.989	686.67
479.446	798.27
479.903	772.27
480.36	804.57
480.817	868.87
481.274	963.07
481.731	1068.77
482.188	1162.17
482.645	1298.27
483.102	1420.37
483.558	1559.77
484.015	1603.67
484.472	1580.67
484.929	1534.27
485.385	1484.67
485.842	1443.97
486.299	1368.27
486.755	1308.37
487.212	1112.47
487.668	918.87
488.125	839.87
488.582	780.57
489.038	746.27
489.494	704.47
489.951	688.87
490.407	666.67
490.864	653.97
491.32	635.97
491.776	641.47
492.233	643.57
492.689	612.77
493.145	599.17
493.602	582.47
494.058	610.17
494.514	611.77
494.97	629.07
495.426	645.97
495.882	624.47
496.338	612.07
496.794	617.97
497.251	619.37
497.707	628.57
498.163	632.97
498.618	639.47
499.074	646.67
499.53	667.77
499.986	677.27
500.442	649.17
500.898	617.67
501.354	619.27
501.809	634.07
502.265	638.37
502.721	658.07
503.177	674.47
503.632	663.57
504.088	668.57
504.543	702.17
504.999	703.97
505.455	653.57
505.91	627.47
506.366	630.77
506.821	617.27
507.277	620.87
507.732	615.47
508.187	624.77
508.643	627.77
509.098	623.07
509.553	641.27
510.009	647.37
510.464	659.87
510.919	682.87
511.375	693.27
511.83	695.77
512.285	719.67
512.74	747.57
513.195	779.67
513.65	768.87
514.105	761.67
514.56	770.07
515.015	783.47
515.47	804.67
515.925	788.67
516.38	793.47
516.835	792.17
517.29	774.97
517.745	766.97
518.2	760.07
518.655	742.57
519.109	736.17
519.564	732.57
520.019	736.47
520.474	718.27
520.928	717.47
521.383	715.67
521.838	704.87
522.292	705.97
522.747	713.17
523.201	705.17
523.656	691.77
524.11	686.57
524.565	687.87
525.019	685.37
525.474	696.57
525.928	701.67
526.382	695.57
526.837	689.27
527.291	694.57
527.745	694.17
528.2	698.27
528.654	685.27
529.108	680.27
529.562	686.07
530.016	679.77
530.47	687.27
530.925	695.47
531.379	698.37
531.833	690.07
532.287	698.17
532.741	707.27
533.195	682.97
533.649	705.97
534.103	725.87
534.556	696.77
535.01	713.57
535.464	699.37
535.918	717.17
536.372	717.27
536.826	702.47
537.279	694.17
537.733	708.77
538.187	713.47
538.64	705.37
539.094	709.87
539.548	716.67
540.001	719.17
540.455	706.77
540.908	724.77
541.362	731.27
541.815	732.87
542.269	754.17
542.722	755.27
543.175	759.07
543.629	752.07
544.082	776.37
544.536	781.77
544.989	770.67
545.442	777.67
545.895	776.07
546.349	785.27
546.802	785.97
547.255	782.17
547.708	790.47
548.161	797.87
548.614	811.67
549.067	807.67
549.52	803.17
549.973	793.57
550.426	792.07
550.879	778.67
551.332	781.77
551.785	790.07
552.238	803.47
552.691	811.07
553.144	821.97
553.596	831.97
554.049	848.77
554.502	881.27
554.955	893.87
555.407	893.37
555.86	885.07
556.313	874.17
556.765	877.47
557.218	873.77
557.67	867.37
558.123	862.47
558.576	854.97
559.028	866.97
559.48	869.07
559.933	857.97
560.385	829.97
560.838	803.27
561.29	766.47
561.742	766.57
562.195	748.47
562.647	760.97
563.099	749.97
563.551	767.67
564.004	779.47
564.456	760.17
564.908	736.77
565.36	724.57
565.812	714.07
566.264	715.67
566.716	719.87
567.168	706.37
567.62	715.57
568.072	694.57
568.524	677.27
568.976	673.17
569.428	664.77
569.88	665.57
570.332	670.37
570.784	669.67
571.235	664.17
571.687	673.17
572.139	686.57
572.59	693.37
573.042	697.47
573.494	693.67
573.945	683.57
574.397	672.07
574.849	675.77
575.3	679.77
575.752	668.17
576.203	668.97
576.655	674.87
577.106	647.07
577.557	640.27
578.009	654.87
578.46	651.07
578.912	648.67
579.363	656.67
579.814	651.17
580.265	651.17
580.717	649.87
581.168	649.17
581.619	664.47
582.07	667.97
582.521	662.47
582.972	652.37
583.423	660.57
583.875	667.87
584.326	690.17
584.777	720.77
585.227	810.47
585.678	894.67
586.129	983.67
586.58	1061.67
587.031	1153.67
587.482	1304.17
587.933	1490.77
588.384	1285.47
588.834	953.47
589.285	786.37
589.736	760.67
590.186	757.27
590.637	753.37
591.088	718.87
591.538	717.87
591.989	707.07
592.439	706.47
592.89	697.07
593.34	694.27
593.791	695.07
594.241	681.67
594.692	686.07
595.142	682.47
595.593	688.07
596.043	693.17
596.493	701.17
596.943	696.57
597.394	700.17
597.844	694.67
598.294	700.37
598.744	730.97
599.195	759.37
599.645	787.17
600.095	830.87
600.545	894.17
600.995	925.97
601.445	998.57
601.895	1050.17
602.345	1095.67
602.795	1078.57
603.245	1030.97
603.695	973.57
604.145	917.47
604.594	881.27
605.044	827.37
605.494	773.57
605.944	729.87
606.393	705.27
606.843	708.57
607.293	714.97
607.743	707.27
608.192	721.47
608.642	735.77
609.091	742.27
609.541	745.67
609.99	741.37
610.44	739.07
610.889	689.67
611.339	677.27
611.788	662.47
612.238	676.57
612.687	692.67
613.136	694.77
613.586	717.77
614.035	708.17
614.484	730.97
614.933	734.07
615.383	716.87
615.832	715.87
616.281	700.97
616.73	662.97
617.179	643.17
617.628	629.27
618.077	611.97
618.526	599.57
618.975	596.67
619.424	594.57
619.873	583.97
620.322	601.47
620.771	585.67
621.22	582.77
621.669	568.67
622.118	565.67
622.567	552.47
623.015	552.97
623.464	548.67
623.913	540.87
624.361	531.37
624.81	527.37
625.259	530.97
625.707	538.37
626.156	538.47
626.604	546.47
627.053	544.27
627.501	547.07
627.95	542.87
628.398	556.17
628.847	541.57
629.295	537.77
629.744	555.57
630.192	546.87
630.64	542.27
631.089	540.27
631.537	544.37
631.985	559.37
632.433	567.07
632.881	580.37
633.33	621.17
633.778	609.87
634.226	543.87
634.674	542.17
635.122	561.27
635.57	579.47
636.018	606.37
636.466	555.57
636.914	535.77
637.362	538.57
637.81	549.07
638.258	546.27
638.705	551.87
639.153	579.57
639.601	589.37
640.049	611.37
640.497	644.27
640.944	653.37
641.392	609.67
641.84	585.97
642.287	559.27
642.735	544.27
643.182	547.47
643.63	544.17
644.078	551.37
644.525	561.57
644.973	573.37
645.42	569.87
645.867	604.27
646.315	613.77
646.762	631.27
647.21	662.87
647.657	682.07
648.104	717.07
648.551	746.27
648.999	798.37
649.446	877.67
649.893	962.47
650.34	1113.27
650.787	1328.47
651.234	1648.47
651.682	2164.97
652.129	2958.97
652.576	4220.97
653.023	6314.17
653.47	8679.47
653.917	10888.17
654.363	12649.27
654.81	14109.37
655.257	13394.57
655.704	8754.17
656.151	5142.17
656.598	3322.87
657.044	2357.57
657.491	1791.47
657.938	1444.57
658.385	1209.17
658.831	1045.77
659.278	927.97
659.724	829.27
660.171	754.07
660.618	692.77
661.064	641.57
661.511	632.77
661.957	629.07
662.404	612.17
662.85	616.17
663.296	598.97
663.743	536.37
664.189	502.77
664.635	503.97
665.082	507.97
665.528	497.57
665.974	496.37
666.42	481.37
666.867	483.07
667.313	474.77
667.759	459.27
668.205	449.87
668.651	459.77
669.097	460.37
669.543	472.97
669.989	450.97
670.435	421.77
670.881	419.67
671.327	420.57
671.773	439.37
672.219	457.77
672.665	508.87
673.11	544.47
673.556	581.47
674.002	641.77
674.448	618.17
674.893	514.97
675.339	447.17
675.785	416.87
676.23	394.47
676.676	371.17
677.122	367.27
677.567	358.67
678.013	350.07
678.458	341.87
678.904	346.87
679.349	325.47
679.794	333.67
680.24	332.87
680.685	334.07
681.131	325.97
681.576	333.97
682.021	330.97
682.466	324.37
682.912	329.37
683.357	330.57
683.802	353.37
684.247	377.37
684.692	427.37
685.137	469.87
685.583	504.37
686.028	530.87
686.473	484.47
686.918	418.27
687.363	386.17
687.807	375.37
688.252	335.27
688.697	332.37
689.142	314.37
689.587	311.57
690.032	310.37
690.477	316.57
690.921	326.17
691.366	359.27
691.811	373.57
692.255	400.87
692.7	444.27
693.145	473.77
693.589	644.17
694.034	1027.87
694.478	1437.07
694.923	1642.77
695.367	2133.37
695.812	1124.17
696.256	467.67
696.701	350.57
697.145	318.17
697.59	305.67
698.034	302.47
698.478	314.47
698.922	304.27
699.367	305.87
699.811	323.07
700.255	330.37
700.699	358.77
701.143	399.37
701.588	452.17
702.032	489.27
702.476	483.77
702.92	457.27
703.364	462.37
703.808	581.97
704.252	941.47
704.696	1349.77
705.14	1579.47
705.584	2014.07
706.027	996.47
706.471	492.97
706.915	372.37
707.359	326.97
707.803	305.17
708.246	291.17
708.69	296.87
709.134	287.67
709.577	292.77
710.021	292.37
710.465	283.37
710.908	286.87
711.352	276.97
711.795	287.97
712.239	330.57
712.682	364.57
713.126	388.57
713.569	442.57
714.012	351.87
714.456	302.77
714.899	279.77
715.342	260.27
715.786	242.07
716.229	242.27
716.672	241.57
717.115	231.57
717.558	235.87
718.002	241.97
718.445	242.47
718.888	266.87
719.331	270.67
719.774	293.97
720.217	282.67
720.66	262.27
721.103	245.67
721.546	237.47
721.989	237.97
722.432	215.47
722.874	220.27
723.317	208.37
723.76	216.97
724.203	239.97
724.645	295.37
725.088	411.77
725.531	529.67
725.974	609.47
726.416	513.97
726.859	285.67
727.301	225.47
727.744	220.47
728.187	211.97
728.629	218.17
729.071	224.97
729.514	245.77
729.956	254.67
730.399	263.17
730.841	264.67
731.283	252.97
731.726	253.87
732.168	237.97
732.61	245.27
733.053	263.77
733.495	292.77
733.937	328.67
734.379	366.97
734.821	407.37
735.263	496.37
735.705	757.27
736.148	1433.07
736.59	2368.67
737.032	2865.67
737.474	2348.47
737.916	753.07
738.357	403.97
738.799	299.97
739.241	279.57
739.683	267.27
740.125	275.07
740.567	276.47
741.008	294.97
741.45	294.17
741.892	290.67
742.334	322.87
742.775	331.67
743.217	313.07
743.658	250.27
744.1	233.17
744.542	240.97
744.983	279.97
745.425	317.07
745.866	316.57
746.307	265.37
746.749	264.17
747.19	295.17
747.632	417.07
748.073	798.27
748.514	1693.67
748.956	2634.97
749.397	3315.87
749.838	2754.37
750.279	2781.97
750.72	1403.87
751.162	505.27
751.603	296.27
752.044	231.77
752.485	199.37
752.926	195.27
753.367	193.67
753.808	180.77
754.249	181.57
754.69	174.87
755.131	163.47
755.572	168.17
756.013	165.87
756.453	170.27
756.894	167.07
757.335	177.97
757.776	178.17
758.216	179.47
758.657	182.67
759.098	185.27
759.538	209.47
759.979	243.77
760.42	340.57
760.86	634.87
761.301	1625.67
761.741	4031.37
762.182	6066.27
762.622	4277.07
763.063	1225.77
763.503	507.67
763.943	323.17
764.384	325.77
764.824	380.07
765.264	414.57
765.705	279.67
766.145	199.27
766.585	177.17
767.025	168.07
767.465	179.27
767.906	223.27
768.346	303.57
768.786	326.97
769.226	246.97
769.666	291.87
770.106	555.77
770.546	1417.57
770.986	2458.37
771.426	2234.37
771.866	735.57
772.306	303.37
772.745	188.77
773.185	158.67
773.625	158.37
774.065	152.07
774.505	178.67
774.944	285.17
775.384	635.77
775.824	1210.27
776.263	1171.27
776.703	498.27
777.142	209.57
777.582	149.17
778.021	131.97
778.461	136.27
778.9	131.17
779.34	118.67
779.779	107.17
780.219	98.77
780.658	97.37
781.097	105.07
781.537	103.77
781.976	94.27
782.415	96.27
782.855	97.67
783.294	90.77
783.733	97.47
784.172	99.97
784.611	91.27
785.05	99.07
785.489	105.07
785.928	110.47
786.367	113.37
786.806	109.07
787.245	118.97
787.684	133.57
788.123	136.17
788.562	119.77
789.001	122.67
789.44	117.07
789.879	113.77
790.317	111.07
790.756	115.17
791.195	119.47
791.634	137.27
792.072	182.07
792.511	325.17
792.95	907.17
793.388	1976.17
793.827	1827.77
794.265	625.87
794.704	260.37
795.142	170.47
795.581	142.07
796.019	127.07
796.458	116.67
796.896	116.57
797.334	116.77
797.773	144.47
798.211	201.07
798.649	395.07
799.087	928.87
799.526	1468.37
799.964	1854.07
800.402	1893.37
800.84	719.17
801.278	273.37
801.716	170.97
802.154	140.07
802.592	139.17
803.03	128.57
803.468	122.97
803.906	137.37
804.344	139.47
804.782	130.17
805.22	127.27
805.658	120.37
806.096	132.07
806.533	142.97
806.971	160.27
807.409	200.27
807.847	293.97
808.284	588.67
808.722	1701.47
809.16	3058.07
809.597	2854.17
810.035	4976.17
810.472	5486.87
810.91	1962.77
811.347	737.17
811.785	373.47
812.222	232.47
812.66	178.17
813.097	146.67
813.535	133.37
813.972	118.57
814.409	116.67
814.846	100.97
815.284	99.87
815.721	97.27
816.158	101.47
816.595	111.37
817.032	173.17
817.47	184.37
817.907	157.57
818.344	144.07
818.781	108.67
819.218	93.47
819.655	108.87
820.092	166.97
820.529	198.27
820.966	164.57
821.403	128.77
821.839	101.67
822.276	97.47
822.713	116.57
823.15	123.27
823.587	104.07
824.023	135.87
824.46	269.37
824.897	826.87
825.333	1274.87
825.77	544.17
826.206	215.57
826.643	126.67
827.08	91.17
827.516	79.17
827.953	71.17
828.389	71.17
828.825	63.27
829.262	61.77
829.698	53.47
830.135	61.57
830.571	53.77
831.007	60.67
831.443	61.47
831.88	59.17
832.316	58.97
832.752	68.27
833.188	68.77
833.624	54.67
834.06	57.97
834.497	63.07
834.933	65.97
835.369	66.57
835.805	64.07
836.241	70.47
836.677	70.67
837.112	84.27
837.548	93.77
837.984	128.47
838.42	184.37
838.856	449.87
839.292	1394.07
839.727	2167.07
840.163	1009.37
840.599	844.17
841.034	1871.97
841.47	2009.57
841.906	734.17
842.341	304.97
842.777	219.87
843.212	304.67
843.648	308.87
844.083	147.07
844.519	93.17
844.954	72.77
845.39	54.97
845.825	51.77
846.261	54.17
846.696	52.37
847.131	54.67
847.566	59.67
848.002	55.67
848.437	55.67
848.872	54.37
849.307	58.27
849.742	77.57
850.177	164.57
850.613	508.27
851.048	822.47
851.483	359.07
851.918	140.57
852.353	79.67
852.788	57.97
853.223	55.17
853.657	47.27
854.092	40.07
854.527	37.37
854.962	38.07
855.397	38.97
855.832	47.97
856.266	39.07
856.701	35.47
857.136	30.97
857.57	40.37
858.005	46.57
858.44	54.87
858.874	36.97
859.309	52.67
859.743	35.47
860.178	44.57
860.612	37.17
861.047	53.07
861.481	64.47
861.915	58.07
862.35	46.07
862.784	29.87
863.218	35.77
863.653	28.37
864.087	45.97
864.521	48.67
864.955	61.07
865.39	143.07
865.824	160.37
866.258	102.77
866.692	144.97
867.126	166.57
867.56	93.77
867.994	49.07
868.428	30.47
868.862	38.27
869.296	46.97
869.73	51.87
870.164	47.57
870.598	43.67
871.031	32.87
871.465	27.87
871.899	29.17
872.333	21.07
872.766	24.57
873.2	24.17
873.634	28.77
874.067	23.17
874.501	20.57
874.935	30.07
875.368	30.07
875.802	22.47
876.235	28.87
876.669	23.27
877.102	18.37
877.535	22.17
877.969	24.57
878.402	21.77
878.836	14.27
879.269	19.77
879.702	23.87
880.135	16.77
880.569	27.47
881.002	30.47
881.435	21.27
881.868	17.77
882.301	20.37
882.734	13.57
883.167	24.77
883.601	18.87
884.034	24.77
884.467	15.37
884.899	23.17
885.332	12.17
885.765	15.07
886.198	12.07
886.631	16.27
887.064	17.57
887.497	18.67
887.929	21.17
888.362	13.17
888.795	11.37
889.228	18.77
889.66	21.37
890.093	15.17
890.526	15.37
890.958	14.17
891.391	17.17
891.823	19.07
892.256	16.07
892.688	12.67
893.121	21.47
893.553	12.77
893.985	17.07
894.418	17.57
894.85	10.97
895.282	16.57
895.715	13.67
896.147	14.27
896.579	13.67
897.011	13.07
897.444	21.67
897.876	13.77
898.308	14.37
898.74	17.07
899.172	13.77
899.604	18.47
900.036	16.87
900.468	11.67
900.9	9.87
901.332	17.47
901.764	14.97
902.196	13.17
902.628	13.97
903.06	15.57
903.491	28.27
903.923	17.17
904.355	18.37
904.787	22.97
905.218	14.77
905.65	21.77
906.082	9.57
906.513	11.27
906.945	17.17
907.376	13.47
907.808	19.87
908.239	22.97
908.671	14.07
909.102	21.47
909.534	21.37
909.965	45.07
910.397	84.17
910.828	284.97
911.259	449.27
911.691	203.67
912.122	101.57
912.553	48.77
912.984	28.87
913.415	23.07
913.847	22.77
914.278	14.97
914.709	14.27
915.14	14.67
915.571	18.37
916.002	7.67
916.433	21.57
916.864	16.67
917.295	13.97
917.726	14.97
918.157	18.17
918.587	24.47
919.018	18.77
919.449	21.97
919.88	19.77
920.311	29.67
920.741	42.67
921.172	159.07
921.603	148.37
922.033	71.77
922.464	42.17
922.895	24.27
923.325	24.87
923.756	12.27
924.186	19.57
924.617	22.87
925.047	42.17
925.478	54.57
925.908	40.77
926.338	22.27
926.769	18.67
927.199	20.17
927.629	7.07
928.06	19.57
928.49	14.67
928.92	9.17
929.35	9.47
929.78	11.27
930.21	5.97
930.641	4.57
931.071	12.87
931.501	-2.63
931.931	8.37
932.361	8.27
932.791	2.47
933.221	2.87
933.651	6.67
934.08	16.27
934.51	25.37
934.94	12.87
935.37	12.87
935.8	15.07
936.229	3.97
936.659	15.97
937.089	4.07
937.519	15.67
937.948	19.17
938.378	14.27
938.807	1.47
939.237	7.17
939.666	7.27
940.096	-3.83
940.525	7.67
940.955	6.87
941.384	6.67
941.814	-6.43
942.243	-1.83
942.672	5.47
943.102	-4.63
943.531	-5.43
943.96	4.17
944.39	-1.43
944.819	-2.83
945.248	7.17
945.677	3.07
946.106	6.27
946.535	3.87
946.964	-4.33
947.393	3.97
947.822	-1.23
948.251	-2.93
948.68	-0.43
949.109	8.07
949.538	5.67
949.967	2.17
950.396	1.27
950.825	1.37
951.254	3.07
951.682	-4.23
952.111	-1.33
952.54	4.67
952.969	2.07
953.397	-8.63
953.826	0.67
954.254	-2.13
954.683	-1.63
955.112	-5.73
955.54	-0.43
955.969	1.57
956.397	0.57
956.826	-3.53
957.254	-0.03
957.682	1.47
958.111	3.47
958.539	4.27
958.967	2.07
959.396	0.37
959.824	2.77
960.252	-0.33
960.68	-8.83
961.109	-5.13
961.537	-0.73
961.965	-3.63
962.393	-7.03
962.821	-2.63
963.249	-4.53
963.677	1.17
964.105	3.47
964.533	41.87
964.961	41.47
965.389	18.47
965.817	6.77
966.245	-2.33
966.672	-3.13
967.1	-11.23
967.528	3.57
967.956	-5.03
968.383	-0.53
968.811	-0.73
969.239	1.77
969.666	-6.33
970.094	-0.33
970.522	3.97
970.949	-3.43
971.377	-3.73
971.804	-8.13
972.232	-3.13
972.659	-4.53
973.087	-3.63
973.514	-3.43
973.941	-7.53
974.369	-3.23
974.796	-0.53
975.223	-2.33
975.651	-4.73
976.078	7.07
976.505	-2.23
976.932	1.97
977.359	16.87
977.786	17.57
978.214	-1.23
978.641	-3.83
979.068	-9.13
979.495	-4.53
979.922	0.57
980.349	-5.23
980.776	2.77
981.202	-4.23
981.629	5.77
982.056	5.27
982.483	-4.53
982.91	3.07
983.337	-3.93
983.763	5.57
984.19	-9.83
984.617	6.77
985.043	-9.73
985.47	-5.43
985.897	-7.93
986.323	-8.73
986.75	-2.43
987.176	-4.33
987.603	1.97
988.029	0.97
988.456	-0.43
988.882	-2.53
989.308	-4.03
989.735	0.47
990.161	-6.93
990.587	0.77
991.014	-2.33
991.44	4.17
991.866	-0.63
992.292	-7.73
992.719	-6.73
993.145	-2.83
993.571	-12.33
993.997	0.67
994.423	-0.93
994.849	-3.93
995.275	3.77
995.701	4.47
996.127	-8.33
996.553	0.57
996.979	-1.73
997.405	-2.43
997.83	-7.03
998.256	-7.63
998.682	-4.63
999.108	-8.23
999.534	-5.03
999.959	-2.63
1000.385	-3.53
1000.811	-2.73
1001.236	-7.53
1001.662	-14.53
1002.087	-10.23
1002.513	-4.33
1002.938	0.47
1003.364	-1.03
1003.789	-0.33
1004.215	-0.03
1004.64	3.67
1005.066	3.17
1005.491	1.37
1005.916	-4.43
1006.342	-4.43
1006.767	-2.83
1007.192	6.27
1007.617	-7.23
1008.042	-1.83
1008.468	-9.53
1008.893	-6.53
1009.318	-2.43
1009.743	-3.63
1010.168	-1.63
1010.593	2.87
1011.018	-8.93
1011.443	-2.53
1011.868	-2.63
1012.293	-4.13
1012.718	-10.13
1013.143	-1.73
1013.567	1.97
1013.992	0.37
1014.417	-16.93
1014.842	3.17
1015.267	-3.23
1015.691	-11.13
1016.116	3.57
1016.541	-1.43
1016.965	4.47
1017.39	2.97
1017.814	3.97
1018.239	-0.33
1018.663	-8.53
1019.088	-7.33
1019.512	-7.53
1019.937	1.17
1020.361	-7.83
1020.785	-6.23
1021.21	-4.43
1021.634	-3.73
1022.058	-5.83
1022.483	0.97
1022.907	-1.33
1023.331	-8.13
1023.755	-5.03
1024.179	-1.63
1024.604	-6.13
1025.028	-9.23
1025.452	-1.83
1025.876	-4.43
1026.3	-1.83
1026.724	-9.03
1027.148	-4.93
1027.572	-5.53
1027.996	-1.33
1028.42	-3.93
1028.843	-3.33
1029.267	-4.73
1029.691	-5.63
1030.115	-10.33
1030.539	-8.53
1030.962	-7.53
1031.386	-12.03
1031.81	-2.33
1032.233	-7.93
1032.657	-4.33
1033.08	-1.33
1033.504	-0.43
1033.927	-7.23
1034.351	-0.63
1034.774	-9.43
1035.198	-2.63
1035.621	-5.13
1036.045	-6.03
1036.468	2.87
1036.891	-10.43
1037.315	-10.33
1037.738	-6.43
1038.161	1.57
1038.584	-3.83
1039.008	-2.03
1039.431	-1.63
1039.854	-4.43
1040.277	-11.63
1040.7	-7.33
1041.123	-6.73
1041.546	-13.53
1041.969	-8.03
1042.392	-8.53
1042.815	-0.43
1043.238	2.87
1043.661	-2.53
1044.084	-7.03
1044.507	-3.93
1044.93	-6.63
1045.352	-2.13
1045.775	0.77
1046.198	-1.03
1046.621	-5.93
1047.043	-1.83
1047.466	1.47
1047.889	-1.33
1048.311	-2.63
1048.734	-3.23
1049.156	-1.23
1049.579	-0.93
1050.001	-3.43
1050.424	0.67
1050.846	-3.83
1051.269	-4.83
1051.691	-7.23
1052.113	-6.33
1052.536	-4.73
1052.958	-3.13
1053.38	-6.93
1053.802	-9.33
1054.225	1.67
1054.647	-10.13
1055.069	-3.53
1055.491	2.97
1055.913	-8.63
1056.335	-3.13
1056.757	-2.43
1057.179	-7.93
1057.601	-4.83
1058.023	-3.83
1058.445	-3.63
1058.867	-3.63
1059.289	-9.23
1059.711	-10.43
1060.133	-2.33
1060.555	-5.83
1060.976	-11.93
1061.398	-8.83
1061.82	-6.43
1062.241	-11.23
1062.663	-7.83
1063.085	-6.33
1063.506	-0.33
1063.928	-1.83
1064.35	-2.83
1064.771	-11.13
1065.193	-5.43
1065.614	-9.63
1066.035	-2.53
1066.457	-2.23
1066.878	-4.13
1067.3	-6.83
1067.721	-8.53
1068.142	-1.73
1068.564	-3.03
1068.985	-3.03
1069.406	-7.23
1069.827	-5.43
1070.248	0.47
1070.67	-2.13
1071.091	-0.93
1071.512	0.97
1071.933	-5.73
1072.354	-6.03
1072.775	-5.23
1073.196	-5.83
1073.617	-8.33
1074.038	-3.33
1074.459	-3.53
1074.88	-6.43
1075.3	0.07
1075.721	-8.53
1076.142	-2.43
1076.563	-4.73
1076.983	-16.83
1077.404	-10.93
1077.825	-6.93
1078.246	-3.43
1078.666	-11.23
1079.087	-8.93
1079.507	-7.83
1079.928	-1.53
1080.348	-1.33
1080.769	-4.83
1081.189	-0.53
1081.61	-5.63
1082.03	-7.73
1082.451	-7.53
1082.871	-4.93
1083.291	-8.53
1083.711	-8.23
1084.132	-7.43
1084.552	-3.83
1084.972	-1.63
1085.392	-8.93
1085.813	-11.13
1086.233	-5.43
1086.653	-7.63
1087.073	-0.33
1087.493	-9.93
1087.913	-11.63
1088.333	-7.73
1088.753	-4.03
1089.173	1.97
1089.593	-6.13
1090.013	-1.33
1090.433	1.37
1090.852	-3.83
1091.272	-8.23
1091.692	-1.43
1092.112	1.97
1092.531	-11.43
1092.951	-12.23
1093.371	-5.33
1093.79	2.67
1094.21	-6.93
1094.63	-6.93
1095.049	-9.83
1095.469	-3.33
1095.888	-9.23
1096.308	2.87
1096.727	5.67
1097.146	-5.33
1097.566	0.87
1097.985	-3.83
1098.405	-1.93
1098.824	-7.53
1099.243	-5.23
1099.662	-9.83
1100.082	-7.53
1100.501	-1.13
1100.92	-6.43
1101.339	-3.93
1101.758	-14.83
