Data from 20171114-ORNL-Ar_H_NY_Subt18_08-03-41-043.txt Node
Date: Tue Nov 14 08:03:41 EST 2017
User: Ender
Spectrometer: HR+D1039
Trigger mode: 0
Integration Time (sec): 2.730000E-2
Scans to average: 10
Electric dark correction enabled: true
Nonlinearity correction enabled: false
Boxcar width: 0
XAxis mode: Wavelengths
Number of Pixels in Spectrum: 2048
>>>>>Begin Spectral Data<<<<<
187.836	-2.48
188.309	-2.48
188.782	-2.48
189.255	-7.98
189.728	1.22
190.201	6.42
190.674	1.02
191.147	5.12
191.619	-3.78
192.092	2.72
192.565	4.92
193.038	-2.08
193.511	-0.68
193.984	-3.48
194.456	2.52
194.929	-4.88
195.402	-0.28
195.874	1.72
196.347	2.02
196.82	-3.38
197.292	6.92
197.765	-2.98
198.237	-7.18
198.71	0.02
199.182	-7.18
199.655	0.42
200.127	1.62
200.6	-3.38
201.072	-2.48
201.544	-6.58
202.017	-10.08
202.489	3.32
202.961	0.52
203.433	-7.38
203.906	-7.48
204.378	-2.88
204.85	-2.08
205.322	-8.98
205.794	-6.98
206.266	-8.08
206.739	-7.48
207.211	-1.58
207.683	-5.58
208.155	-1.38
208.627	-6.08
209.099	-1.08
209.57	-7.48
210.042	-1.68
210.514	-1.28
210.986	-1.58
211.458	-9.48
211.93	-1.48
212.402	5.22
212.873	-10.18
213.345	-12.68
213.817	-11.08
214.288	-3.08
214.76	-3.68
215.232	-1.88
215.703	-4.78
216.175	-5.38
216.646	-9.58
217.118	-15.88
217.589	-3.38
218.061	-1.28
218.532	-1.38
219.004	0.32
219.475	-7.18
219.946	-3.88
220.418	-12.08
220.889	4.72
221.36	1.82
221.832	-1.48
222.303	-6.48
222.774	-4.38
223.245	-4.88
223.717	-6.38
224.188	-7.28
224.659	-11.08
225.13	-3.98
225.601	-6.98
226.072	-1.58
226.543	-0.78
227.014	2.12
227.485	-4.38
227.956	-5.08
228.427	-6.88
228.898	0.22
229.369	9.02
229.839	-7.18
230.31	-11.38
230.781	-3.18
231.252	-2.78
231.722	-7.08
232.193	-4.18
232.664	2.42
233.135	-6.68
233.605	-5.58
234.076	-8.28
234.546	-0.18
235.017	-5.28
235.487	1.72
235.958	-2.88
236.428	-4.58
236.899	-0.68
237.369	-0.98
237.84	-3.38
238.31	2.02
238.78	-3.38
239.251	-6.68
239.721	-5.58
240.191	-3.38
240.662	-3.78
241.132	-1.38
241.602	-6.18
242.072	0.32
242.542	-2.48
243.013	-3.38
243.483	-2.78
243.953	-0.28
244.423	-7.58
244.893	-6.08
245.363	-4.58
245.833	2.62
246.303	-11.08
246.773	-2.18
247.243	-1.18
247.712	-2.58
248.182	3.02
248.652	-3.18
249.122	-8.98
249.592	-5.48
250.061	-0.08
250.531	6.32
251.001	3.42
251.471	2.72
251.94	-0.18
252.41	-3.58
252.879	-4.68
253.349	10.32
253.818	-0.08
254.288	2.62
254.757	0.32
255.227	-4.68
255.696	-3.08
256.166	-3.48
256.635	6.62
257.105	3.62
257.574	-4.78
258.043	-3.08
258.513	4.22
258.982	-0.28
259.451	-3.38
259.92	-0.98
260.389	1.42
260.859	3.62
261.328	-4.48
261.797	1.12
262.266	-2.98
262.735	6.72
263.204	4.72
263.673	1.82
264.142	0.92
264.611	-8.68
265.08	-3.68
265.549	-1.78
266.018	-0.48
266.487	-9.58
266.955	-9.88
267.424	-7.38
267.893	4.12
268.362	3.72
268.83	1.42
269.299	4.72
269.768	-0.78
270.236	1.92
270.705	-3.28
271.174	0.72
271.642	2.42
272.111	1.52
272.579	0.62
273.048	0.62
273.516	1.22
273.985	0.52
274.453	7.52
274.922	10.82
275.39	7.22
275.858	-5.28
276.327	1.52
276.795	13.92
277.263	0.42
277.731	11.32
278.2	6.42
278.668	12.72
279.136	4.42
279.604	2.82
280.072	5.72
280.54	6.82
281.008	2.82
281.477	7.72
281.945	7.12
282.413	1.12
282.881	2.62
283.348	-1.68
283.816	5.22
284.284	5.42
284.752	12.22
285.22	7.82
285.688	5.82
286.156	7.52
286.623	10.42
287.091	11.72
287.559	11.12
288.026	11.02
288.494	8.32
288.962	-0.38
289.429	3.72
289.897	13.22
290.364	6.52
290.832	8.92
291.3	4.62
291.767	8.22
292.234	8.22
292.702	4.42
293.169	12.02
293.637	13.82
294.104	10.92
294.571	2.02
295.039	4.42
295.506	7.82
295.973	7.42
296.44	11.42
296.908	9.92
297.375	8.62
297.842	9.52
298.309	11.22
298.776	8.02
299.243	12.42
299.71	9.12
300.177	12.52
300.644	10.52
301.111	13.82
301.578	13.52
302.045	8.02
302.512	16.82
302.979	17.02
303.446	15.72
303.913	9.72
304.379	7.82
304.846	15.22
305.313	11.42
305.78	14.92
306.246	16.42
306.713	22.72
307.18	18.52
307.646	18.82
308.113	15.02
308.579	15.92
309.046	19.02
309.512	18.52
309.979	22.82
310.445	20.72
310.912	20.22
311.378	21.12
311.845	27.02
312.311	25.62
312.777	24.62
313.244	28.02
313.71	27.82
314.176	26.42
314.642	17.52
315.109	20.42
315.575	24.12
316.041	34.02
316.507	22.82
316.973	25.62
317.439	30.12
317.905	30.42
318.371	25.42
318.837	30.42
319.303	26.72
319.769	23.62
320.235	26.72
320.701	28.02
321.167	36.02
321.633	21.92
322.099	35.82
322.564	32.02
323.03	27.92
323.496	28.42
323.962	30.42
324.427	30.42
324.893	36.42
325.359	31.82
325.824	30.72
326.29	27.42
326.755	35.32
327.221	31.42
327.686	34.82
328.152	41.32
328.617	38.12
329.083	44.12
329.548	42.32
330.014	46.52
330.479	42.52
330.944	42.52
331.41	36.12
331.875	42.82
332.34	37.02
332.805	37.92
333.271	38.22
333.736	37.92
334.201	39.22
334.666	45.22
335.131	52.72
335.596	42.72
336.061	43.72
336.526	35.82
336.991	47.22
337.456	50.12
337.921	47.72
338.386	38.92
338.851	44.32
339.316	46.42
339.781	47.32
340.246	46.82
340.711	40.02
341.175	53.42
341.64	45.52
342.105	60.22
342.569	49.72
343.034	59.42
343.499	58.02
343.963	56.02
344.428	57.42
344.893	53.12
345.357	61.82
345.822	58.82
346.286	69.02
346.751	70.42
347.215	68.72
347.679	72.32
348.144	80.02
348.608	73.42
349.073	64.02
349.537	69.62
350.001	73.42
350.465	85.42
350.93	73.02
351.394	83.32
351.858	71.92
352.322	88.52
352.786	82.82
353.25	88.52
353.715	106.72
354.179	90.72
354.643	101.32
355.107	105.52
355.571	95.22
356.035	101.92
356.498	101.42
356.962	104.92
357.426	108.92
357.89	110.02
358.354	84.62
358.818	89.52
359.281	81.82
359.745	81.22
360.209	83.22
360.673	78.02
361.136	81.92
361.6	82.72
362.064	88.62
362.527	83.82
362.991	90.02
363.454	84.92
363.918	88.02
364.381	88.42
364.845	94.52
365.308	90.72
365.772	90.22
366.235	95.02
366.698	87.12
367.162	87.82
367.625	90.32
368.088	94.32
368.552	92.62
369.015	98.82
369.478	99.02
369.941	103.02
370.404	97.12
370.867	101.32
371.331	108.02
371.794	116.72
372.257	104.42
372.72	113.72
373.183	116.22
373.646	102.92
374.109	106.62
374.572	118.22
375.035	104.42
375.497	113.22
375.96	113.12
376.423	117.12
376.886	115.62
377.349	118.52
377.811	116.72
378.274	115.02
378.737	121.22
379.199	119.22
379.662	129.12
380.125	125.52
380.587	117.22
381.05	118.72
381.512	129.22
381.975	139.32
382.437	134.92
382.9	128.52
383.362	140.62
383.825	141.72
384.287	141.72
384.75	133.02
385.212	137.92
385.674	143.62
386.136	151.82
386.599	136.42
387.061	145.92
387.523	141.12
387.985	143.82
388.447	150.82
388.91	142.12
389.372	140.02
389.834	147.92
390.296	142.32
390.758	151.72
391.22	150.82
391.682	162.72
392.144	166.02
392.606	159.52
393.068	160.02
393.529	168.02
393.991	166.92
394.453	156.42
394.915	154.32
395.377	154.42
395.838	155.22
396.3	156.72
396.762	154.52
397.224	154.82
397.685	156.72
398.147	162.02
398.608	151.72
399.07	159.32
399.531	158.92
399.993	170.12
400.454	181.02
400.916	171.32
401.377	171.52
401.839	177.72
402.3	177.32
402.762	192.52
403.223	197.92
403.684	192.52
404.145	184.82
404.607	187.52
405.068	192.42
405.529	189.82
405.99	208.22
406.451	195.02
406.913	197.32
407.374	196.22
407.835	189.52
408.296	200.62
408.757	205.82
409.218	213.02
409.679	207.92
410.14	205.42
410.601	208.72
411.062	201.62
411.522	210.62
411.983	206.42
412.444	208.02
412.905	220.22
413.366	217.42
413.826	231.22
414.287	256.62
414.748	318.62
415.208	291.02
415.669	257.62
416.13	238.02
416.59	245.72
417.051	255.82
417.511	267.32
417.972	288.42
418.432	314.82
418.893	350.82
419.353	310.32
419.814	242.62
420.274	214.62
420.734	216.52
421.195	222.92
421.655	222.82
422.115	232.12
422.576	234.52
423.036	235.52
423.496	245.72
423.956	257.92
424.416	269.02
424.876	312.62
425.336	306.42
425.797	304.92
426.257	300.52
426.717	276.02
427.177	267.62
427.637	260.42
428.097	273.92
428.556	273.22
429.016	309.42
429.476	298.82
429.936	306.42
430.396	304.32
430.856	320.52
431.315	346.82
431.775	375.22
432.235	416.12
432.694	390.12
433.154	391.82
433.614	415.52
434.073	370.22
434.533	314.52
434.993	303.72
435.452	308.02
435.912	314.32
436.371	308.92
436.83	306.72
437.29	291.92
437.749	277.32
438.209	266.82
438.668	291.72
439.127	310.62
439.587	286.12
440.046	270.72
440.505	283.52
440.964	290.82
441.424	329.22
441.883	329.02
442.342	295.72
442.801	262.12
443.26	259.02
443.719	264.42
444.178	262.52
444.637	247.72
445.096	257.02
445.555	261.82
446.014	258.52
446.473	270.82
446.932	266.02
447.391	273.82
447.849	265.72
448.308	260.12
448.767	266.52
449.226	276.82
449.685	272.32
450.143	285.92
450.602	279.12
451.061	262.12
451.519	265.12
451.978	267.02
452.436	263.62
452.895	266.82
453.353	286.12
453.812	267.72
454.27	266.02
454.729	277.92
455.187	271.12
455.646	273.02
456.104	273.52
456.562	284.12
457.021	301.92
457.479	291.12
457.937	294.62
458.395	294.12
458.854	283.62
459.312	287.92
459.77	294.92
460.228	289.52
460.686	273.82
461.144	283.72
461.602	279.22
462.06	279.22
462.518	283.72
462.976	285.92
463.434	294.52
463.892	295.32
464.35	293.62
464.808	306.92
465.266	298.32
465.724	303.32
466.181	312.42
466.639	308.02
467.097	335.12
467.555	339.32
468.012	338.62
468.47	339.22
468.928	356.82
469.385	365.32
469.843	371.62
470.3	373.92
470.758	392.52
471.215	406.32
471.673	416.22
472.13	431.02
472.588	444.32
473.045	413.92
473.503	420.82
473.96	429.92
474.417	445.52
474.875	469.52
475.332	490.52
475.789	485.52
476.246	499.02
476.704	512.62
477.161	525.32
477.618	542.22
478.075	581.02
478.532	633.72
478.989	691.22
479.446	784.22
479.903	762.72
480.36	811.72
480.817	852.32
481.274	934.72
481.731	1015.32
482.188	1099.72
482.645	1213.52
483.102	1304.22
483.558	1412.62
484.015	1450.42
484.472	1428.62
484.929	1407.02
485.385	1370.82
485.842	1346.32
486.299	1292.72
486.755	1245.32
487.212	1085.92
487.668	941.62
488.125	874.42
488.582	813.92
489.038	768.52
489.494	735.12
489.951	711.22
490.407	704.12
490.864	667.32
491.32	672.82
491.776	670.42
492.233	670.72
492.689	645.32
493.145	634.72
493.602	632.12
494.058	644.32
494.514	643.22
494.97	648.62
495.426	662.22
495.882	638.92
496.338	625.62
496.794	635.72
497.251	620.22
497.707	642.72
498.163	641.32
498.618	641.02
499.074	645.82
499.53	671.22
499.986	668.32
500.442	642.42
500.898	638.42
501.354	636.52
501.809	645.02
502.265	643.02
502.721	640.32
503.177	646.72
503.632	659.42
504.088	658.72
504.543	669.02
504.999	688.92
505.455	666.22
505.91	644.92
506.366	652.22
506.821	647.52
507.277	653.02
507.732	649.62
508.187	652.92
508.643	663.22
509.098	661.82
509.553	669.42
510.009	682.32
510.464	682.92
510.919	698.42
511.375	695.52
511.83	708.52
512.285	704.22
512.74	742.82
513.195	753.62
513.65	751.42
514.105	753.92
514.56	749.82
515.015	761.02
515.47	784.92
515.925	762.02
516.38	781.42
516.835	783.52
517.29	769.42
517.745	761.82
518.2	761.52
518.655	741.52
519.109	727.72
519.564	728.62
520.019	721.02
520.474	710.62
520.928	708.82
521.383	711.32
521.838	691.62
522.292	699.92
522.747	693.12
523.201	689.22
523.656	684.02
524.11	683.62
524.565	683.32
525.019	676.52
525.474	685.32
525.928	674.22
526.382	687.32
526.837	673.22
527.291	673.42
527.745	675.12
528.2	678.72
528.654	664.42
529.108	676.92
529.562	664.72
530.016	665.72
530.47	671.22
530.925	670.52
531.379	662.72
531.833	669.92
532.287	671.32
532.741	657.42
533.195	669.22
533.649	664.02
534.103	675.72
534.556	661.52
535.01	653.82
535.464	660.42
535.918	668.62
536.372	670.42
536.826	673.22
537.279	655.42
537.733	671.62
538.187	671.02
538.64	667.32
539.094	680.12
539.548	687.32
540.001	683.92
540.455	683.12
540.908	676.92
541.362	693.62
541.815	703.52
542.269	702.12
542.722	703.42
543.175	705.42
543.629	718.92
544.082	729.52
544.536	734.12
544.989	730.32
545.442	741.32
545.895	743.42
546.349	736.12
546.802	729.92
547.255	740.12
547.708	742.72
548.161	752.22
548.614	745.42
549.067	754.12
549.52	752.22
549.973	745.32
550.426	734.12
550.879	733.42
551.332	731.52
551.785	744.92
552.238	737.52
552.691	751.32
553.144	745.62
553.596	764.42
554.049	781.82
554.502	804.42
554.955	804.62
555.407	803.42
555.86	810.92
556.313	795.22
556.765	788.02
557.218	788.52
557.67	784.72
558.123	779.72
558.576	781.12
559.028	777.72
559.48	782.52
559.933	791.52
560.385	753.42
560.838	736.52
561.29	706.82
561.742	712.82
562.195	701.92
562.647	699.22
563.099	707.32
563.551	687.32
564.004	700.62
564.456	676.42
564.908	676.02
565.36	649.42
565.812	647.32
566.264	639.32
566.716	634.22
567.168	628.62
567.62	630.82
568.072	623.22
568.524	621.92
568.976	612.52
569.428	608.42
569.88	605.72
570.332	607.22
570.784	611.22
571.235	604.12
571.687	601.92
572.139	618.52
572.59	622.72
573.042	624.32
573.494	608.22
573.945	620.22
574.397	595.52
574.849	596.22
575.3	591.12
575.752	591.02
576.203	585.02
576.655	594.92
577.106	570.42
577.557	572.72
578.009	581.42
578.46	567.62
578.912	567.22
579.363	569.52
579.814	574.32
580.265	567.22
580.717	568.12
581.168	568.02
581.619	577.62
582.07	576.22
582.521	573.12
582.972	567.82
583.423	568.92
583.875	568.32
584.326	579.82
584.777	586.42
585.227	605.02
585.678	611.82
586.129	639.52
586.58	649.62
587.031	675.12
587.482	700.42
587.933	726.32
588.384	705.12
588.834	669.12
589.285	646.72
589.736	653.92
590.186	649.92
590.637	650.02
591.088	627.72
591.538	614.52
591.989	612.72
592.439	595.12
592.89	589.32
593.34	589.42
593.791	588.92
594.241	575.92
594.692	571.52
595.142	576.42
595.593	572.82
596.043	577.92
596.493	585.02
596.943	575.32
597.394	591.82
597.844	591.12
598.294	610.52
598.744	612.62
599.195	648.62
599.645	675.62
600.095	696.82
600.545	732.52
600.995	774.12
601.445	815.22
601.895	873.22
602.345	905.22
602.795	889.12
603.245	870.12
603.695	828.12
604.145	792.42
604.594	746.02
605.044	708.62
605.494	662.42
605.944	612.82
606.393	613.42
606.843	588.42
607.293	583.32
607.743	585.82
608.192	595.32
608.642	603.82
609.091	609.62
609.541	596.52
609.99	607.02
610.44	605.22
610.889	576.32
611.339	557.62
611.788	551.12
612.238	558.62
612.687	565.72
613.136	562.62
613.586	565.12
614.035	561.32
614.484	572.92
614.933	579.02
615.383	562.72
615.832	567.12
616.281	561.62
616.73	537.62
617.179	529.72
617.628	515.52
618.077	503.32
618.526	493.82
618.975	481.32
619.424	485.62
619.873	481.22
620.322	492.42
620.771	479.02
621.22	475.02
621.669	471.52
622.118	462.02
622.567	460.02
623.015	438.92
623.464	455.52
623.913	444.42
624.361	442.02
624.81	440.22
625.259	425.92
625.707	440.72
626.156	433.22
626.604	447.02
627.053	442.42
627.501	437.22
627.95	440.72
628.398	451.32
628.847	442.92
629.295	440.92
629.744	439.32
630.192	449.62
630.64	444.82
631.089	427.82
631.537	423.82
631.985	415.72
632.433	414.02
632.881	406.02
633.33	410.12
633.778	401.32
634.226	407.42
634.674	412.62
635.122	415.02
635.57	423.92
636.018	432.02
636.466	425.82
636.914	422.82
637.362	448.92
637.81	444.92
638.258	447.72
638.705	447.52
639.153	462.62
639.601	475.02
640.049	485.12
640.497	521.92
640.944	531.42
641.392	505.42
641.84	475.62
642.287	451.82
642.735	431.92
643.182	440.82
643.63	432.22
644.078	438.32
644.525	449.42
644.973	451.22
645.42	450.82
645.867	469.12
646.315	488.92
646.762	491.72
647.21	512.82
647.657	535.22
648.104	553.72
648.551	566.82
648.999	593.62
649.446	659.42
649.893	712.42
650.34	808.22
650.787	948.82
651.234	1158.62
651.682	1469.22
652.129	1949.02
652.576	2737.72
653.023	3969.42
653.47	5458.92
653.917	6902.22
654.363	8045.12
654.81	9086.62
655.257	8673.72
655.704	5805.92
656.151	3474.22
656.598	2293.72
657.044	1651.02
657.491	1275.02
657.938	1031.92
658.385	868.02
658.831	766.82
659.278	682.22
659.724	608.62
660.171	566.52
660.618	510.42
661.064	496.52
661.511	474.92
661.957	460.52
662.404	458.62
662.85	455.92
663.296	447.32
663.743	423.92
664.189	401.82
664.635	402.82
665.082	398.02
665.528	386.72
665.974	375.82
666.42	370.52
666.867	374.02
667.313	352.92
667.759	343.92
668.205	342.52
668.651	346.12
669.097	335.92
669.543	335.32
669.989	333.52
670.435	342.72
670.881	333.02
671.327	336.52
671.773	360.92
672.219	371.02
672.665	408.72
673.11	437.62
673.556	473.72
674.002	500.82
674.448	502.42
674.893	421.62
675.339	365.72
675.785	333.52
676.23	318.92
676.676	293.72
677.122	292.12
677.567	288.12
678.013	273.72
678.458	267.82
678.904	272.22
679.349	263.32
679.794	259.62
680.24	262.32
680.685	247.42
681.131	255.22
681.576	268.02
682.021	259.52
682.466	262.22
682.912	257.82
683.357	260.72
683.802	279.52
684.247	299.42
684.692	332.52
685.137	362.62
685.583	403.52
686.028	424.92
686.473	394.92
686.918	336.42
687.363	319.12
687.807	291.72
688.252	268.82
688.697	275.72
689.142	253.42
689.587	250.32
690.032	241.42
690.477	248.82
690.921	261.92
691.366	283.42
691.811	300.82
692.255	321.02
692.7	340.82
693.145	367.42
693.589	488.82
694.034	798.62
694.478	1108.82
694.923	1315.72
695.367	1746.92
695.812	914.42
696.256	379.22
696.701	278.22
697.145	261.62
697.59	243.42
698.034	240.92
698.478	244.72
698.922	235.32
699.367	235.32
699.811	242.42
700.255	262.32
700.699	275.22
701.143	307.52
701.588	344.52
702.032	387.02
702.476	376.52
702.92	363.32
703.364	368.22
703.808	452.52
704.252	726.62
704.696	1052.02
705.14	1257.22
705.584	1629.82
706.027	814.52
706.471	393.92
706.915	302.02
707.359	264.82
707.803	239.62
708.246	227.12
708.69	227.62
709.134	235.92
709.577	231.02
710.021	237.72
710.465	223.92
710.908	219.32
711.352	217.52
711.795	225.32
712.239	256.42
712.682	271.12
713.126	304.92
713.569	343.12
714.012	271.72
714.456	224.52
714.899	219.42
715.342	198.52
715.786	194.22
716.229	199.62
716.672	194.02
717.115	187.52
717.558	189.52
718.002	182.02
718.445	193.62
718.888	208.62
719.331	213.22
719.774	219.72
720.217	218.72
720.66	207.32
721.103	192.72
721.546	189.12
721.989	185.42
722.432	162.92
722.874	171.62
723.317	164.12
723.76	172.42
724.203	185.42
724.645	226.12
725.088	313.32
725.531	413.82
725.974	479.22
726.416	414.92
726.859	223.32
727.301	177.62
727.744	182.22
728.187	170.92
728.629	174.22
729.071	179.72
729.514	186.02
729.956	198.82
730.399	211.22
730.841	216.22
731.283	208.42
731.726	205.32
732.168	190.02
732.61	197.42
733.053	209.12
733.495	223.22
733.937	249.92
734.379	289.22
734.821	314.82
735.263	388.42
735.705	574.82
736.148	1088.32
736.59	1861.92
737.032	2331.42
737.474	1906.82
737.916	618.02
738.357	317.92
738.799	245.92
739.241	223.62
739.683	213.42
740.125	213.42
740.567	224.22
741.008	241.52
741.45	242.62
741.892	244.22
742.334	268.42
742.775	282.22
743.217	279.02
743.658	209.92
744.1	194.92
744.542	202.42
744.983	257.72
745.425	291.22
745.866	290.02
746.307	212.12
746.749	203.42
747.19	231.02
747.632	321.42
748.073	598.12
748.514	1287.02
748.956	2090.72
749.397	2623.22
749.838	2207.52
750.279	2275.22
750.72	1162.12
751.162	421.52
751.603	242.92
752.044	190.22
752.485	160.72
752.926	154.02
753.367	149.32
753.808	136.62
754.249	140.12
754.69	141.62
755.131	132.62
755.572	133.62
756.013	133.42
756.453	132.82
756.894	137.02
757.335	135.22
757.776	144.52
758.216	147.92
758.657	144.82
759.098	145.52
759.538	163.82
759.979	188.42
760.42	266.12
760.86	496.82
761.301	1267.72
761.741	3178.62
762.182	5022.52
762.622	3636.22
763.063	1029.32
763.503	410.12
763.943	240.82
764.384	203.22
764.824	188.22
765.264	186.82
765.705	155.82
766.145	135.42
766.585	130.92
767.025	122.22
767.465	117.62
767.906	124.82
768.346	144.62
768.786	148.92
769.226	160.22
769.666	221.72
770.106	415.22
770.546	1064.32
770.986	1971.82
771.426	1850.92
771.866	608.22
772.306	241.22
772.745	154.82
773.185	126.52
773.625	122.52
774.065	110.42
774.505	128.82
774.944	156.42
775.384	301.12
775.824	544.92
776.263	544.52
776.703	247.12
777.142	129.12
777.582	105.72
778.021	85.82
778.461	84.32
778.9	91.32
779.34	97.62
779.779	81.62
780.219	87.12
780.658	75.72
781.097	81.22
781.537	77.62
781.976	77.62
782.415	74.12
782.855	73.12
783.294	71.22
783.733	72.12
784.172	78.32
784.611	74.52
785.05	78.52
785.489	74.92
785.928	84.62
786.367	88.12
786.806	81.52
787.245	90.32
787.684	94.22
788.123	107.72
788.562	95.92
789.001	91.92
789.44	80.82
789.879	86.52
790.317	83.52
790.756	97.02
791.195	94.62
791.634	105.92
792.072	146.22
792.511	248.92
792.95	683.12
793.388	1574.92
793.827	1508.02
794.265	513.62
794.704	203.32
795.142	137.32
795.581	116.82
796.019	104.52
796.458	100.12
796.896	88.72
797.334	91.72
797.773	109.52
798.211	152.72
798.649	298.22
799.087	728.92
799.526	1163.52
799.964	1474.92
800.402	1567.42
800.84	578.92
801.278	226.92
801.716	143.32
802.154	109.12
802.592	111.82
803.03	108.32
803.468	102.72
803.906	108.32
804.344	112.52
804.782	100.72
805.22	92.32
805.658	96.82
806.096	113.62
806.533	112.52
806.971	131.82
807.409	158.52
807.847	227.12
808.284	460.32
808.722	1325.02
809.16	2501.42
809.597	2301.52
810.035	4087.82
810.472	4706.12
810.91	1684.02
811.347	623.82
811.785	315.42
812.222	198.82
812.66	146.22
813.097	127.22
813.535	102.62
813.972	97.02
814.409	87.12
814.846	79.72
815.284	82.92
815.721	73.92
816.158	76.92
816.595	78.72
817.032	126.32
817.47	163.72
817.907	112.92
818.344	75.22
818.781	71.42
819.218	71.82
819.655	96.42
820.092	161.52
820.529	204.42
820.966	146.52
821.403	108.62
821.839	80.32
822.276	72.82
822.713	96.42
823.15	113.22
823.587	90.92
824.023	111.02
824.46	208.32
824.897	627.62
825.333	1041.52
825.77	450.22
826.206	179.62
826.643	97.02
827.08	78.82
827.516	63.12
827.953	54.42
828.389	56.72
828.825	56.62
829.262	47.72
829.698	46.62
830.135	42.32
830.571	41.02
831.007	48.42
831.443	41.42
831.88	45.12
832.316	41.42
832.752	43.82
833.188	47.92
833.624	47.32
834.06	47.42
834.497	47.32
834.933	51.02
835.369	58.12
835.805	52.02
836.241	56.42
836.677	57.72
837.112	67.72
837.548	72.62
837.984	100.02
838.42	142.02
838.856	342.92
839.292	1105.42
839.727	1814.52
840.163	841.02
840.599	677.72
841.034	1510.82
841.47	1687.92
841.906	616.02
842.341	239.22
842.777	154.72
843.212	166.72
843.648	160.12
844.083	88.92
844.519	60.62
844.954	53.62
845.39	40.22
845.825	43.82
846.261	38.92
846.696	36.92
847.131	42.02
847.566	44.02
848.002	39.92
848.437	44.22
848.872	43.02
849.307	42.92
849.742	60.72
850.177	124.72
850.613	391.42
851.048	672.02
851.483	291.82
851.918	118.72
852.353	50.52
852.788	39.92
853.223	35.82
853.657	38.92
854.092	35.32
854.527	25.82
854.962	27.92
855.397	30.82
855.832	41.12
856.266	29.02
856.701	29.62
857.136	22.02
857.57	30.22
858.005	41.12
858.44	48.62
858.874	34.02
859.309	40.12
859.743	27.42
860.178	32.92
860.612	31.62
861.047	30.32
861.481	63.32
861.915	68.92
862.35	43.22
862.784	27.52
863.218	36.12
863.653	28.42
864.087	35.22
864.521	43.12
864.955	45.22
865.39	110.32
865.824	127.72
866.258	100.72
866.692	157.12
867.126	177.42
867.56	99.62
867.994	50.02
868.428	34.12
868.862	43.12
869.296	49.32
869.73	54.82
870.164	46.82
870.598	36.22
871.031	32.12
871.465	27.02
871.899	23.42
872.333	16.12
872.766	19.42
873.2	16.22
873.634	28.42
874.067	15.82
874.501	18.42
874.935	29.62
875.368	19.62
875.802	23.42
876.235	17.52
876.669	19.52
877.102	17.72
877.535	15.82
877.969	15.02
878.402	21.22
878.836	12.92
879.269	14.32
879.702	19.12
880.135	18.02
880.569	12.52
881.002	16.92
881.435	15.62
881.868	12.52
882.301	12.02
882.734	12.52
883.167	16.72
883.601	12.22
884.034	13.02
884.467	10.62
884.899	17.22
885.332	12.22
885.765	9.42
886.198	7.12
886.631	16.02
887.064	14.92
887.497	19.32
887.929	18.82
888.362	8.22
888.795	9.02
889.228	13.32
889.66	10.92
890.093	13.72
890.526	12.12
890.958	9.12
891.391	12.72
891.823	14.92
892.256	8.92
892.688	9.22
893.121	11.02
893.553	11.62
893.985	17.52
894.418	12.92
894.85	5.62
895.282	11.42
895.715	5.72
896.147	9.82
896.579	12.32
897.011	12.02
897.444	14.42
897.876	6.42
898.308	16.12
898.74	8.12
899.172	4.72
899.604	16.82
900.036	20.42
900.468	11.22
900.9	14.22
901.332	9.62
901.764	9.92
902.196	11.62
902.628	11.32
903.06	18.32
903.491	26.92
903.923	19.42
904.355	17.72
904.787	23.72
905.218	21.12
905.65	16.12
906.082	9.52
906.513	0.22
906.945	14.52
907.376	9.82
907.808	18.22
908.239	12.62
908.671	10.42
909.102	12.42
909.534	13.02
909.965	36.42
910.397	64.72
910.828	237.02
911.259	368.92
911.691	177.92
912.122	81.32
912.553	42.22
912.984	23.62
913.415	19.72
913.847	23.52
914.278	11.32
914.709	10.92
915.14	13.12
915.571	18.42
916.002	7.02
916.433	13.42
916.864	10.22
917.295	4.42
917.726	20.72
918.157	13.62
918.587	23.32
919.018	13.82
919.449	14.62
919.88	18.52
920.311	22.72
920.741	33.82
921.172	122.32
921.603	110.72
922.033	52.52
922.464	39.62
922.895	10.42
923.325	14.72
923.756	13.42
924.186	5.12
924.617	10.72
925.047	14.32
925.478	24.42
925.908	17.52
926.338	11.62
926.769	4.02
927.199	13.42
927.629	-1.38
928.06	10.52
928.49	10.42
928.92	7.02
929.35	7.32
929.78	12.92
930.21	3.62
930.641	8.72
931.071	12.82
931.501	-0.28
931.931	5.92
932.361	1.62
932.791	1.12
933.221	-0.28
933.651	-1.18
934.08	10.92
934.51	25.42
934.94	9.72
935.37	2.92
935.8	10.92
936.229	7.22
936.659	11.02
937.089	1.22
937.519	15.32
937.948	24.62
938.378	14.32
938.807	3.12
939.237	2.82
939.666	3.82
940.096	-5.38
940.525	-2.48
940.955	4.22
941.384	3.12
941.814	-2.88
942.243	-6.58
942.672	-1.28
943.102	-2.58
943.531	-1.18
943.96	-2.48
944.39	0.62
944.819	-4.88
945.248	6.02
945.677	-0.18
946.106	5.02
946.535	3.62
946.964	-2.98
947.393	4.82
947.822	0.22
948.251	-5.88
948.68	2.82
949.109	6.12
949.538	5.82
949.967	1.62
950.396	2.12
950.825	-1.38
951.254	-3.08
951.682	-9.98
952.111	3.02
952.54	2.82
952.969	-4.18
953.397	-8.18
953.826	-0.68
954.254	-5.28
954.683	2.02
955.112	-3.08
955.54	2.62
955.969	0.02
956.397	0.02
956.826	-0.68
957.254	1.62
957.682	1.62
958.111	6.92
958.539	-0.78
958.967	3.42
959.396	-7.08
959.824	-2.18
960.252	1.92
960.68	-15.38
961.109	0.42
961.537	-9.48
961.965	-3.28
962.393	2.82
962.821	1.82
963.249	1.52
963.677	6.22
964.105	3.52
964.533	30.72
964.961	25.22
965.389	18.02
965.817	1.82
966.245	-2.68
966.672	-0.18
967.1	-13.98
967.528	-3.98
967.956	-7.98
968.383	-1.38
968.811	-5.88
969.239	-0.68
969.666	-4.88
970.094	2.92
970.522	0.72
970.949	-3.98
971.377	-4.08
971.804	-2.18
972.232	-1.68
972.659	-3.28
973.087	-2.58
973.514	-6.98
973.941	-6.78
974.369	-0.78
974.796	-2.98
975.223	2.62
975.651	-0.88
976.078	4.82
976.505	-0.88
976.932	-0.68
977.359	7.32
977.786	5.92
978.214	1.62
978.641	-1.78
979.068	-4.78
979.495	-3.38
979.922	-3.18
980.349	-0.68
980.776	6.42
981.202	8.22
981.629	8.22
982.056	3.32
982.483	-7.18
982.91	4.42
983.337	-5.08
983.763	3.22
984.19	-3.38
984.617	-1.18
985.043	-5.38
985.47	-0.68
985.897	1.72
986.323	-2.38
986.75	1.02
987.176	-3.68
987.603	-5.48
988.029	-4.08
988.456	-3.08
988.882	-0.88
989.308	-8.08
989.735	-4.68
990.161	0.62
990.587	-6.68
991.014	-6.88
991.44	9.02
991.866	0.32
992.292	-5.18
992.719	-5.08
993.145	0.82
993.571	-8.08
993.997	-8.88
994.423	-0.98
994.849	-4.58
995.275	-0.68
995.701	-3.28
996.127	-6.08
996.553	4.42
996.979	0.62
997.405	2.12
997.83	-1.58
998.256	-5.08
998.682	-6.38
999.108	-11.78
999.534	-5.98
999.959	2.02
1000.385	-0.38
1000.811	-0.28
1001.236	-7.58
1001.662	-6.98
1002.087	-8.18
1002.513	2.22
1002.938	3.22
1003.364	-2.58
1003.789	-4.08
1004.215	3.42
1004.64	-2.48
1005.066	-2.28
1005.491	-4.58
1005.916	-2.78
1006.342	-1.68
1006.767	-8.68
1007.192	2.82
1007.617	-0.68
1008.042	-11.18
1008.468	3.12
1008.893	-2.98
1009.318	-7.88
1009.743	-4.48
1010.168	4.12
1010.593	0.92
1011.018	-7.38
1011.443	-7.48
1011.868	-1.98
1012.293	-7.88
1012.718	-9.08
1013.143	-0.48
1013.567	8.92
1013.992	-2.58
1014.417	-12.98
1014.842	-1.48
1015.267	-1.98
1015.691	-6.08
1016.116	6.72
1016.541	-5.18
1016.965	7.82
1017.39	-0.98
1017.814	0.22
1018.239	4.92
1018.663	-9.18
1019.088	-7.58
1019.512	-5.38
1019.937	-5.18
1020.361	-4.68
1020.785	-6.58
1021.21	-1.78
1021.634	-2.28
1022.058	-5.68
1022.483	1.82
1022.907	-4.38
1023.331	-3.58
1023.755	-4.88
1024.179	-8.08
1024.604	-8.48
1025.028	-4.58
1025.452	-4.98
1025.876	-6.28
1026.3	0.72
1026.724	-5.98
1027.148	-8.68
1027.572	-2.18
1027.996	-4.58
1028.42	-3.48
1028.843	2.72
1029.267	-7.68
1029.691	-6.68
1030.115	-5.58
1030.539	-6.48
1030.962	-2.48
1031.386	-9.28
1031.81	-3.18
1032.233	-0.88
1032.657	-6.08
1033.08	2.32
1033.504	-3.78
1033.927	-4.28
1034.351	3.02
1034.774	-9.78
1035.198	-0.98
1035.621	-5.68
1036.045	-4.48
1036.468	-3.78
1036.891	-4.58
1037.315	-7.38
1037.738	-3.28
1038.161	-0.18
1038.584	-2.18
1039.008	-9.68
1039.431	-6.18
1039.854	-4.38
1040.277	-8.18
1040.7	-8.38
1041.123	7.52
1041.546	-7.48
1041.969	1.62
1042.392	-7.48
1042.815	-4.28
1043.238	3.72
1043.661	4.42
1044.084	-8.68
1044.507	-6.98
1044.93	-10.88
1045.352	-4.08
1045.775	-2.18
1046.198	-7.08
1046.621	-4.58
1047.043	-7.68
1047.466	8.32
1047.889	-6.38
1048.311	-5.68
1048.734	-5.38
1049.156	-1.08
1049.579	-5.98
1050.001	-3.88
1050.424	-6.08
1050.846	-0.68
1051.269	-1.98
1051.691	-9.58
1052.113	-2.88
1052.536	-6.78
1052.958	0.92
1053.38	-2.08
1053.802	-12.88
1054.225	-4.78
1054.647	-7.88
1055.069	-9.58
1055.491	3.32
1055.913	-1.58
1056.335	-4.08
1056.757	1.02
1057.179	-11.58
1057.601	-5.18
1058.023	-8.78
1058.445	-10.38
1058.867	-7.98
1059.289	-0.48
1059.711	-2.18
1060.133	-3.68
1060.555	-3.88
1060.976	-2.38
1061.398	-3.68
1061.82	-10.58
1062.241	-7.18
1062.663	-7.08
1063.085	-6.68
1063.506	2.22
1063.928	-7.48
1064.35	-1.48
1064.771	-9.98
1065.193	-4.28
1065.614	-10.48
1066.035	-2.68
1066.457	1.32
1066.878	-2.18
1067.3	-7.68
1067.721	0.92
1068.142	-4.98
1068.564	-4.08
1068.985	-3.78
1069.406	-4.68
1069.827	-5.78
1070.248	3.32
1070.67	-6.18
1071.091	-2.58
1071.512	-6.98
1071.933	-5.48
1072.354	-6.98
1072.775	-5.38
1073.196	-6.88
1073.617	-7.78
1074.038	-7.08
1074.459	-5.18
1074.88	-7.88
1075.3	-1.28
1075.721	-4.28
1076.142	2.92
1076.563	-3.18
1076.983	-10.08
1077.404	-9.78
1077.825	-12.68
1078.246	-5.08
1078.666	-5.38
1079.087	-4.78
1079.507	-8.18
1079.928	1.72
1080.348	-1.08
1080.769	-1.08
1081.189	-1.28
1081.61	-9.38
1082.03	0.72
1082.451	-3.68
1082.871	-10.28
1083.291	-6.48
1083.711	-7.98
1084.132	-5.28
1084.552	-7.38
1084.972	-3.28
1085.392	-14.28
1085.813	-8.08
1086.233	-15.38
1086.653	-5.38
1087.073	-5.78
1087.493	-5.68
1087.913	-6.18
1088.333	-4.08
1088.753	-4.38
1089.173	3.32
1089.593	-2.98
1090.013	-0.58
1090.433	0.02
1090.852	-1.98
1091.272	-1.98
1091.692	-4.98
1092.112	-1.18
1092.531	-13.18
1092.951	-13.78
1093.371	-1.18
1093.79	3.62
1094.21	-7.08
1094.63	-7.58
1095.049	-3.38
1095.469	-0.78
1095.888	-4.38
1096.308	0.52
1096.727	-3.88
1097.146	-7.68
1097.566	-4.38
1097.985	-2.38
1098.405	-2.08
1098.824	-7.18
1099.243	-4.58
1099.662	-7.08
1100.082	-6.68
1100.501	-1.88
1100.92	-2.68
1101.339	-0.08
1101.758	-2.28
