Data from 20171114-ORNL-Ar_H_NY_Subt18_08-08-45-166.txt Node
Date: Tue Nov 14 08:08:45 EST 2017
User: Ender
Spectrometer: HR+D1039
Trigger mode: 0
Integration Time (sec): 2.730000E-2
Scans to average: 10
Electric dark correction enabled: true
Nonlinearity correction enabled: false
Boxcar width: 0
XAxis mode: Wavelengths
Number of Pixels in Spectrum: 2048
>>>>>Begin Spectral Data<<<<<
187.836	-1.53
188.309	-1.53
188.782	-1.53
189.255	0.47
189.728	3.47
190.201	5.87
190.674	-2.23
191.147	-0.33
191.619	-7.13
192.092	5.27
192.565	6.17
193.038	-3.03
193.511	0.97
193.984	2.17
194.456	-7.23
194.929	-2.43
195.402	0.57
195.874	-1.03
196.347	-4.23
196.82	-7.33
197.292	4.67
197.765	-3.53
198.237	-7.33
198.71	4.97
199.182	-3.73
199.655	2.57
200.127	3.27
200.6	4.37
201.072	-6.43
201.544	-4.13
202.017	-3.03
202.489	2.87
202.961	-4.23
203.433	-5.23
203.906	-0.93
204.378	-4.93
204.85	-3.63
205.322	-5.93
205.794	1.07
206.266	-3.33
206.739	-10.43
207.211	0.27
207.683	-10.33
208.155	-4.23
208.627	-3.73
209.099	-3.03
209.57	-7.33
210.042	-2.93
210.514	-4.43
210.986	6.67
211.458	-10.63
211.93	-3.13
212.402	1.17
212.873	-9.93
213.345	-9.53
213.817	-13.23
214.288	-4.73
214.76	-8.93
215.232	-4.63
215.703	-2.93
216.175	0.27
216.646	-7.53
217.118	-10.43
217.589	-7.53
218.061	-1.23
218.532	-4.03
219.004	-4.13
219.475	-3.43
219.946	-4.83
220.418	-5.13
220.889	3.27
221.36	1.97
221.832	-1.93
222.303	-4.93
222.774	-3.33
223.245	-13.23
223.717	-2.63
224.188	-0.83
224.659	-2.03
225.13	-4.83
225.601	-1.83
226.072	-2.73
226.543	-1.43
227.014	0.17
227.485	0.07
227.956	-4.83
228.427	0.47
228.898	8.97
229.369	5.37
229.839	-4.13
230.31	-5.23
230.781	0.17
231.252	-4.33
231.722	-7.43
232.193	-1.63
232.664	-4.63
233.135	0.17
233.605	-0.83
234.076	-6.23
234.546	2.97
235.017	3.47
235.487	0.27
235.958	0.57
236.428	-3.03
236.899	-2.63
237.369	0.77
237.84	-2.93
238.31	6.07
238.78	-4.63
239.251	-8.33
239.721	-1.73
240.191	-1.93
240.662	-1.33
241.132	0.97
241.602	-1.33
242.072	0.97
242.542	9.27
243.013	1.57
243.483	1.07
243.953	1.87
244.423	-3.03
244.893	-4.63
245.363	2.67
245.833	1.07
246.303	-0.73
246.773	0.27
247.243	-9.13
247.712	-0.93
248.182	5.57
248.652	2.77
249.122	-8.03
249.592	-2.73
250.061	10.77
250.531	15.47
251.001	-0.13
251.471	3.87
251.94	11.07
252.41	0.57
252.879	-2.73
253.349	13.67
253.818	12.07
254.288	-0.83
254.757	5.17
255.227	2.57
255.696	-6.83
256.166	2.07
256.635	5.77
257.105	3.97
257.574	0.97
258.043	5.77
258.513	1.87
258.982	5.37
259.451	-1.43
259.92	6.27
260.389	1.47
260.859	9.07
261.328	1.87
261.797	9.87
262.266	6.17
262.735	5.07
263.204	2.87
263.673	-2.83
264.142	1.17
264.611	-4.53
265.08	-5.83
265.549	-0.93
266.018	4.67
266.487	-4.13
266.955	-3.53
267.424	-2.53
267.893	2.67
268.362	-5.23
268.83	2.17
269.299	7.67
269.768	2.97
270.236	3.77
270.705	-1.63
271.174	2.27
271.642	4.37
272.111	12.17
272.579	1.57
273.048	7.37
273.516	7.77
273.985	6.87
274.453	16.67
274.922	13.17
275.39	9.07
275.858	-2.53
276.327	6.87
276.795	9.87
277.263	1.37
277.731	17.17
278.2	20.97
278.668	22.97
279.136	21.17
279.604	7.97
280.072	9.67
280.54	6.97
281.008	9.97
281.477	10.67
281.945	4.47
282.413	8.37
282.881	13.47
283.348	8.87
283.816	13.17
284.284	6.57
284.752	15.27
285.22	4.77
285.688	8.77
286.156	13.67
286.623	22.87
287.091	18.07
287.559	16.87
288.026	8.37
288.494	10.97
288.962	1.07
289.429	4.67
289.897	14.27
290.364	13.47
290.832	13.47
291.3	12.87
291.767	12.17
292.234	19.37
292.702	7.47
293.169	11.47
293.637	18.67
294.104	22.37
294.571	6.67
295.039	10.47
295.506	12.57
295.973	7.37
296.44	13.17
296.908	11.87
297.375	10.87
297.842	17.57
298.309	12.87
298.776	13.77
299.243	13.17
299.71	10.87
300.177	18.67
300.644	16.87
301.111	10.67
301.578	14.97
302.045	10.67
302.512	18.07
302.979	16.27
303.446	23.97
303.913	13.47
304.379	7.17
304.846	21.87
305.313	12.67
305.78	17.67
306.246	20.77
306.713	19.97
307.18	21.27
307.646	21.77
308.113	25.17
308.579	17.67
309.046	20.47
309.512	16.47
309.979	11.77
310.445	19.37
310.912	22.57
311.378	23.07
311.845	23.77
312.311	24.87
312.777	18.87
313.244	25.97
313.71	27.67
314.176	22.77
314.642	18.37
315.109	21.17
315.575	24.97
316.041	31.97
316.507	22.67
316.973	27.57
317.439	29.47
317.905	30.37
318.371	30.67
318.837	27.67
319.303	27.27
319.769	34.37
320.235	29.67
320.701	26.77
321.167	26.47
321.633	24.47
322.099	29.17
322.564	34.77
323.03	30.37
323.496	25.67
323.962	31.67
324.427	27.77
324.893	34.27
325.359	34.57
325.824	32.87
326.29	29.27
326.755	29.17
327.221	32.67
327.686	37.57
328.152	40.47
328.617	36.87
329.083	43.17
329.548	45.57
330.014	42.27
330.479	32.67
330.944	36.97
331.41	38.27
331.875	39.27
332.34	39.07
332.805	38.07
333.271	38.17
333.736	35.87
334.201	44.57
334.666	41.37
335.131	44.27
335.596	43.87
336.061	42.57
336.526	29.17
336.991	38.77
337.456	48.37
337.921	40.97
338.386	43.27
338.851	44.67
339.316	42.47
339.781	37.87
340.246	42.37
340.711	36.27
341.175	42.07
341.64	38.97
342.105	42.17
342.569	54.07
343.034	51.37
343.499	45.77
343.963	42.37
344.428	56.97
344.893	54.87
345.357	54.17
345.822	56.47
346.286	51.67
346.751	66.57
347.215	50.57
347.679	61.37
348.144	70.87
348.608	63.87
349.073	57.57
349.537	66.57
350.001	72.27
350.465	78.67
350.93	69.17
351.394	66.57
351.858	62.17
352.322	75.17
352.786	72.27
353.25	79.47
353.715	90.07
354.179	83.47
354.643	105.37
355.107	105.77
355.571	89.57
356.035	88.57
356.498	94.07
356.962	99.17
357.426	106.47
357.89	99.87
358.354	79.47
358.818	74.27
359.281	66.67
359.745	65.57
360.209	69.17
360.673	62.17
361.136	69.47
361.6	72.97
362.064	70.87
362.527	73.17
362.991	79.17
363.454	76.67
363.918	67.07
364.381	73.77
364.845	72.97
365.308	72.07
365.772	78.07
366.235	74.57
366.698	66.37
367.162	76.27
367.625	75.77
368.088	75.27
368.552	82.17
369.015	78.47
369.478	90.67
369.941	85.07
370.404	86.07
370.867	84.07
371.331	91.67
371.794	101.77
372.257	86.37
372.72	99.17
373.183	95.17
373.646	88.07
374.109	86.77
374.572	89.07
375.035	93.07
375.497	92.17
375.96	99.37
376.423	99.67
376.886	104.37
377.349	102.87
377.811	91.27
378.274	96.87
378.737	99.17
379.199	102.67
379.662	97.97
380.125	105.07
380.587	99.17
381.05	109.47
381.512	111.77
381.975	117.27
382.437	110.17
382.9	111.67
383.362	116.47
383.825	117.37
384.287	119.37
384.75	117.67
385.212	121.17
385.674	121.47
386.136	122.57
386.599	115.97
387.061	120.87
387.523	115.27
387.985	120.57
388.447	131.27
388.91	122.17
389.372	130.27
389.834	131.47
390.296	136.47
390.758	134.57
391.22	141.77
391.682	168.97
392.144	211.47
392.606	170.87
393.068	143.27
393.529	149.87
393.991	144.47
394.453	130.97
394.915	136.87
395.377	151.77
395.838	160.97
396.3	141.87
396.762	137.97
397.224	132.07
397.685	125.97
398.147	129.47
398.608	130.37
399.07	118.37
399.531	133.97
399.993	141.27
400.454	143.47
400.916	140.97
401.377	140.07
401.839	141.87
402.3	138.97
402.762	164.57
403.223	167.77
403.684	163.27
404.145	160.17
404.607	153.57
405.068	154.17
405.529	155.97
405.99	179.47
406.451	165.77
406.913	171.47
407.374	162.77
407.835	156.97
408.296	162.97
408.757	164.57
409.218	173.57
409.679	173.17
410.14	170.57
410.601	166.67
411.062	172.37
411.522	181.37
411.983	175.07
412.444	170.57
412.905	179.27
413.366	176.77
413.826	189.67
414.287	215.17
414.748	257.17
415.208	241.37
415.669	220.07
416.13	208.37
416.59	195.97
417.051	212.27
417.511	214.87
417.972	229.57
418.432	250.47
418.893	287.47
419.353	245.87
419.814	197.47
420.274	178.37
420.734	183.17
421.195	194.17
421.655	188.67
422.115	186.97
422.576	192.97
423.036	194.77
423.496	209.17
423.956	206.07
424.416	227.87
424.876	259.57
425.336	258.17
425.797	258.67
426.257	255.87
426.717	233.27
427.177	229.17
427.637	218.27
428.097	218.97
428.556	238.17
429.016	264.87
429.476	258.77
429.936	262.77
430.396	275.27
430.856	278.17
431.315	293.37
431.775	337.57
432.235	366.47
432.694	338.07
433.154	346.47
433.614	378.47
434.073	331.47
434.533	281.97
434.993	269.77
435.452	275.97
435.912	287.47
436.371	271.67
436.83	265.17
437.29	260.17
437.749	243.97
438.209	239.57
438.668	280.07
439.127	284.37
439.587	254.77
440.046	241.07
440.505	255.27
440.964	284.67
441.424	324.17
441.883	301.77
442.342	258.37
442.801	223.37
443.26	223.17
443.719	222.97
444.178	218.97
444.637	204.07
445.096	218.77
445.555	227.37
446.014	230.77
446.473	232.77
446.932	231.97
447.391	233.47
447.849	227.57
448.308	223.57
448.767	225.37
449.226	228.97
449.685	226.47
450.143	249.87
450.602	238.47
451.061	225.47
451.519	233.77
451.978	222.67
452.436	239.57
452.895	239.27
453.353	251.37
453.812	232.97
454.27	239.07
454.729	239.87
455.187	240.17
455.646	242.97
456.104	246.77
456.562	260.97
457.021	260.77
457.479	261.07
457.937	270.87
458.395	255.67
458.854	247.67
459.312	255.27
459.77	271.97
460.228	259.67
460.686	243.37
461.144	248.77
461.602	250.07
462.06	241.67
462.518	257.67
462.976	252.27
463.434	261.77
463.892	261.57
464.35	273.87
464.808	286.57
465.266	259.37
465.724	270.27
466.181	271.17
466.639	270.97
467.097	283.77
467.555	301.47
468.012	304.57
468.47	311.67
468.928	323.27
469.385	343.37
469.843	346.17
470.3	344.87
470.758	357.77
471.215	379.27
471.673	411.07
472.13	404.27
472.588	421.17
473.045	366.77
473.503	382.47
473.96	390.87
474.417	398.97
474.875	435.27
475.332	470.57
475.789	453.57
476.246	464.57
476.704	480.47
477.161	496.97
477.618	518.27
478.075	550.27
478.532	608.27
478.989	678.07
479.446	783.27
479.903	747.07
480.36	773.97
480.817	832.57
481.274	920.67
481.731	1008.97
482.188	1091.37
482.645	1212.77
483.102	1314.07
483.558	1423.57
484.015	1459.97
484.472	1437.97
484.929	1400.57
485.385	1366.37
485.842	1326.37
486.299	1276.77
486.755	1236.77
487.212	1055.97
487.668	899.77
488.125	825.47
488.582	757.27
489.038	721.27
489.494	696.77
489.951	670.37
490.407	654.17
490.864	642.27
491.32	636.97
491.776	640.97
492.233	635.87
492.689	611.17
493.145	600.87
493.602	599.17
494.058	608.17
494.514	602.47
494.97	622.67
495.426	646.77
495.882	609.47
496.338	614.87
496.794	613.97
497.251	601.87
497.707	630.57
498.163	634.97
498.618	637.67
499.074	634.57
499.53	664.07
499.986	661.37
500.442	645.47
500.898	617.47
501.354	607.47
501.809	621.67
502.265	618.77
502.721	640.97
503.177	650.97
503.632	649.97
504.088	654.37
504.543	680.37
504.999	696.37
505.455	661.67
505.91	633.17
506.366	633.37
506.821	636.97
507.277	627.07
507.732	631.77
508.187	633.37
508.643	641.27
509.098	646.97
509.553	655.77
510.009	675.37
510.464	669.57
510.919	686.37
511.375	697.97
511.83	705.67
512.285	719.17
512.74	756.57
513.195	782.47
513.65	765.07
514.105	774.97
514.56	765.87
515.015	792.37
515.47	798.07
515.925	783.67
516.38	780.17
516.835	786.97
517.29	776.67
517.745	771.87
518.2	766.17
518.655	747.27
519.109	745.17
519.564	738.07
520.019	738.17
520.474	718.17
520.928	725.47
521.383	721.67
521.838	710.47
522.292	703.67
522.747	718.37
523.201	707.87
523.656	699.47
524.11	699.77
524.565	695.97
525.019	692.17
525.474	702.37
525.928	700.27
526.382	698.47
526.837	696.17
527.291	701.37
527.745	695.77
528.2	706.17
528.654	695.77
529.108	688.97
529.562	695.17
530.016	687.47
530.47	688.77
530.925	692.27
531.379	691.57
531.833	702.67
532.287	710.17
532.741	702.77
533.195	701.87
533.649	713.57
534.103	713.47
534.556	711.47
535.01	716.27
535.464	706.37
535.918	720.97
536.372	720.37
536.826	715.57
537.279	708.37
537.733	714.07
538.187	702.87
538.64	703.97
539.094	720.27
539.548	725.87
540.001	725.57
540.455	728.47
540.908	728.37
541.362	745.57
541.815	749.87
542.269	765.67
542.722	762.87
543.175	782.67
543.629	775.67
544.082	799.47
544.536	787.37
544.989	790.07
545.442	795.07
545.895	806.37
546.349	795.37
546.802	795.67
547.255	803.97
547.708	810.47
548.161	815.07
548.614	821.57
549.067	836.97
549.52	824.27
549.973	817.57
550.426	810.87
550.879	802.17
551.332	805.77
551.785	806.77
552.238	817.07
552.691	826.77
553.144	845.87
553.596	860.37
554.049	849.07
554.502	891.37
554.955	910.67
555.407	912.67
555.86	904.07
556.313	892.07
556.765	876.87
557.218	886.67
557.67	888.37
558.123	874.97
558.576	872.97
559.028	881.17
559.48	881.17
559.933	875.67
560.385	847.37
560.838	818.97
561.29	791.07
561.742	795.37
562.195	766.87
562.647	774.97
563.099	789.67
563.551	784.07
564.004	802.67
564.456	779.17
564.908	758.17
565.36	739.67
565.812	730.47
566.264	732.87
566.716	723.37
567.168	708.27
567.62	726.37
568.072	706.67
568.524	704.67
568.976	703.37
569.428	683.27
569.88	682.77
570.332	693.57
570.784	686.87
571.235	691.37
571.687	705.97
572.139	715.27
572.59	718.97
573.042	718.67
573.494	723.07
573.945	711.47
574.397	695.57
574.849	688.97
575.3	706.17
575.752	700.07
576.203	688.17
576.655	692.07
577.106	680.37
577.557	677.37
578.009	677.97
578.46	675.57
578.912	680.27
579.363	671.17
579.814	670.77
580.265	673.37
580.717	677.77
581.168	678.47
581.619	687.17
582.07	686.57
582.521	682.47
582.972	687.97
583.423	685.07
583.875	684.07
584.326	696.27
584.777	727.27
585.227	759.67
585.678	810.77
586.129	850.87
586.58	895.27
587.031	937.37
587.482	995.17
587.933	1100.77
588.384	1006.17
588.834	865.37
589.285	796.17
589.736	790.57
590.186	778.67
590.637	774.27
591.088	756.87
591.538	752.77
591.989	738.97
592.439	728.97
592.89	724.67
593.34	717.97
593.791	710.97
594.241	704.07
594.692	717.17
595.142	708.57
595.593	710.17
596.043	711.57
596.493	720.27
596.943	720.57
597.394	728.27
597.844	727.37
598.294	744.37
598.744	773.07
599.195	788.47
599.645	832.77
600.095	876.97
600.545	928.77
600.995	984.07
601.445	1041.97
601.895	1097.57
602.345	1141.47
602.795	1125.67
603.245	1073.37
603.695	1030.37
604.145	971.87
604.594	928.47
605.044	880.37
605.494	808.67
605.944	767.97
606.393	756.87
606.843	734.77
607.293	747.57
607.743	741.37
608.192	754.57
608.642	770.27
609.091	766.87
609.541	771.97
609.99	778.17
610.44	781.47
610.889	726.57
611.339	709.67
611.788	685.27
612.238	706.97
612.687	718.77
613.136	710.07
613.586	724.17
614.035	723.07
614.484	736.27
614.933	730.77
615.383	740.97
615.832	728.57
616.281	711.47
616.73	689.67
617.179	664.17
617.628	663.17
618.077	638.37
618.526	632.27
618.975	624.07
619.424	619.37
619.873	620.47
620.322	620.77
620.771	614.17
621.22	617.07
621.669	606.97
622.118	595.77
622.567	589.97
623.015	580.47
623.464	581.37
623.913	570.87
624.361	565.87
624.81	559.47
625.259	562.57
625.707	568.57
626.156	563.17
626.604	574.67
627.053	569.37
627.501	574.37
627.95	580.27
628.398	597.07
628.847	576.47
629.295	576.07
629.744	584.67
630.192	576.67
630.64	570.17
631.089	561.57
631.537	564.67
631.985	565.67
632.433	577.27
632.881	564.47
633.33	595.47
633.778	579.47
634.226	542.27
634.674	558.47
635.122	572.57
635.57	582.77
636.018	600.17
636.466	580.17
636.914	566.37
637.362	578.77
637.81	585.27
638.258	596.27
638.705	595.27
639.153	614.57
639.601	625.27
640.049	657.77
640.497	691.17
640.944	706.37
641.392	651.47
641.84	618.97
642.287	595.47
642.735	579.67
643.182	575.47
643.63	582.87
644.078	573.17
644.525	585.87
644.973	593.97
645.42	600.87
645.867	627.07
646.315	653.37
646.762	658.97
647.21	700.67
647.657	709.77
648.104	744.57
648.551	770.17
648.999	829.37
649.446	915.37
649.893	1009.17
650.34	1149.77
650.787	1366.37
651.234	1679.27
651.682	2197.47
652.129	2983.27
652.576	4236.67
653.023	6191.57
653.47	8414.97
653.917	10364.87
654.363	11882.07
654.81	13023.17
655.257	12358.47
655.704	8168.37
656.151	4899.67
656.598	3207.67
657.044	2288.97
657.491	1776.77
657.938	1428.27
658.385	1211.17
658.831	1060.17
659.278	935.77
659.724	848.77
660.171	782.37
660.618	720.97
661.064	685.77
661.511	671.97
661.957	662.97
662.404	650.87
662.85	646.07
663.296	626.27
663.743	564.17
664.189	548.87
664.635	546.27
665.082	534.87
665.528	534.87
665.974	523.67
666.42	525.57
666.867	505.37
667.313	494.97
667.759	478.27
668.205	463.57
668.651	471.07
669.097	467.47
669.543	466.27
669.989	464.17
670.435	456.47
670.881	454.17
671.327	459.97
671.773	488.87
672.219	500.27
672.665	558.87
673.11	599.87
673.556	645.07
674.002	683.57
674.448	676.27
674.893	558.07
675.339	491.07
675.785	450.77
676.23	431.47
676.676	400.17
677.122	399.47
677.567	380.27
678.013	374.07
678.458	369.67
678.904	372.47
679.349	364.27
679.794	367.37
680.24	355.57
680.685	361.77
681.131	352.07
681.576	356.87
682.021	360.27
682.466	355.87
682.912	361.37
683.357	364.77
683.802	397.17
684.247	424.77
684.692	469.37
685.137	510.57
685.583	558.77
686.028	572.17
686.473	529.07
686.918	460.57
687.363	429.67
687.807	398.37
688.252	381.67
688.697	367.97
689.142	348.27
689.587	346.77
690.032	333.57
690.477	352.57
690.921	357.77
691.366	396.87
691.811	418.87
692.255	441.57
692.7	475.67
693.145	521.07
693.589	748.07
694.034	1193.87
694.478	1597.27
694.923	1775.47
695.367	2300.37
695.812	1235.47
696.256	517.97
696.701	385.67
697.145	352.17
697.59	338.07
698.034	330.27
698.478	336.97
698.922	333.17
699.367	334.17
699.811	344.37
700.255	364.77
700.699	399.77
701.143	443.57
701.588	492.07
702.032	528.37
702.476	523.67
702.92	497.37
703.364	519.57
703.808	691.37
704.252	1096.07
704.696	1519.37
705.14	1712.57
705.584	2185.37
706.027	1110.27
706.471	538.97
706.915	404.47
707.359	362.87
707.803	327.97
708.246	313.87
708.69	319.57
709.134	320.47
709.577	324.07
710.021	324.77
710.465	322.07
710.908	308.47
711.352	308.87
711.795	326.97
712.239	363.67
712.682	401.27
713.126	426.57
713.569	474.77
714.012	365.97
714.456	318.37
714.899	306.57
715.342	288.57
715.786	268.77
716.229	270.37
716.672	270.37
717.115	253.97
717.558	264.97
718.002	256.77
718.445	265.47
718.888	293.77
719.331	303.17
719.774	319.67
720.217	318.87
720.66	291.57
721.103	273.07
721.546	266.07
721.989	259.97
722.432	236.27
722.874	237.97
723.317	235.27
723.76	240.97
724.203	261.87
724.645	336.97
725.088	461.67
725.531	589.97
725.974	659.67
726.416	559.67
726.859	314.57
727.301	254.87
727.744	245.67
728.187	242.07
728.629	245.37
729.071	255.37
729.514	273.77
729.956	278.17
730.399	289.17
730.841	296.77
731.283	283.87
731.726	273.47
732.168	268.27
732.61	275.67
733.053	294.97
733.495	323.97
733.937	368.47
734.379	421.47
734.821	462.07
735.263	575.27
735.705	893.77
736.148	1713.87
736.59	2688.87
737.032	3105.17
737.474	2549.67
737.916	846.47
738.357	450.77
738.799	350.67
739.241	304.87
739.683	298.37
740.125	309.17
740.567	316.67
741.008	327.07
741.45	331.27
741.892	331.07
742.334	355.87
742.775	377.97
743.217	352.37
743.658	276.77
744.1	261.87
744.542	276.77
744.983	327.17
745.425	357.77
745.866	357.77
746.307	288.27
746.749	286.97
747.19	340.77
747.632	483.87
748.073	952.17
748.514	1984.97
748.956	2975.67
749.397	3770.17
749.838	3080.97
750.279	3025.07
750.72	1544.77
751.162	578.77
751.603	343.27
752.044	260.87
752.485	223.27
752.926	223.47
753.367	211.57
753.808	200.47
754.249	199.77
754.69	199.57
755.131	191.97
755.572	190.47
756.013	183.37
756.453	195.57
756.894	195.87
757.335	197.57
757.776	198.87
758.216	203.37
758.657	206.07
759.098	211.67
759.538	239.97
759.979	283.37
760.42	397.67
760.86	766.57
761.301	2016.87
761.741	4702.57
762.182	6538.77
762.622	4618.07
763.063	1369.57
763.503	562.37
763.943	349.27
764.384	305.47
764.824	309.97
765.264	313.77
765.705	249.37
766.145	202.47
766.585	186.77
767.025	184.97
767.465	176.37
767.906	211.47
768.346	251.07
768.786	261.37
769.226	250.37
769.666	332.07
770.106	676.97
770.546	1684.07
770.986	2713.17
771.426	2411.57
771.866	819.17
772.306	341.07
772.745	212.67
773.185	179.77
773.625	166.97
774.065	158.57
774.505	177.97
774.944	256.47
775.384	486.27
775.824	793.97
776.263	760.27
776.703	360.27
777.142	183.67
777.582	143.47
778.021	137.57
778.461	130.47
778.9	129.37
779.34	133.27
779.779	120.07
780.219	110.67
780.658	106.87
781.097	111.57
781.537	118.27
781.976	112.17
782.415	106.37
782.855	112.17
783.294	107.77
783.733	108.47
784.172	109.77
784.611	103.27
785.05	107.87
785.489	119.57
785.928	121.77
786.367	127.07
786.806	119.57
787.245	132.77
787.684	138.27
788.123	150.57
788.562	137.17
789.001	132.57
789.44	129.77
789.879	122.77
790.317	123.67
790.756	124.17
791.195	134.37
791.634	157.67
792.072	217.07
792.511	394.57
792.95	1087.27
793.388	2186.27
793.827	1929.07
794.265	698.07
794.704	291.77
795.142	190.47
795.581	159.17
796.019	146.47
796.458	132.97
796.896	120.67
797.334	137.97
797.773	161.27
798.211	227.07
798.649	484.77
799.087	1086.27
799.526	1672.67
799.964	2110.87
800.402	2036.77
800.84	788.47
801.278	319.37
801.716	201.37
802.154	160.77
802.592	152.77
803.03	148.47
803.468	140.87
803.906	151.37
804.344	155.07
804.782	145.47
805.22	132.87
805.658	134.27
806.096	148.97
806.533	163.37
806.971	190.17
807.409	234.57
807.847	338.37
808.284	731.47
808.722	2009.67
809.16	3387.57
809.597	3340.77
810.035	5701.97
810.472	5818.77
810.91	2151.47
811.347	839.67
811.785	422.37
812.222	270.47
812.66	202.27
813.097	169.17
813.535	158.77
813.972	124.57
814.409	130.77
814.846	113.77
815.284	113.87
815.721	98.97
816.158	107.97
816.595	115.37
817.032	167.87
817.47	184.17
817.907	141.17
818.344	117.27
818.781	106.47
819.218	110.07
819.655	130.77
820.092	195.47
820.529	217.87
820.966	180.77
821.403	132.07
821.839	105.17
822.276	103.67
822.713	131.67
823.15	141.37
823.587	128.57
824.023	153.77
824.46	328.87
824.897	958.27
825.333	1386.77
825.77	597.47
826.206	242.17
826.643	138.37
827.08	103.07
827.516	89.17
827.953	76.77
828.389	88.97
828.825	70.77
829.262	68.37
829.698	62.47
830.135	75.67
830.571	64.87
831.007	71.27
831.443	67.17
831.88	67.27
832.316	65.07
832.752	66.87
833.188	69.27
833.624	64.77
834.06	75.37
834.497	72.87
834.933	75.47
835.369	74.37
835.805	71.77
836.241	80.77
836.677	81.37
837.112	94.47
837.548	107.97
837.984	144.37
838.42	205.47
838.856	538.77
839.292	1602.67
839.727	2342.77
840.163	1116.57
840.599	1000.97
841.034	2132.37
841.47	2132.67
841.906	805.27
842.341	347.37
842.777	219.17
843.212	243.07
843.648	230.77
844.083	129.77
844.519	100.97
844.954	79.87
845.39	64.77
845.825	56.27
846.261	60.47
846.696	50.97
847.131	56.67
847.566	57.57
848.002	57.57
848.437	54.27
848.872	64.97
849.307	60.57
849.742	92.37
850.177	197.07
850.613	593.47
851.048	899.57
851.483	386.47
851.918	157.17
852.353	89.17
852.788	58.27
853.223	56.97
853.657	55.17
854.092	48.87
854.527	46.67
854.962	41.37
855.397	47.57
855.832	52.27
856.266	44.07
856.701	41.67
857.136	39.77
857.57	44.77
858.005	54.57
858.44	64.17
858.874	45.27
859.309	52.37
859.743	43.47
860.178	48.97
860.612	49.87
861.047	52.77
861.481	75.47
861.915	72.77
862.35	48.97
862.784	37.97
863.218	42.57
863.653	33.07
864.087	45.37
864.521	55.57
864.955	69.17
865.39	161.77
865.824	180.77
866.258	124.77
866.692	175.67
867.126	176.27
867.56	109.47
867.994	57.97
868.428	40.17
868.862	48.97
869.296	65.07
869.73	54.87
870.164	57.37
870.598	47.07
871.031	42.57
871.465	29.97
871.899	31.47
872.333	28.77
872.766	29.47
873.2	23.27
873.634	32.47
874.067	32.07
874.501	29.87
874.935	37.17
875.368	30.07
875.802	29.07
876.235	27.17
876.669	26.17
877.102	27.17
877.535	23.27
877.969	19.77
878.402	26.67
878.836	21.47
879.269	26.97
879.702	30.07
880.135	21.27
880.569	19.77
881.002	27.87
881.435	20.87
881.868	18.87
882.301	24.07
882.734	14.17
883.167	24.57
883.601	20.17
884.034	22.07
884.467	12.77
884.899	17.87
885.332	16.27
885.765	11.97
886.198	14.77
886.631	17.27
887.064	19.97
887.497	24.57
887.929	24.47
888.362	16.77
888.795	16.27
889.228	18.97
889.66	22.17
890.093	17.77
890.526	17.87
890.958	19.07
891.391	19.37
891.823	25.27
892.256	19.07
892.688	10.77
893.121	11.97
893.553	18.37
893.985	29.47
894.418	21.47
894.85	13.07
895.282	21.37
895.715	20.67
896.147	22.17
896.579	23.57
897.011	14.07
897.444	16.87
897.876	13.47
898.308	15.77
898.74	15.47
899.172	16.57
899.604	23.77
900.036	20.07
900.468	13.57
900.9	13.67
901.332	21.37
901.764	17.17
902.196	19.27
902.628	22.87
903.06	16.87
903.491	30.37
903.923	23.77
904.355	17.57
904.787	25.37
905.218	26.07
905.65	15.17
906.082	14.87
906.513	10.57
906.945	20.97
907.376	18.27
907.808	22.07
908.239	25.37
908.671	19.27
909.102	27.37
909.534	31.17
909.965	49.67
910.397	96.47
910.828	325.07
911.259	488.07
911.691	226.47
912.122	116.27
912.553	53.87
912.984	37.77
913.415	27.27
913.847	29.07
914.278	11.87
914.709	17.17
915.14	20.17
915.571	19.17
916.002	10.17
916.433	21.17
916.864	15.27
917.295	14.57
917.726	21.97
918.157	14.87
918.587	31.47
919.018	27.37
919.449	15.87
919.88	22.77
920.311	33.17
920.741	52.57
921.172	175.07
921.603	157.77
922.033	72.67
922.464	50.87
922.895	24.67
923.325	23.17
923.756	13.07
924.186	10.47
924.617	18.97
925.047	28.17
925.478	36.07
925.908	33.67
926.338	17.07
926.769	11.77
927.199	18.97
927.629	11.07
928.06	15.67
928.49	13.37
928.92	14.77
929.35	14.87
929.78	11.67
930.21	10.07
930.641	12.87
931.071	9.67
931.501	9.27
931.931	19.17
932.361	12.17
932.791	4.17
933.221	6.37
933.651	0.57
934.08	23.67
934.51	32.97
934.94	11.47
935.37	9.77
935.8	10.77
936.229	11.27
936.659	9.47
937.089	2.37
937.519	17.57
937.948	24.87
938.378	17.97
938.807	5.37
939.237	2.17
939.666	2.87
940.096	-7.23
940.525	1.17
940.955	3.17
941.384	1.97
941.814	-4.43
942.243	-2.33
942.672	5.97
943.102	-3.93
943.531	5.17
943.96	2.07
944.39	3.57
944.819	0.97
945.248	3.47
945.677	5.17
946.106	9.27
946.535	4.37
946.964	-0.53
947.393	-1.43
947.822	3.37
948.251	-2.83
948.68	1.27
949.109	1.97
949.538	2.07
949.967	1.57
950.396	3.07
950.825	0.07
951.254	-1.43
951.682	-4.43
952.111	3.97
952.54	6.07
952.969	-5.33
953.397	-2.03
953.826	-2.03
954.254	-1.23
954.683	-0.73
955.112	-1.63
955.54	1.07
955.969	-1.23
956.397	-2.53
956.826	2.07
957.254	8.27
957.682	-0.53
958.111	7.67
958.539	-1.23
958.967	-0.63
959.396	-1.23
959.824	3.17
960.252	4.47
960.68	-2.23
961.109	-0.33
961.537	-8.23
961.965	-4.83
962.393	0.07
962.821	-8.53
963.249	-3.13
963.677	6.57
964.105	1.47
964.533	47.87
964.961	40.47
965.389	23.17
965.817	5.57
966.245	4.27
966.672	-5.43
967.1	-11.73
967.528	1.27
967.956	2.67
968.383	5.87
968.811	-0.03
969.239	-1.13
969.666	-1.93
970.094	0.07
970.522	-1.73
970.949	-4.53
971.377	-5.73
971.804	-3.73
972.232	-2.93
972.659	1.07
973.087	-1.53
973.514	-3.13
973.941	-2.73
974.369	1.67
974.796	1.97
975.223	-1.63
975.651	-1.33
976.078	3.17
976.505	-2.93
976.932	-0.13
977.359	18.87
977.786	15.27
978.214	0.67
978.641	-2.03
979.068	-5.63
979.495	2.07
979.922	0.37
980.349	-3.43
980.776	3.97
981.202	5.27
981.629	6.47
982.056	3.27
982.483	-1.13
982.91	2.07
983.337	-1.83
983.763	1.57
984.19	-4.13
984.617	-9.53
985.043	-2.83
985.47	1.67
985.897	-3.63
986.323	-6.23
986.75	3.47
987.176	2.57
987.603	-1.43
988.029	1.67
988.456	-7.43
988.882	1.77
989.308	-9.63
989.735	-5.93
990.161	0.77
990.587	-8.33
991.014	-0.63
991.44	9.27
991.866	0.27
992.292	-2.03
992.719	-0.23
993.145	-1.63
993.571	-7.33
993.997	-2.43
994.423	-2.83
994.849	-5.83
995.275	3.37
995.701	-3.63
996.127	-2.33
996.553	1.57
996.979	-2.53
997.405	-6.43
997.83	-5.93
998.256	-6.43
998.682	-9.13
999.108	-4.23
999.534	0.37
999.959	-1.93
1000.385	-1.43
1000.811	-5.93
1001.236	-12.93
1001.662	-6.63
1002.087	-11.73
1002.513	3.77
1002.938	0.07
1003.364	0.17
1003.789	0.67
1004.215	3.07
1004.64	0.27
1005.066	2.97
1005.491	4.47
1005.916	1.87
1006.342	-0.13
1006.767	-8.23
1007.192	1.07
1007.617	-5.83
1008.042	-2.43
1008.468	-5.83
1008.893	-3.03
1009.318	-3.03
1009.743	-1.53
1010.168	5.37
1010.593	4.17
1011.018	-4.03
1011.443	-1.53
1011.868	2.67
1012.293	-7.13
1012.718	-3.73
1013.143	5.27
1013.567	0.77
1013.992	-4.13
1014.417	-10.73
1014.842	4.97
1015.267	-3.93
1015.691	-6.73
1016.116	3.27
1016.541	1.27
1016.965	5.57
1017.39	6.17
1017.814	2.37
1018.239	-3.03
1018.663	-4.63
1019.088	-9.03
1019.512	-1.13
1019.937	-1.83
1020.361	-8.63
1020.785	-13.33
1021.21	-5.73
1021.634	-2.53
1022.058	-2.33
1022.483	-0.83
1022.907	-5.23
1023.331	-0.83
1023.755	-0.93
1024.179	-6.23
1024.604	-6.33
1025.028	-7.03
1025.452	-4.43
1025.876	-3.33
1026.3	4.37
1026.724	-6.53
1027.148	-2.73
1027.572	-6.43
1027.996	0.97
1028.42	0.47
1028.843	1.57
1029.267	-5.63
1029.691	0.77
1030.115	-7.53
1030.539	-5.73
1030.962	-7.33
1031.386	-8.13
1031.81	1.97
1032.233	-0.93
1032.657	-6.43
1033.08	0.47
1033.504	1.17
1033.927	-4.03
1034.351	0.77
1034.774	-5.53
1035.198	-2.23
1035.621	-6.83
1036.045	-7.73
1036.468	-0.63
1036.891	-11.63
1037.315	-10.63
1037.738	-10.83
1038.161	-0.63
1038.584	-6.53
1039.008	-9.73
1039.431	-3.73
1039.854	-0.03
1040.277	-7.63
1040.7	-8.33
1041.123	-0.63
1041.546	-4.73
1041.969	-5.73
1042.392	-9.83
1042.815	-5.13
1043.238	6.07
1043.661	2.27
1044.084	-6.03
1044.507	-7.13
1044.93	-2.13
1045.352	-1.23
1045.775	-1.83
1046.198	0.17
1046.621	0.07
1047.043	0.07
1047.466	4.97
1047.889	-1.93
1048.311	-2.63
1048.734	-3.93
1049.156	1.07
1049.579	0.07
1050.001	-0.73
1050.424	-4.53
1050.846	-4.53
1051.269	-1.63
1051.691	-4.43
1052.113	-1.43
1052.536	-1.93
1052.958	-2.53
1053.38	-4.83
1053.802	-5.13
1054.225	2.57
1054.647	-7.43
1055.069	-6.23
1055.491	3.07
1055.913	-1.93
1056.335	-1.03
1056.757	-4.33
1057.179	-6.43
1057.601	-6.13
1058.023	-4.93
1058.445	-1.43
1058.867	-4.43
1059.289	-5.73
1059.711	-5.53
1060.133	-4.13
1060.555	-10.23
1060.976	-6.93
1061.398	-1.63
1061.82	-5.63
1062.241	-4.23
1062.663	-9.93
1063.085	-6.73
1063.506	-3.43
1063.928	-1.93
1064.35	-2.43
1064.771	-9.23
1065.193	-1.13
1065.614	-3.73
1066.035	-5.03
1066.457	-2.93
1066.878	1.27
1067.3	-5.33
1067.721	-2.13
1068.142	-1.43
1068.564	-6.93
1068.985	-6.43
1069.406	-6.63
1069.827	-9.63
1070.248	-4.93
1070.67	-7.93
1071.091	-7.23
1071.512	-3.53
1071.933	0.07
1072.354	-8.53
1072.775	-4.23
1073.196	-8.03
1073.617	-3.43
1074.038	-7.13
1074.459	1.67
1074.88	-5.03
1075.3	2.07
1075.721	-9.63
1076.142	3.57
1076.563	-5.03
1076.983	-9.63
1077.404	-6.73
1077.825	-10.63
1078.246	-5.03
1078.666	-8.33
1079.087	-0.73
1079.507	-7.73
1079.928	2.87
1080.348	-5.83
1080.769	-7.13
1081.189	-3.73
1081.61	-6.33
1082.03	-1.23
1082.451	-2.83
1082.871	-0.63
1083.291	-7.03
1083.711	-12.93
1084.132	-8.03
1084.552	-8.13
1084.972	1.97
1085.392	-10.93
1085.813	-9.73
1086.233	-11.53
1086.653	-7.33
1087.073	1.57
1087.493	-12.43
1087.913	-7.13
1088.333	-6.83
1088.753	-2.83
1089.173	-2.03
1089.593	-9.13
1090.013	-3.23
1090.433	-3.23
1090.852	-4.03
1091.272	-1.33
1091.692	-2.53
1092.112	-10.53
1092.531	0.17
1092.951	-13.23
1093.371	-2.43
1093.79	1.37
1094.21	-4.13
1094.63	-6.33
1095.049	-8.43
1095.469	4.27
1095.888	-4.73
1096.308	4.67
1096.727	3.57
1097.146	-6.13
1097.566	3.07
1097.985	-4.83
1098.405	-2.53
1098.824	-5.83
1099.243	-2.63
1099.662	-10.73
1100.082	-3.83
1100.501	-3.13
1100.92	-2.13
1101.339	-2.23
1101.758	-5.13
