Data from 20171114-ORNL-Ar_H_NY_Subt18_08-08-22-754.txt Node
Date: Tue Nov 14 08:08:22 EST 2017
User: Ender
Spectrometer: HR+D1039
Trigger mode: 0
Integration Time (sec): 2.730000E-2
Scans to average: 10
Electric dark correction enabled: true
Nonlinearity correction enabled: false
Boxcar width: 0
XAxis mode: Wavelengths
Number of Pixels in Spectrum: 2048
>>>>>Begin Spectral Data<<<<<
187.836	-7.33
188.309	-7.33
188.782	-7.33
189.255	1.47
189.728	-1.43
190.201	4.67
190.674	-5.73
191.147	2.17
191.619	-5.33
192.092	1.47
192.565	10.87
193.038	-1.63
193.511	2.27
193.984	-1.83
194.456	-1.63
194.929	2.57
195.402	1.57
195.874	-2.23
196.347	-1.53
196.82	-10.13
197.292	0.47
197.765	-6.23
198.237	-7.53
198.71	-6.83
199.182	-6.43
199.655	2.77
200.127	2.87
200.6	-0.23
201.072	-4.13
201.544	-2.23
202.017	-0.03
202.489	0.87
202.961	-5.53
203.433	-8.43
203.906	-5.33
204.378	-13.63
204.85	-10.23
205.322	-11.83
205.794	-5.13
206.266	-3.43
206.739	-8.43
207.211	3.27
207.683	-6.53
208.155	-3.73
208.627	-3.43
209.099	-2.13
209.57	-13.03
210.042	-1.43
210.514	-2.43
210.986	-1.73
211.458	-7.83
211.93	-12.03
212.402	-3.63
212.873	-7.33
213.345	-12.63
213.817	-17.63
214.288	0.27
214.76	-13.33
215.232	-5.63
215.703	-3.13
216.175	-5.03
216.646	-7.23
217.118	-7.53
217.589	-5.83
218.061	-2.13
218.532	0.77
219.004	-1.93
219.475	-6.73
219.946	-5.23
220.418	-8.13
220.889	3.07
221.36	-0.73
221.832	-2.13
222.303	-12.73
222.774	1.67
223.245	-5.03
223.717	-6.03
224.188	-9.03
224.659	-13.53
225.13	-7.03
225.601	-3.53
226.072	-2.83
226.543	-2.83
227.014	-3.03
227.485	-4.63
227.956	-8.33
228.427	-3.73
228.898	-3.23
229.369	4.27
229.839	-4.83
230.31	-0.23
230.781	4.47
231.252	-4.93
231.722	-5.13
232.193	-3.13
232.664	-0.23
233.135	-0.93
233.605	-0.33
234.076	-10.63
234.546	2.17
235.017	2.67
235.487	-2.13
235.958	-6.23
236.428	-0.53
236.899	6.67
237.369	1.97
237.84	-6.23
238.31	1.67
238.78	-1.43
239.251	-1.03
239.721	2.27
240.191	-2.33
240.662	-4.13
241.132	0.77
241.602	-10.83
242.072	-0.53
242.542	0.17
243.013	-6.03
243.483	1.37
243.953	-1.13
244.423	-2.03
244.893	-3.93
245.363	4.97
245.833	-3.03
246.303	2.47
246.773	2.97
247.243	1.87
247.712	1.67
248.182	4.57
248.652	2.07
249.122	-7.43
249.592	8.97
250.061	18.57
250.531	24.07
251.001	11.97
251.471	18.27
251.94	18.47
252.41	2.17
252.879	-2.13
253.349	13.97
253.818	8.87
254.288	3.37
254.757	6.27
255.227	0.27
255.696	2.87
256.166	2.67
256.635	6.17
257.105	7.07
257.574	2.87
258.043	3.87
258.513	7.37
258.982	13.47
259.451	3.57
259.92	14.07
260.389	8.77
260.859	13.57
261.328	12.67
261.797	16.37
262.266	5.47
262.735	9.67
263.204	6.27
263.673	-0.83
264.142	4.17
264.611	-7.33
265.08	7.07
265.549	-4.33
266.018	2.37
266.487	-3.83
266.955	-3.53
267.424	-2.53
267.893	4.27
268.362	-1.43
268.83	-1.23
269.299	10.27
269.768	6.87
270.236	2.77
270.705	3.17
271.174	6.77
271.642	2.07
272.111	4.57
272.579	16.67
273.048	20.67
273.516	21.77
273.985	22.37
274.453	22.47
274.922	18.47
275.39	7.17
275.858	-1.83
276.327	9.47
276.795	15.87
277.263	10.17
277.731	30.37
278.2	52.17
278.668	55.57
279.136	42.17
279.604	13.17
280.072	18.87
280.54	9.07
281.008	4.57
281.477	13.37
281.945	4.87
282.413	9.87
282.881	14.27
283.348	3.87
283.816	12.57
284.284	17.47
284.752	20.17
285.22	12.77
285.688	8.87
286.156	22.97
286.623	36.07
287.091	49.17
287.559	25.57
288.026	15.47
288.494	14.57
288.962	3.47
289.429	7.17
289.897	17.17
290.364	12.57
290.832	14.77
291.3	12.57
291.767	7.47
292.234	12.57
292.702	15.07
293.169	18.67
293.637	22.07
294.104	16.67
294.571	9.37
295.039	16.07
295.506	10.57
295.973	14.17
296.44	15.57
296.908	13.77
297.375	12.07
297.842	10.07
298.309	17.07
298.776	5.37
299.243	16.47
299.71	12.07
300.177	17.57
300.644	15.07
301.111	12.57
301.578	18.47
302.045	21.57
302.512	19.77
302.979	23.77
303.446	20.07
303.913	10.87
304.379	20.47
304.846	23.97
305.313	23.77
305.78	21.27
306.246	22.87
306.713	25.87
307.18	23.47
307.646	28.87
308.113	24.37
308.579	17.77
309.046	27.97
309.512	25.27
309.979	20.87
310.445	26.97
310.912	20.07
311.378	33.67
311.845	25.77
312.311	31.27
312.777	27.37
313.244	33.57
313.71	29.17
314.176	29.37
314.642	31.37
315.109	28.47
315.575	27.67
316.041	35.97
316.507	33.07
316.973	36.07
317.439	38.37
317.905	27.67
318.371	32.57
318.837	33.67
319.303	34.57
319.769	33.17
320.235	32.37
320.701	32.37
321.167	32.77
321.633	25.97
322.099	34.47
322.564	42.57
323.03	37.87
323.496	37.37
323.962	41.37
324.427	29.37
324.893	37.97
325.359	34.97
325.824	35.37
326.29	36.77
326.755	36.27
327.221	39.67
327.686	41.17
328.152	43.77
328.617	36.87
329.083	46.97
329.548	44.77
330.014	47.77
330.479	38.37
330.944	39.27
331.41	37.07
331.875	41.17
332.34	39.17
332.805	41.47
333.271	44.57
333.736	47.97
334.201	54.27
334.666	52.77
335.131	51.67
335.596	43.37
336.061	49.17
336.526	44.37
336.991	42.07
337.456	54.07
337.921	43.77
338.386	41.17
338.851	43.77
339.316	47.77
339.781	44.67
340.246	46.87
340.711	46.57
341.175	47.77
341.64	44.47
342.105	50.27
342.569	51.67
343.034	50.77
343.499	52.77
343.963	54.07
344.428	54.37
344.893	51.77
345.357	65.67
345.822	66.07
346.286	60.27
346.751	64.57
347.215	60.77
347.679	73.87
348.144	95.57
348.608	77.97
349.073	65.47
349.537	65.97
350.001	78.97
350.465	80.67
350.93	74.97
351.394	75.47
351.858	68.77
352.322	83.17
352.786	81.27
353.25	96.87
353.715	106.77
354.179	90.67
354.643	113.77
355.107	117.77
355.571	108.47
356.035	102.27
356.498	114.47
356.962	121.37
357.426	133.77
357.89	110.47
358.354	84.27
358.818	80.97
359.281	78.47
359.745	70.07
360.209	74.47
360.673	66.77
361.136	72.07
361.6	84.87
362.064	79.47
362.527	82.47
362.991	82.67
363.454	80.37
363.918	70.97
364.381	72.87
364.845	78.67
365.308	88.27
365.772	90.17
366.235	78.27
366.698	81.17
367.162	81.67
367.625	82.87
368.088	75.57
368.552	86.87
369.015	84.87
369.478	102.67
369.941	97.97
370.404	101.57
370.867	106.07
371.331	110.27
371.794	117.97
372.257	105.77
372.72	119.17
373.183	109.07
373.646	99.97
374.109	100.17
374.572	101.77
375.035	107.77
375.497	112.87
375.96	103.17
376.423	96.17
376.886	108.77
377.349	105.77
377.811	99.57
378.274	108.47
378.737	109.07
379.199	117.87
379.662	113.27
380.125	121.17
380.587	112.57
381.05	120.57
381.512	122.07
381.975	134.57
382.437	128.37
382.9	127.97
383.362	132.97
383.825	136.47
384.287	150.27
384.75	140.57
385.212	127.97
385.674	141.67
386.136	130.67
386.599	125.47
387.061	126.37
387.523	130.27
387.985	133.27
388.447	146.67
388.91	144.97
389.372	161.77
389.834	151.47
390.296	146.17
390.758	157.77
391.22	170.77
391.682	219.47
392.144	310.87
392.606	232.77
393.068	169.97
393.529	170.87
393.991	150.57
394.453	145.87
394.915	163.47
395.377	201.17
395.838	222.97
396.3	154.27
396.762	144.67
397.224	134.27
397.685	132.27
398.147	130.97
398.608	135.87
399.07	125.47
399.531	132.07
399.993	142.37
400.454	154.07
400.916	147.87
401.377	139.17
401.839	146.77
402.3	147.77
402.762	165.07
403.223	181.57
403.684	164.17
404.145	162.87
404.607	162.37
405.068	165.87
405.529	168.37
405.99	188.17
406.451	176.27
406.913	180.27
407.374	166.97
407.835	160.77
408.296	170.37
408.757	172.77
409.218	187.67
409.679	178.17
410.14	178.17
410.601	172.67
411.062	183.37
411.522	190.37
411.983	191.67
412.444	174.57
412.905	174.27
413.366	186.97
413.826	197.57
414.287	211.17
414.748	255.37
415.208	245.37
415.669	212.17
416.13	207.37
416.59	200.07
417.051	212.27
417.511	223.47
417.972	236.27
418.432	255.37
418.893	287.67
419.353	252.47
419.814	198.17
420.274	185.17
420.734	184.97
421.195	198.97
421.655	189.87
422.115	183.37
422.576	192.47
423.036	194.07
423.496	200.97
423.956	214.27
424.416	232.07
424.876	267.67
425.336	260.87
425.797	262.47
426.257	255.47
426.717	237.57
427.177	236.17
427.637	232.97
428.097	233.37
428.556	241.27
429.016	272.67
429.476	267.47
429.936	281.87
430.396	277.87
430.856	296.57
431.315	315.17
431.775	356.67
432.235	382.57
432.694	358.07
433.154	367.47
433.614	391.37
434.073	342.47
434.533	288.87
434.993	272.57
435.452	281.37
435.912	299.27
436.371	290.57
436.83	292.07
437.29	271.67
437.749	253.07
438.209	248.67
438.668	277.57
439.127	296.57
439.587	260.87
440.046	250.17
440.505	256.37
440.964	270.77
441.424	322.87
441.883	310.17
442.342	254.87
442.801	219.27
443.26	220.57
443.719	224.37
444.178	214.87
444.637	203.07
445.096	222.57
445.555	221.87
446.014	223.57
446.473	224.07
446.932	235.47
447.391	232.87
447.849	221.87
448.308	216.47
448.767	219.77
449.226	234.47
449.685	225.27
450.143	250.07
450.602	238.97
451.061	224.47
451.519	228.97
451.978	232.67
452.436	229.77
452.895	245.47
453.353	246.17
453.812	246.77
454.27	237.87
454.729	237.37
455.187	237.07
455.646	248.27
456.104	242.47
456.562	264.57
457.021	270.77
457.479	265.37
457.937	275.67
458.395	260.17
458.854	241.77
459.312	261.17
459.77	274.27
460.228	262.57
460.686	242.97
461.144	243.87
461.602	243.17
462.06	239.37
462.518	255.17
462.976	244.77
463.434	257.37
463.892	259.47
464.35	277.67
464.808	286.37
465.266	260.97
465.724	266.67
466.181	267.97
466.639	269.77
467.097	291.67
467.555	300.57
468.012	296.57
468.47	308.17
468.928	329.87
469.385	344.37
469.843	346.37
470.3	347.27
470.758	358.47
471.215	395.17
471.673	408.57
472.13	410.97
472.588	420.87
473.045	378.77
473.503	376.77
473.96	392.17
474.417	399.27
474.875	423.87
475.332	476.97
475.789	454.37
476.246	463.07
476.704	490.07
477.161	507.27
477.618	513.77
478.075	554.17
478.532	615.17
478.989	691.17
479.446	807.97
479.903	762.47
480.36	798.77
480.817	872.17
481.274	960.17
481.731	1062.07
482.188	1148.67
482.645	1285.88
483.102	1383.38
483.558	1516.97
484.015	1569.77
484.472	1543.77
484.929	1504.57
485.385	1459.67
485.842	1403.27
486.299	1349.47
486.755	1291.67
487.212	1081.38
487.668	910.67
488.125	836.27
488.582	776.87
489.038	744.47
489.494	705.07
489.951	672.07
490.407	663.07
490.864	630.27
491.32	638.37
491.776	633.07
492.233	636.37
492.689	609.37
493.145	591.57
493.602	590.97
494.058	613.67
494.514	605.37
494.97	623.57
495.426	642.87
495.882	623.27
496.338	597.17
496.794	614.07
497.251	599.57
497.707	627.07
498.163	614.37
498.618	635.57
499.074	623.87
499.53	666.87
499.986	666.87
500.442	650.37
500.898	621.07
501.354	620.67
501.809	634.37
502.265	641.37
502.721	653.77
503.177	672.97
503.632	666.77
504.088	674.37
504.543	705.57
504.999	708.67
505.455	642.87
505.91	626.57
506.366	626.37
506.821	618.57
507.277	623.37
507.732	618.07
508.187	617.47
508.643	621.47
509.098	614.67
509.553	642.87
510.009	665.67
510.464	660.57
510.919	683.77
511.375	683.07
511.83	693.77
512.285	715.27
512.74	745.67
513.195	780.47
513.65	759.87
514.105	758.77
514.56	764.97
515.015	779.37
515.47	798.47
515.925	777.77
516.38	782.27
516.835	789.07
517.29	775.17
517.745	762.07
518.2	752.07
518.655	732.47
519.109	732.97
519.564	725.97
520.019	722.57
520.474	714.37
520.928	715.37
521.383	710.37
521.838	692.67
522.292	699.77
522.747	695.57
523.201	689.47
523.656	690.17
524.11	684.67
524.565	685.57
525.019	680.47
525.474	695.97
525.928	696.47
526.382	689.07
526.837	689.97
527.291	695.77
527.745	684.17
528.2	683.37
528.654	688.57
529.108	678.37
529.562	675.87
530.016	684.67
530.47	684.47
530.925	685.97
531.379	690.87
531.833	686.27
532.287	685.47
532.741	685.77
533.195	685.27
533.649	696.57
534.103	707.77
534.556	696.17
535.01	701.57
535.464	701.37
535.918	694.57
536.372	704.57
536.826	695.17
537.279	691.17
537.733	705.87
538.187	699.27
538.64	707.67
539.094	713.57
539.548	712.07
540.001	722.87
540.455	718.07
540.908	719.97
541.362	727.97
541.815	738.37
542.269	744.87
542.722	754.27
543.175	770.77
543.629	765.37
544.082	781.97
544.536	779.97
544.989	774.97
545.442	781.17
545.895	772.37
546.349	784.67
546.802	787.37
547.255	787.47
547.708	805.37
548.161	811.27
548.614	809.47
549.067	819.67
549.52	803.57
549.973	800.57
550.426	795.57
550.879	775.77
551.332	786.77
551.785	791.27
552.238	794.67
552.691	810.07
553.144	821.27
553.596	833.57
554.049	851.67
554.502	882.07
554.955	901.07
555.407	895.77
555.86	879.77
556.313	880.97
556.765	874.77
557.218	874.87
557.67	881.67
558.123	867.57
558.576	865.87
559.028	862.27
559.48	874.07
559.933	864.47
560.385	823.27
560.838	792.67
561.29	768.77
561.742	781.77
562.195	754.47
562.647	754.27
563.099	769.47
563.551	763.87
564.004	775.67
564.456	759.67
564.908	756.27
565.36	738.97
565.812	723.77
566.264	717.87
566.716	721.67
567.168	705.07
567.62	719.07
568.072	696.97
568.524	687.87
568.976	678.47
569.428	665.07
569.88	675.57
570.332	686.97
570.784	679.27
571.235	676.37
571.687	686.97
572.139	693.87
572.59	695.87
573.042	701.87
573.494	701.57
573.945	702.87
574.397	674.67
574.849	675.47
575.3	681.37
575.752	676.97
576.203	683.47
576.655	684.87
577.106	672.87
577.557	660.77
578.009	655.87
578.46	667.37
578.912	663.37
579.363	655.97
579.814	653.37
580.265	660.07
580.717	650.87
581.168	668.27
581.619	671.27
582.07	681.07
582.521	672.97
582.972	671.87
583.423	673.77
583.875	680.17
584.326	689.97
584.777	740.07
585.227	824.97
585.678	902.87
586.129	1005.57
586.58	1083.58
587.031	1161.67
587.482	1299.37
587.933	1500.07
588.384	1308.57
588.834	973.77
589.285	801.17
589.736	772.77
590.186	771.77
590.637	756.67
591.088	747.47
591.538	727.77
591.989	720.37
592.439	721.47
592.89	718.67
593.34	706.37
593.791	709.67
594.241	712.87
594.692	703.17
595.142	707.97
595.593	697.27
596.043	712.87
596.493	711.87
596.943	715.57
597.394	732.67
597.844	719.47
598.294	729.07
598.744	749.07
599.195	780.07
599.645	807.07
600.095	863.17
600.545	909.67
600.995	972.47
601.445	1028.07
601.895	1084.97
602.345	1139.37
602.795	1110.07
603.245	1048.17
603.695	1008.77
604.145	942.67
604.594	904.77
605.044	850.47
605.494	792.87
605.944	752.37
606.393	746.37
606.843	719.07
607.293	731.87
607.743	729.37
608.192	740.57
608.642	757.87
609.091	764.77
609.541	773.27
609.99	767.27
610.44	769.57
610.889	715.27
611.339	699.67
611.788	685.27
612.238	707.87
612.687	718.07
613.136	716.97
613.586	734.47
614.035	739.07
614.484	747.57
614.933	745.87
615.383	745.37
615.832	725.07
616.281	724.97
616.73	694.47
617.179	658.77
617.628	644.77
618.077	640.77
618.526	626.67
618.975	613.87
619.424	617.27
619.873	615.17
620.322	616.07
620.771	606.37
621.22	600.57
621.669	591.97
622.118	586.77
622.567	583.97
623.015	555.17
623.464	566.07
623.913	562.57
624.361	554.37
624.81	544.47
625.259	557.57
625.707	554.57
626.156	553.07
626.604	563.67
627.053	561.77
627.501	568.57
627.95	560.27
628.398	574.37
628.847	569.57
629.295	577.77
629.744	572.67
630.192	569.37
630.64	568.97
631.089	571.57
631.537	589.07
631.985	601.37
632.433	613.57
632.881	615.27
633.33	676.57
633.778	647.27
634.226	574.27
634.674	586.57
635.122	585.77
635.57	593.07
636.018	630.37
636.466	580.37
636.914	549.17
637.362	575.87
637.81	570.87
638.258	574.47
638.705	581.37
639.153	620.87
639.601	624.17
640.049	645.57
640.497	678.27
640.944	699.97
641.392	637.17
641.84	606.67
642.287	579.87
642.735	571.27
643.182	564.37
643.63	565.67
644.078	580.87
644.525	600.27
644.973	596.77
645.42	605.87
645.867	621.77
646.315	637.27
646.762	658.87
647.21	687.67
647.657	714.87
648.104	748.57
648.551	780.57
648.999	845.97
649.446	926.67
649.893	1011.07
650.34	1172.38
650.787	1407.27
651.234	1738.88
651.682	2274.27
652.129	3173.27
652.576	4548.77
653.023	6698.07
653.47	9143.08
653.917	11326.77
654.363	12985.78
654.81	14263.98
655.257	13592.18
655.704	8903.17
656.151	5252.27
656.598	3404.27
657.044	2411.17
657.491	1867.07
657.938	1489.47
658.385	1245.37
658.831	1075.37
659.278	960.17
659.724	859.67
660.171	781.47
660.618	728.47
661.064	686.87
661.511	675.27
661.957	656.07
662.404	657.27
662.85	658.57
663.296	623.07
663.743	568.47
664.189	543.97
664.635	526.37
665.082	529.17
665.528	525.87
665.974	512.57
666.42	507.77
666.867	505.77
667.313	490.37
667.759	486.17
668.205	480.17
668.651	485.17
669.097	487.37
669.543	503.57
669.989	471.07
670.435	446.67
670.881	450.57
671.327	449.97
671.773	479.97
672.219	490.17
672.665	551.37
673.11	589.97
673.556	628.17
674.002	664.87
674.448	651.27
674.893	548.67
675.339	471.87
675.785	439.07
676.23	421.67
676.676	400.87
677.122	378.57
677.567	366.87
678.013	371.57
678.458	365.37
678.904	361.47
679.349	346.07
679.794	353.57
680.24	350.27
680.685	353.07
681.131	342.47
681.576	352.47
682.021	354.67
682.466	343.77
682.912	353.47
683.357	354.87
683.802	383.37
684.247	411.77
684.692	461.37
685.137	501.97
685.583	538.47
686.028	567.47
686.473	516.57
686.918	448.57
687.363	423.27
687.807	396.37
688.252	364.67
688.697	357.17
689.142	339.97
689.587	329.47
690.032	336.37
690.477	334.57
690.921	353.07
691.366	388.47
691.811	403.57
692.255	423.67
692.7	471.57
693.145	503.97
693.589	710.17
694.034	1166.67
694.478	1541.17
694.923	1717.47
695.367	2230.57
695.812	1188.88
696.256	496.37
696.701	375.17
697.145	339.87
697.59	333.37
698.034	320.47
698.478	330.07
698.922	324.47
699.367	328.97
699.811	339.97
700.255	350.37
700.699	395.27
701.143	428.37
701.588	479.87
702.032	520.77
702.476	513.67
702.92	488.07
703.364	492.27
703.808	661.97
704.252	1064.07
704.696	1465.57
705.14	1652.57
705.584	2102.97
706.027	1054.87
706.471	528.17
706.915	397.17
707.359	354.17
707.803	318.17
708.246	306.57
708.69	323.47
709.134	317.27
709.577	317.07
710.021	321.17
710.465	309.87
710.908	304.17
711.352	301.17
711.795	310.17
712.239	356.27
712.682	396.77
713.126	411.07
713.569	464.47
714.012	366.07
714.456	328.17
714.899	298.57
715.342	282.17
715.786	261.87
716.229	258.57
716.672	255.67
717.115	241.07
717.558	250.37
718.002	253.47
718.445	267.17
718.888	289.07
719.331	290.47
719.774	315.17
720.217	313.07
720.66	285.17
721.103	264.47
721.546	257.37
721.989	246.67
722.432	234.87
722.874	236.97
723.317	235.87
723.76	239.47
724.203	256.57
724.645	322.27
725.088	453.07
725.531	575.67
725.974	645.67
726.416	544.17
726.859	305.07
727.301	245.07
727.744	240.47
728.187	238.07
728.629	244.27
729.071	239.47
729.514	261.37
729.956	273.77
730.399	284.07
730.841	286.77
731.283	274.47
731.726	264.87
732.168	254.67
732.61	269.27
733.053	284.47
733.495	310.27
733.937	351.47
734.379	398.57
734.821	436.47
735.263	556.37
735.705	866.97
736.148	1631.27
736.59	2604.77
737.032	2978.67
737.474	2454.07
737.916	801.57
738.357	428.07
738.799	329.17
739.241	297.97
739.683	290.67
740.125	289.97
740.567	297.57
741.008	317.87
741.45	306.67
741.892	315.27
742.334	350.27
742.775	353.07
743.217	332.57
743.658	275.67
744.1	246.67
744.542	265.47
744.983	305.77
745.425	341.47
745.866	337.47
746.307	288.77
746.749	281.97
747.19	327.77
747.632	466.77
748.073	917.97
748.514	1915.47
748.956	2845.27
749.397	3590.87
749.838	2957.18
750.279	2923.87
750.72	1478.37
751.162	552.37
751.603	322.17
752.044	248.97
752.485	214.67
752.926	203.57
753.367	201.67
753.808	187.67
754.249	191.77
754.69	184.67
755.131	180.97
755.572	184.67
756.013	177.67
756.453	184.47
756.894	185.87
757.335	192.17
757.776	192.27
758.216	196.07
758.657	194.37
759.098	197.57
759.538	228.57
759.979	269.57
760.42	379.07
760.86	736.87
761.301	1911.27
761.741	4489.88
762.182	6314.98
762.622	4423.27
763.063	1304.87
763.503	539.97
763.943	346.37
764.384	348.77
764.824	412.37
765.264	443.37
765.705	314.17
766.145	209.37
766.585	188.67
767.025	184.97
767.465	188.87
767.906	254.07
768.346	324.47
768.786	346.27
769.226	262.27
769.666	333.47
770.106	648.37
770.546	1593.27
770.986	2604.27
771.426	2338.68
771.866	787.57
772.306	326.77
772.745	211.37
773.185	176.37
773.625	165.57
774.065	169.17
774.505	197.87
774.944	318.37
775.384	699.97
775.824	1217.67
776.263	1157.27
776.703	497.27
777.142	220.07
777.582	157.07
778.021	141.47
778.461	141.87
778.9	135.17
779.34	128.27
779.779	113.17
780.219	107.97
780.658	106.87
781.097	113.57
781.537	117.07
781.976	113.57
782.415	109.87
782.855	110.27
783.294	100.27
783.733	107.07
784.172	105.67
784.611	99.77
785.05	108.47
785.489	111.07
785.928	115.47
786.367	118.87
786.806	122.57
787.245	133.17
787.684	145.17
788.123	153.97
788.562	135.37
789.001	124.67
789.44	119.27
789.879	114.67
790.317	120.37
790.756	136.37
791.195	127.67
791.634	141.87
792.072	197.77
792.511	370.47
792.95	1047.38
793.388	2126.27
793.827	1902.27
794.265	677.97
794.704	280.87
795.142	180.97
795.581	151.47
796.019	131.87
796.458	124.87
796.896	124.07
797.334	133.77
797.773	159.07
798.211	220.57
798.649	458.67
799.087	1048.87
799.526	1602.17
799.964	2027.37
800.402	1966.27
800.84	750.67
801.278	300.57
801.716	185.87
802.154	154.27
802.592	139.87
803.03	139.97
803.468	139.67
803.906	147.87
804.344	148.47
804.782	143.27
805.22	132.77
805.658	128.67
806.096	149.17
806.533	153.97
806.971	173.47
807.409	220.47
807.847	317.67
808.284	687.67
808.722	1904.67
809.16	3269.38
809.597	3177.47
810.035	5443.27
810.472	5607.88
810.91	2060.67
811.347	796.47
811.785	399.67
812.222	257.97
812.66	200.87
813.097	158.77
813.535	141.57
813.972	126.07
814.409	115.47
814.846	109.07
815.284	111.67
815.721	97.57
816.158	108.57
816.595	120.37
817.032	184.27
817.47	204.27
817.907	165.87
818.344	155.47
818.781	118.47
819.218	105.67
819.655	130.47
820.092	185.17
820.529	209.67
820.966	179.07
821.403	135.17
821.839	108.07
822.276	95.97
822.713	122.37
823.15	129.07
823.587	116.67
824.023	153.27
824.46	314.87
824.897	918.37
825.333	1331.88
825.77	578.17
826.206	233.97
826.643	134.77
827.08	102.77
827.516	78.97
827.953	76.27
828.389	85.77
828.825	71.17
829.262	67.27
829.698	68.87
830.135	65.17
830.571	62.77
831.007	65.57
831.443	65.67
831.88	57.67
832.316	61.57
832.752	62.97
833.188	71.87
833.624	63.67
834.06	63.47
834.497	72.47
834.933	71.47
835.369	73.67
835.805	67.97
836.241	75.87
836.677	83.67
837.112	90.77
837.548	100.17
837.984	131.27
838.42	202.67
838.856	514.17
839.292	1542.77
839.727	2254.88
840.163	1064.47
840.599	943.17
841.034	2034.27
841.47	2070.57
841.906	770.87
842.341	337.37
842.777	232.47
843.212	322.17
843.648	310.47
844.083	150.07
844.519	98.37
844.954	82.17
845.39	60.67
845.825	55.87
846.261	60.67
846.696	55.57
847.131	52.57
847.566	59.87
848.002	56.07
848.437	54.47
848.872	61.77
849.307	58.27
849.742	97.47
850.177	190.37
850.613	568.27
851.048	864.97
851.483	371.37
851.918	147.77
852.353	84.47
852.788	58.97
853.223	54.87
853.657	48.77
854.092	44.57
854.527	43.17
854.962	44.77
855.397	40.67
855.832	53.37
856.266	43.27
856.701	37.27
857.136	40.67
857.57	39.47
858.005	49.17
858.44	58.77
858.874	38.27
859.309	53.47
859.743	41.47
860.178	45.67
860.612	42.17
861.047	51.97
861.481	69.57
861.915	66.37
862.35	48.87
862.784	29.47
863.218	38.97
863.653	31.87
864.087	46.67
864.521	52.67
864.955	70.07
865.39	152.87
865.824	176.67
866.258	113.57
866.692	158.47
867.126	172.07
867.56	100.97
867.994	49.97
868.428	35.97
868.862	44.27
869.296	50.37
869.73	57.07
870.164	57.47
870.598	51.27
871.031	39.57
871.465	31.07
871.899	34.67
872.333	24.47
872.766	22.57
873.2	23.67
873.634	31.17
874.067	24.67
874.501	22.97
874.935	34.77
875.368	33.47
875.802	30.07
876.235	26.07
876.669	24.07
877.102	18.77
877.535	21.97
877.969	21.87
878.402	22.67
878.836	20.77
879.269	26.47
879.702	21.27
880.135	22.87
880.569	27.27
881.002	25.57
881.435	24.47
881.868	15.67
882.301	15.27
882.734	15.67
883.167	17.67
883.601	17.17
884.034	23.17
884.467	17.17
884.899	25.37
885.332	17.07
885.765	17.57
886.198	15.87
886.631	19.67
887.064	15.97
887.497	18.47
887.929	26.27
888.362	12.97
888.795	18.27
889.228	15.67
889.66	22.37
890.093	13.17
890.526	20.27
890.958	17.37
891.391	12.97
891.823	22.47
892.256	15.97
892.688	10.17
893.121	7.27
893.553	11.77
893.985	26.47
894.418	23.17
894.85	9.87
895.282	11.77
895.715	17.87
896.147	13.87
896.579	20.87
897.011	15.27
897.444	14.87
897.876	15.67
898.308	15.07
898.74	13.07
899.172	13.77
899.604	22.17
900.036	21.97
900.468	17.07
900.9	13.47
901.332	18.07
901.764	18.07
902.196	24.07
902.628	16.77
903.06	15.47
903.491	24.97
903.923	23.37
904.355	20.57
904.787	20.67
905.218	21.67
905.65	18.47
906.082	10.87
906.513	13.07
906.945	18.97
907.376	12.27
907.808	21.87
908.239	17.47
908.671	24.37
909.102	17.37
909.534	20.67
909.965	44.67
910.397	92.57
910.828	317.07
911.259	464.27
911.691	213.37
912.122	104.47
912.553	49.87
912.984	33.67
913.415	24.87
913.847	21.37
914.278	14.67
914.709	15.47
915.14	12.87
915.571	20.07
916.002	12.47
916.433	18.37
916.864	18.57
917.295	13.77
917.726	26.37
918.157	16.27
918.587	29.07
919.018	18.27
919.449	19.27
919.88	19.87
920.311	28.87
920.741	50.67
921.172	168.67
921.603	147.17
922.033	70.77
922.464	45.27
922.895	23.47
923.325	17.47
923.756	18.57
924.186	18.17
924.617	31.37
925.047	39.07
925.478	51.87
925.908	38.17
926.338	22.17
926.769	16.37
927.199	21.07
927.629	9.67
928.06	19.57
928.49	13.87
928.92	11.67
929.35	7.07
929.78	8.47
930.21	5.37
930.641	9.97
931.071	11.67
931.501	2.47
931.931	6.57
932.361	7.07
932.791	6.37
933.221	3.77
933.651	6.57
934.08	17.27
934.51	23.87
934.94	8.37
935.37	7.67
935.8	15.47
936.229	8.87
936.659	12.27
937.089	11.87
937.519	11.17
937.948	25.87
938.378	15.97
938.807	6.97
939.237	3.27
939.666	9.37
940.096	-4.43
940.525	-2.93
940.955	5.97
941.384	5.27
941.814	-4.83
942.243	-3.73
942.672	3.67
943.102	-1.33
943.531	3.37
943.96	4.27
944.39	-1.13
944.819	6.27
945.248	3.77
945.677	3.17
946.106	0.67
946.535	8.17
946.964	3.87
947.393	5.47
947.822	0.37
948.251	0.57
948.68	3.67
949.109	-2.33
949.538	9.77
949.967	-3.13
950.396	1.87
950.825	1.57
951.254	4.07
951.682	-7.43
952.111	2.47
952.54	7.67
952.969	-4.13
953.397	-2.93
953.826	5.17
954.254	-11.03
954.683	-3.33
955.112	-5.33
955.54	1.27
955.969	-0.43
956.397	6.37
956.826	-7.23
957.254	2.47
957.682	2.17
958.111	3.67
958.539	2.67
958.967	3.47
959.396	0.07
959.824	-0.53
960.252	1.87
960.68	2.67
961.109	-2.73
961.537	-5.73
961.965	-4.33
962.393	1.97
962.821	-2.83
963.249	1.87
963.677	5.07
964.105	3.27
964.533	37.47
964.961	41.87
965.389	24.07
965.817	6.47
966.245	4.27
966.672	4.57
967.1	-3.83
967.528	1.87
967.956	-4.13
968.383	-3.93
968.811	-2.63
969.239	-5.03
969.666	0.37
970.094	-1.53
970.522	2.77
970.949	-0.73
971.377	-2.73
971.804	1.87
972.232	0.27
972.659	-0.23
973.087	0.87
973.514	-3.83
973.941	-1.13
974.369	2.27
974.796	2.97
975.223	6.17
975.651	-2.33
976.078	-2.73
976.505	-2.03
976.932	4.77
977.359	19.07
977.786	17.17
978.214	3.97
978.641	1.77
979.068	-2.43
979.495	-3.93
979.922	-8.13
980.349	-4.83
980.776	-0.63
981.202	0.47
981.629	0.97
982.056	7.17
982.483	-3.03
982.91	0.57
983.337	-5.83
983.763	-2.63
984.19	-10.63
984.617	-8.63
985.043	-4.43
985.47	-3.53
985.897	-1.63
986.323	-16.63
986.75	2.47
987.176	1.27
987.603	-1.23
988.029	0.27
988.456	-0.03
988.882	-0.53
989.308	-8.13
989.735	-2.73
990.161	1.27
990.587	-11.93
991.014	1.27
991.44	12.27
991.866	-0.13
992.292	-6.43
992.719	1.37
993.145	2.77
993.571	-6.13
993.997	-0.73
994.423	-5.83
994.849	-7.83
995.275	-0.43
995.701	-2.83
996.127	-0.23
996.553	-2.13
996.979	-8.63
997.405	0.87
997.83	-3.33
998.256	-2.73
998.682	-2.13
999.108	-7.73
999.534	-9.03
999.959	-6.43
1000.385	1.07
1000.811	0.07
1001.236	-8.53
1001.662	-7.93
1002.087	-14.03
1002.513	-4.23
1002.938	-6.23
1003.364	-6.13
1003.789	-2.13
1004.215	2.57
1004.64	-4.93
1005.066	0.97
1005.491	-2.13
1005.916	-2.83
1006.342	-3.23
1006.767	-10.13
1007.192	5.07
1007.617	-0.73
1008.042	-8.03
1008.468	-6.93
1008.893	-1.73
1009.318	-1.73
1009.743	-9.93
1010.168	4.57
1010.593	0.07
1011.018	-8.13
1011.443	-2.63
1011.868	2.77
1012.293	-5.03
1012.718	-13.63
1013.143	-3.33
1013.567	0.57
1013.992	-0.43
1014.417	-10.93
1014.842	-2.33
1015.267	-8.43
1015.691	-10.93
1016.116	7.87
1016.541	0.67
1016.965	3.07
1017.39	6.97
1017.814	-4.83
1018.239	-4.93
1018.663	-4.93
1019.088	-9.73
1019.512	-6.43
1019.937	-6.73
1020.361	-8.43
1020.785	-14.03
1021.21	-7.13
1021.634	-5.93
1022.058	0.07
1022.483	6.77
1022.907	-6.13
1023.331	-6.13
1023.755	-2.53
1024.179	-4.83
1024.604	-14.13
1025.028	-10.63
1025.452	-4.23
1025.876	-2.53
1026.3	3.97
1026.724	-11.23
1027.148	-4.93
1027.572	-7.73
1027.996	-7.03
1028.42	-1.93
1028.843	-6.43
1029.267	-3.93
1029.691	-3.23
1030.115	-7.13
1030.539	-13.43
1030.962	-1.23
1031.386	-10.53
1031.81	-1.03
1032.233	-3.23
1032.657	-5.53
1033.08	-3.73
1033.504	-5.03
1033.927	-6.43
1034.351	0.47
1034.774	-3.83
1035.198	-3.73
1035.621	-9.33
1036.045	-8.93
1036.468	1.07
1036.891	-11.13
1037.315	-8.43
1037.738	-7.33
1038.161	-5.73
1038.584	-5.43
1039.008	-8.03
1039.431	-4.83
1039.854	-5.13
1040.277	-12.43
1040.7	-12.43
1041.123	5.07
1041.546	-9.13
1041.969	-7.93
1042.392	-2.93
1042.815	1.47
1043.238	0.47
1043.661	2.77
1044.084	-9.53
1044.507	-0.63
1044.93	-5.13
1045.352	-12.23
1045.775	-6.63
1046.198	-3.23
1046.621	-2.13
1047.043	-6.33
1047.466	4.07
1047.889	-9.33
1048.311	-9.03
1048.734	-2.43
1049.156	-1.93
1049.579	-1.73
1050.001	-5.13
1050.424	-6.73
1050.846	-4.93
1051.269	-2.23
1051.691	-6.53
1052.113	-5.73
1052.536	-6.13
1052.958	-6.83
1053.38	-10.33
1053.802	-8.73
1054.225	1.17
1054.647	-10.63
1055.069	-10.63
1055.491	-1.53
1055.913	-9.73
1056.335	-3.43
1056.757	-4.83
1057.179	-4.43
1057.601	-15.33
1058.023	-7.33
1058.445	-4.73
1058.867	-9.13
1059.289	0.87
1059.711	-7.33
1060.133	1.07
1060.555	-4.93
1060.976	-10.53
1061.398	-3.83
1061.82	-7.03
1062.241	-3.83
1062.663	-8.93
1063.085	-1.53
1063.506	0.07
1063.928	-3.13
1064.35	-3.03
1064.771	-15.33
1065.193	-5.53
1065.614	-15.03
1066.035	-2.23
1066.457	-5.73
1066.878	-3.93
1067.3	-4.73
1067.721	-5.93
1068.142	-7.13
1068.564	-5.13
1068.985	-3.83
1069.406	-4.93
1069.827	-7.73
1070.248	-1.93
1070.67	-9.63
1071.091	-4.43
1071.512	-3.83
1071.933	-4.43
1072.354	-9.03
1072.775	-5.93
1073.196	-6.23
1073.617	-1.43
1074.038	-5.53
1074.459	-2.73
1074.88	-8.53
1075.3	-6.33
1075.721	-5.33
1076.142	-3.83
1076.563	1.47
1076.983	-10.43
1077.404	-2.93
1077.825	-11.13
1078.246	-3.63
1078.666	-10.23
1079.087	-0.53
1079.507	-10.23
1079.928	-2.33
1080.348	-0.53
1080.769	-7.33
1081.189	1.07
1081.61	-4.63
1082.03	-8.73
1082.451	-11.33
1082.871	-6.13
1083.291	-11.13
1083.711	-9.73
1084.132	-6.23
1084.552	-6.43
1084.972	2.17
1085.392	-7.63
1085.813	-13.43
1086.233	-10.93
1086.653	-9.53
1087.073	-6.53
1087.493	-8.03
1087.913	-11.23
1088.333	-15.13
1088.753	-4.23
1089.173	-2.83
1089.593	-3.33
1090.013	1.57
1090.433	0.67
1090.852	2.07
1091.272	1.37
1091.692	-3.03
1092.112	-6.43
1092.531	-12.23
1092.951	-15.43
1093.371	-4.53
1093.79	-0.03
1094.21	-5.53
1094.63	-5.43
1095.049	-9.03
1095.469	-6.93
1095.888	-5.93
1096.308	2.77
1096.727	1.27
1097.146	-3.43
1097.566	-4.23
1097.985	-6.03
1098.405	-3.83
1098.824	-6.53
1099.243	-8.53
1099.662	-7.13
1100.082	0.77
1100.501	-3.33
1100.92	-5.93
1101.339	-4.93
1101.758	-10.93
