Data from 20171114-ORNL-Ar_H_NY_Subt18_08-04-48-468.txt Node
Date: Tue Nov 14 08:04:48 EST 2017
User: Ender
Spectrometer: HR+D1039
Trigger mode: 0
Integration Time (sec): 2.730000E-2
Scans to average: 10
Electric dark correction enabled: true
Nonlinearity correction enabled: false
Boxcar width: 0
XAxis mode: Wavelengths
Number of Pixels in Spectrum: 2048
>>>>>Begin Spectral Data<<<<<
187.836	-4.28
188.309	-4.28
188.782	-4.28
189.255	2.02
189.728	-1.98
190.201	10.32
190.674	-0.98
191.147	3.82
191.619	-6.08
192.092	-0.58
192.565	0.32
193.038	-4.78
193.511	2.82
193.984	0.82
194.456	-2.08
194.929	1.82
195.402	-2.78
195.874	1.62
196.347	-0.88
196.82	-4.78
197.292	7.62
197.765	1.22
198.237	-7.98
198.71	2.52
199.182	-3.78
199.655	5.72
200.127	5.02
200.6	-3.28
201.072	-3.28
201.544	-1.38
202.017	-4.58
202.489	3.22
202.961	-1.48
203.433	-4.48
203.906	-4.78
204.378	-8.28
204.85	-5.88
205.322	-11.58
205.794	-2.88
206.266	1.02
206.739	-10.58
207.211	0.82
207.683	-8.88
208.155	-4.08
208.627	-3.58
209.099	0.02
209.57	-7.08
210.042	-2.38
210.514	-6.18
210.986	0.92
211.458	-8.08
211.93	-10.78
212.402	4.52
212.873	-5.28
213.345	-9.08
213.817	-9.08
214.288	-1.28
214.76	-8.58
215.232	-3.38
215.703	2.12
216.175	-2.98
216.646	-3.98
217.118	-5.38
217.589	-3.98
218.061	1.22
218.532	-4.68
219.004	-0.28
219.475	0.92
219.946	-0.98
220.418	-1.08
220.889	4.32
221.36	2.82
221.832	-1.48
222.303	-8.78
222.774	-2.08
223.245	-10.08
223.717	-7.68
224.188	-3.78
224.659	-7.08
225.13	-10.18
225.601	3.12
226.072	-3.68
226.543	1.62
227.014	-2.18
227.485	-6.68
227.956	-8.28
228.427	0.92
228.898	-1.68
229.369	3.32
229.839	-0.28
230.31	-8.28
230.781	-1.58
231.252	-3.78
231.722	-6.38
232.193	-3.78
232.664	4.82
233.135	0.92
233.605	2.12
234.076	-6.88
234.546	0.52
235.017	4.62
235.487	-0.28
235.958	-0.88
236.428	-0.28
236.899	6.52
237.369	2.52
237.84	1.52
238.31	9.22
238.78	1.82
239.251	5.42
239.721	3.22
240.191	3.02
240.662	3.02
241.132	2.62
241.602	-0.38
242.072	3.72
242.542	3.92
243.013	-2.18
243.483	0.22
243.953	12.82
244.423	2.62
244.893	-2.88
245.363	4.72
245.833	-1.88
246.303	3.32
246.773	8.22
247.243	8.02
247.712	1.12
248.182	4.92
248.652	6.32
249.122	-4.48
249.592	18.32
250.061	22.32
250.531	37.52
251.001	17.02
251.471	25.42
251.94	21.22
252.41	8.02
252.879	3.42
253.349	13.02
253.818	8.32
254.288	6.92
254.757	3.12
255.227	5.12
255.696	3.82
256.166	7.92
256.635	4.82
257.105	10.92
257.574	11.02
258.043	14.02
258.513	12.82
258.982	17.62
259.451	5.32
259.92	17.82
260.389	11.72
260.859	19.72
261.328	13.32
261.797	23.52
262.266	15.02
262.735	13.32
263.204	7.92
263.673	3.42
264.142	13.62
264.611	1.32
265.08	6.32
265.549	3.82
266.018	3.72
266.487	1.72
266.955	3.02
267.424	-0.58
267.893	3.82
268.362	3.92
268.83	1.12
269.299	16.42
269.768	6.22
270.236	14.02
270.705	10.52
271.174	11.32
271.642	13.02
272.111	13.02
272.579	27.12
273.048	22.82
273.516	33.12
273.985	26.22
274.453	25.12
274.922	17.12
275.39	18.32
275.858	3.32
276.327	18.02
276.795	21.92
277.263	12.12
277.731	40.22
278.2	59.82
278.668	68.42
279.136	55.72
279.604	20.42
280.072	19.72
280.54	11.82
281.008	16.92
281.477	20.32
281.945	14.12
282.413	16.32
282.881	18.52
283.348	11.62
283.816	20.12
284.284	20.12
284.752	24.32
285.22	12.52
285.688	13.02
286.156	26.92
286.623	42.42
287.091	47.22
287.559	29.22
288.026	23.02
288.494	22.32
288.962	8.52
289.429	13.02
289.897	19.92
290.364	17.32
290.832	21.32
291.3	18.42
291.767	18.72
292.234	17.92
292.702	15.52
293.169	23.82
293.637	25.62
294.104	24.42
294.571	11.92
295.039	11.02
295.506	14.52
295.973	18.92
296.44	20.12
296.908	21.82
297.375	18.22
297.842	25.22
298.309	20.62
298.776	20.02
299.243	25.02
299.71	15.12
300.177	21.62
300.644	22.72
301.111	27.12
301.578	26.12
302.045	18.62
302.512	22.52
302.979	28.92
303.446	25.52
303.913	22.92
304.379	17.22
304.846	31.02
305.313	27.12
305.78	30.62
306.246	35.82
306.713	32.22
307.18	30.32
307.646	28.92
308.113	30.12
308.579	25.62
309.046	28.02
309.512	27.02
309.979	22.82
310.445	28.82
310.912	27.12
311.378	40.52
311.845	36.02
312.311	29.32
312.777	33.02
313.244	34.42
313.71	37.82
314.176	35.12
314.642	37.52
315.109	33.42
315.575	37.42
316.041	40.32
316.507	37.02
316.973	36.32
317.439	36.12
317.905	40.12
318.371	36.82
318.837	28.72
319.303	29.92
319.769	33.62
320.235	35.12
320.701	38.32
321.167	40.42
321.633	40.72
322.099	39.32
322.564	49.92
323.03	41.32
323.496	42.42
323.962	42.32
324.427	40.22
324.893	45.52
325.359	40.72
325.824	41.22
326.29	40.82
326.755	49.32
327.221	35.42
327.686	49.22
328.152	47.52
328.617	38.32
329.083	48.42
329.548	50.32
330.014	50.82
330.479	43.12
330.944	47.52
331.41	41.42
331.875	44.32
332.34	47.42
332.805	44.12
333.271	51.82
333.736	46.22
334.201	56.22
334.666	47.52
335.131	57.12
335.596	49.02
336.061	50.12
336.526	43.92
336.991	51.32
337.456	61.72
337.921	54.72
338.386	45.92
338.851	44.32
339.316	49.12
339.781	44.82
340.246	50.42
340.711	41.12
341.175	47.92
341.64	49.62
342.105	51.32
342.569	59.52
343.034	63.82
343.499	57.62
343.963	55.22
344.428	66.72
344.893	64.22
345.357	61.82
345.822	67.72
346.286	72.02
346.751	74.22
347.215	71.42
347.679	78.42
348.144	93.02
348.608	82.32
349.073	70.02
349.537	73.22
350.001	76.22
350.465	86.12
350.93	80.42
351.394	83.42
351.858	73.12
352.322	89.22
352.786	76.62
353.25	99.12
353.715	110.12
354.179	99.02
354.643	122.52
355.107	123.12
355.571	107.92
356.035	103.72
356.498	123.52
356.962	122.72
357.426	126.72
357.89	113.52
358.354	89.72
358.818	82.32
359.281	83.22
359.745	81.62
360.209	77.22
360.673	75.92
361.136	80.92
361.6	85.02
362.064	78.02
362.527	87.42
362.991	84.12
363.454	74.22
363.918	74.82
364.381	79.32
364.845	85.52
365.308	87.42
365.772	81.42
366.235	86.52
366.698	83.12
367.162	79.72
367.625	87.32
368.088	87.72
368.552	93.42
369.015	88.22
369.478	101.52
369.941	97.72
370.404	91.92
370.867	103.92
371.331	103.02
371.794	112.82
372.257	111.32
372.72	109.72
373.183	103.72
373.646	105.82
374.109	102.72
374.572	108.52
375.035	102.52
375.497	102.22
375.96	106.12
376.423	98.32
376.886	110.72
377.349	105.92
377.811	105.02
378.274	108.52
378.737	100.02
379.199	113.12
379.662	112.02
380.125	123.32
380.587	114.82
381.05	117.92
381.512	129.82
381.975	133.52
382.437	119.02
382.9	124.42
383.362	127.02
383.825	141.02
384.287	145.22
384.75	133.62
385.212	143.82
385.674	138.92
386.136	135.72
386.599	126.52
387.061	128.22
387.523	120.72
387.985	127.42
388.447	144.52
388.91	134.62
389.372	154.42
389.834	149.22
390.296	143.62
390.758	147.52
391.22	163.82
391.682	205.02
392.144	291.02
392.606	221.52
393.068	157.52
393.529	165.22
393.991	152.32
394.453	148.12
394.915	152.22
395.377	189.82
395.838	207.62
396.3	147.12
396.762	140.62
397.224	122.22
397.685	120.02
398.147	126.52
398.608	124.32
399.07	125.32
399.531	129.32
399.993	140.02
400.454	146.82
400.916	142.22
401.377	139.92
401.839	140.42
402.3	151.02
402.762	165.22
403.223	176.22
403.684	162.32
404.145	150.52
404.607	154.82
405.068	160.72
405.529	170.12
405.99	184.72
406.451	168.02
406.913	168.62
407.374	156.92
407.835	154.02
408.296	163.92
408.757	173.92
409.218	175.42
409.679	179.02
410.14	168.62
410.601	171.52
411.062	176.42
411.522	180.72
411.983	178.32
412.444	171.62
412.905	174.32
413.366	175.92
413.826	192.52
414.287	210.72
414.748	248.42
415.208	244.62
415.669	204.32
416.13	199.22
416.59	197.12
417.051	201.72
417.511	210.42
417.972	228.82
418.432	237.82
418.893	275.22
419.353	252.32
419.814	189.72
420.274	174.82
420.734	168.52
421.195	189.62
421.655	194.62
422.115	193.72
422.576	176.92
423.036	188.92
423.496	198.52
423.956	204.92
424.416	220.42
424.876	253.12
425.336	250.42
425.797	252.92
426.257	248.22
426.717	226.42
427.177	224.22
427.637	219.02
428.097	228.02
428.556	237.72
429.016	264.82
429.476	257.92
429.936	263.22
430.396	262.72
430.856	273.42
431.315	307.62
431.775	335.22
432.235	362.12
432.694	334.12
433.154	349.92
433.614	370.52
434.073	326.92
434.533	270.22
434.993	258.02
435.452	279.62
435.912	285.12
436.371	272.82
436.83	273.32
437.29	262.22
437.749	239.52
438.209	240.92
438.668	262.42
439.127	273.42
439.587	255.02
440.046	238.92
440.505	246.82
440.964	263.52
441.424	311.42
441.883	297.62
442.342	254.22
442.801	218.02
443.26	210.72
443.719	212.02
444.178	213.72
444.637	199.52
445.096	213.22
445.555	217.42
446.014	217.12
446.473	215.62
446.932	213.12
447.391	211.52
447.849	217.42
448.308	205.62
448.767	210.22
449.226	228.62
449.685	224.42
450.143	240.42
450.602	228.92
451.061	211.32
451.519	215.42
451.978	224.42
452.436	228.12
452.895	225.62
453.353	238.82
453.812	228.42
454.27	221.92
454.729	229.82
455.187	228.82
455.646	238.52
456.104	242.52
456.562	242.12
457.021	253.52
457.479	243.32
457.937	260.92
458.395	248.02
458.854	236.72
459.312	241.22
459.77	254.32
460.228	241.72
460.686	233.12
461.144	245.02
461.602	232.52
462.06	233.02
462.518	244.02
462.976	242.32
463.434	247.22
463.892	248.62
464.35	266.32
464.808	275.62
465.266	257.62
465.724	257.72
466.181	260.22
466.639	258.22
467.097	276.82
467.555	293.32
468.012	287.72
468.47	299.82
468.928	313.32
469.385	323.02
469.843	337.72
470.3	341.02
470.758	344.32
471.215	368.52
471.673	390.12
472.13	380.92
472.588	402.62
473.045	359.62
473.503	362.72
473.96	377.12
474.417	389.82
474.875	417.92
475.332	451.02
475.789	439.62
476.246	453.52
476.704	464.82
477.161	489.82
477.618	505.62
478.075	537.32
478.532	580.02
478.989	656.12
479.446	769.62
479.903	740.02
480.36	758.42
480.817	827.42
481.274	933.62
481.731	1038.52
482.188	1117.02
482.645	1256.92
483.102	1348.22
483.558	1502.52
484.015	1538.22
484.472	1512.12
484.929	1459.42
485.385	1410.92
485.842	1379.02
486.299	1327.32
486.755	1260.12
487.212	1044.72
487.668	881.82
488.125	808.82
488.582	748.82
489.038	718.72
489.494	671.02
489.951	666.52
490.407	633.12
490.864	624.12
491.32	611.02
491.776	609.62
492.233	621.92
492.689	582.32
493.145	576.42
493.602	582.12
494.058	585.32
494.514	586.12
494.97	616.72
495.426	623.92
495.882	596.82
496.338	591.92
496.794	601.72
497.251	600.42
497.707	607.82
498.163	614.92
498.618	614.02
499.074	610.62
499.53	648.92
499.986	649.72
500.442	624.92
500.898	604.82
501.354	603.02
501.809	610.62
502.265	619.22
502.721	624.92
503.177	650.82
503.632	632.72
504.088	646.62
504.543	681.12
504.999	668.22
505.455	623.62
505.91	600.12
506.366	600.32
506.821	601.52
507.277	591.82
507.732	600.12
508.187	593.62
508.643	594.22
509.098	599.82
509.553	632.52
510.009	636.32
510.464	648.52
510.919	658.72
511.375	654.42
511.83	670.62
512.285	684.82
512.74	719.22
513.195	750.32
513.65	744.32
514.105	740.22
514.56	741.52
515.015	757.12
515.47	778.72
515.925	754.42
516.38	764.72
516.835	765.72
517.29	747.62
517.745	748.12
518.2	726.32
518.655	713.62
519.109	704.12
519.564	708.12
520.019	693.72
520.474	690.62
520.928	694.82
521.383	682.32
521.838	680.32
522.292	674.02
522.747	674.42
523.201	668.52
523.656	660.52
524.11	657.12
524.565	663.22
525.019	652.52
525.474	667.52
525.928	666.32
526.382	659.62
526.837	668.02
527.291	660.12
527.745	664.62
528.2	657.02
528.654	643.72
529.108	651.12
529.562	659.72
530.016	649.92
530.47	655.82
530.925	656.22
531.379	660.42
531.833	671.92
532.287	662.32
532.741	669.32
533.195	663.52
533.649	673.32
534.103	684.12
534.556	672.22
535.01	682.72
535.464	665.52
535.918	679.92
536.372	682.62
536.826	677.92
537.279	670.52
537.733	672.62
538.187	676.72
538.64	684.92
539.094	687.12
539.548	697.62
540.001	683.72
540.455	684.52
540.908	694.42
541.362	688.12
541.815	704.42
542.269	718.12
542.722	711.82
543.175	729.52
543.629	717.12
544.082	746.82
544.536	736.62
544.989	738.82
545.442	750.12
545.895	740.82
546.349	734.92
546.802	742.52
547.255	741.82
547.708	751.32
548.161	758.32
548.614	774.22
549.067	781.12
549.52	769.22
549.973	767.82
550.426	761.72
550.879	742.92
551.332	753.22
551.785	757.62
552.238	759.02
552.691	773.52
553.144	796.02
553.596	795.22
554.049	799.32
554.502	830.42
554.955	852.12
555.407	864.52
555.86	855.22
556.313	842.82
556.765	833.72
557.218	828.92
557.67	827.22
558.123	817.32
558.576	814.12
559.028	821.02
559.48	837.62
559.933	822.62
560.385	789.42
560.838	757.22
561.29	735.82
561.742	731.32
562.195	722.92
562.647	722.12
563.099	727.72
563.551	715.02
564.004	735.12
564.456	726.52
564.908	713.82
565.36	695.12
565.812	682.92
566.264	676.82
566.716	669.82
567.168	660.22
567.62	676.02
568.072	660.32
568.524	645.72
568.976	638.52
569.428	633.22
569.88	626.72
570.332	635.12
570.784	634.12
571.235	642.72
571.687	637.92
572.139	644.62
572.59	667.12
573.042	665.72
573.494	656.92
573.945	646.42
574.397	640.12
574.849	644.92
575.3	652.92
575.752	633.32
576.203	633.62
576.655	632.72
577.106	624.52
577.557	619.52
578.009	618.92
578.46	608.92
578.912	606.92
579.363	615.52
579.814	617.62
580.265	611.52
580.717	615.82
581.168	612.92
581.619	622.52
582.07	628.42
582.521	625.92
582.972	608.82
583.423	627.42
583.875	627.82
584.326	653.42
584.777	688.42
585.227	755.72
585.678	847.92
586.129	934.52
586.58	1002.22
587.031	1079.22
587.482	1234.22
587.933	1406.82
588.384	1212.42
588.834	898.92
589.285	752.82
589.736	715.42
590.186	703.42
590.637	689.22
591.088	685.42
591.538	676.12
591.989	674.62
592.439	670.92
592.89	662.52
593.34	643.72
593.791	652.12
594.241	638.12
594.692	649.52
595.142	643.92
595.593	637.22
596.043	646.92
596.493	657.62
596.943	650.12
597.394	650.52
597.844	650.22
598.294	667.92
598.744	679.32
599.195	709.82
599.645	738.92
600.095	780.02
600.545	829.32
600.995	879.92
601.445	935.92
601.895	984.52
602.345	1041.22
602.795	1017.12
603.245	975.82
603.695	926.02
604.145	870.12
604.594	836.62
605.044	788.42
605.494	724.42
605.944	686.62
606.393	674.32
606.843	669.62
607.293	674.02
607.743	668.22
608.192	678.32
608.642	690.32
609.091	700.72
609.541	700.02
609.99	699.62
610.44	691.92
610.889	650.72
611.339	630.82
611.788	622.92
612.238	630.62
612.687	645.02
613.136	650.42
613.586	668.12
614.035	668.42
614.484	683.52
614.933	690.32
615.383	671.52
615.832	666.62
616.281	652.52
616.73	629.22
617.179	601.72
617.628	593.82
618.077	569.92
618.526	557.02
618.975	550.82
619.424	556.62
619.873	553.12
620.322	562.32
620.771	543.02
621.22	542.02
621.669	538.32
622.118	525.62
622.567	522.82
623.015	512.42
623.464	512.82
623.913	516.42
624.361	489.02
624.81	500.02
625.259	492.22
625.707	503.02
626.156	495.92
626.604	510.52
627.053	500.82
627.501	504.92
627.95	505.22
628.398	520.02
628.847	517.42
629.295	508.42
629.744	513.42
630.192	517.02
630.64	509.12
631.089	507.82
631.537	523.52
631.985	520.32
632.433	534.52
632.881	539.42
633.33	586.82
633.778	563.72
634.226	510.42
634.674	514.32
635.122	517.42
635.57	524.02
636.018	558.82
636.466	516.32
636.914	498.52
637.362	508.12
637.81	519.12
638.258	518.22
638.705	510.42
639.153	541.52
639.601	553.82
640.049	567.12
640.497	595.62
640.944	626.22
641.392	579.52
641.84	550.82
642.287	517.12
642.735	507.72
643.182	504.12
643.63	509.92
644.078	523.62
644.525	525.92
644.973	530.52
645.42	536.62
645.867	552.02
646.315	565.32
646.762	587.42
647.21	615.12
647.657	639.32
648.104	673.12
648.551	682.42
648.999	742.42
649.446	812.42
649.893	895.52
650.34	1015.02
650.787	1218.02
651.234	1519.22
651.682	1978.32
652.129	2688.72
652.576	3886.12
653.023	5737.82
653.47	7925.92
653.917	9985.62
654.363	11659.02
654.81	13091.22
655.257	12443.22
655.704	8061.92
656.151	4755.42
656.598	3055.42
657.044	2170.82
657.491	1669.72
657.938	1330.92
658.385	1113.22
658.831	962.32
659.278	861.72
659.724	762.12
660.171	701.62
660.618	644.72
661.064	608.72
661.511	597.82
661.957	576.72
662.404	566.92
662.85	570.82
663.296	550.62
663.743	491.62
664.189	476.72
664.635	468.72
665.082	467.62
665.528	459.52
665.974	450.32
666.42	446.72
666.867	452.32
667.313	436.82
667.759	428.82
668.205	416.32
668.651	424.72
669.097	429.82
669.543	443.02
669.989	414.12
670.435	388.32
670.881	393.72
671.327	394.62
671.773	410.62
672.219	429.62
672.665	481.52
673.11	510.72
673.556	550.42
674.002	591.42
674.448	574.02
674.893	486.82
675.339	417.62
675.785	388.42
676.23	362.72
676.676	339.82
677.122	338.32
677.567	322.92
678.013	318.32
678.458	311.32
678.904	309.12
679.349	299.82
679.794	310.72
680.24	310.82
680.685	302.92
681.131	303.72
681.576	301.32
682.021	313.32
682.466	299.52
682.912	306.42
683.357	303.82
683.802	333.42
684.247	351.62
684.692	400.52
685.137	427.92
685.583	473.12
686.028	487.02
686.473	449.72
686.918	398.42
687.363	366.82
687.807	345.72
688.252	320.92
688.697	308.52
689.142	296.92
689.587	290.62
690.032	284.12
690.477	298.42
690.921	304.62
691.366	330.82
691.811	354.12
692.255	371.62
692.7	406.12
693.145	429.52
693.589	579.42
694.034	954.62
694.478	1329.22
694.923	1529.62
695.367	2014.12
695.812	1049.32
696.256	438.22
696.701	320.12
697.145	293.02
697.59	288.02
698.034	284.02
698.478	284.92
698.922	275.92
699.367	286.22
699.811	293.02
700.255	304.52
700.699	334.52
701.143	366.92
701.588	416.42
702.032	452.72
702.476	446.52
702.92	426.42
703.364	425.02
703.808	539.52
704.252	874.12
704.696	1245.92
705.14	1480.62
705.584	1894.72
706.027	940.22
706.471	448.82
706.915	352.42
707.359	305.02
707.803	284.42
708.246	259.92
708.69	270.92
709.134	268.42
709.577	266.62
710.021	270.02
710.465	269.72
710.908	254.82
711.352	257.42
711.795	269.12
712.239	302.02
712.682	324.32
713.126	364.52
713.569	408.02
714.012	318.32
714.456	284.12
714.899	264.02
715.342	236.62
715.786	226.42
716.229	216.52
716.672	218.42
717.115	212.32
717.558	211.62
718.002	217.52
718.445	229.62
718.888	250.32
719.331	256.22
719.774	265.72
720.217	267.12
720.66	255.02
721.103	232.32
721.546	222.22
721.989	212.72
722.432	194.22
722.874	209.22
723.317	196.22
723.76	205.82
724.203	219.02
724.645	281.32
725.088	373.52
725.531	490.92
725.974	550.52
726.416	488.32
726.859	272.52
727.301	207.62
727.744	207.62
728.187	201.72
728.629	209.82
729.071	209.32
729.514	221.22
729.956	234.52
730.399	242.82
730.841	252.12
731.283	236.32
731.726	230.32
732.168	226.02
732.61	229.02
733.053	252.32
733.495	269.92
733.937	303.52
734.379	342.42
734.821	378.52
735.263	456.22
735.705	698.42
736.148	1317.12
736.59	2229.42
737.032	2685.52
737.474	2181.42
737.916	703.82
738.357	366.92
738.799	280.52
739.241	252.92
739.683	242.52
740.125	254.22
740.567	255.32
741.008	281.12
741.45	269.82
741.892	275.82
742.334	299.92
742.775	312.62
743.217	300.42
743.658	234.32
744.1	218.82
744.542	223.82
744.983	264.82
745.425	297.02
745.866	290.92
746.307	241.82
746.749	244.02
747.19	279.42
747.632	377.12
748.073	724.12
748.514	1562.02
748.956	2470.52
749.397	3099.02
749.838	2557.62
750.279	2626.52
750.72	1301.62
751.162	470.92
751.603	281.32
752.044	224.72
752.485	181.52
752.926	176.22
753.367	171.72
753.808	163.02
754.249	166.02
754.69	161.62
755.131	162.12
755.572	154.82
756.013	153.12
756.453	156.12
756.894	163.02
757.335	164.62
757.776	165.82
758.216	174.72
758.657	169.62
759.098	173.72
759.538	199.12
759.979	229.42
760.42	313.52
760.86	581.22
761.301	1504.02
761.741	3751.92
762.182	5713.82
762.622	4024.82
763.063	1145.82
763.503	465.12
763.943	300.12
764.384	295.42
764.824	358.62
765.264	395.62
765.705	267.22
766.145	184.42
766.585	160.52
767.025	158.62
767.465	156.82
767.906	206.52
768.346	275.62
768.786	307.22
769.226	229.22
769.666	270.62
770.106	514.72
770.546	1283.32
770.986	2309.22
771.426	2106.02
771.866	686.02
772.306	277.72
772.745	183.42
773.185	155.02
773.625	148.82
774.065	145.92
774.505	172.12
774.944	255.72
775.384	565.92
775.824	1076.42
776.263	1064.42
776.703	443.32
777.142	197.02
777.582	141.12
778.021	121.52
778.461	113.32
778.9	124.52
779.34	113.32
779.779	101.32
780.219	93.62
780.658	91.32
781.097	92.52
781.537	99.22
781.976	92.62
782.415	91.12
782.855	93.22
783.294	85.92
783.733	92.12
784.172	95.12
784.611	87.92
785.05	91.92
785.489	95.02
785.928	105.62
786.367	100.92
786.806	104.62
787.245	116.12
787.684	117.22
788.123	131.62
788.562	111.72
789.001	111.02
789.44	104.32
789.879	105.12
790.317	98.42
790.756	110.02
791.195	104.72
791.634	124.42
792.072	170.02
792.511	299.82
792.95	834.62
793.388	1855.42
793.827	1726.82
794.265	583.92
794.704	242.82
795.142	161.92
795.581	131.12
796.019	120.02
796.458	113.02
796.896	105.82
797.334	109.52
797.773	133.62
798.211	184.12
798.649	364.42
799.087	858.52
799.526	1376.92
799.964	1721.32
800.402	1800.22
800.84	654.62
801.278	260.02
801.716	160.52
802.154	131.32
802.592	129.12
803.03	118.22
803.468	115.52
803.906	121.72
804.344	126.22
804.782	117.92
805.22	117.72
805.658	108.22
806.096	125.62
806.533	134.22
806.971	150.92
807.409	189.82
807.847	260.52
808.284	556.42
808.722	1563.12
809.16	2883.52
809.597	2657.82
810.035	4695.92
810.472	5211.02
810.91	1852.82
811.347	684.82
811.785	348.82
812.222	216.42
812.66	166.22
813.097	142.62
813.535	119.52
813.972	108.82
814.409	99.92
814.846	92.82
815.284	94.82
815.721	87.02
816.158	89.42
816.595	102.22
817.032	153.72
817.47	177.62
817.907	139.42
818.344	136.92
818.781	104.12
819.218	89.02
819.655	99.62
820.092	157.72
820.529	191.22
820.966	153.12
821.403	116.52
821.839	99.02
822.276	86.52
822.713	109.42
823.15	116.42
823.587	99.32
824.023	121.62
824.46	242.52
824.897	758.32
825.333	1195.62
825.77	518.12
826.206	199.82
826.643	121.22
827.08	87.62
827.516	63.82
827.953	72.02
828.389	73.52
828.825	60.42
829.262	55.42
829.698	55.12
830.135	54.82
830.571	50.52
831.007	56.42
831.443	59.92
831.88	55.02
832.316	54.72
832.752	52.02
833.188	58.12
833.624	57.22
834.06	54.72
834.497	61.12
834.933	61.52
835.369	67.02
835.805	57.02
836.241	59.32
836.677	67.42
837.112	76.02
837.548	91.32
837.984	115.52
838.42	162.92
838.856	413.02
839.292	1289.82
839.727	2038.82
840.163	931.72
840.599	779.72
841.034	1740.42
841.47	1881.42
841.906	680.62
842.341	283.72
842.777	195.22
843.212	274.52
843.648	290.22
844.083	138.62
844.519	86.52
844.954	69.72
845.39	57.02
845.825	50.82
846.261	56.22
846.696	49.82
847.131	48.02
847.566	52.42
848.002	41.32
848.437	54.92
848.872	52.62
849.307	58.52
849.742	75.02
850.177	149.02
850.613	472.92
851.048	771.02
851.483	331.62
851.918	133.32
852.353	79.72
852.788	49.52
853.223	50.42
853.657	47.92
854.092	45.02
854.527	30.42
854.962	29.72
855.397	34.42
855.832	43.52
856.266	40.52
856.701	36.52
857.136	35.32
857.57	35.12
858.005	44.42
858.44	49.12
858.874	35.12
859.309	44.12
859.743	34.62
860.178	39.92
860.612	27.92
861.047	39.92
861.481	54.22
861.915	66.52
862.35	41.52
862.784	27.72
863.218	27.02
863.653	27.02
864.087	42.02
864.521	43.42
864.955	63.72
865.39	135.12
865.824	156.22
866.258	103.02
866.692	143.52
867.126	153.12
867.56	96.02
867.994	48.42
868.428	31.12
868.862	48.12
869.296	46.72
869.73	55.12
870.164	53.22
870.598	38.72
871.031	31.92
871.465	29.82
871.899	25.02
872.333	17.72
872.766	24.12
873.2	19.22
873.634	26.12
874.067	20.32
874.501	22.32
874.935	27.52
875.368	23.12
875.802	23.82
876.235	17.32
876.669	18.02
877.102	17.52
877.535	28.32
877.969	20.32
878.402	23.72
878.836	15.22
879.269	20.92
879.702	18.12
880.135	15.52
880.569	19.02
881.002	23.62
881.435	17.82
881.868	18.02
882.301	21.32
882.734	11.42
883.167	22.02
883.601	12.92
884.034	21.62
884.467	13.92
884.899	14.32
885.332	13.92
885.765	11.92
886.198	10.32
886.631	11.62
887.064	17.52
887.497	24.02
887.929	24.22
888.362	13.62
888.795	9.52
889.228	15.52
889.66	19.42
890.093	15.02
890.526	17.42
890.958	12.12
891.391	11.82
891.823	17.82
892.256	14.42
892.688	9.02
893.121	14.92
893.553	13.72
893.985	18.92
894.418	18.12
894.85	13.32
895.282	13.12
895.715	15.12
896.147	21.22
896.579	10.12
897.011	12.12
897.444	13.82
897.876	12.52
898.308	15.62
898.74	17.22
899.172	9.72
899.604	22.32
900.036	16.92
900.468	17.22
900.9	18.42
901.332	16.42
901.764	8.72
902.196	13.12
902.628	12.72
903.06	16.62
903.491	27.52
903.923	23.22
904.355	17.52
904.787	25.52
905.218	21.32
905.65	22.62
906.082	13.22
906.513	0.92
906.945	10.92
907.376	7.52
907.808	18.82
908.239	17.92
908.671	24.22
909.102	14.42
909.534	17.92
909.965	38.52
910.397	80.12
910.828	276.72
911.259	423.82
911.691	192.32
912.122	85.92
912.553	42.32
912.984	31.42
913.415	26.42
913.847	19.82
914.278	9.32
914.709	6.72
915.14	15.92
915.571	17.12
916.002	8.32
916.433	16.32
916.864	19.72
917.295	10.42
917.726	14.82
918.157	14.12
918.587	28.92
919.018	18.32
919.449	17.32
919.88	25.12
920.311	28.82
920.741	41.52
921.172	146.52
921.603	133.92
922.033	58.42
922.464	38.62
922.895	23.62
923.325	22.92
923.756	21.02
924.186	14.82
924.617	22.22
925.047	36.82
925.478	51.12
925.908	45.92
926.338	25.32
926.769	14.22
927.199	16.32
927.629	2.72
928.06	17.12
928.49	7.72
928.92	9.42
929.35	11.42
929.78	7.52
930.21	8.12
930.641	4.52
931.071	4.82
931.501	2.02
931.931	6.92
932.361	7.82
932.791	5.12
933.221	8.42
933.651	6.52
934.08	19.12
934.51	28.42
934.94	10.32
935.37	9.32
935.8	9.52
936.229	10.32
936.659	12.12
937.089	-1.18
937.519	17.82
937.948	21.82
938.378	14.22
938.807	6.32
939.237	5.02
939.666	3.12
940.096	-7.78
940.525	7.92
940.955	3.72
941.384	5.42
941.814	-3.78
942.243	5.32
942.672	7.22
943.102	-6.48
943.531	2.72
943.96	2.42
944.39	3.52
944.819	-0.48
945.248	7.22
945.677	1.22
946.106	6.52
946.535	6.32
946.964	0.02
947.393	3.42
947.822	3.52
948.251	2.52
948.68	3.02
949.109	6.82
949.538	8.62
949.967	2.22
950.396	-1.08
950.825	8.12
951.254	-1.48
951.682	-5.88
952.111	2.22
952.54	3.82
952.969	-1.78
953.397	-7.38
953.826	-1.08
954.254	-8.58
954.683	0.12
955.112	2.52
955.54	2.12
955.969	1.02
956.397	2.82
956.826	-2.18
957.254	-0.58
957.682	-0.78
958.111	2.12
958.539	-3.68
958.967	-0.88
959.396	1.82
959.824	4.82
960.252	5.42
960.68	0.42
961.109	-0.88
961.537	-5.18
961.965	-0.88
962.393	-2.28
962.821	-2.88
963.249	-2.78
963.677	4.32
964.105	2.62
964.533	37.92
964.961	37.52
965.389	24.02
965.817	3.72
966.245	-1.58
966.672	-0.48
967.1	-8.68
967.528	1.92
967.956	-3.38
968.383	4.22
968.811	-3.38
969.239	-2.58
969.666	-8.38
970.094	-1.88
970.522	-0.38
970.949	1.02
971.377	-5.08
971.804	-1.48
972.232	-1.48
972.659	-3.28
973.087	-5.48
973.514	-1.48
973.941	-4.38
974.369	0.92
974.796	2.42
975.223	0.82
975.651	3.52
976.078	5.92
976.505	-0.78
976.932	4.22
977.359	17.22
977.786	15.22
978.214	1.32
978.641	-1.78
979.068	-2.78
979.495	-2.78
979.922	-7.68
980.349	-3.58
980.776	0.92
981.202	3.02
981.629	7.82
982.056	8.42
982.483	-0.38
982.91	1.12
983.337	-8.68
983.763	1.42
984.19	-4.98
984.617	-4.58
985.043	-6.88
985.47	-0.78
985.897	-7.88
986.323	-3.68
986.75	3.22
987.176	0.22
987.603	4.42
988.029	2.12
988.456	-0.08
988.882	1.32
989.308	-7.58
989.735	-4.58
990.161	6.42
990.587	-4.98
991.014	-0.68
991.44	6.72
991.866	-6.18
992.292	-9.78
992.719	-3.98
993.145	1.22
993.571	-13.68
993.997	-5.78
994.423	0.32
994.849	-4.68
995.275	5.92
995.701	-1.78
996.127	-3.18
996.553	-1.78
996.979	-0.78
997.405	0.72
997.83	1.82
998.256	-2.08
998.682	-6.18
999.108	-9.88
999.534	0.42
999.959	0.02
1000.385	-5.28
1000.811	2.02
1001.236	-7.18
1001.662	-4.98
1002.087	-5.98
1002.513	3.42
1002.938	1.22
1003.364	-0.38
1003.789	-3.78
1004.215	5.12
1004.64	-1.78
1005.066	-5.58
1005.491	-1.38
1005.916	-4.58
1006.342	-4.98
1006.767	-4.48
1007.192	4.12
1007.617	-2.58
1008.042	-5.98
1008.468	-0.38
1008.893	-4.38
1009.318	-5.18
1009.743	-4.38
1010.168	1.82
1010.593	-2.08
1011.018	-12.68
1011.443	-4.98
1011.868	3.12
1012.293	-0.68
1012.718	-7.48
1013.143	-3.58
1013.567	0.52
1013.992	-1.28
1014.417	-15.08
1014.842	2.22
1015.267	-6.08
1015.691	-3.98
1016.116	6.92
1016.541	-2.18
1016.965	7.32
1017.39	0.22
1017.814	1.02
1018.239	2.62
1018.663	-5.08
1019.088	-5.38
1019.512	-1.38
1019.937	-2.68
1020.361	-0.78
1020.785	-10.08
1021.21	-8.68
1021.634	2.72
1022.058	4.22
1022.483	1.52
1022.907	-5.78
1023.331	-4.28
1023.755	-1.58
1024.179	-2.48
1024.604	-5.38
1025.028	-1.68
1025.452	-4.38
1025.876	-4.48
1026.3	0.42
1026.724	-9.88
1027.148	-5.18
1027.572	-8.28
1027.996	-6.48
1028.42	-2.68
1028.843	-10.48
1029.267	-5.58
1029.691	-3.38
1030.115	-4.88
1030.539	-8.18
1030.962	-3.98
1031.386	-6.78
1031.81	-1.58
1032.233	1.62
1032.657	-2.68
1033.08	-3.18
1033.504	-4.68
1033.927	-2.88
1034.351	-2.88
1034.774	0.42
1035.198	2.72
1035.621	1.42
1036.045	-4.18
1036.468	4.32
1036.891	-11.08
1037.315	-11.78
1037.738	-7.38
1038.161	0.32
1038.584	-6.38
1039.008	-0.38
1039.431	-2.08
1039.854	-5.78
1040.277	-9.98
1040.7	-6.28
1041.123	-7.28
1041.546	-4.48
1041.969	-7.88
1042.392	0.82
1042.815	-2.78
1043.238	-2.78
1043.661	1.92
1044.084	-5.58
1044.507	-5.98
1044.93	-0.48
1045.352	-3.88
1045.775	0.22
1046.198	-3.28
1046.621	-0.58
1047.043	-3.08
1047.466	5.92
1047.889	-0.58
1048.311	-1.58
1048.734	-5.98
1049.156	2.62
1049.579	-1.98
1050.001	6.32
1050.424	-3.08
1050.846	-5.38
1051.269	-1.78
1051.691	-7.08
1052.113	-3.08
1052.536	-0.18
1052.958	-3.28
1053.38	-8.28
1053.802	-11.68
1054.225	-0.08
1054.647	-7.28
1055.069	-7.68
1055.491	-2.28
1055.913	-7.88
1056.335	-1.28
1056.757	-6.28
1057.179	-8.08
1057.601	-9.18
1058.023	-2.18
1058.445	1.12
1058.867	0.52
1059.289	-4.18
1059.711	-7.68
1060.133	-4.88
1060.555	-3.88
1060.976	-7.98
1061.398	-3.38
1061.82	-3.68
1062.241	-7.08
1062.663	-9.38
1063.085	-2.88
1063.506	2.12
1063.928	-7.68
1064.35	-4.78
1064.771	-13.18
1065.193	-5.58
1065.614	-13.98
1066.035	-2.88
1066.457	-6.88
1066.878	6.02
1067.3	-8.88
1067.721	-2.98
1068.142	-3.58
1068.564	-0.68
1068.985	2.42
1069.406	-1.38
1069.827	-3.88
1070.248	-2.68
1070.67	-6.88
1071.091	-10.48
1071.512	-6.48
1071.933	-9.98
1072.354	-4.98
1072.775	-4.48
1073.196	-8.48
1073.617	-1.38
1074.038	-8.28
1074.459	-1.58
1074.88	-5.18
1075.3	4.12
1075.721	-7.18
1076.142	3.12
1076.563	3.12
1076.983	-7.88
1077.404	-6.08
1077.825	-12.78
1078.246	-0.08
1078.666	-10.48
1079.087	-7.28
1079.507	-8.88
1079.928	0.12
1080.348	1.52
1080.769	-7.78
1081.189	-2.78
1081.61	-2.48
1082.03	-8.78
1082.451	-5.78
1082.871	-3.88
1083.291	-7.38
1083.711	-7.88
1084.132	-9.28
1084.552	-10.98
1084.972	5.42
1085.392	-10.08
1085.813	-5.98
1086.233	-7.88
1086.653	-2.58
1087.073	-0.68
1087.493	-10.88
1087.913	-6.28
1088.333	-7.18
1088.753	-4.48
1089.173	2.72
1089.593	-1.18
1090.013	0.52
1090.433	-0.78
1090.852	-5.38
1091.272	-1.08
1091.692	-2.58
1092.112	-8.78
1092.531	-10.78
1092.951	-10.58
1093.371	-4.78
1093.79	1.82
1094.21	-7.68
1094.63	-5.38
1095.049	-4.38
1095.469	-7.08
1095.888	-4.58
1096.308	2.72
1096.727	2.62
1097.146	-4.38
1097.566	-1.28
1097.985	-0.78
1098.405	-4.08
1098.824	-8.58
1099.243	-7.38
1099.662	-9.08
1100.082	-3.38
1100.501	-5.48
1100.92	-11.18
1101.339	1.22
1101.758	-6.08
