Data from 20171114-ORNL-Ar_H_NY_Subt18_08-06-53-491.txt Node
Date: Tue Nov 14 08:06:53 EST 2017
User: Ender
Spectrometer: HR+D1039
Trigger mode: 0
Integration Time (sec): 2.730000E-2
Scans to average: 10
Electric dark correction enabled: true
Nonlinearity correction enabled: false
Boxcar width: 0
XAxis mode: Wavelengths
Number of Pixels in Spectrum: 2048
>>>>>Begin Spectral Data<<<<<
187.836	-6.24
188.309	-6.24
188.782	-6.24
189.255	0.36
189.728	1.06
190.201	8.96
190.674	1.76
191.147	0.46
191.619	-7.84
192.092	2.36
192.565	0.36
193.038	0.16
193.511	5.76
193.984	-1.34
194.456	-0.64
194.929	-0.74
195.402	-4.54
195.874	0.16
196.347	-4.54
196.82	-9.24
197.292	6.16
197.765	-2.94
198.237	-5.04
198.71	4.56
199.182	-2.24
199.655	2.56
200.127	6.56
200.6	-0.54
201.072	-4.44
201.544	0.16
202.017	-6.84
202.489	5.26
202.961	-6.04
203.433	-2.04
203.906	-8.14
204.378	-3.54
204.85	-4.14
205.322	-8.44
205.794	-2.24
206.266	-1.94
206.739	-13.94
207.211	1.66
207.683	-3.64
208.155	-10.04
208.627	-0.64
209.099	1.76
209.57	-10.14
210.042	-6.14
210.514	-3.24
210.986	-5.54
211.458	-9.14
211.93	-2.74
212.402	0.26
212.873	-4.64
213.345	-7.04
213.817	-6.14
214.288	0.36
214.76	-15.44
215.232	1.16
215.703	0.06
216.175	3.96
216.646	-7.34
217.118	-7.34
217.589	-6.34
218.061	-1.24
218.532	-5.34
219.004	-3.44
219.475	0.66
219.946	0.26
220.418	-3.34
220.889	5.66
221.36	4.06
221.832	-1.54
222.303	-1.94
222.774	0.56
223.245	-9.64
223.717	-3.14
224.188	0.36
224.659	-6.44
225.13	-5.24
225.601	-1.44
226.072	-1.84
226.543	1.56
227.014	2.36
227.485	2.06
227.956	-3.84
228.427	-4.34
228.898	-1.54
229.369	6.96
229.839	-5.74
230.31	-7.04
230.781	2.26
231.252	-0.44
231.722	-8.34
232.193	1.86
232.664	-0.64
233.135	-2.54
233.605	-2.94
234.076	-4.34
234.546	-2.34
235.017	6.86
235.487	1.36
235.958	-5.74
236.428	-3.34
236.899	2.56
237.369	-0.34
237.84	-8.94
238.31	2.36
238.78	-6.14
239.251	-7.94
239.721	-1.44
240.191	-5.14
240.662	-3.14
241.132	-6.34
241.602	-6.54
242.072	1.06
242.542	3.06
243.013	0.96
243.483	0.96
243.953	-1.04
244.423	-3.04
244.893	-5.24
245.363	-0.84
245.833	-3.64
246.303	-2.64
246.773	3.86
247.243	-6.24
247.712	-2.64
248.182	-1.04
248.652	3.46
249.122	-10.84
249.592	3.66
250.061	1.16
250.531	9.66
251.001	-0.54
251.471	6.36
251.94	6.26
252.41	0.96
252.879	-2.24
253.349	10.16
253.818	-1.74
254.288	2.06
254.757	-2.94
255.227	-8.24
255.696	-1.74
256.166	10.16
256.635	6.36
257.105	5.86
257.574	3.46
258.043	6.46
258.513	2.16
258.982	-0.04
259.451	-5.64
259.92	3.26
260.389	0.06
260.859	4.96
261.328	-2.54
261.797	3.66
262.266	0.86
262.735	4.26
263.204	7.26
263.673	1.76
264.142	4.36
264.611	-4.64
265.08	-1.44
265.549	-3.94
266.018	5.76
266.487	-1.64
266.955	-2.14
267.424	-8.54
267.893	6.16
268.362	-0.84
268.83	4.16
269.299	3.26
269.768	-5.14
270.236	4.76
270.705	1.66
271.174	5.06
271.642	4.96
272.111	9.46
272.579	2.26
273.048	6.46
273.516	7.46
273.985	7.96
274.453	4.06
274.922	14.56
275.39	7.76
275.858	-3.14
276.327	14.16
276.795	10.96
277.263	4.96
277.731	9.56
278.2	10.56
278.668	9.86
279.136	5.96
279.604	6.26
280.072	13.46
280.54	9.86
281.008	7.16
281.477	16.36
281.945	12.26
282.413	11.36
282.881	7.46
283.348	6.16
283.816	13.56
284.284	13.56
284.752	12.26
285.22	5.96
285.688	12.86
286.156	8.46
286.623	18.06
287.091	8.46
287.559	16.36
288.026	11.66
288.494	10.86
288.962	1.36
289.429	10.46
289.897	10.36
290.364	11.96
290.832	12.86
291.3	11.86
291.767	11.86
292.234	14.06
292.702	15.56
293.169	15.46
293.637	15.76
294.104	16.36
294.571	-0.74
295.039	8.56
295.506	9.06
295.973	16.66
296.44	10.86
296.908	15.86
297.375	10.66
297.842	14.26
298.309	13.26
298.776	5.26
299.243	15.96
299.71	6.66
300.177	18.46
300.644	19.56
301.111	16.86
301.578	16.06
302.045	12.56
302.512	17.56
302.979	25.96
303.446	22.16
303.913	15.26
304.379	15.56
304.846	24.26
305.313	18.66
305.78	17.46
306.246	16.36
306.713	22.56
307.18	20.56
307.646	26.66
308.113	24.16
308.579	21.16
309.046	26.46
309.512	20.36
309.979	15.46
310.445	23.56
310.912	29.26
311.378	29.36
311.845	28.56
312.311	28.06
312.777	32.66
313.244	30.06
313.71	30.96
314.176	26.96
314.642	21.06
315.109	28.76
315.575	33.56
316.041	39.66
316.507	21.56
316.973	27.56
317.439	34.56
317.905	31.16
318.371	29.16
318.837	28.96
319.303	28.46
319.769	27.06
320.235	31.26
320.701	29.66
321.167	32.66
321.633	25.76
322.099	25.26
322.564	37.66
323.03	36.96
323.496	33.86
323.962	34.76
324.427	30.76
324.893	33.36
325.359	38.36
325.824	39.06
326.29	30.66
326.755	35.26
327.221	42.46
327.686	37.06
328.152	48.46
328.617	40.66
329.083	44.16
329.548	49.76
330.014	36.96
330.479	37.16
330.944	40.46
331.41	34.66
331.875	41.86
332.34	45.96
332.805	42.36
333.271	45.56
333.736	36.86
334.201	43.16
334.666	49.96
335.131	47.46
335.596	47.26
336.061	43.76
336.526	33.06
336.991	44.26
337.456	50.06
337.921	45.56
338.386	36.16
338.851	44.46
339.316	46.56
339.781	41.86
340.246	50.96
340.711	45.26
341.175	47.16
341.64	36.36
342.105	51.26
342.569	50.26
343.034	57.86
343.499	56.66
343.963	51.66
344.428	60.66
344.893	57.06
345.357	53.16
345.822	58.66
346.286	60.16
346.751	68.26
347.215	57.56
347.679	69.66
348.144	87.76
348.608	74.36
349.073	64.26
349.537	68.76
350.001	73.56
350.465	82.96
350.93	77.46
351.394	78.96
351.858	71.26
352.322	80.46
352.786	79.56
353.25	83.06
353.715	98.06
354.179	91.86
354.643	111.46
355.107	112.76
355.571	92.06
356.035	91.06
356.498	102.36
356.962	106.06
357.426	108.76
357.89	105.76
358.354	84.96
358.818	79.76
359.281	74.86
359.745	68.56
360.209	66.06
360.673	68.66
361.136	78.46
361.6	76.66
362.064	76.46
362.527	74.66
362.991	83.86
363.454	71.76
363.918	73.86
364.381	79.86
364.845	77.76
365.308	78.26
365.772	80.66
366.235	85.16
366.698	76.16
367.162	79.06
367.625	82.66
368.088	84.36
368.552	87.76
369.015	86.46
369.478	87.66
369.941	88.36
370.404	89.76
370.867	97.36
371.331	100.36
371.794	104.86
372.257	89.56
372.72	98.96
373.183	90.46
373.646	95.66
374.109	92.76
374.572	91.36
375.035	97.66
375.497	103.66
375.96	95.36
376.423	105.76
376.886	102.26
377.349	102.06
377.811	102.96
378.274	105.76
378.737	102.56
379.199	108.46
379.662	110.96
380.125	111.16
380.587	106.86
381.05	111.66
381.512	117.56
381.975	118.46
382.437	117.56
382.9	108.56
383.362	120.16
383.825	122.66
384.287	122.46
384.75	120.56
385.212	123.46
385.674	124.06
386.136	125.06
386.599	118.86
387.061	124.96
387.523	119.96
387.985	122.76
388.447	135.86
388.91	126.46
389.372	129.56
389.834	118.16
390.296	126.66
390.758	131.56
391.22	135.06
391.682	140.76
392.144	150.56
392.606	141.06
393.068	138.16
393.529	151.76
393.991	133.26
394.453	132.46
394.915	137.26
395.377	135.66
395.838	136.46
396.3	132.06
396.762	144.96
397.224	132.36
397.685	131.36
398.147	132.36
398.608	128.66
399.07	133.16
399.531	139.16
399.993	146.36
400.454	158.96
400.916	137.06
401.377	155.26
401.839	147.66
402.3	152.96
402.762	168.66
403.223	181.16
403.684	170.36
404.145	163.26
404.607	157.26
405.068	163.36
405.529	174.16
405.99	183.56
406.451	168.36
406.913	172.06
407.374	166.36
407.835	162.66
408.296	165.26
408.757	175.86
409.218	184.06
409.679	184.76
410.14	168.36
410.601	177.16
411.062	181.36
411.522	180.56
411.983	179.66
412.444	175.96
412.905	175.16
413.366	182.66
413.826	201.56
414.287	221.86
414.748	272.56
415.208	260.66
415.669	224.06
416.13	210.16
416.59	204.86
417.051	224.26
417.511	226.06
417.972	241.96
418.432	260.46
418.893	295.96
419.353	262.66
419.814	204.26
420.274	190.86
420.734	182.96
421.195	195.56
421.655	198.06
422.115	194.96
422.576	200.16
423.036	209.66
423.496	218.96
423.956	224.16
424.416	234.56
424.876	271.26
425.336	269.56
425.797	264.36
426.257	263.36
426.717	248.66
427.177	240.46
427.637	231.06
428.097	240.36
428.556	244.26
429.016	270.16
429.476	270.36
429.936	269.46
430.396	278.26
430.856	290.56
431.315	320.16
431.775	346.36
432.235	373.16
432.694	349.86
433.154	358.06
433.614	380.86
434.073	336.96
434.533	285.26
434.993	263.06
435.452	289.76
435.912	295.66
436.371	286.56
436.83	273.86
437.29	271.76
437.749	251.36
438.209	252.76
438.668	275.56
439.127	293.86
439.587	274.66
440.046	253.76
440.505	272.16
440.964	291.36
441.424	324.96
441.883	320.76
442.342	272.36
442.801	229.56
443.26	229.96
443.719	231.76
444.178	233.06
444.637	221.96
445.096	224.66
445.555	236.16
446.014	230.16
446.473	246.76
446.932	245.36
447.391	240.56
447.849	241.46
448.308	235.76
448.767	234.26
449.226	252.56
449.685	252.96
450.143	260.66
450.602	250.66
451.061	239.96
451.519	244.26
451.978	248.06
452.436	245.76
452.895	253.56
453.353	262.06
453.812	248.76
454.27	252.26
454.729	250.26
455.187	251.56
455.646	260.76
456.104	259.16
456.562	273.36
457.021	282.06
457.479	267.66
457.937	285.36
458.395	278.26
458.854	270.86
459.312	265.36
459.77	292.06
460.228	272.16
460.686	256.16
461.144	263.26
461.602	255.86
462.06	260.36
462.518	272.76
462.976	271.86
463.434	280.36
463.892	279.46
464.35	291.46
464.808	304.56
465.266	281.46
465.724	282.46
466.181	285.76
466.639	290.26
467.097	313.76
467.555	326.26
468.012	320.86
468.47	328.76
468.928	346.26
469.385	359.46
469.843	368.26
470.3	367.86
470.758	380.46
471.215	407.16
471.673	430.56
472.13	422.46
472.588	448.16
473.045	390.56
473.503	395.96
473.96	411.86
474.417	430.36
474.875	455.16
475.332	502.16
475.789	490.86
476.246	487.96
476.704	499.06
477.161	522.46
477.618	551.66
478.075	582.06
478.532	640.96
478.989	708.56
479.446	816.86
479.903	782.46
480.36	811.06
480.817	861.66
481.274	947.96
481.731	1052.66
482.188	1122.36
482.645	1242.16
483.102	1345.26
483.558	1474.16
484.015	1503.56
484.472	1473.16
484.929	1431.46
485.385	1388.26
485.842	1363.36
486.299	1310.16
486.755	1262.56
487.212	1080.06
487.668	936.86
488.125	873.06
488.582	793.56
489.038	767.06
489.494	732.86
489.951	708.46
490.407	696.26
490.864	670.26
491.32	670.76
491.776	674.36
492.233	669.96
492.689	645.46
493.145	634.66
493.602	621.86
494.058	641.26
494.514	635.46
494.97	664.56
495.426	684.86
495.882	646.16
496.338	645.06
496.794	654.36
497.251	641.66
497.707	670.06
498.163	671.86
498.618	679.16
499.074	678.96
499.53	700.26
499.986	698.96
500.442	675.46
500.898	653.66
501.354	640.26
501.809	659.16
502.265	649.76
502.721	668.36
503.177	672.86
503.632	675.96
504.088	680.46
504.543	695.46
504.999	725.66
505.455	699.86
505.91	675.56
506.366	669.06
506.821	661.86
507.277	667.86
507.732	668.06
508.187	670.86
508.643	678.36
509.098	673.56
509.553	690.16
510.009	705.26
510.464	721.56
510.919	727.56
511.375	736.96
511.83	747.06
512.285	766.16
512.74	796.16
513.195	831.96
513.65	812.86
514.105	814.06
514.56	807.66
515.015	820.56
515.47	842.46
515.925	826.66
516.38	834.66
516.835	829.86
517.29	825.56
517.745	830.36
518.2	804.46
518.655	788.36
519.109	790.56
519.564	778.86
520.019	772.16
520.474	762.26
520.928	769.46
521.383	767.66
521.838	758.86
522.292	756.66
522.747	743.06
523.201	747.96
523.656	741.86
524.11	741.66
524.565	737.56
525.019	730.76
525.474	739.46
525.928	733.16
526.382	736.86
526.837	726.46
527.291	746.46
527.745	736.06
528.2	744.46
528.654	725.16
529.108	724.96
529.562	731.36
530.016	733.36
530.47	734.16
530.925	729.26
531.379	727.76
531.833	737.66
532.287	733.66
532.741	741.76
533.195	752.96
533.649	753.66
534.103	752.96
534.556	741.26
535.01	750.66
535.464	744.56
535.918	748.76
536.372	754.76
536.826	761.86
537.279	742.46
537.733	749.46
538.187	750.16
538.64	747.66
539.094	760.36
539.548	765.76
540.001	766.46
540.455	758.26
540.908	773.26
541.362	770.36
541.815	786.66
542.269	802.16
542.722	807.76
543.175	811.56
543.629	805.76
544.082	834.86
544.536	832.46
544.989	819.56
545.442	838.56
545.895	839.16
546.349	835.76
546.802	846.46
547.255	842.86
547.708	852.76
548.161	853.16
548.614	868.76
549.067	881.66
549.52	862.56
549.973	863.06
550.426	866.06
550.879	841.96
551.332	845.46
551.785	863.36
552.238	869.96
552.691	877.56
553.144	883.16
553.596	890.16
554.049	920.76
554.502	941.66
554.955	962.56
555.407	959.46
555.86	955.96
556.313	945.86
556.765	929.06
557.218	929.66
557.67	932.56
558.123	915.36
558.576	922.16
559.028	934.86
559.48	944.56
559.933	923.66
560.385	888.66
560.838	857.66
561.29	820.36
561.742	828.56
562.195	811.96
562.647	812.56
563.099	812.16
563.551	816.76
564.004	821.96
564.456	814.86
564.908	808.86
565.36	785.16
565.812	770.36
566.264	759.66
566.716	759.16
567.168	739.46
567.62	738.06
568.072	734.46
568.524	739.46
568.976	726.96
569.428	708.36
569.88	710.26
570.332	732.96
570.784	724.16
571.235	723.66
571.687	743.36
572.139	744.86
572.59	750.56
573.042	752.56
573.494	745.76
573.945	751.36
574.397	722.56
574.849	731.36
575.3	733.76
575.752	719.76
576.203	721.66
576.655	726.56
577.106	712.36
577.557	701.26
578.009	703.46
578.46	701.26
578.912	697.86
579.363	702.56
579.814	707.16
580.265	708.16
580.717	714.46
581.168	711.06
581.619	717.26
582.07	739.96
582.521	713.56
582.972	701.06
583.423	718.46
583.875	711.56
584.326	721.06
584.777	732.86
585.227	759.76
585.678	776.26
586.129	781.56
586.58	808.26
587.031	827.26
587.482	870.36
587.933	900.96
588.384	868.06
588.834	834.16
589.285	812.36
589.736	819.06
590.186	810.96
590.637	801.96
591.088	771.46
591.538	776.56
591.989	764.86
592.439	757.26
592.89	748.86
593.34	739.96
593.791	735.76
594.241	731.96
594.692	726.06
595.142	732.56
595.593	732.36
596.043	739.36
596.493	746.86
596.943	739.36
597.394	759.86
597.844	764.96
598.294	774.66
598.744	792.66
599.195	829.16
599.645	861.76
600.095	907.46
600.545	962.76
600.995	1014.06
601.445	1068.16
601.895	1139.96
602.345	1195.96
602.795	1170.56
603.245	1129.66
603.695	1065.06
604.145	1017.16
604.594	960.46
605.044	899.56
605.494	843.96
605.944	786.36
606.393	778.96
606.843	772.46
607.293	756.36
607.743	759.36
608.192	772.66
608.642	776.26
609.091	783.76
609.541	801.66
609.99	791.76
610.44	794.06
610.889	748.76
611.339	721.56
611.788	715.46
612.238	719.76
612.687	726.86
613.136	724.36
613.586	732.76
614.035	722.06
614.484	739.86
614.933	741.66
615.383	730.66
615.832	736.16
616.281	725.86
616.73	698.76
617.179	682.06
617.628	679.46
618.077	662.16
618.526	649.16
618.975	646.46
619.424	640.56
619.873	641.26
620.322	640.06
620.771	631.26
621.22	636.16
621.669	617.76
622.118	606.26
622.567	603.46
623.015	589.96
623.464	591.96
623.913	584.66
624.361	582.16
624.81	579.26
625.259	570.36
625.707	577.26
626.156	573.26
626.604	595.66
627.053	589.66
627.501	584.76
627.95	596.66
628.398	608.16
628.847	589.36
629.295	598.26
629.744	602.56
630.192	592.36
630.64	583.86
631.089	575.06
631.537	553.46
631.985	550.86
632.433	558.66
632.881	546.16
633.33	556.76
633.778	546.16
634.226	543.16
634.674	562.86
635.122	566.16
635.57	567.76
636.018	584.36
636.466	588.26
636.914	583.86
637.362	590.06
637.81	603.16
638.258	605.26
638.705	600.06
639.153	634.26
639.601	647.36
640.049	676.76
640.497	704.36
640.944	723.06
641.392	677.76
641.84	632.86
642.287	605.96
642.735	575.86
643.182	579.16
643.63	582.26
644.078	585.56
644.525	596.26
644.973	601.86
645.42	619.16
645.867	635.16
646.315	645.26
646.762	678.96
647.21	707.26
647.657	722.76
648.104	757.06
648.551	775.36
648.999	835.76
649.446	906.96
649.893	999.86
650.34	1144.46
650.787	1363.26
651.234	1654.26
651.682	2138.76
652.129	2897.76
652.576	4103.26
653.023	5991.66
653.47	8088.16
653.917	10076.36
654.363	11594.56
654.81	12831.76
655.257	12141.16
655.704	8051.66
656.151	4852.76
656.598	3187.86
657.044	2284.86
657.491	1784.76
657.938	1449.46
658.385	1209.66
658.831	1061.86
659.278	949.96
659.724	850.16
660.171	793.26
660.618	724.06
661.064	694.26
661.511	677.16
661.957	663.16
662.404	659.96
662.85	674.36
663.296	642.16
663.743	580.66
664.189	552.16
664.635	552.26
665.082	536.96
665.528	541.86
665.974	534.66
666.42	522.86
666.867	524.86
667.313	501.16
667.759	489.56
668.205	469.36
668.651	470.36
669.097	468.26
669.543	453.16
669.989	464.06
670.435	462.06
670.881	472.46
671.327	463.86
671.773	492.96
672.219	509.86
672.665	575.36
673.11	613.26
673.556	663.06
674.002	700.26
674.448	684.46
674.893	577.76
675.339	507.06
675.785	461.06
676.23	437.16
676.676	407.96
677.122	403.46
677.567	394.06
678.013	385.16
678.458	373.66
678.904	380.56
679.349	367.76
679.794	382.76
680.24	366.26
680.685	364.56
681.131	365.96
681.576	367.46
682.021	362.16
682.466	363.36
682.912	363.96
683.357	375.96
683.802	401.06
684.247	430.36
684.692	474.16
685.137	522.36
685.583	562.66
686.028	589.36
686.473	541.56
686.918	472.06
687.363	433.66
687.807	406.76
688.252	373.66
688.697	370.66
689.142	353.46
689.587	356.76
690.032	344.16
690.477	362.06
690.921	369.56
691.366	404.46
691.811	432.76
692.255	454.56
692.7	481.06
693.145	519.46
693.589	736.56
694.034	1189.56
694.478	1624.26
694.923	1838.86
695.367	2375.06
695.812	1256.56
696.256	522.36
696.701	393.46
697.145	363.36
697.59	343.36
698.034	341.66
698.478	346.86
698.922	330.96
699.367	340.16
699.811	347.86
700.255	361.36
700.699	399.26
701.143	442.56
701.588	491.36
702.032	536.86
702.476	526.76
702.92	507.76
703.364	516.46
703.808	674.86
704.252	1087.86
704.696	1526.66
705.14	1755.76
705.584	2243.66
706.027	1117.06
706.471	550.36
706.915	412.06
707.359	368.76
707.803	339.36
708.246	317.76
708.69	334.56
709.134	318.76
709.577	326.16
710.021	328.76
710.465	320.16
710.908	310.06
711.352	303.36
711.795	324.96
712.239	367.76
712.682	403.56
713.126	434.96
713.569	477.56
714.012	371.06
714.456	315.96
714.899	300.46
715.342	282.76
715.786	278.26
716.229	273.06
716.672	268.16
717.115	260.56
717.558	263.46
718.002	260.66
718.445	272.26
718.888	302.36
719.331	310.96
719.774	321.56
720.217	313.46
720.66	292.66
721.103	283.56
721.546	261.76
721.989	262.46
722.432	244.06
722.874	249.56
723.317	238.26
723.76	246.16
724.203	269.86
724.645	327.86
725.088	470.86
725.531	596.56
725.974	673.06
726.416	568.86
726.859	322.06
727.301	256.76
727.744	255.76
728.187	246.86
728.629	254.06
729.071	255.66
729.514	272.36
729.956	287.96
730.399	295.96
730.841	298.46
731.283	285.06
731.726	272.46
732.168	267.26
732.61	286.56
733.053	302.56
733.495	335.76
733.937	366.76
734.379	413.96
734.821	454.26
735.263	575.86
735.705	884.36
736.148	1669.26
736.59	2737.46
737.032	3232.16
737.474	2598.96
737.916	853.66
738.357	446.06
738.799	343.46
739.241	306.76
739.683	301.66
740.125	308.76
740.567	317.16
741.008	327.66
741.45	330.16
741.892	331.06
742.334	371.76
742.775	375.16
743.217	365.06
743.658	289.66
744.1	271.76
744.542	286.76
744.983	328.96
745.425	367.06
745.866	357.16
746.307	286.26
746.749	294.36
747.19	337.86
747.632	482.66
748.073	934.06
748.514	1964.66
748.956	3007.36
749.397	3777.46
749.838	3149.46
750.279	3108.06
750.72	1569.66
751.162	578.86
751.603	338.96
752.044	260.56
752.485	230.06
752.926	219.96
753.367	210.76
753.808	204.26
754.249	200.56
754.69	195.66
755.131	192.06
755.572	196.36
756.013	192.06
756.453	191.06
756.894	196.26
757.335	204.66
757.776	206.76
758.216	202.16
758.657	203.36
759.098	210.46
759.538	230.66
759.979	285.46
760.42	398.56
760.86	746.86
761.301	1948.66
761.741	4692.16
762.182	6757.56
762.622	4777.66
763.063	1394.46
763.503	568.66
763.943	360.76
764.384	285.46
764.824	264.86
765.264	251.86
765.705	226.46
766.145	191.66
766.585	182.36
767.025	174.66
767.465	170.26
767.906	190.36
768.346	209.36
768.786	214.96
769.226	235.36
769.666	316.36
770.106	652.26
770.546	1637.96
770.986	2760.46
771.426	2485.76
771.866	832.06
772.306	347.86
772.745	213.86
773.185	171.56
773.625	168.96
774.065	161.66
774.505	169.16
774.944	212.16
775.384	378.26
775.824	621.76
776.263	601.36
776.703	296.46
777.142	171.86
777.582	143.16
778.021	124.06
778.461	132.86
778.9	135.26
779.34	129.76
779.779	116.96
780.219	110.66
780.658	110.46
781.097	114.46
781.537	113.86
781.976	116.36
782.415	104.96
782.855	110.76
783.294	111.46
783.733	114.36
784.172	110.66
784.611	108.76
785.05	114.56
785.489	109.96
785.928	123.06
786.367	129.56
786.806	131.86
787.245	133.76
787.684	133.16
788.123	154.66
788.562	141.46
789.001	133.86
789.44	121.06
789.879	121.46
790.317	123.66
790.756	140.86
791.195	137.86
791.634	159.76
792.072	208.06
792.511	389.86
792.95	1050.26
793.388	2233.06
793.827	2008.86
794.265	706.46
794.704	294.06
795.142	190.06
795.581	160.26
796.019	138.86
796.458	131.26
796.896	132.56
797.334	137.86
797.773	169.26
798.211	232.86
798.649	458.96
799.087	1070.26
799.526	1680.26
799.964	2110.76
800.402	2120.96
800.84	795.56
801.278	310.46
801.716	202.56
802.154	162.76
802.592	158.96
803.03	146.86
803.468	143.96
803.906	152.26
804.344	158.86
804.782	149.86
805.22	144.06
805.658	139.96
806.096	156.06
806.533	167.96
806.971	186.96
807.409	230.76
807.847	335.76
808.284	703.46
808.722	1977.86
809.16	3463.36
809.597	3328.56
810.035	5716.96
810.472	6096.96
810.91	2221.76
811.347	840.06
811.785	423.66
812.222	271.06
812.66	211.26
813.097	173.36
813.535	142.76
813.972	138.26
814.409	120.46
814.846	117.26
815.284	115.76
815.721	106.56
816.158	108.96
816.595	113.06
817.032	162.96
817.47	193.76
817.907	150.96
818.344	112.16
818.781	100.46
819.218	100.16
819.655	126.76
820.092	193.86
820.529	226.16
820.966	180.56
821.403	131.56
821.839	100.86
822.276	99.76
822.713	123.66
823.15	148.56
823.587	121.96
824.023	155.16
824.46	312.76
824.897	949.36
825.333	1430.46
825.77	608.06
826.206	243.96
826.643	137.66
827.08	117.66
827.516	91.46
827.953	84.96
828.389	84.36
828.825	74.66
829.262	67.16
829.698	66.56
830.135	72.46
830.571	68.96
831.007	62.26
831.443	68.36
831.88	76.16
832.316	67.96
832.752	66.16
833.188	72.56
833.624	72.26
834.06	67.36
834.497	68.96
834.933	77.46
835.369	76.46
835.805	70.16
836.241	80.96
836.677	79.76
837.112	96.36
837.548	102.36
837.984	148.36
838.42	209.46
838.856	530.76
839.292	1593.46
839.727	2424.06
840.163	1131.06
840.599	981.56
841.034	2124.16
841.47	2227.06
841.906	817.96
842.341	351.56
842.777	207.86
843.212	213.06
843.648	202.36
844.083	115.96
844.519	92.36
844.954	78.36
845.39	69.96
845.825	60.96
846.261	68.26
846.696	59.16
847.131	57.96
847.566	64.76
848.002	56.56
848.437	57.36
848.872	66.36
849.307	63.16
849.742	89.76
850.177	188.36
850.613	582.06
851.048	924.86
851.483	395.66
851.918	162.96
852.353	94.06
852.788	63.36
853.223	59.06
853.657	61.56
854.092	48.46
854.527	41.86
854.962	40.76
855.397	43.46
855.832	47.06
856.266	45.46
856.701	45.16
857.136	42.16
857.57	44.36
858.005	49.56
858.44	58.86
858.874	47.26
859.309	60.16
859.743	42.66
860.178	52.06
860.612	46.06
861.047	53.96
861.481	73.06
861.915	80.26
862.35	56.86
862.784	41.46
863.218	43.16
863.653	45.06
864.087	47.96
864.521	57.76
864.955	71.36
865.39	158.26
865.824	187.66
866.258	123.56
866.692	181.16
867.126	189.56
867.56	107.96
867.994	54.06
868.428	42.66
868.862	54.06
869.296	58.26
869.73	61.96
870.164	54.96
870.598	54.66
871.031	37.16
871.465	39.06
871.899	33.26
872.333	22.06
872.766	31.16
873.2	29.36
873.634	34.36
874.067	27.36
874.501	25.36
874.935	36.66
875.368	34.76
875.802	32.36
876.235	21.36
876.669	24.66
877.102	29.36
877.535	29.96
877.969	26.16
878.402	23.76
878.836	17.26
879.269	25.06
879.702	23.56
880.135	20.36
880.569	23.76
881.002	33.16
881.435	28.56
881.868	19.76
882.301	27.26
882.734	23.56
883.167	24.96
883.601	22.56
884.034	20.46
884.467	19.16
884.899	19.76
885.332	16.46
885.765	21.46
886.198	22.66
886.631	20.86
887.064	18.66
887.497	26.96
887.929	28.26
888.362	11.76
888.795	12.56
889.228	12.26
889.66	25.56
890.093	19.16
890.526	20.66
890.958	20.86
891.391	19.36
891.823	19.96
892.256	15.06
892.688	14.26
893.121	12.06
893.553	17.46
893.985	25.16
894.418	15.36
894.85	16.16
895.282	15.56
895.715	20.16
896.147	14.66
896.579	14.06
897.011	19.66
897.444	23.66
897.876	12.76
898.308	22.46
898.74	15.56
899.172	14.06
899.604	23.16
900.036	25.36
900.468	20.26
900.9	11.86
901.332	16.36
901.764	17.66
902.196	20.26
902.628	23.06
903.06	19.46
903.491	32.16
903.923	23.86
904.355	21.56
904.787	24.96
905.218	25.76
905.65	22.56
906.082	19.46
906.513	20.66
906.945	15.06
907.376	14.16
907.808	19.36
908.239	22.36
908.671	25.46
909.102	25.96
909.534	25.86
909.965	46.56
910.397	96.56
910.828	333.26
911.259	502.56
911.691	223.46
912.122	108.66
912.553	57.06
912.984	40.66
913.415	28.16
913.847	27.06
914.278	18.16
914.709	18.86
915.14	21.16
915.571	22.26
916.002	13.06
916.433	19.76
916.864	21.76
917.295	8.26
917.726	20.36
918.157	18.46
918.587	32.96
919.018	22.06
919.449	23.66
919.88	26.96
920.311	34.06
920.741	52.46
921.172	175.26
921.603	155.56
922.033	78.76
922.464	49.16
922.895	25.36
923.325	22.86
923.756	13.46
924.186	12.66
924.617	12.56
925.047	30.06
925.478	29.36
925.908	22.66
926.338	17.96
926.769	10.46
927.199	16.16
927.629	6.56
928.06	12.96
928.49	10.96
928.92	15.56
929.35	14.36
929.78	4.96
930.21	7.06
930.641	11.96
931.071	13.16
931.501	0.66
931.931	13.76
932.361	7.56
932.791	9.06
933.221	6.16
933.651	1.06
934.08	15.46
934.51	29.16
934.94	12.06
935.37	13.16
935.8	14.96
936.229	7.96
936.659	11.66
937.089	6.66
937.519	14.46
937.948	28.06
938.378	20.46
938.807	8.56
939.237	-0.54
939.666	8.86
940.096	0.26
940.525	1.76
940.955	2.96
941.384	6.56
941.814	-3.74
942.243	0.66
942.672	3.96
943.102	0.76
943.531	-2.14
943.96	8.66
944.39	4.86
944.819	-1.64
945.248	3.56
945.677	2.86
946.106	4.46
946.535	8.36
946.964	-0.44
947.393	4.26
947.822	-2.24
948.251	-5.04
948.68	2.36
949.109	7.56
949.538	5.16
949.967	-1.84
950.396	9.46
950.825	2.86
951.254	2.96
951.682	-1.84
952.111	2.36
952.54	7.96
952.969	-2.04
953.397	-10.14
953.826	2.66
954.254	1.16
954.683	-1.64
955.112	4.56
955.54	1.06
955.969	3.46
956.397	0.56
956.826	0.46
957.254	3.06
957.682	4.06
958.111	5.16
958.539	-0.84
958.967	3.06
959.396	-3.54
959.824	4.76
960.252	1.56
960.68	0.66
961.109	-0.74
961.537	-4.44
961.965	-1.04
962.393	3.06
962.821	-1.84
963.249	-2.04
963.677	1.96
964.105	4.46
964.533	50.26
964.961	42.36
965.389	21.36
965.817	14.36
966.245	0.56
966.672	2.96
967.1	-8.84
967.528	0.06
967.956	-2.14
968.383	-2.94
968.811	-3.14
969.239	-1.34
969.666	-6.94
970.094	2.56
970.522	7.56
970.949	0.86
971.377	-0.24
971.804	-1.94
972.232	3.36
972.659	2.86
973.087	8.26
973.514	-1.04
973.941	-3.44
974.369	7.76
974.796	1.16
975.223	3.66
975.651	-5.74
976.078	3.76
976.505	-1.74
976.932	2.46
977.359	10.06
977.786	15.56
978.214	4.16
978.641	0.66
979.068	-2.74
979.495	-10.34
979.922	1.06
980.349	-0.54
980.776	5.46
981.202	1.76
981.629	3.56
982.056	8.46
982.483	-4.64
982.91	7.26
983.337	0.26
983.763	4.36
984.19	-3.64
984.617	0.76
985.043	-4.74
985.47	-1.94
985.897	1.76
986.323	-6.04
986.75	3.26
987.176	-1.74
987.603	0.46
988.029	2.06
988.456	-3.94
988.882	4.96
989.308	-3.54
989.735	-7.24
990.161	-3.34
990.587	-3.24
991.014	-2.74
991.44	10.36
991.866	3.26
992.292	-2.84
992.719	-0.64
993.145	1.46
993.571	-11.64
993.997	-4.54
994.423	-6.44
994.849	-7.24
995.275	2.76
995.701	1.36
996.127	-1.54
996.553	6.26
996.979	-0.54
997.405	1.56
997.83	0.66
998.256	-3.04
998.682	-2.74
999.108	-5.64
999.534	-3.24
999.959	-4.74
1000.385	-3.04
1000.811	4.36
1001.236	-6.04
1001.662	-3.84
1002.087	-4.74
1002.513	1.36
1002.938	3.06
1003.364	-0.94
1003.789	3.16
1004.215	-0.24
1004.64	-2.74
1005.066	1.96
1005.491	2.16
1005.916	4.16
1006.342	-2.24
1006.767	-11.84
1007.192	-0.34
1007.617	-3.34
1008.042	-0.14
1008.468	-2.84
1008.893	-3.44
1009.318	-2.84
1009.743	-1.94
1010.168	4.66
1010.593	7.06
1011.018	-4.14
1011.443	4.46
1011.868	-2.04
1012.293	-5.04
1012.718	-6.04
1013.143	-1.14
1013.567	-0.64
1013.992	-3.24
1014.417	-11.44
1014.842	-2.14
1015.267	-7.54
1015.691	4.26
1016.116	9.86
1016.541	4.66
1016.965	6.26
1017.39	1.96
1017.814	4.76
1018.239	-5.74
1018.663	-6.04
1019.088	-10.54
1019.512	-3.94
1019.937	1.96
1020.361	-0.94
1020.785	-6.94
1021.21	-2.44
1021.634	2.16
1022.058	3.66
1022.483	-0.34
1022.907	-2.94
1023.331	-4.04
1023.755	-2.94
1024.179	-3.94
1024.604	-5.94
1025.028	-6.14
1025.452	-8.04
1025.876	1.36
1026.3	4.66
1026.724	-7.64
1027.148	-5.34
1027.572	-3.74
1027.996	-4.54
1028.42	-0.14
1028.843	-1.74
1029.267	-7.64
1029.691	-0.44
1030.115	-6.74
1030.539	-5.34
1030.962	-7.84
1031.386	-3.74
1031.81	-0.24
1032.233	-6.44
1032.657	2.36
1033.08	-1.64
1033.504	-3.64
1033.927	-5.24
1034.351	0.16
1034.774	-10.04
1035.198	-2.84
1035.621	-4.74
1036.045	-2.34
1036.468	5.86
1036.891	-4.64
1037.315	-2.14
1037.738	-10.84
1038.161	-0.54
1038.584	-8.74
1039.008	-4.04
1039.431	-2.64
1039.854	-1.34
1040.277	-5.14
1040.7	-12.24
1041.123	3.46
1041.546	-8.24
1041.969	-3.64
1042.392	-2.64
1042.815	0.56
1043.238	5.36
1043.661	0.86
1044.084	-4.94
1044.507	2.66
1044.93	-9.14
1045.352	-9.24
1045.775	3.46
1046.198	-1.94
1046.621	0.16
1047.043	-2.14
1047.466	6.86
1047.889	-2.34
1048.311	-1.34
1048.734	0.46
1049.156	-1.14
1049.579	0.46
1050.001	-1.64
1050.424	11.06
1050.846	-3.94
1051.269	-3.74
1051.691	-5.54
1052.113	-1.84
1052.536	-2.04
1052.958	-2.14
1053.38	-7.94
1053.802	-12.54
1054.225	2.76
1054.647	-7.94
1055.069	-2.24
1055.491	3.56
1055.913	-8.84
1056.335	-0.94
1056.757	-3.04
1057.179	-5.64
1057.601	-7.24
1058.023	-0.84
1058.445	-5.54
1058.867	-8.74
1059.289	-5.94
1059.711	-9.04
1060.133	-3.74
1060.555	-1.24
1060.976	-4.34
1061.398	-4.34
1061.82	-3.74
1062.241	-10.64
1062.663	-12.54
1063.085	-4.64
1063.506	0.46
1063.928	-6.74
1064.35	-2.74
1064.771	-2.44
1065.193	-1.24
1065.614	-4.14
1066.035	-3.64
1066.457	-5.84
1066.878	2.86
1067.3	-1.84
1067.721	-5.04
1068.142	-10.14
1068.564	-3.34
1068.985	-4.04
1069.406	4.16
1069.827	-3.64
1070.248	2.46
1070.67	-1.14
1071.091	-5.44
1071.512	0.76
1071.933	-4.44
1072.354	-5.34
1072.775	-4.44
1073.196	1.26
1073.617	-0.64
1074.038	-4.14
1074.459	-5.54
1074.88	-12.24
1075.3	1.16
1075.721	-9.94
1076.142	2.26
1076.563	5.56
1076.983	-6.64
1077.404	-2.24
1077.825	-5.04
1078.246	-3.74
1078.666	-14.14
1079.087	-6.34
1079.507	-5.14
1079.928	0.86
1080.348	-0.54
1080.769	-4.44
1081.189	-0.94
1081.61	0.06
1082.03	-1.64
1082.451	-8.74
1082.871	-0.34
1083.291	-5.04
1083.711	-9.44
1084.132	-9.84
1084.552	0.16
1084.972	5.06
1085.392	-9.54
1085.813	-6.84
1086.233	-2.64
1086.653	-4.54
1087.073	-3.74
1087.493	-3.14
1087.913	-6.94
1088.333	-7.54
1088.753	-2.04
1089.173	0.76
1089.593	-0.74
1090.013	-8.74
1090.433	2.56
1090.852	-0.44
1091.272	-0.84
1091.692	1.06
1092.112	-0.64
1092.531	-7.74
1092.951	-11.24
1093.371	-3.44
1093.79	0.56
1094.21	-5.84
1094.63	-6.84
1095.049	-3.14
1095.469	-2.14
1095.888	2.56
1096.308	6.56
1096.727	6.46
1097.146	-7.84
1097.566	-5.14
1097.985	-9.14
1098.405	0.76
1098.824	-6.54
1099.243	-5.64
1099.662	-3.54
1100.082	-6.04
1100.501	-0.14
1100.92	-2.24
1101.339	1.16
1101.758	-3.54
