Data from 20171114-ORNL-Ar_H_NY_Subt18_08-04-53-109.txt Node
Date: Tue Nov 14 08:04:53 EST 2017
User: Ender
Spectrometer: HR+D1039
Trigger mode: 0
Integration Time (sec): 2.730000E-2
Scans to average: 10
Electric dark correction enabled: true
Nonlinearity correction enabled: false
Boxcar width: 0
XAxis mode: Wavelengths
Number of Pixels in Spectrum: 2048
>>>>>Begin Spectral Data<<<<<
187.836	-4.11
188.309	-4.11
188.782	-4.11
189.255	2.09
189.728	0.59
190.201	3.29
190.674	-0.71
191.147	3.89
191.619	-10.11
192.092	-0.81
192.565	2.09
193.038	-0.91
193.511	2.29
193.984	6.09
194.456	3.69
194.929	-1.21
195.402	-5.01
195.874	-1.21
196.347	1.49
196.82	-7.61
197.292	4.59
197.765	1.79
198.237	-8.31
198.71	1.39
199.182	-1.31
199.655	4.39
200.127	5.79
200.6	2.29
201.072	1.49
201.544	2.29
202.017	-3.61
202.489	3.49
202.961	-3.51
203.433	-5.41
203.906	-7.51
204.378	-6.71
204.85	-1.81
205.322	-7.51
205.794	-5.91
206.266	-1.01
206.739	-2.91
207.211	0.39
207.683	-3.91
208.155	-7.31
208.627	-6.41
209.099	-10.51
209.57	-12.31
210.042	-5.51
210.514	1.79
210.986	-0.41
211.458	-9.41
211.93	-4.71
212.402	-1.91
212.873	-6.71
213.345	-9.91
213.817	-12.31
214.288	-5.11
214.76	-10.11
215.232	0.59
215.703	-3.11
216.175	-1.11
216.646	-0.01
217.118	-4.31
217.589	-3.11
218.061	-1.81
218.532	-5.61
219.004	-4.21
219.475	1.39
219.946	-7.71
220.418	-2.01
220.889	-0.81
221.36	2.49
221.832	-6.51
222.303	-13.71
222.774	3.49
223.245	-5.91
223.717	-6.71
224.188	-1.01
224.659	-6.71
225.13	-4.71
225.601	-1.91
226.072	-1.81
226.543	-1.31
227.014	-3.41
227.485	-4.41
227.956	-6.01
228.427	-2.31
228.898	-1.91
229.369	0.89
229.839	-3.01
230.31	-2.31
230.781	3.29
231.252	-7.21
231.722	-4.21
232.193	-0.21
232.664	1.69
233.135	-0.41
233.605	-3.81
234.076	-4.21
234.546	4.39
235.017	5.39
235.487	0.59
235.958	-5.51
236.428	-2.91
236.899	7.59
237.369	3.99
237.84	0.29
238.31	9.29
238.78	8.19
239.251	-0.11
239.721	0.19
240.191	2.49
240.662	-3.91
241.132	3.09
241.602	-3.31
242.072	1.89
242.542	9.29
243.013	-2.01
243.483	-0.71
243.953	-3.51
244.423	-4.51
244.893	-0.21
245.363	-0.81
245.833	5.09
246.303	7.09
246.773	7.29
247.243	1.99
247.712	9.59
248.182	12.59
248.652	6.09
249.122	4.29
249.592	12.99
250.061	20.59
250.531	33.79
251.001	19.39
251.471	24.39
251.94	20.79
252.41	13.29
252.879	2.19
253.349	16.49
253.818	12.29
254.288	7.89
254.757	9.79
255.227	6.09
255.696	4.09
256.166	9.29
256.635	11.89
257.105	8.99
257.574	6.69
258.043	8.79
258.513	17.29
258.982	16.89
259.451	5.69
259.92	14.09
260.389	13.29
260.859	18.59
261.328	16.09
261.797	17.99
262.266	9.29
262.735	14.79
263.204	6.29
263.673	10.79
264.142	6.19
264.611	-2.71
265.08	4.79
265.549	3.19
266.018	6.99
266.487	-0.11
266.955	-0.71
267.424	5.09
267.893	7.59
268.362	0.59
268.83	2.29
269.299	13.89
269.768	11.39
270.236	14.49
270.705	8.59
271.174	3.19
271.642	10.49
272.111	14.09
272.579	15.89
273.048	28.49
273.516	29.29
273.985	26.09
274.453	22.39
274.922	19.09
275.39	14.99
275.858	10.39
276.327	12.89
276.795	22.09
277.263	11.09
277.731	33.99
278.2	54.69
278.668	67.39
279.136	47.99
279.604	23.49
280.072	14.29
280.54	13.19
281.008	10.39
281.477	13.69
281.945	17.09
282.413	14.99
282.881	14.39
283.348	6.49
283.816	15.19
284.284	23.59
284.752	22.29
285.22	16.59
285.688	20.59
286.156	19.69
286.623	45.79
287.091	55.39
287.559	32.19
288.026	18.79
288.494	14.09
288.962	8.39
289.429	9.89
289.897	20.19
290.364	14.69
290.832	25.99
291.3	20.19
291.767	13.49
292.234	26.79
292.702	16.99
293.169	16.19
293.637	23.09
294.104	23.79
294.571	5.19
295.039	10.79
295.506	14.89
295.973	20.99
296.44	17.19
296.908	23.79
297.375	23.89
297.842	19.89
298.309	20.79
298.776	13.69
299.243	18.89
299.71	15.19
300.177	24.59
300.644	21.29
301.111	26.29
301.578	24.39
302.045	20.19
302.512	28.69
302.979	25.59
303.446	23.29
303.913	22.09
304.379	20.69
304.846	28.59
305.313	30.69
305.78	28.09
306.246	29.89
306.713	33.89
307.18	21.79
307.646	30.19
308.113	31.69
308.579	27.89
309.046	27.09
309.512	30.79
309.979	16.69
310.445	30.99
310.912	25.79
311.378	34.29
311.845	35.59
312.311	36.09
312.777	33.59
313.244	35.59
313.71	40.09
314.176	35.69
314.642	33.79
315.109	35.59
315.575	38.29
316.041	36.69
316.507	37.89
316.973	45.39
317.439	36.09
317.905	36.69
318.371	39.39
318.837	35.19
319.303	38.49
319.769	34.29
320.235	39.19
320.701	33.89
321.167	36.89
321.633	35.89
322.099	43.89
322.564	46.79
323.03	45.59
323.496	48.29
323.962	42.99
324.427	38.29
324.893	45.69
325.359	36.59
325.824	38.19
326.29	40.69
326.755	37.19
327.221	43.09
327.686	40.19
328.152	50.69
328.617	45.69
329.083	50.89
329.548	58.49
330.014	45.39
330.479	37.99
330.944	47.09
331.41	45.59
331.875	43.79
332.34	48.99
332.805	46.79
333.271	50.79
333.736	44.79
334.201	47.69
334.666	55.09
335.131	58.39
335.596	53.29
336.061	51.79
336.526	50.49
336.991	49.79
337.456	59.39
337.921	50.49
338.386	47.39
338.851	47.69
339.316	49.09
339.781	51.19
340.246	54.19
340.711	42.69
341.175	56.19
341.64	48.09
342.105	50.99
342.569	56.59
343.034	58.19
343.499	56.99
343.963	53.79
344.428	67.09
344.893	62.39
345.357	64.29
345.822	64.99
346.286	65.79
346.751	69.59
347.215	73.79
347.679	77.89
348.144	101.89
348.608	90.59
349.073	70.29
349.537	70.49
350.001	81.29
350.465	92.19
350.93	85.99
351.394	85.49
351.858	77.19
352.322	90.79
352.786	83.99
353.25	102.59
353.715	116.29
354.179	112.49
354.643	118.09
355.107	129.89
355.571	108.29
356.035	102.19
356.498	127.19
356.962	127.99
357.426	129.49
357.89	117.49
358.354	92.99
358.818	84.29
359.281	78.59
359.745	78.59
360.209	76.79
360.673	77.69
361.136	82.29
361.6	85.79
362.064	85.19
362.527	86.89
362.991	94.59
363.454	83.49
363.918	80.89
364.381	86.69
364.845	82.99
365.308	81.89
365.772	90.69
366.235	91.29
366.698	84.59
367.162	82.09
367.625	86.19
368.088	93.49
368.552	87.29
369.015	88.99
369.478	94.39
369.941	107.09
370.404	98.09
370.867	109.59
371.331	111.29
371.794	116.79
372.257	112.99
372.72	114.29
373.183	106.19
373.646	107.69
374.109	101.99
374.572	106.79
375.035	110.89
375.497	109.69
375.96	102.49
376.423	102.99
376.886	117.59
377.349	119.19
377.811	103.29
378.274	113.59
378.737	108.09
379.199	116.49
379.662	110.49
380.125	112.09
380.587	115.89
381.05	126.69
381.512	129.29
381.975	134.39
382.437	129.29
382.9	125.19
383.362	126.99
383.825	140.29
384.287	140.19
384.75	137.69
385.212	137.09
385.674	142.89
386.136	130.99
386.599	127.59
387.061	126.29
387.523	127.59
387.985	138.19
388.447	145.29
388.91	144.99
389.372	156.19
389.834	149.49
390.296	145.49
390.758	153.89
391.22	164.69
391.682	211.59
392.144	289.99
392.606	224.99
393.068	161.09
393.529	171.19
393.991	150.09
394.453	142.09
394.915	151.29
395.377	195.59
395.838	215.59
396.3	155.59
396.762	146.49
397.224	131.79
397.685	131.19
398.147	132.99
398.608	125.79
399.07	130.59
399.531	139.29
399.993	140.69
400.454	151.39
400.916	144.09
401.377	142.69
401.839	148.19
402.3	149.89
402.762	168.99
403.223	179.09
403.684	172.89
404.145	161.99
404.607	159.79
405.068	172.09
405.529	169.49
405.99	183.49
406.451	174.99
406.913	167.39
407.374	158.39
407.835	155.99
408.296	170.39
408.757	166.29
409.218	173.39
409.679	171.59
410.14	176.79
410.601	181.19
411.062	182.39
411.522	185.19
411.983	191.99
412.444	176.49
412.905	179.99
413.366	181.69
413.826	181.19
414.287	219.29
414.748	265.19
415.208	243.59
415.669	213.29
416.13	201.39
416.59	197.59
417.051	207.69
417.511	214.89
417.972	230.99
418.432	241.49
418.893	287.29
419.353	239.19
419.814	190.19
420.274	173.79
420.734	174.79
421.195	193.59
421.655	188.79
422.115	190.69
422.576	187.49
423.036	191.59
423.496	197.99
423.956	215.19
424.416	222.59
424.876	264.39
425.336	252.79
425.797	255.99
426.257	251.19
426.717	224.79
427.177	220.99
427.637	220.29
428.097	229.19
428.556	239.29
429.016	259.39
429.476	262.09
429.936	271.89
430.396	264.69
430.856	285.39
431.315	308.39
431.775	338.49
432.235	373.99
432.694	346.89
433.154	361.39
433.614	380.09
434.073	329.79
434.533	275.19
434.993	266.89
435.452	270.99
435.912	291.09
436.371	287.09
436.83	280.59
437.29	262.19
437.749	243.69
438.209	235.39
438.668	263.99
439.127	275.59
439.587	254.69
440.046	244.09
440.505	257.29
440.964	272.19
441.424	312.29
441.883	299.69
442.342	247.19
442.801	223.59
443.26	215.59
443.719	205.59
444.178	211.19
444.637	207.79
445.096	215.79
445.555	218.39
446.014	223.59
446.473	225.19
446.932	223.29
447.391	220.29
447.849	219.09
448.308	212.69
448.767	221.59
449.226	228.79
449.685	228.09
450.143	243.49
450.602	234.59
451.061	225.19
451.519	226.19
451.978	226.09
452.436	230.09
452.895	237.29
453.353	243.19
453.812	233.19
454.27	233.69
454.729	239.59
455.187	237.09
455.646	240.99
456.104	245.99
456.562	254.29
457.021	253.49
457.479	254.79
457.937	264.19
458.395	259.19
458.854	243.49
459.312	245.89
459.77	260.59
460.228	255.39
460.686	232.09
461.144	251.09
461.602	243.99
462.06	238.99
462.518	250.89
462.976	254.19
463.434	250.49
463.892	249.89
464.35	271.29
464.808	274.99
465.266	256.59
465.724	262.89
466.181	259.99
466.639	270.19
467.097	282.09
467.555	289.29
468.012	295.49
468.47	299.79
468.928	316.09
469.385	332.99
469.843	344.99
470.3	344.69
470.758	355.79
471.215	379.29
471.673	398.19
472.13	397.89
472.588	400.69
473.045	361.59
473.503	365.49
473.96	380.09
474.417	395.19
474.875	426.49
475.332	460.29
475.789	446.29
476.246	461.09
476.704	475.79
477.161	497.19
477.618	509.39
478.075	547.69
478.532	599.99
478.989	672.39
479.446	789.49
479.903	754.69
480.36	796.19
480.817	837.79
481.274	946.49
481.731	1061.99
482.188	1142.69
482.645	1283.19
483.102	1394.89
483.558	1514.29
484.015	1585.99
484.472	1561.69
484.929	1493.79
485.385	1453.29
485.842	1408.69
486.299	1347.89
486.755	1276.99
487.212	1080.29
487.668	910.29
488.125	834.89
488.582	762.79
489.038	730.09
489.494	696.69
489.951	671.89
490.407	657.79
490.864	627.59
491.32	625.29
491.776	625.39
492.233	632.69
492.689	601.19
493.145	588.19
493.602	590.19
494.058	594.89
494.514	598.59
494.97	622.59
495.426	628.59
495.882	614.59
496.338	598.39
496.794	607.59
497.251	605.19
497.707	631.29
498.163	613.59
498.618	626.79
499.074	641.59
499.53	662.39
499.986	656.49
500.442	637.99
500.898	616.29
501.354	606.19
501.809	618.79
502.265	628.09
502.721	645.69
503.177	651.59
503.632	635.99
504.088	659.29
504.543	689.69
504.999	689.49
505.455	641.99
505.91	615.99
506.366	617.89
506.821	604.79
507.277	607.49
507.732	608.39
508.187	606.39
508.643	616.19
509.098	613.59
509.553	638.29
510.009	648.29
510.464	647.39
510.919	666.59
511.375	671.39
511.83	684.69
512.285	713.09
512.74	739.79
513.195	759.39
513.65	749.69
514.105	746.49
514.56	749.59
515.015	768.09
515.47	783.89
515.925	777.49
516.38	762.79
516.835	774.69
517.29	756.39
517.745	753.49
518.2	729.79
518.655	720.09
519.109	726.09
519.564	719.69
520.019	719.49
520.474	704.69
520.928	694.59
521.383	695.09
521.838	684.79
522.292	690.99
522.747	682.89
523.201	683.79
523.656	668.79
524.11	663.69
524.565	664.89
525.019	668.89
525.474	673.89
525.928	675.79
526.382	672.29
526.837	671.89
527.291	674.19
527.745	679.19
528.2	673.39
528.654	666.79
529.108	669.79
529.562	660.09
530.016	663.69
530.47	661.89
530.925	673.19
531.379	681.49
531.833	684.59
532.287	685.49
532.741	691.79
533.195	677.89
533.649	690.99
534.103	697.79
534.556	677.39
535.01	689.79
535.464	677.19
535.918	694.79
536.372	690.89
536.826	688.99
537.279	682.09
537.733	686.59
538.187	684.69
538.64	687.69
539.094	700.49
539.548	712.99
540.001	698.89
540.455	687.09
540.908	697.79
541.362	713.49
541.815	720.49
542.269	721.59
542.722	726.69
543.175	747.39
543.629	735.59
544.082	747.59
544.536	747.39
544.989	753.59
545.442	768.39
545.895	757.39
546.349	755.39
546.802	760.79
547.255	759.99
547.708	771.39
548.161	778.69
548.614	781.59
549.067	799.79
549.52	782.59
549.973	780.89
550.426	772.39
550.879	755.69
551.332	760.69
551.785	780.99
552.238	770.39
552.691	779.69
553.144	799.29
553.596	802.39
554.049	824.39
554.502	854.69
554.955	869.29
555.407	879.09
555.86	867.49
556.313	857.19
556.765	840.79
557.218	846.29
557.67	845.89
558.123	838.49
558.576	835.09
559.028	831.49
559.48	838.39
559.933	827.69
560.385	796.19
560.838	765.69
561.29	737.69
561.742	737.29
562.195	730.79
562.647	723.19
563.099	735.49
563.551	735.39
564.004	747.29
564.456	734.99
564.908	724.19
565.36	701.29
565.812	696.89
566.264	682.99
566.716	689.29
567.168	673.99
567.62	678.49
568.072	664.19
568.524	656.79
568.976	648.29
569.428	640.49
569.88	637.79
570.332	639.79
570.784	644.89
571.235	641.19
571.687	650.09
572.139	662.19
572.59	673.59
573.042	673.89
573.494	663.09
573.945	661.59
574.397	647.19
574.849	643.39
575.3	648.19
575.752	646.49
576.203	641.29
576.655	642.59
577.106	634.89
577.557	622.09
578.009	628.29
578.46	633.19
578.912	627.19
579.363	626.49
579.814	626.09
580.265	624.39
580.717	619.99
581.168	619.99
581.619	634.79
582.07	645.89
582.521	641.39
582.972	629.09
583.423	637.99
583.875	636.19
584.326	652.99
584.777	701.79
585.227	773.19
585.678	857.59
586.129	945.89
586.58	1019.69
587.031	1090.79
587.482	1247.89
587.933	1433.39
588.384	1223.69
588.834	905.69
589.285	747.49
589.736	730.59
590.186	718.89
590.637	711.09
591.088	693.49
591.538	686.79
591.989	676.59
592.439	675.39
592.89	662.39
593.34	666.09
593.791	664.89
594.241	658.29
594.692	665.29
595.142	654.29
595.593	646.99
596.043	659.69
596.493	661.89
596.943	665.29
597.394	670.79
597.844	649.69
598.294	679.09
598.744	703.99
599.195	716.29
599.645	754.79
600.095	781.79
600.545	850.19
600.995	893.59
601.445	940.79
601.895	1015.59
602.345	1046.79
602.795	1040.79
603.245	985.59
603.695	925.79
604.145	885.39
604.594	851.89
605.044	803.39
605.494	740.39
605.944	701.29
606.393	690.99
606.843	668.19
607.293	680.69
607.743	675.69
608.192	683.99
608.642	703.59
609.091	702.69
609.541	719.19
609.99	710.59
610.44	708.59
610.889	666.49
611.339	648.79
611.788	634.19
612.238	638.49
612.687	660.39
613.136	674.99
613.586	683.59
614.035	681.79
614.484	702.19
614.933	703.39
615.383	689.79
615.832	674.99
616.281	661.59
616.73	625.79
617.179	616.09
617.628	599.59
618.077	577.89
618.526	573.29
618.975	563.59
619.424	555.49
619.873	560.19
620.322	571.59
620.771	555.39
621.22	551.29
621.669	549.59
622.118	533.29
622.567	527.89
623.015	523.79
623.464	522.59
623.913	501.89
624.361	498.59
624.81	496.79
625.259	493.79
625.707	512.09
626.156	511.69
626.604	515.69
627.053	509.99
627.501	513.29
627.95	507.69
628.398	530.59
628.847	523.99
629.295	519.19
629.744	521.19
630.192	523.99
630.64	525.59
631.089	518.49
631.537	524.79
631.985	523.09
632.433	544.99
632.881	543.79
633.33	597.39
633.778	571.49
634.226	514.19
634.674	521.79
635.122	529.09
635.57	548.79
636.018	565.99
636.466	529.39
636.914	512.59
637.362	517.79
637.81	526.69
638.258	523.39
638.705	523.89
639.153	560.29
639.601	556.59
640.049	579.49
640.497	611.99
640.944	627.99
641.392	581.89
641.84	568.59
642.287	534.59
642.735	515.09
643.182	522.09
643.63	516.29
644.078	520.79
644.525	533.59
644.973	541.49
645.42	544.99
645.867	559.29
646.315	577.59
646.762	595.19
647.21	624.69
647.657	643.19
648.104	690.49
648.551	703.19
648.999	753.39
649.446	828.89
649.893	911.89
650.34	1036.89
650.787	1256.19
651.234	1546.69
651.682	2019.89
652.129	2758.59
652.576	3994.69
653.023	5894.09
653.47	8113.09
653.917	10243.89
654.363	11939.39
654.81	13390.69
655.257	12746.79
655.704	8263.19
656.151	4850.69
656.598	3129.99
657.044	2219.19
657.491	1708.09
657.938	1355.59
658.385	1133.39
658.831	987.39
659.278	874.89
659.724	771.69
660.171	716.69
660.618	645.29
661.064	616.09
661.511	614.39
661.957	590.39
662.404	582.09
662.85	581.79
663.296	562.49
663.743	498.99
664.189	488.39
664.635	482.49
665.082	471.29
665.528	470.29
665.974	468.49
666.42	459.59
666.867	452.09
667.313	445.09
667.759	432.19
668.205	426.09
668.651	429.59
669.097	426.79
669.543	444.19
669.989	416.99
670.435	404.09
670.881	401.79
671.327	399.39
671.773	422.89
672.219	440.79
672.665	485.39
673.11	506.29
673.556	555.19
674.002	609.49
674.448	581.79
674.893	487.29
675.339	421.09
675.785	386.49
676.23	371.49
676.676	356.99
677.122	344.99
677.567	335.29
678.013	330.49
678.458	322.09
678.904	321.59
679.349	309.19
679.794	310.89
680.24	306.09
680.685	308.69
681.131	308.19
681.576	302.29
682.021	313.39
682.466	310.89
682.912	301.79
683.357	309.79
683.802	338.89
684.247	363.09
684.692	403.59
685.137	444.19
685.583	479.39
686.028	504.29
686.473	457.49
686.918	399.19
687.363	367.09
687.807	352.49
688.252	320.89
688.697	315.19
689.142	298.89
689.587	298.59
690.032	289.29
690.477	300.29
690.921	311.39
691.366	339.49
691.811	346.39
692.255	384.39
692.7	406.59
693.145	435.89
693.589	608.69
694.034	983.29
694.478	1350.99
694.923	1555.89
695.367	2046.89
695.812	1068.19
696.256	449.79
696.701	332.29
697.145	313.69
697.59	293.09
698.034	285.19
698.478	292.79
698.922	282.79
699.367	284.49
699.811	297.19
700.255	319.39
700.699	349.89
701.143	379.29
701.588	426.19
702.032	455.59
702.476	453.19
702.92	433.49
703.364	418.19
703.808	544.19
704.252	892.99
704.696	1275.39
705.14	1497.99
705.584	1940.69
706.027	958.69
706.471	456.39
706.915	344.99
707.359	311.69
707.803	278.99
708.246	279.19
708.69	269.99
709.134	269.29
709.577	278.69
710.021	277.99
710.465	277.29
710.908	265.39
711.352	262.59
711.795	266.99
712.239	309.99
712.682	330.69
713.126	375.99
713.569	411.49
714.012	328.59
714.456	284.59
714.899	268.59
715.342	250.69
715.786	230.99
716.229	233.69
716.672	225.39
717.115	221.79
717.558	220.49
718.002	221.49
718.445	230.99
718.888	247.29
719.331	261.29
719.774	272.69
720.217	269.29
720.66	253.49
721.103	237.89
721.546	225.19
721.989	221.39
722.432	201.09
722.874	209.39
723.317	201.39
723.76	205.59
724.203	225.99
724.645	276.69
725.088	395.69
725.531	502.49
725.974	573.19
726.416	485.39
726.859	277.09
727.301	218.49
727.744	209.19
728.187	203.59
728.629	216.59
729.071	215.69
729.514	234.59
729.956	234.09
730.399	250.79
730.841	260.29
731.283	234.89
731.726	233.19
732.168	226.59
732.61	230.89
733.053	249.49
733.495	268.69
733.937	303.89
734.379	343.19
734.821	385.09
735.263	472.09
735.705	729.09
736.148	1350.49
736.59	2243.79
737.032	2769.99
737.474	2235.19
737.916	713.69
738.357	374.89
738.799	291.59
739.241	263.99
739.683	249.49
740.125	251.69
740.567	265.29
741.008	280.79
741.45	268.69
741.892	277.79
742.334	303.89
742.775	319.09
743.217	303.89
743.658	234.29
744.1	216.79
744.542	234.49
744.983	276.59
745.425	308.49
745.866	306.59
746.307	241.49
746.749	250.09
747.19	279.99
747.632	385.29
748.073	736.79
748.514	1594.09
748.956	2516.99
749.397	3109.59
749.838	2598.69
750.279	2680.49
750.72	1333.39
751.162	478.59
751.603	282.19
752.044	218.69
752.485	189.99
752.926	181.39
753.367	182.09
753.808	164.99
754.249	171.19
754.69	162.59
755.131	161.79
755.572	156.09
756.013	157.49
756.453	159.09
756.894	166.09
757.335	167.19
757.776	170.99
758.216	169.09
758.657	171.09
759.098	179.59
759.538	192.29
759.979	228.49
760.42	321.69
760.86	594.59
761.301	1537.49
761.741	3810.09
762.182	5825.59
762.622	4083.49
763.063	1168.09
763.503	475.99
763.943	308.79
764.384	293.69
764.824	355.29
765.264	391.49
765.705	274.69
766.145	186.59
766.585	168.79
767.025	157.19
767.465	161.79
767.906	214.49
768.346	288.09
768.786	307.79
769.226	230.89
769.666	277.89
770.106	522.89
770.546	1329.69
770.986	2342.69
771.426	2143.19
771.866	700.79
772.306	289.59
772.745	182.19
773.185	153.19
773.625	150.49
774.065	148.49
774.505	167.19
774.944	269.29
775.384	599.99
775.824	1106.99
776.263	1102.29
776.703	467.89
777.142	191.79
777.582	140.09
778.021	125.99
778.461	118.29
778.9	120.09
779.34	110.79
779.779	100.39
780.219	95.89
780.658	97.39
781.097	98.29
781.537	100.99
781.976	95.59
782.415	92.09
782.855	90.49
783.294	89.09
783.733	90.69
784.172	93.69
784.611	85.99
785.05	92.69
785.489	94.89
785.928	103.99
786.367	103.89
786.806	103.89
787.245	114.79
787.684	121.49
788.123	134.19
788.562	116.49
789.001	108.39
789.44	105.79
789.879	102.29
790.317	97.19
790.756	109.79
791.195	115.49
791.634	130.59
792.072	172.19
792.511	305.99
792.95	858.79
793.388	1914.99
793.827	1768.69
794.265	599.69
794.704	248.19
795.142	160.19
795.581	134.59
796.019	115.19
796.458	112.79
796.896	105.89
797.334	116.99
797.773	135.69
798.211	189.69
798.649	373.99
799.087	879.69
799.526	1387.49
799.964	1751.59
800.402	1825.79
800.84	678.49
801.278	270.29
801.716	161.79
802.154	137.49
802.592	129.29
803.03	121.69
803.468	116.89
803.906	126.39
804.344	126.69
804.782	125.79
805.22	118.99
805.658	114.09
806.096	123.99
806.533	135.19
806.971	148.49
807.409	195.69
807.847	270.49
808.284	556.99
808.722	1598.59
809.16	2932.69
809.597	2706.99
810.035	4754.49
810.472	5270.39
810.91	1877.79
811.347	704.99
811.785	363.29
812.222	219.19
812.66	168.69
813.097	146.29
813.535	126.39
813.972	112.09
814.409	110.29
814.846	95.89
815.284	92.69
815.721	89.79
816.158	89.19
816.595	100.79
817.032	155.09
817.47	184.19
817.907	144.89
818.344	136.69
818.781	103.69
819.218	86.89
819.655	102.59
820.092	162.29
820.529	193.29
820.966	159.19
821.403	117.59
821.839	97.99
822.276	97.09
822.713	110.29
823.15	118.19
823.587	100.99
824.023	124.49
824.46	248.39
824.897	777.19
825.333	1217.69
825.77	521.89
826.206	202.99
826.643	116.29
827.08	89.79
827.516	71.69
827.953	67.89
828.389	65.89
828.825	59.29
829.262	56.09
829.698	52.69
830.135	55.19
830.571	48.79
831.007	49.29
831.443	52.69
831.88	54.59
832.316	53.09
832.752	51.99
833.188	50.09
833.624	54.49
834.06	61.19
834.497	59.19
834.933	56.49
835.369	62.89
835.805	58.39
836.241	63.69
836.677	66.99
837.112	76.29
837.548	82.39
837.984	110.69
838.42	179.29
838.856	417.49
839.292	1314.39
839.727	2065.69
840.163	958.19
840.599	793.59
841.034	1783.69
841.47	1932.69
841.906	696.09
842.341	291.89
842.777	203.19
843.212	289.79
843.648	284.39
844.083	131.89
844.519	86.69
844.954	70.19
845.39	51.09
845.825	47.79
846.261	52.69
846.696	45.79
847.131	50.69
847.566	47.69
848.002	38.79
848.437	48.29
848.872	45.29
849.307	58.39
849.742	72.09
850.177	151.69
850.613	475.99
851.048	791.19
851.483	333.79
851.918	132.39
852.353	73.99
852.788	51.99
853.223	53.39
853.657	50.59
854.092	37.09
854.527	33.09
854.962	41.59
855.397	41.39
855.832	40.89
856.266	34.29
856.701	35.39
857.136	29.89
857.57	34.69
858.005	41.29
858.44	54.79
858.874	35.69
859.309	43.29
859.743	32.59
860.178	39.09
860.612	35.29
861.047	46.99
861.481	59.79
861.915	61.19
862.35	43.99
862.784	29.09
863.218	34.29
863.653	34.39
864.087	42.09
864.521	44.29
864.955	59.29
865.39	138.09
865.824	156.09
866.258	96.59
866.692	143.99
867.126	161.19
867.56	95.29
867.994	48.19
868.428	29.99
868.862	35.49
869.296	46.09
869.73	50.29
870.164	49.49
870.598	42.39
871.031	34.49
871.465	29.79
871.899	26.89
872.333	16.29
872.766	20.79
873.2	23.09
873.634	27.29
874.067	23.69
874.501	19.79
874.935	26.49
875.368	25.59
875.802	22.79
876.235	22.29
876.669	22.59
877.102	23.59
877.535	25.69
877.969	25.39
878.402	25.19
878.836	14.89
879.269	25.49
879.702	16.89
880.135	20.89
880.569	17.79
881.002	26.29
881.435	21.39
881.868	15.29
882.301	18.49
882.734	10.29
883.167	19.89
883.601	17.39
884.034	22.09
884.467	18.69
884.899	18.99
885.332	13.59
885.765	12.59
886.198	12.39
886.631	16.79
887.064	17.29
887.497	19.29
887.929	20.59
888.362	13.49
888.795	10.69
889.228	20.09
889.66	13.29
890.093	19.99
890.526	10.99
890.958	11.99
891.391	14.59
891.823	19.89
892.256	15.79
892.688	11.19
893.121	17.19
893.553	10.69
893.985	19.89
894.418	12.99
894.85	9.79
895.282	13.29
895.715	13.19
896.147	11.99
896.579	9.99
897.011	11.29
897.444	8.69
897.876	10.09
898.308	11.89
898.74	10.49
899.172	14.19
899.604	20.19
900.036	14.99
900.468	15.39
900.9	16.49
901.332	12.69
901.764	12.19
902.196	14.19
902.628	13.99
903.06	12.49
903.491	25.39
903.923	22.49
904.355	25.39
904.787	20.69
905.218	15.19
905.65	20.49
906.082	14.89
906.513	7.09
906.945	14.59
907.376	12.19
907.808	15.39
908.239	22.39
908.671	19.39
909.102	11.99
909.534	23.39
909.965	40.69
910.397	89.89
910.828	282.59
911.259	424.29
911.691	196.79
912.122	95.29
912.553	47.39
912.984	31.39
913.415	18.79
913.847	20.19
914.278	14.19
914.709	12.79
915.14	15.69
915.571	13.09
916.002	6.59
916.433	17.49
916.864	12.99
917.295	14.49
917.726	20.69
918.157	12.79
918.587	22.49
919.018	17.09
919.449	11.69
919.88	23.19
920.311	32.39
920.741	44.39
921.172	145.39
921.603	132.49
922.033	60.59
922.464	46.59
922.895	17.39
923.325	22.99
923.756	10.59
924.186	11.79
924.617	24.99
925.047	40.09
925.478	47.59
925.908	44.69
926.338	20.29
926.769	10.69
927.199	20.59
927.629	11.09
928.06	13.19
928.49	9.09
928.92	13.19
929.35	6.89
929.78	5.69
930.21	5.69
930.641	4.49
931.071	8.39
931.501	7.39
931.931	7.89
932.361	6.09
932.791	1.19
933.221	1.89
933.651	5.39
934.08	14.79
934.51	30.09
934.94	5.09
935.37	6.59
935.8	6.89
936.229	9.49
936.659	4.49
937.089	7.59
937.519	14.09
937.948	21.59
938.378	12.69
938.807	0.79
939.237	0.09
939.666	11.29
940.096	-0.21
940.525	-3.51
940.955	3.69
941.384	-1.61
941.814	-7.71
942.243	-4.51
942.672	2.89
943.102	-4.71
943.531	-2.11
943.96	-2.41
944.39	4.39
944.819	-1.71
945.248	5.09
945.677	-1.01
946.106	-0.31
946.535	-3.61
946.964	3.29
947.393	1.79
947.822	-0.91
948.251	-5.41
948.68	5.59
949.109	2.69
949.538	3.89
949.967	-2.01
950.396	2.89
950.825	1.09
951.254	-1.71
951.682	-11.51
952.111	-1.91
952.54	3.79
952.969	-0.91
953.397	-3.01
953.826	5.79
954.254	-5.61
954.683	-1.31
955.112	-2.51
955.54	-0.41
955.969	2.69
956.397	4.99
956.826	-0.91
957.254	4.69
957.682	1.99
958.111	1.89
958.539	-2.31
958.967	0.89
959.396	-2.01
959.824	2.79
960.252	-4.21
960.68	-0.41
961.109	-3.61
961.537	-6.01
961.965	1.59
962.393	1.59
962.821	-2.61
963.249	5.69
963.677	4.19
964.105	8.19
964.533	38.59
964.961	35.19
965.389	18.29
965.817	5.99
966.245	2.69
966.672	-2.41
967.1	-10.01
967.528	-5.21
967.956	-1.31
968.383	-1.81
968.811	-6.61
969.239	-5.61
969.666	-1.01
970.094	0.79
970.522	-0.71
970.949	-0.11
971.377	-6.51
971.804	-2.21
972.232	2.99
972.659	-0.01
973.087	-2.11
973.514	-3.81
973.941	-9.41
974.369	1.19
974.796	4.49
975.223	-2.91
975.651	3.49
976.078	-1.21
976.505	-1.01
976.932	0.29
977.359	11.09
977.786	14.79
978.214	3.59
978.641	-1.91
979.068	-6.01
979.495	-0.71
979.922	-2.31
980.349	0.69
980.776	2.89
981.202	-3.71
981.629	1.49
982.056	4.19
982.483	-3.71
982.91	3.79
983.337	-2.01
983.763	3.19
984.19	-10.41
984.617	-4.81
985.043	-3.21
985.47	-6.71
985.897	1.19
986.323	-7.91
986.75	-2.41
987.176	0.79
987.603	3.09
988.029	0.39
988.456	-0.91
988.882	-2.81
989.308	-4.71
989.735	-0.91
990.161	-4.01
990.587	-6.71
991.014	-0.91
991.44	2.69
991.866	-9.01
992.292	-6.51
992.719	-1.61
993.145	2.69
993.571	-12.91
993.997	-4.71
994.423	-2.41
994.849	-9.11
995.275	2.69
995.701	-0.81
996.127	-4.51
996.553	-2.51
996.979	0.29
997.405	-4.71
997.83	-1.81
998.256	-5.21
998.682	-7.41
999.108	-8.41
999.534	-4.91
999.959	0.69
1000.385	-6.71
1000.811	-2.31
1001.236	-7.21
1001.662	-8.01
1002.087	-4.21
1002.513	1.79
1002.938	0.69
1003.364	-0.71
1003.789	-1.21
1004.215	0.49
1004.64	-3.31
1005.066	3.59
1005.491	-1.31
1005.916	-1.41
1006.342	-4.01
1006.767	-8.11
1007.192	2.89
1007.617	-10.71
1008.042	-10.31
1008.468	-4.71
1008.893	-0.91
1009.318	-3.91
1009.743	-2.91
1010.168	1.39
1010.593	0.89
1011.018	-6.81
1011.443	-2.01
1011.868	0.69
1012.293	-1.11
1012.718	-5.01
1013.143	2.69
1013.567	-0.41
1013.992	-6.11
1014.417	-11.11
1014.842	0.69
1015.267	-6.61
1015.691	-2.01
1016.116	3.99
1016.541	-2.11
1016.965	1.39
1017.39	0.99
1017.814	0.69
1018.239	-4.41
1018.663	-4.61
1019.088	-9.21
1019.512	-3.71
1019.937	-3.21
1020.361	-6.81
1020.785	-10.71
1021.21	-5.11
1021.634	-1.11
1022.058	-5.91
1022.483	0.89
1022.907	-2.91
1023.331	-5.71
1023.755	-2.11
1024.179	-4.11
1024.604	-9.31
1025.028	-4.71
1025.452	-8.31
1025.876	-1.01
1026.3	4.09
1026.724	-12.51
1027.148	-2.81
1027.572	-8.91
1027.996	-4.91
1028.42	-4.11
1028.843	-4.41
1029.267	-2.71
1029.691	-6.21
1030.115	-4.51
1030.539	-5.31
1030.962	-5.91
1031.386	-7.51
1031.81	0.09
1032.233	-1.71
1032.657	0.19
1033.08	-7.21
1033.504	-3.01
1033.927	0.89
1034.351	-0.41
1034.774	-9.81
1035.198	-3.41
1035.621	-6.81
1036.045	-7.71
1036.468	1.19
1036.891	-6.61
1037.315	-7.11
1037.738	-9.61
1038.161	0.69
1038.584	-4.71
1039.008	-5.91
1039.431	-2.61
1039.854	-3.61
1040.277	-2.01
1040.7	-12.61
1041.123	-0.81
1041.546	-8.71
1041.969	-5.01
1042.392	-1.41
1042.815	-1.61
1043.238	1.69
1043.661	-2.91
1044.084	-4.31
1044.507	-9.91
1044.93	-3.81
1045.352	-0.41
1045.775	-6.01
1046.198	-3.61
1046.621	-2.21
1047.043	-4.81
1047.466	1.99
1047.889	-5.41
1048.311	-8.01
1048.734	-3.71
1049.156	0.19
1049.579	-0.71
1050.001	-5.31
1050.424	0.79
1050.846	-10.71
1051.269	-3.51
1051.691	-4.51
1052.113	-4.91
1052.536	-4.91
1052.958	-4.91
1053.38	-3.51
1053.802	-19.81
1054.225	-3.01
1054.647	-5.11
1055.069	-2.91
1055.491	1.39
1055.913	-9.61
1056.335	1.29
1056.757	-2.71
1057.179	-7.11
1057.601	-3.51
1058.023	-0.11
1058.445	-6.31
1058.867	-3.41
1059.289	-9.71
1059.711	-13.41
1060.133	-4.01
1060.555	-5.11
1060.976	-10.51
1061.398	-6.71
1061.82	-9.11
1062.241	-7.71
1062.663	-14.91
1063.085	-4.21
1063.506	0.59
1063.928	-1.91
1064.35	2.19
1064.771	-14.01
1065.193	-1.81
1065.614	-11.41
1066.035	-1.91
1066.457	-3.11
1066.878	-1.91
1067.3	-6.31
1067.721	-2.81
1068.142	-6.21
1068.564	-3.11
1068.985	-1.11
1069.406	-5.51
1069.827	-1.51
1070.248	-2.31
1070.67	-9.11
1071.091	-5.71
1071.512	-4.71
1071.933	-5.71
1072.354	-6.91
1072.775	-6.31
1073.196	-5.01
1073.617	-3.11
1074.038	-4.81
1074.459	-0.41
1074.88	-10.41
1075.3	2.49
1075.721	-7.91
1076.142	4.59
1076.563	1.29
1076.983	-15.41
1077.404	-9.41
1077.825	-5.41
1078.246	3.59
1078.666	-5.81
1079.087	-0.21
1079.507	-8.31
1079.928	0.49
1080.348	3.79
1080.769	-3.01
1081.189	-5.11
1081.61	-6.71
1082.03	-6.01
1082.451	-9.01
1082.871	-2.51
1083.291	-11.81
1083.711	-8.31
1084.132	-6.61
1084.552	-0.61
1084.972	-3.31
1085.392	-8.51
1085.813	-10.51
1086.233	-14.01
1086.653	-11.01
1087.073	-6.81
1087.493	-2.51
1087.913	-5.71
1088.333	-6.51
1088.753	-1.91
1089.173	0.69
1089.593	-6.61
1090.013	-0.61
1090.433	0.09
1090.852	-5.61
1091.272	0.39
1091.692	2.29
1092.112	-5.81
1092.531	-9.91
1092.951	-14.51
1093.371	-2.01
1093.79	-3.61
1094.21	-6.31
1094.63	-7.31
1095.049	-6.61
1095.469	-0.31
1095.888	2.49
1096.308	-1.41
1096.727	1.59
1097.146	-6.91
1097.566	0.09
1097.985	-5.51
1098.405	0.39
1098.824	-9.01
1099.243	-9.41
1099.662	-13.21
1100.082	-9.81
1100.501	-0.81
1100.92	-8.91
1101.339	-7.91
1101.758	-1.61
