Data from 20171114-ORNL-Ar_H_NY_Subt18_08-06-49-942.txt Node
Date: Tue Nov 14 08:06:49 EST 2017
User: Ender
Spectrometer: HR+D1039
Trigger mode: 0
Integration Time (sec): 2.730000E-2
Scans to average: 10
Electric dark correction enabled: true
Nonlinearity correction enabled: false
Boxcar width: 0
XAxis mode: Wavelengths
Number of Pixels in Spectrum: 2048
>>>>>Begin Spectral Data<<<<<
187.836	-0.78
188.309	-0.78
188.782	-0.78
189.255	-0.98
189.728	0.22
190.201	6.72
190.674	-0.78
191.147	1.72
191.619	-6.88
192.092	3.72
192.565	5.32
193.038	-2.48
193.511	-0.48
193.984	-0.88
194.456	-6.18
194.929	3.32
195.402	1.12
195.874	-2.68
196.347	0.02
196.82	-6.08
197.292	10.02
197.765	-0.58
198.237	-5.38
198.71	1.12
199.182	-3.08
199.655	-0.28
200.127	-1.08
200.6	-2.28
201.072	0.62
201.544	0.62
202.017	-3.08
202.489	0.62
202.961	1.02
203.433	-6.88
203.906	-9.48
204.378	-5.28
204.85	-7.18
205.322	-9.88
205.794	0.02
206.266	-5.58
206.739	-14.48
207.211	-2.08
207.683	-8.58
208.155	0.92
208.627	-8.38
209.099	-11.28
209.57	-4.78
210.042	-7.88
210.514	-4.58
210.986	-3.88
211.458	-7.78
211.93	-5.18
212.402	6.02
212.873	-9.38
213.345	-10.58
213.817	-12.08
214.288	-5.18
214.76	-14.28
215.232	0.32
215.703	-7.08
216.175	-2.68
216.646	-4.38
217.118	-8.18
217.589	-3.78
218.061	1.62
218.532	-2.08
219.004	-2.18
219.475	-1.98
219.946	-0.98
220.418	-7.58
220.889	1.62
221.36	5.62
221.832	-3.58
222.303	-0.78
222.774	-0.98
223.245	-6.98
223.717	-9.78
224.188	-3.68
224.659	-9.28
225.13	-4.08
225.601	-5.18
226.072	-8.38
226.543	-1.18
227.014	-0.08
227.485	-2.68
227.956	-6.18
228.427	-3.88
228.898	1.42
229.369	3.02
229.839	-2.88
230.31	-7.08
230.781	4.42
231.252	1.02
231.722	-6.68
232.193	-2.98
232.664	-4.28
233.135	-0.98
233.605	-2.38
234.076	-3.18
234.546	-1.48
235.017	-1.68
235.487	4.92
235.958	-3.58
236.428	-4.48
236.899	-1.38
237.369	-2.48
237.84	0.62
238.31	-3.48
238.78	-8.08
239.251	-5.38
239.721	-2.18
240.191	-4.08
240.662	-4.78
241.132	2.72
241.602	-1.88
242.072	-2.98
242.542	1.82
243.013	-7.28
243.483	5.02
243.953	-4.38
244.423	-8.28
244.893	-7.58
245.363	-0.58
245.833	-2.48
246.303	3.42
246.773	3.02
247.243	2.02
247.712	-2.68
248.182	-0.28
248.652	4.32
249.122	-8.68
249.592	2.62
250.061	2.42
250.531	9.72
251.001	-6.88
251.471	8.22
251.94	4.12
252.41	-1.28
252.879	-3.48
253.349	3.62
253.818	6.72
254.288	0.32
254.757	0.02
255.227	0.62
255.696	1.02
256.166	3.12
256.635	4.22
257.105	4.72
257.574	-2.38
258.043	-1.18
258.513	1.12
258.982	1.92
259.451	-6.68
259.92	1.72
260.389	5.42
260.859	11.82
261.328	3.72
261.797	4.22
262.266	-1.08
262.735	7.42
263.204	6.02
263.673	0.52
264.142	8.62
264.611	-2.18
265.08	-1.08
265.549	-0.98
266.018	5.52
266.487	-0.38
266.955	-2.08
267.424	-4.08
267.893	2.32
268.362	0.42
268.83	1.42
269.299	9.12
269.768	1.02
270.236	-2.28
270.705	2.02
271.174	0.32
271.642	4.52
272.111	7.42
272.579	3.62
273.048	-3.88
273.516	3.92
273.985	6.32
274.453	6.92
274.922	12.92
275.39	5.82
275.858	-0.18
276.327	10.82
276.795	11.02
277.263	4.52
277.731	8.92
278.2	13.32
278.668	8.72
279.136	15.12
279.604	3.02
280.072	9.42
280.54	7.32
281.008	6.62
281.477	13.22
281.945	8.62
282.413	7.12
282.881	11.12
283.348	4.12
283.816	5.12
284.284	9.12
284.752	11.72
285.22	8.12
285.688	6.12
286.156	12.02
286.623	18.92
287.091	6.42
287.559	15.72
288.026	10.42
288.494	12.02
288.962	1.42
289.429	7.32
289.897	18.72
290.364	11.52
290.832	15.82
291.3	10.22
291.767	13.22
292.234	12.62
292.702	8.12
293.169	12.62
293.637	16.12
294.104	20.02
294.571	5.32
295.039	11.42
295.506	9.32
295.973	13.12
296.44	14.22
296.908	15.82
297.375	12.42
297.842	17.72
298.309	14.22
298.776	10.32
299.243	20.52
299.71	10.42
300.177	15.62
300.644	19.62
301.111	15.12
301.578	15.12
302.045	13.32
302.512	23.32
302.979	19.92
303.446	19.92
303.913	18.72
304.379	17.32
304.846	26.52
305.313	21.32
305.78	21.02
306.246	22.52
306.713	21.72
307.18	24.02
307.646	24.82
308.113	22.32
308.579	19.52
309.046	20.72
309.512	21.22
309.979	21.02
310.445	23.72
310.912	22.82
311.378	24.32
311.845	25.62
312.311	29.12
312.777	34.02
313.244	31.32
313.71	38.02
314.176	30.72
314.642	27.92
315.109	24.82
315.575	29.12
316.041	34.12
316.507	27.72
316.973	33.72
317.439	28.32
317.905	35.42
318.371	34.42
318.837	36.12
319.303	33.92
319.769	28.42
320.235	32.32
320.701	25.42
321.167	37.32
321.633	28.32
322.099	36.32
322.564	37.82
323.03	39.02
323.496	34.12
323.962	41.72
324.427	33.72
324.893	37.22
325.359	38.32
325.824	37.02
326.29	35.52
326.755	40.22
327.221	39.12
327.686	35.42
328.152	42.02
328.617	31.12
329.083	39.92
329.548	47.12
330.014	46.12
330.479	34.22
330.944	40.32
331.41	40.22
331.875	38.82
332.34	34.42
332.805	40.02
333.271	43.22
333.736	36.72
334.201	50.82
334.666	51.92
335.131	43.92
335.596	43.62
336.061	47.92
336.526	36.52
336.991	47.82
337.456	52.52
337.921	47.32
338.386	36.62
338.851	46.42
339.316	46.32
339.781	46.52
340.246	45.72
340.711	46.42
341.175	49.22
341.64	44.22
342.105	45.02
342.569	46.62
343.034	60.12
343.499	55.92
343.963	48.82
344.428	62.32
344.893	59.92
345.357	59.12
345.822	59.62
346.286	67.72
346.751	68.22
347.215	59.72
347.679	74.52
348.144	87.02
348.608	79.62
349.073	65.42
349.537	68.52
350.001	79.42
350.465	88.62
350.93	70.62
351.394	74.22
351.858	65.82
352.322	78.72
352.786	79.92
353.25	90.92
353.715	101.92
354.179	92.72
354.643	115.92
355.107	114.62
355.571	93.72
356.035	95.52
356.498	110.82
356.962	114.02
357.426	122.72
357.89	105.02
358.354	89.92
358.818	85.22
359.281	75.82
359.745	67.62
360.209	75.52
360.673	69.32
361.136	82.02
361.6	83.32
362.064	77.72
362.527	73.02
362.991	85.82
363.454	78.22
363.918	79.92
364.381	74.82
364.845	76.42
365.308	81.72
365.772	88.12
366.235	90.72
366.698	74.92
367.162	80.72
367.625	84.52
368.088	87.52
368.552	86.12
369.015	86.72
369.478	89.82
369.941	95.02
370.404	95.42
370.867	95.62
371.331	106.62
371.794	104.32
372.257	91.32
372.72	104.82
373.183	93.52
373.646	102.22
374.109	94.82
374.572	95.52
375.035	95.22
375.497	103.82
375.96	95.62
376.423	97.32
376.886	106.72
377.349	108.62
377.811	104.12
378.274	104.92
378.737	109.62
379.199	103.42
379.662	102.42
380.125	111.42
380.587	107.92
381.05	101.72
381.512	115.22
381.975	117.22
382.437	117.42
382.9	116.82
383.362	122.62
383.825	125.02
384.287	126.82
384.75	114.62
385.212	121.82
385.674	134.42
386.136	127.72
386.599	120.62
387.061	115.52
387.523	125.52
387.985	123.42
388.447	127.92
388.91	125.82
389.372	127.22
389.834	124.52
390.296	120.32
390.758	132.12
391.22	135.42
391.682	148.52
392.144	151.32
392.606	139.02
393.068	145.52
393.529	155.42
393.991	145.02
394.453	134.72
394.915	132.22
395.377	139.12
395.838	144.22
396.3	136.12
396.762	142.42
397.224	131.92
397.685	135.62
398.147	133.12
398.608	130.02
399.07	132.72
399.531	139.02
399.993	142.22
400.454	155.02
400.916	150.82
401.377	151.52
401.839	154.22
402.3	152.42
402.762	170.62
403.223	179.82
403.684	173.32
404.145	162.72
404.607	159.42
405.068	165.52
405.529	168.72
405.99	191.02
406.451	176.52
406.913	177.82
407.374	168.42
407.835	166.42
408.296	170.62
408.757	175.32
409.218	185.12
409.679	177.12
410.14	178.42
410.601	175.42
411.062	177.82
411.522	178.32
411.983	180.32
412.444	174.82
412.905	178.12
413.366	187.52
413.826	205.82
414.287	230.22
414.748	268.22
415.208	261.02
415.669	215.82
416.13	219.22
416.59	210.92
417.051	218.42
417.511	225.62
417.972	251.22
418.432	254.52
418.893	296.32
419.353	259.02
419.814	208.12
420.274	186.12
420.734	187.32
421.195	205.82
421.655	193.52
422.115	199.32
422.576	203.62
423.036	210.22
423.496	214.42
423.956	222.92
424.416	236.82
424.876	273.92
425.336	276.32
425.797	267.52
426.257	263.42
426.717	252.32
427.177	239.72
427.637	231.22
428.097	236.52
428.556	254.22
429.016	279.02
429.476	267.72
429.936	275.22
430.396	283.02
430.856	303.82
431.315	313.22
431.775	346.22
432.235	376.82
432.694	354.02
433.154	361.92
433.614	387.92
434.073	335.82
434.533	291.72
434.993	277.32
435.452	286.22
435.912	288.62
436.371	291.62
436.83	287.72
437.29	277.92
437.749	262.62
438.209	241.22
438.668	284.52
439.127	293.52
439.587	267.62
440.046	260.72
440.505	268.32
440.964	283.32
441.424	333.22
441.883	320.22
442.342	271.12
442.801	227.12
443.26	234.32
443.719	233.02
444.178	231.32
444.637	223.22
445.096	234.22
445.555	241.72
446.014	235.32
446.473	239.82
446.932	245.12
447.391	242.52
447.849	244.32
448.308	236.62
448.767	235.52
449.226	256.62
449.685	263.32
450.143	259.42
450.602	256.92
451.061	242.62
451.519	245.12
451.978	242.82
452.436	244.92
452.895	254.22
453.353	265.92
453.812	256.52
454.27	255.52
454.729	260.42
455.187	256.82
455.646	260.32
456.104	268.12
456.562	276.32
457.021	287.92
457.479	267.92
457.937	288.12
458.395	273.22
458.854	263.22
459.312	274.82
459.77	294.72
460.228	272.52
460.686	263.62
461.144	261.62
461.602	263.22
462.06	261.02
462.518	267.52
462.976	277.62
463.434	275.92
463.892	280.92
464.35	292.62
464.808	308.02
465.266	281.12
465.724	287.02
466.181	290.42
466.639	288.72
467.097	311.12
467.555	317.52
468.012	324.22
468.47	329.02
468.928	349.72
469.385	362.32
469.843	368.42
470.3	368.22
470.758	389.42
471.215	409.52
471.673	434.42
472.13	421.82
472.588	445.82
473.045	395.32
473.503	407.72
473.96	416.22
474.417	430.12
474.875	456.22
475.332	507.62
475.789	485.62
476.246	493.52
476.704	513.82
477.161	537.72
477.618	539.52
478.075	570.92
478.532	633.02
478.989	723.72
479.446	832.62
479.903	791.02
480.36	826.62
480.817	874.72
481.274	969.72
481.731	1043.02
482.188	1141.02
482.645	1252.32
483.102	1349.32
483.558	1472.22
484.015	1513.72
484.472	1478.82
484.929	1445.52
485.385	1412.22
485.842	1374.22
486.299	1324.32
486.755	1278.32
487.212	1101.52
487.668	936.52
488.125	866.12
488.582	804.32
489.038	774.32
489.494	742.92
489.951	712.02
490.407	698.02
490.864	678.92
491.32	677.62
491.776	677.72
492.233	672.02
492.689	646.82
493.145	641.82
493.602	637.02
494.058	646.52
494.514	651.72
494.97	670.42
495.426	673.62
495.882	663.52
496.338	653.72
496.794	670.42
497.251	669.42
497.707	668.72
498.163	680.22
498.618	685.52
499.074	671.62
499.53	699.72
499.986	714.42
500.442	677.12
500.898	662.62
501.354	646.02
501.809	661.52
502.265	664.12
502.721	669.72
503.177	676.32
503.632	689.22
504.088	680.42
504.543	704.12
504.999	726.52
505.455	701.82
505.91	682.22
506.366	674.92
506.821	672.42
507.277	663.52
507.732	677.62
508.187	666.92
508.643	680.32
509.098	693.32
509.553	707.62
510.009	713.32
510.464	723.72
510.919	743.52
511.375	747.12
511.83	745.92
512.285	777.72
512.74	811.22
513.195	832.52
513.65	827.82
514.105	812.92
514.56	814.32
515.015	833.52
515.47	855.12
515.925	826.92
516.38	824.32
516.835	843.52
517.29	826.52
517.745	822.92
518.2	818.62
518.655	802.42
519.109	790.12
519.564	786.72
520.019	783.72
520.474	772.22
520.928	785.72
521.383	769.42
521.838	754.42
522.292	749.22
522.747	747.72
523.201	751.92
523.656	753.62
524.11	734.62
524.565	731.52
525.019	742.62
525.474	742.42
525.928	742.32
526.382	740.92
526.837	751.32
527.291	749.62
527.745	742.92
528.2	746.92
528.654	746.62
529.108	741.72
529.562	738.22
530.016	727.82
530.47	729.52
530.925	740.22
531.379	738.12
531.833	751.52
532.287	745.82
532.741	742.72
533.195	750.02
533.649	758.02
534.103	773.52
534.556	749.82
535.01	754.62
535.464	755.82
535.918	764.22
536.372	762.82
536.826	763.12
537.279	746.22
537.733	766.12
538.187	760.72
538.64	757.92
539.094	768.32
539.548	775.12
540.001	778.22
540.455	769.62
540.908	779.72
541.362	791.02
541.815	798.82
542.269	811.82
542.722	805.22
543.175	818.42
543.629	819.82
544.082	841.72
544.536	836.32
544.989	835.12
545.442	849.42
545.895	841.72
546.349	852.12
546.802	849.42
547.255	848.82
547.708	864.02
548.161	870.42
548.614	877.52
549.067	884.52
549.52	886.92
549.973	870.22
550.426	862.32
550.879	855.22
551.332	859.92
551.785	860.92
552.238	864.92
552.691	881.32
553.144	890.42
553.596	915.72
554.049	914.42
554.502	952.42
554.955	967.12
555.407	970.42
555.86	969.32
556.313	955.22
556.765	950.02
557.218	939.22
557.67	939.62
558.123	938.52
558.576	931.12
559.028	945.92
559.48	935.42
559.933	935.62
560.385	892.02
560.838	875.32
561.29	843.02
561.742	840.42
562.195	811.72
562.647	816.72
563.099	821.42
563.551	814.32
564.004	831.82
564.456	822.22
564.908	810.72
565.36	791.72
565.812	780.62
566.264	766.12
566.716	756.42
567.168	754.82
567.62	756.92
568.072	731.62
568.524	740.12
568.976	744.42
569.428	727.22
569.88	723.42
570.332	730.52
570.784	738.72
571.235	733.92
571.687	737.92
572.139	757.72
572.59	756.12
573.042	757.12
573.494	757.32
573.945	760.52
574.397	730.82
574.849	731.52
575.3	738.92
575.752	734.82
576.203	725.02
576.655	727.92
577.106	718.12
577.557	710.22
578.009	720.42
578.46	706.12
578.912	703.92
579.363	703.92
579.814	719.52
580.265	710.92
580.717	715.62
581.168	725.92
581.619	714.72
582.07	727.32
582.521	721.22
582.972	725.62
583.423	723.82
583.875	718.42
584.326	729.02
584.777	747.02
585.227	761.62
585.678	768.52
586.129	789.92
586.58	814.12
587.031	838.52
587.482	863.72
587.933	902.92
588.384	878.92
588.834	836.52
589.285	814.22
589.736	823.92
590.186	815.92
590.637	809.32
591.088	798.02
591.538	785.82
591.989	770.82
592.439	760.82
592.89	761.92
593.34	756.62
593.791	743.22
594.241	731.62
594.692	738.42
595.142	738.72
595.593	743.52
596.043	742.92
596.493	742.02
596.943	736.12
597.394	757.22
597.844	761.72
598.294	771.62
598.744	799.92
599.195	829.42
599.645	872.12
600.095	918.32
600.545	979.12
600.995	1034.52
601.445	1095.92
601.895	1138.92
602.345	1204.82
602.795	1181.52
603.245	1139.32
603.695	1072.52
604.145	1022.82
604.594	968.82
605.044	911.62
605.494	850.42
605.944	794.22
606.393	793.72
606.843	766.52
607.293	772.92
607.743	763.62
608.192	778.42
608.642	799.62
609.091	806.62
609.541	807.82
609.99	807.72
610.44	802.92
610.889	762.42
611.339	737.72
611.788	722.12
612.238	723.52
612.687	744.02
613.136	726.32
613.586	738.82
614.035	729.52
614.484	744.52
614.933	749.42
615.383	746.92
615.832	749.12
616.281	733.82
616.73	703.62
617.179	684.62
617.628	672.12
618.077	663.42
618.526	653.92
618.975	641.42
619.424	647.32
619.873	638.82
620.322	641.62
620.771	639.82
621.22	635.52
621.669	617.52
622.118	606.92
622.567	608.82
623.015	596.32
623.464	608.42
623.913	597.92
624.361	582.72
624.81	583.32
625.259	577.82
625.707	589.82
626.156	587.52
626.604	590.72
627.053	588.92
627.501	602.12
627.95	604.32
628.398	614.42
628.847	604.42
629.295	600.42
629.744	608.12
630.192	599.62
630.64	595.52
631.089	575.92
631.537	565.82
631.985	557.02
632.433	561.52
632.881	564.92
633.33	557.42
633.778	558.12
634.226	550.62
634.674	568.32
635.122	572.42
635.57	572.42
636.018	590.42
636.466	597.32
636.914	575.02
637.362	590.62
637.81	592.22
638.258	608.32
638.705	609.02
639.153	645.42
639.601	656.82
640.049	678.52
640.497	700.52
640.944	729.42
641.392	678.12
641.84	638.32
642.287	612.82
642.735	579.52
643.182	591.82
643.63	586.12
644.078	589.12
644.525	608.62
644.973	608.02
645.42	619.32
645.867	634.82
646.315	667.22
646.762	688.62
647.21	719.42
647.657	732.12
648.104	773.32
648.551	786.82
648.999	846.12
649.446	924.92
649.893	1011.32
650.34	1149.72
650.787	1359.22
651.234	1687.12
651.682	2163.02
652.129	2927.32
652.576	4155.32
653.023	6057.62
653.47	8149.92
653.917	10170.92
654.363	11707.02
654.81	12936.22
655.257	12240.22
655.704	8104.52
656.151	4885.22
656.598	3221.52
657.044	2312.52
657.491	1791.92
657.938	1460.32
658.385	1228.72
658.831	1072.62
659.278	967.42
659.724	857.22
660.171	802.62
660.618	737.22
661.064	698.42
661.511	685.02
661.957	670.32
662.404	664.42
662.85	670.22
663.296	638.02
663.743	577.52
664.189	562.32
664.635	558.42
665.082	550.22
665.528	551.52
665.974	537.42
666.42	530.62
666.867	532.62
667.313	509.52
667.759	493.12
668.205	473.92
668.651	473.32
669.097	469.42
669.543	469.82
669.989	469.32
670.435	466.02
670.881	463.72
671.327	473.62
671.773	498.52
672.219	516.12
672.665	574.42
673.11	616.12
673.556	661.12
674.002	705.22
674.448	691.72
674.893	581.52
675.339	499.72
675.785	462.02
676.23	436.62
676.676	412.82
677.122	410.52
677.567	387.52
678.013	388.02
678.458	382.32
678.904	380.32
679.349	368.82
679.794	375.02
680.24	379.72
680.685	367.82
681.131	369.32
681.576	366.32
682.021	366.82
682.466	374.92
682.912	372.22
683.357	374.92
683.802	405.52
684.247	438.02
684.692	478.12
685.137	524.12
685.583	564.22
686.028	587.32
686.473	543.32
686.918	467.82
687.363	440.62
687.807	413.82
688.252	391.82
688.697	368.42
689.142	354.92
689.587	341.32
690.032	341.42
690.477	363.12
690.921	369.22
691.366	401.82
691.811	417.72
692.255	451.62
692.7	482.42
693.145	526.32
693.589	741.02
694.034	1218.12
694.478	1639.12
694.923	1845.52
695.367	2407.22
695.812	1269.72
696.256	525.12
696.701	391.52
697.145	363.92
697.59	340.42
698.034	334.92
698.478	349.82
698.922	345.72
699.367	345.02
699.811	353.12
700.255	379.32
700.699	404.72
701.143	447.62
701.588	491.92
702.032	537.62
702.476	541.92
702.92	515.32
703.364	530.12
703.808	688.12
704.252	1100.32
704.696	1544.12
705.14	1769.92
705.584	2252.12
706.027	1132.12
706.471	556.22
706.915	422.32
707.359	372.12
707.803	335.32
708.246	330.32
708.69	329.42
709.134	329.42
709.577	329.22
710.021	334.02
710.465	328.42
710.908	308.42
711.352	314.82
711.795	326.92
712.239	371.92
712.682	402.02
713.126	429.52
713.569	473.52
714.012	368.52
714.456	316.52
714.899	298.52
715.342	287.42
715.786	275.72
716.229	273.42
716.672	274.92
717.115	260.42
717.558	261.72
718.002	258.22
718.445	274.72
718.888	292.42
719.331	307.92
719.774	319.52
720.217	320.42
720.66	305.12
721.103	282.52
721.546	264.72
721.989	267.62
722.432	244.62
722.874	253.72
723.317	244.12
723.76	247.82
724.203	271.32
724.645	333.02
725.088	461.82
725.531	598.72
725.974	681.52
726.416	567.02
726.859	322.52
727.301	254.02
727.744	248.62
728.187	250.52
728.629	250.92
729.071	254.82
729.514	271.72
729.956	282.92
730.399	300.02
730.841	308.22
731.283	287.12
731.726	281.52
732.168	278.32
732.61	290.72
733.053	296.82
733.495	336.62
733.937	377.92
734.379	422.42
734.821	458.42
735.263	573.12
735.705	886.52
736.148	1683.32
736.59	2730.42
737.032	3246.62
737.474	2653.72
737.916	872.42
738.357	455.02
738.799	344.92
739.241	312.62
739.683	305.42
740.125	312.92
740.567	315.42
741.008	332.82
741.45	335.22
741.892	335.42
742.334	370.42
742.775	385.92
743.217	363.72
743.658	284.42
744.1	270.92
744.542	279.72
744.983	341.12
745.425	376.02
745.866	374.22
746.307	298.12
746.749	289.62
747.19	339.72
747.632	487.62
748.073	941.62
748.514	1979.62
748.956	3028.42
749.397	3813.32
749.838	3173.22
750.279	3137.52
750.72	1584.22
751.162	575.62
751.603	336.92
752.044	273.32
752.485	225.22
752.926	221.72
753.367	213.62
753.808	209.02
754.249	196.92
754.69	191.52
755.131	191.42
755.572	197.72
756.013	193.12
756.453	196.62
756.894	201.22
757.335	203.32
757.776	212.02
758.216	207.92
758.657	212.42
759.098	213.82
759.538	240.12
759.979	287.52
760.42	394.72
760.86	745.32
761.301	1964.12
761.741	4716.52
762.182	6812.92
762.622	4808.02
763.063	1392.22
763.503	564.72
763.943	340.92
764.384	280.92
764.824	263.52
765.264	255.52
765.705	222.12
766.145	198.72
766.585	186.22
767.025	179.42
767.465	180.52
767.906	197.62
768.346	201.02
768.786	204.12
769.226	226.42
769.666	323.42
770.106	654.12
770.546	1646.12
770.986	2804.32
771.426	2504.92
771.866	839.42
772.306	347.12
772.745	213.72
773.185	178.12
773.625	176.02
774.065	156.92
774.505	168.42
774.944	209.42
775.384	375.22
775.824	608.12
776.263	604.02
776.703	285.72
777.142	165.52
777.582	143.82
778.021	135.62
778.461	134.52
778.9	129.62
779.34	132.62
779.779	122.22
780.219	109.02
780.658	111.72
781.097	116.82
781.537	118.52
781.976	116.22
782.415	110.62
782.855	106.22
783.294	107.82
783.733	110.82
784.172	112.72
784.611	103.02
785.05	113.92
785.489	112.62
785.928	120.12
786.367	134.22
786.806	121.32
787.245	133.72
787.684	144.02
788.123	155.62
788.562	144.02
789.001	134.22
789.44	130.02
789.879	124.02
790.317	127.02
790.756	132.02
791.195	134.42
791.634	159.02
792.072	217.02
792.511	382.32
792.95	1064.52
793.388	2249.92
793.827	2018.82
794.265	713.12
794.704	297.52
795.142	200.52
795.581	161.12
796.019	138.12
796.458	135.62
796.896	128.22
797.334	138.62
797.773	164.02
798.211	235.02
798.649	471.02
799.087	1083.82
799.526	1698.92
799.964	2139.12
800.402	2129.12
800.84	807.22
801.278	324.02
801.716	196.52
802.154	163.72
802.592	152.12
803.03	147.42
803.468	144.52
803.906	149.12
804.344	157.92
804.782	149.42
805.22	142.32
805.658	137.22
806.096	160.52
806.533	172.42
806.971	179.02
807.409	231.92
807.847	332.92
808.284	712.42
808.722	1978.72
809.16	3490.62
809.597	3349.62
810.035	5755.12
810.472	6148.82
810.91	2222.72
811.347	845.62
811.785	432.72
812.222	277.62
812.66	205.42
813.097	179.62
813.535	150.22
813.972	138.82
814.409	119.32
814.846	115.62
815.284	124.22
815.721	111.52
816.158	107.62
816.595	116.02
817.032	161.82
817.47	187.42
817.907	145.52
818.344	107.52
818.781	111.62
819.218	100.12
819.655	139.02
820.092	199.22
820.529	230.72
820.966	186.02
821.403	135.32
821.839	105.42
822.276	102.52
822.713	132.82
823.15	147.12
823.587	124.02
824.023	152.72
824.46	326.82
824.897	946.72
825.333	1425.22
825.77	625.82
826.206	238.52
826.643	146.32
827.08	101.52
827.516	85.22
827.953	86.92
828.389	79.72
828.825	77.72
829.262	72.42
829.698	72.62
830.135	66.32
830.571	66.42
831.007	63.32
831.443	67.02
831.88	61.62
832.316	59.82
832.752	69.62
833.188	66.82
833.624	67.22
834.06	69.72
834.497	71.82
834.933	82.22
835.369	81.82
835.805	70.82
836.241	80.92
836.677	86.82
837.112	91.52
837.548	111.32
837.984	143.22
838.42	213.62
838.856	519.62
839.292	1600.62
839.727	2431.42
840.163	1152.12
840.599	978.12
841.034	2150.72
841.47	2231.32
841.906	825.82
842.341	343.92
842.777	208.42
843.212	210.72
843.648	197.02
844.083	121.22
844.519	83.72
844.954	70.82
845.39	65.02
845.825	64.12
846.261	67.12
846.696	55.32
847.131	55.22
847.566	56.62
848.002	52.02
848.437	61.52
848.872	63.32
849.307	65.32
849.742	96.02
850.177	190.82
850.613	588.32
851.048	921.62
851.483	405.32
851.918	163.92
852.353	91.12
852.788	58.02
853.223	50.52
853.657	53.42
854.092	46.52
854.527	41.32
854.962	45.52
855.397	45.82
855.832	50.82
856.266	41.12
856.701	44.52
857.136	37.92
857.57	49.12
858.005	53.82
858.44	55.92
858.874	53.22
859.309	58.82
859.743	42.62
860.178	49.12
860.612	42.32
861.047	56.72
861.481	73.02
861.915	78.02
862.35	56.12
862.784	35.02
863.218	37.92
863.653	33.32
864.087	45.72
864.521	52.82
864.955	68.42
865.39	156.42
865.824	189.42
866.258	121.72
866.692	174.52
867.126	189.62
867.56	116.92
867.994	60.22
868.428	46.62
868.862	53.42
869.296	64.22
869.73	67.32
870.164	59.02
870.598	54.62
871.031	32.12
871.465	32.82
871.899	27.72
872.333	23.02
872.766	26.32
873.2	23.12
873.634	32.22
874.067	33.42
874.501	30.12
874.935	38.72
875.368	34.22
875.802	28.22
876.235	23.62
876.669	30.62
877.102	21.42
877.535	28.82
877.969	24.72
878.402	19.82
878.836	25.92
879.269	22.22
879.702	29.02
880.135	22.52
880.569	21.82
881.002	24.62
881.435	26.82
881.868	16.82
882.301	26.32
882.734	17.72
883.167	23.62
883.601	17.72
884.034	21.42
884.467	13.02
884.899	17.82
885.332	18.52
885.765	14.02
886.198	14.02
886.631	18.12
887.064	25.52
887.497	21.42
887.929	26.92
888.362	14.92
888.795	12.32
889.228	22.72
889.66	21.92
890.093	14.72
890.526	16.92
890.958	12.62
891.391	16.92
891.823	23.82
892.256	17.62
892.688	18.52
893.121	16.42
893.553	19.32
893.985	21.12
894.418	23.62
894.85	18.52
895.282	14.92
895.715	15.92
896.147	20.02
896.579	16.52
897.011	16.02
897.444	15.82
897.876	16.92
898.308	16.32
898.74	12.92
899.172	13.22
899.604	23.52
900.036	25.12
900.468	13.42
900.9	16.52
901.332	14.82
901.764	19.52
902.196	17.92
902.628	21.72
903.06	17.02
903.491	32.32
903.923	25.72
904.355	21.32
904.787	23.72
905.218	25.42
905.65	23.02
906.082	13.62
906.513	19.02
906.945	20.22
907.376	11.62
907.808	24.32
908.239	21.22
908.671	20.12
909.102	20.12
909.534	27.72
909.965	48.02
910.397	101.62
910.828	338.92
911.259	500.92
911.691	228.62
912.122	120.72
912.553	49.62
912.984	39.22
913.415	29.62
913.847	27.52
914.278	20.72
914.709	16.22
915.14	17.52
915.571	17.22
916.002	9.02
916.433	22.72
916.864	19.02
917.295	12.62
917.726	17.32
918.157	11.42
918.587	33.32
919.018	22.92
919.449	22.52
919.88	22.12
920.311	28.92
920.741	52.42
921.172	172.32
921.603	155.82
922.033	73.72
922.464	42.42
922.895	25.22
923.325	16.62
923.756	17.52
924.186	14.32
924.617	15.62
925.047	22.52
925.478	18.82
925.908	21.82
926.338	15.52
926.769	11.92
927.199	10.52
927.629	5.62
928.06	13.42
928.49	13.22
928.92	14.02
929.35	6.52
929.78	11.82
930.21	5.32
930.641	9.02
931.071	11.22
931.501	8.32
931.931	9.22
932.361	13.02
932.791	-0.48
933.221	5.82
933.651	6.82
934.08	15.12
934.51	32.52
934.94	8.52
935.37	10.62
935.8	10.42
936.229	10.32
936.659	12.62
937.089	7.62
937.519	14.22
937.948	25.62
938.378	21.12
938.807	10.42
939.237	5.02
939.666	5.22
940.096	-8.98
940.525	1.92
940.955	7.62
941.384	-1.88
941.814	-6.18
942.243	-0.18
942.672	7.32
943.102	3.02
943.531	1.32
943.96	4.22
944.39	4.72
944.819	1.42
945.248	2.52
945.677	3.72
946.106	6.52
946.535	1.92
946.964	-3.48
947.393	1.82
947.822	2.02
948.251	-5.18
948.68	5.92
949.109	6.62
949.538	3.82
949.967	-1.28
950.396	0.62
950.825	-0.58
951.254	0.22
951.682	-5.08
952.111	4.02
952.54	6.02
952.969	-7.88
953.397	-6.48
953.826	4.62
954.254	-2.18
954.683	3.62
955.112	0.42
955.54	-5.68
955.969	-0.28
956.397	-2.28
956.826	-1.88
957.254	3.72
957.682	1.42
958.111	6.22
958.539	0.12
958.967	4.32
959.396	1.42
959.824	-0.28
960.252	1.12
960.68	-8.58
961.109	-7.58
961.537	-3.28
961.965	-0.08
962.393	2.72
962.821	-5.58
963.249	1.42
963.677	10.62
964.105	5.52
964.533	50.52
964.961	45.52
965.389	26.02
965.817	12.52
966.245	4.12
966.672	-1.78
967.1	-6.58
967.528	1.52
967.956	-2.18
968.383	2.32
968.811	-0.78
969.239	1.02
969.666	-6.18
970.094	2.12
970.522	0.72
970.949	-2.88
971.377	-8.68
971.804	-1.38
972.232	-2.98
972.659	-1.88
973.087	-1.98
973.514	-4.08
973.941	-3.38
974.369	0.82
974.796	1.72
975.223	3.42
975.651	-9.88
976.078	2.02
976.505	-1.58
976.932	4.42
977.359	17.62
977.786	15.72
978.214	3.02
978.641	4.12
979.068	-9.88
979.495	-8.88
979.922	0.22
980.349	3.32
980.776	1.12
981.202	-0.88
981.629	5.32
982.056	5.42
982.483	-4.48
982.91	4.92
983.337	-3.28
983.763	1.02
984.19	-5.18
984.617	-7.48
985.043	-9.78
985.47	0.32
985.897	-3.68
986.323	-9.58
986.75	1.32
987.176	-0.48
987.603	-2.68
988.029	2.62
988.456	-2.58
988.882	-0.78
989.308	-2.88
989.735	-7.18
990.161	-7.18
990.587	-1.28
991.014	-8.58
991.44	7.92
991.866	-2.08
992.292	-3.98
992.719	-2.48
993.145	-2.18
993.571	-5.48
993.997	-6.48
994.423	-2.48
994.849	0.02
995.275	5.12
995.701	-1.88
996.127	-8.68
996.553	0.82
996.979	3.72
997.405	-3.28
997.83	-0.28
998.256	-6.08
998.682	-2.18
999.108	-12.48
999.534	0.42
999.959	-1.18
1000.385	-5.88
1000.811	-1.18
1001.236	-11.98
1001.662	-11.18
1002.087	-10.18
1002.513	-0.88
1002.938	2.32
1003.364	-5.58
1003.789	-2.58
1004.215	1.22
1004.64	0.72
1005.066	-0.88
1005.491	-2.88
1005.916	-2.18
1006.342	-5.78
1006.767	-9.78
1007.192	6.52
1007.617	-4.78
1008.042	0.02
1008.468	-10.68
1008.893	-6.68
1009.318	-3.68
1009.743	-1.48
1010.168	3.42
1010.593	-0.38
1011.018	-5.58
1011.443	0.02
1011.868	1.12
1012.293	-0.88
1012.718	-3.98
1013.143	-3.08
1013.567	-3.48
1013.992	-3.08
1014.417	-12.48
1014.842	0.22
1015.267	-5.58
1015.691	-4.38
1016.116	5.22
1016.541	1.02
1016.965	7.52
1017.39	2.82
1017.814	3.02
1018.239	-4.48
1018.663	-7.88
1019.088	-11.48
1019.512	-5.28
1019.937	1.22
1020.361	-2.38
1020.785	-12.78
1021.21	-7.08
1021.634	-1.98
1022.058	-0.78
1022.483	3.22
1022.907	-5.08
1023.331	-5.58
1023.755	-4.68
1024.179	-1.08
1024.604	-6.18
1025.028	-10.28
1025.452	-3.08
1025.876	-6.18
1026.3	-7.18
1026.724	-8.58
1027.148	-4.98
1027.572	-5.08
1027.996	2.82
1028.42	-2.88
1028.843	-7.28
1029.267	-8.18
1029.691	-0.78
1030.115	-9.58
1030.539	-13.58
1030.962	-9.58
1031.386	-12.38
1031.81	-7.58
1032.233	-2.38
1032.657	-0.68
1033.08	-4.78
1033.504	-2.18
1033.927	-2.68
1034.351	1.32
1034.774	-10.78
1035.198	-2.78
1035.621	-4.98
1036.045	-5.28
1036.468	-5.78
1036.891	-10.78
1037.315	-4.38
1037.738	-8.08
1038.161	-3.58
1038.584	-2.08
1039.008	-2.38
1039.431	-2.38
1039.854	-6.68
1040.277	-6.38
1040.7	-7.58
1041.123	-3.18
1041.546	-7.78
1041.969	0.52
1042.392	-8.18
1042.815	-1.68
1043.238	-2.88
1043.661	1.62
1044.084	-9.48
1044.507	-2.48
1044.93	-6.78
1045.352	-7.58
1045.775	-1.88
1046.198	-1.88
1046.621	-0.88
1047.043	0.32
1047.466	4.92
1047.889	-2.38
1048.311	-1.38
1048.734	-3.18
1049.156	0.32
1049.579	5.02
1050.001	0.42
1050.424	-3.68
1050.846	-6.48
1051.269	0.22
1051.691	-11.78
1052.113	-3.98
1052.536	-1.18
1052.958	-1.88
1053.38	-4.68
1053.802	-10.68
1054.225	0.12
1054.647	-8.48
1055.069	1.22
1055.491	-0.48
1055.913	-9.78
1056.335	-5.18
1056.757	-1.88
1057.179	-1.18
1057.601	-1.48
1058.023	-3.58
1058.445	-3.48
1058.867	-5.18
1059.289	-3.08
1059.711	-8.28
1060.133	-7.18
1060.555	-1.68
1060.976	-9.28
1061.398	-7.18
1061.82	-9.48
1062.241	-9.58
1062.663	-8.18
1063.085	-3.08
1063.506	0.52
1063.928	-0.08
1064.35	0.62
1064.771	-11.68
1065.193	-8.98
1065.614	-7.08
1066.035	-7.58
1066.457	-10.68
1066.878	-2.68
1067.3	1.32
1067.721	-7.18
1068.142	-6.98
1068.564	-5.78
1068.985	-6.48
1069.406	-8.98
1069.827	-2.58
1070.248	-1.68
1070.67	-7.48
1071.091	-8.08
1071.512	-3.98
1071.933	-7.78
1072.354	-3.88
1072.775	-5.78
1073.196	-14.28
1073.617	-3.18
1074.038	-5.68
1074.459	1.92
1074.88	-4.68
1075.3	3.82
1075.721	-7.78
1076.142	6.22
1076.563	2.82
1076.983	-9.48
1077.404	-5.58
1077.825	-11.38
1078.246	-3.08
1078.666	-8.88
1079.087	-6.78
1079.507	-10.48
1079.928	0.32
1080.348	-6.58
1080.769	-4.78
1081.189	-9.38
1081.61	0.12
1082.03	-4.48
1082.451	-7.68
1082.871	-7.28
1083.291	-5.88
1083.711	-10.98
1084.132	-9.78
1084.552	-5.48
1084.972	4.02
1085.392	-4.88
1085.813	-13.08
1086.233	-11.18
1086.653	-6.58
1087.073	-3.48
1087.493	-12.88
1087.913	-8.38
1088.333	-12.28
1088.753	1.22
1089.173	-3.28
1089.593	-0.98
1090.013	0.72
1090.433	-3.78
1090.852	-3.98
1091.272	-6.08
1091.692	-2.08
1092.112	-1.88
1092.531	-10.18
1092.951	-11.98
1093.371	-3.78
1093.79	1.92
1094.21	-7.08
1094.63	-5.88
1095.049	-9.78
1095.469	1.32
1095.888	-1.08
1096.308	2.02
1096.727	5.22
1097.146	-8.98
1097.566	-2.88
1097.985	-6.68
1098.405	-5.88
1098.824	-4.48
1099.243	-6.78
1099.662	-6.18
1100.082	-6.68
1100.501	-3.28
1100.92	-5.68
1101.339	-2.78
1101.758	-6.68
