Data from 20171114-ORNL-Ar_H_NY_Subt18_08-04-58-568.txt Node
Date: Tue Nov 14 08:04:58 EST 2017
User: Ender
Spectrometer: HR+D1039
Trigger mode: 0
Integration Time (sec): 2.730000E-2
Scans to average: 10
Electric dark correction enabled: true
Nonlinearity correction enabled: false
Boxcar width: 0
XAxis mode: Wavelengths
Number of Pixels in Spectrum: 2048
>>>>>Begin Spectral Data<<<<<
187.836	-7.48
188.309	-7.48
188.782	-7.48
189.255	4.12
189.728	-5.08
190.201	5.62
190.674	-1.28
191.147	4.32
191.619	-8.48
192.092	-3.28
192.565	1.62
193.038	2.52
193.511	4.62
193.984	2.02
194.456	0.62
194.929	3.42
195.402	-0.28
195.874	-2.98
196.347	-0.98
196.82	-3.88
197.292	-0.18
197.765	2.42
198.237	-8.48
198.71	-0.48
199.182	-1.88
199.655	1.52
200.127	3.32
200.6	-5.08
201.072	-2.88
201.544	-5.28
202.017	-6.98
202.489	-2.78
202.961	-2.08
203.433	-5.58
203.906	-11.18
204.378	-6.38
204.85	-6.38
205.322	-5.18
205.794	3.32
206.266	-2.38
206.739	-9.68
207.211	-2.88
207.683	-11.18
208.155	-3.18
208.627	-10.08
209.099	-2.78
209.57	-11.28
210.042	-6.08
210.514	2.42
210.986	3.82
211.458	-11.38
211.93	-2.48
212.402	-0.78
212.873	-12.68
213.345	-15.08
213.817	-12.38
214.288	-4.48
214.76	-12.58
215.232	-4.18
215.703	-3.08
216.175	-3.28
216.646	-10.18
217.118	-7.98
217.589	-4.58
218.061	0.12
218.532	-10.98
219.004	-2.78
219.475	-3.98
219.946	-4.78
220.418	-5.18
220.889	0.92
221.36	4.52
221.832	-4.68
222.303	-10.88
222.774	-0.28
223.245	-12.88
223.717	-4.48
224.188	1.72
224.659	-9.08
225.13	-4.78
225.601	-3.38
226.072	-0.78
226.543	-1.38
227.014	-2.58
227.485	-4.18
227.956	-8.78
228.427	-2.08
228.898	5.02
229.369	-1.18
229.839	-3.78
230.31	-11.58
230.781	1.22
231.252	-2.98
231.722	-6.58
232.193	-2.38
232.664	3.82
233.135	2.42
233.605	2.72
234.076	-10.08
234.546	-0.18
235.017	4.12
235.487	5.62
235.958	-2.88
236.428	4.82
236.899	1.52
237.369	6.42
237.84	-4.68
238.31	9.72
238.78	5.22
239.251	2.52
239.721	8.42
240.191	-1.48
240.662	-0.28
241.132	-5.38
241.602	0.72
242.072	2.72
242.542	7.62
243.013	-1.78
243.483	2.22
243.953	-0.98
244.423	-2.28
244.893	-6.18
245.363	7.82
245.833	5.22
246.303	-7.78
246.773	5.12
247.243	0.72
247.712	-0.58
248.182	7.92
248.652	5.42
249.122	5.12
249.592	10.12
250.061	20.62
250.531	29.82
251.001	16.52
251.471	20.72
251.94	19.72
252.41	6.62
252.879	2.02
253.349	12.32
253.818	13.72
254.288	6.32
254.757	-2.48
255.227	3.22
255.696	5.32
256.166	9.12
256.635	4.32
257.105	6.22
257.574	6.62
258.043	5.82
258.513	10.12
258.982	11.32
259.451	8.02
259.92	15.72
260.389	9.22
260.859	15.62
261.328	10.32
261.797	18.32
262.266	5.32
262.735	7.02
263.204	8.12
263.673	7.82
264.142	6.12
264.611	-0.48
265.08	6.12
265.549	-3.68
266.018	5.22
266.487	-5.68
266.955	3.12
267.424	7.82
267.893	6.12
268.362	0.72
268.83	6.22
269.299	10.12
269.768	6.52
270.236	8.42
270.705	2.42
271.174	11.72
271.642	5.32
272.111	8.32
272.579	21.52
273.048	23.42
273.516	28.62
273.985	33.62
274.453	24.62
274.922	18.92
275.39	10.42
275.858	8.22
276.327	12.22
276.795	14.92
277.263	8.02
277.731	30.82
278.2	62.72
278.668	61.92
279.136	53.42
279.604	23.32
280.072	17.52
280.54	13.82
281.008	12.12
281.477	13.12
281.945	10.82
282.413	12.32
282.881	8.62
283.348	7.32
283.816	15.92
284.284	18.52
284.752	24.12
285.22	9.42
285.688	20.92
286.156	20.42
286.623	49.12
287.091	52.42
287.559	24.52
288.026	19.72
288.494	16.52
288.962	7.72
289.429	14.62
289.897	16.52
290.364	12.52
290.832	13.42
291.3	13.52
291.767	16.42
292.234	20.22
292.702	14.62
293.169	19.32
293.637	28.02
294.104	24.42
294.571	12.22
295.039	19.22
295.506	16.82
295.973	22.82
296.44	19.22
296.908	20.42
297.375	20.82
297.842	23.32
298.309	18.82
298.776	13.72
299.243	20.32
299.71	13.22
300.177	22.52
300.644	19.92
301.111	20.42
301.578	23.92
302.045	15.42
302.512	24.12
302.979	25.52
303.446	20.62
303.913	20.42
304.379	24.02
304.846	26.52
305.313	26.12
305.78	22.32
306.246	28.22
306.713	28.92
307.18	26.32
307.646	29.92
308.113	29.62
308.579	27.22
309.046	26.32
309.512	20.72
309.979	20.82
310.445	27.82
310.912	34.82
311.378	31.62
311.845	29.22
312.311	31.82
312.777	30.72
313.244	32.52
313.71	38.42
314.176	35.12
314.642	29.12
315.109	35.92
315.575	32.02
316.041	38.62
316.507	34.12
316.973	38.52
317.439	33.72
317.905	38.52
318.371	31.82
318.837	29.42
319.303	34.02
319.769	35.52
320.235	39.82
320.701	37.62
321.167	44.12
321.633	41.12
322.099	39.62
322.564	42.82
323.03	41.42
323.496	39.22
323.962	41.92
324.427	36.52
324.893	42.82
325.359	36.42
325.824	39.22
326.29	36.22
326.755	40.62
327.221	44.22
327.686	38.82
328.152	46.72
328.617	46.62
329.083	41.82
329.548	50.32
330.014	45.52
330.479	41.72
330.944	41.32
331.41	42.82
331.875	46.72
332.34	41.52
332.805	41.82
333.271	48.42
333.736	45.82
334.201	52.62
334.666	57.42
335.131	56.92
335.596	51.22
336.061	56.92
336.526	39.92
336.991	45.52
337.456	60.82
337.921	58.82
338.386	43.12
338.851	39.62
339.316	50.32
339.781	47.62
340.246	50.52
340.711	46.22
341.175	51.92
341.64	46.62
342.105	49.52
342.569	50.92
343.034	62.52
343.499	57.82
343.963	53.32
344.428	64.52
344.893	58.92
345.357	62.32
345.822	62.32
346.286	69.42
346.751	78.42
347.215	69.72
347.679	78.42
348.144	95.62
348.608	77.22
349.073	66.02
349.537	71.12
350.001	85.02
350.465	89.32
350.93	88.72
351.394	88.82
351.858	74.72
352.322	83.82
352.786	85.42
353.25	98.22
353.715	106.82
354.179	97.92
354.643	124.92
355.107	125.22
355.571	108.72
356.035	101.82
356.498	116.72
356.962	124.12
357.426	131.42
357.89	118.92
358.354	90.92
358.818	88.02
359.281	79.32
359.745	75.82
360.209	83.62
360.673	76.42
361.136	80.42
361.6	85.42
362.064	87.22
362.527	77.22
362.991	95.52
363.454	80.22
363.918	77.72
364.381	79.12
364.845	83.92
365.308	82.22
365.772	90.62
366.235	79.22
366.698	80.82
367.162	83.62
367.625	83.42
368.088	87.42
368.552	88.82
369.015	88.12
369.478	93.32
369.941	96.92
370.404	95.92
370.867	108.02
371.331	106.12
371.794	122.92
372.257	112.92
372.72	119.42
373.183	104.02
373.646	108.72
374.109	100.42
374.572	110.82
375.035	107.02
375.497	111.52
375.96	101.02
376.423	108.62
376.886	110.12
377.349	109.92
377.811	102.92
378.274	105.42
378.737	110.42
379.199	115.72
379.662	104.72
380.125	112.82
380.587	114.92
381.05	115.52
381.512	125.12
381.975	139.12
382.437	128.82
382.9	126.02
383.362	129.12
383.825	141.82
384.287	146.92
384.75	140.72
385.212	134.72
385.674	139.92
386.136	135.52
386.599	125.02
387.061	127.92
387.523	129.72
387.985	129.32
388.447	140.92
388.91	138.32
389.372	150.42
389.834	145.32
390.296	143.22
390.758	150.92
391.22	167.22
391.682	209.02
392.144	288.12
392.606	223.02
393.068	168.42
393.529	165.22
393.991	151.72
394.453	143.92
394.915	154.02
395.377	190.92
395.838	210.22
396.3	154.72
396.762	137.12
397.224	132.32
397.685	125.22
398.147	123.02
398.608	121.32
399.07	125.22
399.531	131.62
399.993	136.52
400.454	147.02
400.916	142.92
401.377	142.32
401.839	148.42
402.3	148.72
402.762	152.92
403.223	176.42
403.684	176.42
404.145	161.82
404.607	158.72
405.068	162.52
405.529	166.62
405.99	189.02
406.451	171.82
406.913	163.12
407.374	165.22
407.835	157.62
408.296	163.22
408.757	169.52
409.218	183.82
409.679	181.42
410.14	169.32
410.601	174.92
411.062	175.12
411.522	184.02
411.983	184.22
412.444	167.12
412.905	173.22
413.366	181.82
413.826	186.72
414.287	215.22
414.748	258.12
415.208	241.82
415.669	205.02
416.13	200.92
416.59	191.42
417.051	204.92
417.511	219.22
417.972	229.52
418.432	233.52
418.893	286.32
419.353	247.22
419.814	199.92
420.274	179.12
420.734	175.32
421.195	197.62
421.655	192.42
422.115	191.42
422.576	190.12
423.036	196.12
423.496	198.92
423.956	218.02
424.416	226.42
424.876	257.02
425.336	256.62
425.797	259.42
426.257	245.12
426.717	237.52
427.177	225.62
427.637	215.72
428.097	235.52
428.556	238.52
429.016	271.92
429.476	265.12
429.936	267.42
430.396	271.32
430.856	283.42
431.315	309.02
431.775	334.42
432.235	368.42
432.694	339.52
433.154	356.52
433.614	382.42
434.073	317.42
434.533	279.82
434.993	262.22
435.452	278.22
435.912	282.02
436.371	276.92
436.83	277.32
437.29	263.32
437.749	244.72
438.209	234.52
438.668	267.52
439.127	287.72
439.587	261.02
440.046	247.62
440.505	259.32
440.964	262.32
441.424	313.22
441.883	302.62
442.342	247.02
442.801	214.02
443.26	217.02
443.719	217.32
444.178	211.42
444.637	203.72
445.096	208.02
445.555	216.02
446.014	219.32
446.473	221.22
446.932	229.12
447.391	221.62
447.849	228.62
448.308	214.32
448.767	220.32
449.226	235.02
449.685	228.52
450.143	244.12
450.602	234.52
451.061	222.62
451.519	226.52
451.978	229.52
452.436	229.22
452.895	237.92
453.353	246.22
453.812	241.32
454.27	235.22
454.729	230.52
455.187	230.82
455.646	236.42
456.104	242.22
456.562	254.72
457.021	257.72
457.479	250.72
457.937	274.92
458.395	251.42
458.854	242.32
459.312	250.72
459.77	273.52
460.228	249.82
460.686	239.12
461.144	239.02
461.602	234.32
462.06	234.92
462.518	246.32
462.976	248.82
463.434	254.92
463.892	254.52
464.35	271.62
464.808	281.62
465.266	264.32
465.724	265.82
466.181	268.42
466.639	260.82
467.097	282.72
467.555	287.62
468.012	298.22
468.47	302.92
468.928	322.22
469.385	331.42
469.843	337.72
470.3	342.22
470.758	346.72
471.215	373.52
471.673	397.62
472.13	400.32
472.588	406.12
473.045	367.22
473.503	366.52
473.96	384.32
474.417	392.32
474.875	422.92
475.332	458.52
475.789	453.32
476.246	452.32
476.704	467.62
477.161	493.72
477.618	505.62
478.075	541.12
478.532	601.42
478.989	676.82
479.446	785.82
479.903	759.62
480.36	790.52
480.817	852.42
481.274	938.52
481.731	1055.72
482.188	1137.22
482.645	1286.22
483.102	1386.62
483.558	1525.32
484.015	1570.92
484.472	1545.42
484.929	1499.32
485.385	1440.32
485.842	1411.22
486.299	1345.22
486.755	1274.92
487.212	1062.72
487.668	908.62
488.125	841.72
488.582	776.52
489.038	728.22
489.494	700.42
489.951	675.42
490.407	653.32
490.864	641.02
491.32	637.02
491.776	629.52
492.233	630.52
492.689	596.32
493.145	594.32
493.602	582.82
494.058	602.62
494.514	603.52
494.97	622.72
495.426	638.42
495.882	612.22
496.338	604.92
496.794	607.82
497.251	612.42
497.707	621.62
498.163	628.62
498.618	624.92
499.074	639.12
499.53	661.12
499.986	664.92
500.442	633.22
500.898	615.22
501.354	608.92
501.809	620.62
502.265	630.52
502.721	650.42
503.177	649.32
503.632	650.12
504.088	668.52
504.543	698.72
504.999	694.72
505.455	638.22
505.91	622.62
506.366	616.02
506.821	611.82
507.277	604.12
507.732	610.92
508.187	620.42
508.643	617.22
509.098	614.42
509.553	627.42
510.009	652.82
510.464	654.02
510.919	669.52
511.375	669.62
511.83	696.82
512.285	711.42
512.74	750.72
513.195	776.52
513.65	758.92
514.105	748.42
514.56	756.72
515.015	769.72
515.47	797.72
515.925	776.92
516.38	773.32
516.835	773.72
517.29	773.32
517.745	763.82
518.2	750.02
518.655	733.62
519.109	729.82
519.564	731.42
520.019	719.02
520.474	705.42
520.928	708.62
521.383	696.32
521.838	693.02
522.292	695.12
522.747	691.32
523.201	689.82
523.656	677.22
524.11	676.02
524.565	676.72
525.019	675.72
525.474	686.52
525.928	678.22
526.382	672.42
526.837	666.12
527.291	681.52
527.745	678.02
528.2	685.32
528.654	673.42
529.108	668.02
529.562	671.52
530.016	668.22
530.47	662.72
530.925	663.52
531.379	677.62
531.833	688.82
532.287	686.02
532.741	678.42
533.195	685.22
533.649	691.72
534.103	711.12
534.556	691.02
535.01	695.92
535.464	690.42
535.918	704.92
536.372	702.12
536.826	696.52
537.279	691.12
537.733	688.92
538.187	697.22
538.64	693.42
539.094	694.82
539.548	711.72
540.001	700.22
540.455	707.72
540.908	709.62
541.362	716.32
541.815	715.32
542.269	722.12
542.722	732.12
543.175	744.22
543.629	742.72
544.082	764.42
544.536	766.52
544.989	758.12
545.442	763.12
545.895	764.82
546.349	756.12
546.802	764.62
547.255	761.92
547.708	777.92
548.161	791.52
548.614	789.02
549.067	796.82
549.52	793.12
549.973	783.92
550.426	769.82
550.879	773.42
551.332	774.12
551.785	769.42
552.238	774.92
552.691	787.52
553.144	806.82
553.596	819.02
554.049	824.92
554.502	860.02
554.955	883.82
555.407	878.92
555.86	875.52
556.313	853.92
556.765	848.12
557.218	846.22
557.67	843.12
558.123	841.82
558.576	831.32
559.028	845.02
559.48	860.62
559.933	847.12
560.385	808.42
560.838	774.22
561.29	754.52
561.742	744.12
562.195	727.32
562.647	733.22
563.099	745.92
563.551	741.02
564.004	747.22
564.456	742.42
564.908	739.32
565.36	715.42
565.812	708.22
566.264	702.62
566.716	695.32
567.168	680.92
567.62	690.52
568.072	672.92
568.524	663.42
568.976	660.32
569.428	647.12
569.88	646.22
570.332	650.62
570.784	643.62
571.235	655.22
571.687	670.22
572.139	669.62
572.59	669.82
573.042	674.72
573.494	675.52
573.945	678.32
574.397	656.32
574.849	644.82
575.3	659.52
575.752	643.12
576.203	647.72
576.655	659.02
577.106	645.82
577.557	636.52
578.009	632.72
578.46	635.22
578.912	625.02
579.363	631.32
579.814	631.82
580.265	625.22
580.717	635.32
581.168	640.52
581.619	651.02
582.07	648.72
582.521	639.52
582.972	635.52
583.423	648.52
583.875	644.42
584.326	660.02
584.777	706.42
585.227	779.92
585.678	864.42
586.129	955.22
586.58	1026.42
587.031	1098.32
587.482	1260.72
587.933	1436.52
588.384	1240.32
588.834	929.82
589.285	761.32
589.736	748.22
590.186	735.22
590.637	728.22
591.088	701.22
591.538	695.62
591.989	689.32
592.439	674.22
592.89	678.12
593.34	670.82
593.791	662.82
594.241	666.92
594.692	669.02
595.142	662.12
595.593	660.42
596.043	662.82
596.493	676.82
596.943	676.02
597.394	678.72
597.844	678.12
598.294	686.32
598.744	704.42
599.195	717.32
599.645	767.02
600.095	795.72
600.545	859.82
600.995	898.52
601.445	956.82
601.895	1019.62
602.345	1060.32
602.795	1049.22
603.245	1006.12
603.695	956.62
604.145	898.22
604.594	859.62
605.044	806.82
605.494	764.52
605.944	700.82
606.393	693.12
606.843	684.62
607.293	689.22
607.743	686.12
608.192	692.92
608.642	716.02
609.091	714.82
609.541	724.22
609.99	729.22
610.44	713.72
610.889	674.22
611.339	654.92
611.788	639.72
612.238	645.72
612.687	663.52
613.136	672.92
613.586	688.12
614.035	679.52
614.484	708.22
614.933	706.92
615.383	702.52
615.832	691.02
616.281	669.22
616.73	645.22
617.179	619.42
617.628	605.72
618.077	595.02
618.526	582.32
618.975	567.62
619.424	575.22
619.873	569.52
620.322	574.52
620.771	561.72
621.22	554.92
621.669	547.92
622.118	543.72
622.567	533.72
623.015	530.92
623.464	532.12
623.913	522.62
624.361	511.92
624.81	509.02
625.259	515.62
625.707	516.22
626.156	506.12
626.604	527.62
627.053	523.62
627.501	527.92
627.95	520.02
628.398	535.72
628.847	527.52
629.295	526.82
629.744	539.22
630.192	513.22
630.64	516.22
631.089	531.32
631.537	531.92
631.985	533.92
632.433	547.72
632.881	555.52
633.33	611.22
633.778	577.12
634.226	522.52
634.674	537.12
635.122	534.22
635.57	545.22
636.018	568.52
636.466	541.32
636.914	511.42
637.362	525.82
637.81	519.12
638.258	526.32
638.705	524.52
639.153	557.62
639.601	568.92
640.049	585.72
640.497	625.82
640.944	627.42
641.392	584.12
641.84	574.52
642.287	542.82
642.735	517.62
643.182	523.52
643.63	519.32
644.078	528.52
644.525	541.82
644.973	546.52
645.42	556.72
645.867	573.72
646.315	577.62
646.762	612.92
647.21	631.02
647.657	664.22
648.104	691.12
648.551	710.62
648.999	758.32
649.446	836.12
649.893	925.42
650.34	1052.32
650.787	1268.22
651.234	1566.82
651.682	2031.82
652.129	2779.12
652.576	4000.32
653.023	5933.42
653.47	8182.62
653.917	10344.42
654.363	12034.02
654.81	13409.92
655.257	12795.82
655.704	8284.52
656.151	4891.52
656.598	3160.82
657.044	2237.72
657.491	1710.92
657.938	1376.42
658.385	1151.52
658.831	995.52
659.278	876.52
659.724	786.92
660.171	719.32
660.618	658.72
661.064	627.62
661.511	608.42
661.957	606.22
662.404	591.62
662.85	594.32
663.296	562.22
663.743	518.52
664.189	482.92
664.635	491.72
665.082	475.62
665.528	487.62
665.974	479.02
666.42	462.12
666.867	459.42
667.313	449.82
667.759	434.72
668.205	433.12
668.651	440.12
669.097	437.22
669.543	457.12
669.989	419.52
670.435	409.72
670.881	401.32
671.327	397.22
671.773	418.72
672.219	444.92
672.665	491.62
673.11	526.02
673.556	571.82
674.002	610.62
674.448	601.42
674.893	500.92
675.339	429.02
675.785	403.72
676.23	383.12
676.676	359.02
677.122	341.52
677.567	335.82
678.013	335.82
678.458	324.52
678.904	326.32
679.349	320.32
679.794	320.42
680.24	312.52
680.685	317.12
681.131	316.72
681.576	306.62
682.021	313.82
682.466	307.22
682.912	307.62
683.357	313.92
683.802	343.82
684.247	373.72
684.692	407.92
685.137	451.22
685.583	476.22
686.028	510.72
686.473	473.12
686.918	405.32
687.363	374.02
687.807	355.52
688.252	327.52
688.697	326.82
689.142	307.02
689.587	304.62
690.032	294.62
690.477	310.42
690.921	311.12
691.366	349.92
691.811	350.42
692.255	391.52
692.7	419.92
693.145	442.42
693.589	604.22
694.034	976.22
694.478	1369.22
694.923	1583.52
695.367	2080.22
695.812	1080.72
696.256	452.22
696.701	336.52
697.145	311.12
697.59	293.72
698.034	287.82
698.478	293.52
698.922	294.82
699.367	289.82
699.811	307.92
700.255	308.42
700.699	343.42
701.143	374.32
701.588	434.22
702.032	460.92
702.476	461.82
702.92	438.12
703.364	438.32
703.808	556.62
704.252	905.92
704.696	1275.62
705.14	1519.22
705.584	1949.82
706.027	952.02
706.471	463.52
706.915	352.52
707.359	308.92
707.803	285.42
708.246	282.62
708.69	281.72
709.134	281.22
709.577	274.92
710.021	284.42
710.465	272.12
710.908	267.12
711.352	263.62
711.795	276.42
712.239	318.32
712.682	348.62
713.126	365.62
713.569	419.12
714.012	332.92
714.456	289.22
714.899	269.42
715.342	241.62
715.786	234.92
716.229	229.02
716.672	232.42
717.115	227.92
717.558	218.32
718.002	225.82
718.445	230.92
718.888	250.72
719.331	262.82
719.774	275.82
720.217	271.92
720.66	253.82
721.103	240.92
721.546	225.82
721.989	217.62
722.432	209.12
722.874	215.02
723.317	208.82
723.76	210.62
724.203	230.12
724.645	278.22
725.088	388.02
725.531	504.42
725.974	580.62
726.416	493.92
726.859	271.12
727.301	221.02
727.744	208.62
728.187	201.62
728.629	213.82
729.071	222.22
729.514	234.42
729.956	243.22
730.399	248.62
730.841	252.02
731.283	245.92
731.726	239.82
732.168	230.02
732.61	235.12
733.053	254.02
733.495	275.72
733.937	305.82
734.379	354.52
734.821	382.02
735.263	479.22
735.705	722.52
736.148	1363.72
736.59	2292.12
737.032	2793.12
737.474	2268.02
737.916	727.82
738.357	379.02
738.799	284.82
739.241	260.52
739.683	251.62
740.125	254.82
740.567	258.22
741.008	284.12
741.45	283.42
741.892	277.72
742.334	312.42
742.775	316.42
743.217	313.62
743.658	235.42
744.1	221.12
744.542	228.32
744.983	278.02
745.425	301.62
745.866	308.72
746.307	252.42
746.749	251.12
747.19	287.62
747.632	392.32
748.073	757.32
748.514	1618.42
748.956	2549.12
749.397	3188.62
749.838	2636.42
750.279	2682.12
750.72	1354.22
751.162	488.22
751.603	285.32
752.044	226.52
752.485	193.62
752.926	189.12
753.367	180.22
753.808	167.62
754.249	168.12
754.69	162.72
755.131	163.52
755.572	152.42
756.013	162.82
756.453	157.12
756.894	168.32
757.335	165.72
757.776	168.92
758.216	173.22
758.657	172.02
759.098	176.02
759.538	201.32
759.979	231.42
760.42	319.92
760.86	609.42
761.301	1557.72
761.741	3891.42
762.182	5907.02
762.622	4142.02
763.063	1179.42
763.503	479.52
763.943	306.22
764.384	306.52
764.824	368.32
765.264	401.92
765.705	276.12
766.145	183.22
766.585	168.22
767.025	165.12
767.465	166.42
767.906	222.02
768.346	295.52
768.786	310.32
769.226	230.92
769.666	276.42
770.106	535.52
770.546	1341.92
770.986	2387.82
771.426	2157.52
771.866	710.12
772.306	293.12
772.745	185.42
773.185	159.12
773.625	146.72
774.065	144.22
774.505	168.72
774.944	268.72
775.384	594.12
775.824	1102.92
776.263	1088.22
776.703	458.62
777.142	197.42
777.582	141.02
778.021	129.22
778.461	121.02
778.9	121.42
779.34	117.72
779.779	100.92
780.219	97.32
780.658	93.12
781.097	98.62
781.537	99.72
781.976	91.82
782.415	94.02
782.855	91.82
783.294	92.72
783.733	96.92
784.172	100.12
784.611	95.12
785.05	96.32
785.489	99.92
785.928	102.82
786.367	105.62
786.806	106.42
787.245	107.92
787.684	118.12
788.123	133.52
788.562	119.32
789.001	114.22
789.44	106.72
789.879	102.02
790.317	98.72
790.756	110.82
791.195	105.72
791.634	130.22
792.072	173.82
792.511	314.82
792.95	852.52
793.388	1920.22
793.827	1791.32
794.265	611.22
794.704	249.52
795.142	164.72
795.581	143.22
796.019	115.52
796.458	116.62
796.896	108.02
797.334	105.72
797.773	131.62
798.211	192.82
798.649	381.72
799.087	897.62
799.526	1408.52
799.964	1787.32
800.402	1837.32
800.84	684.32
801.278	266.12
801.716	162.42
802.154	139.72
802.592	133.62
803.03	121.72
803.468	116.22
803.906	126.42
804.344	138.42
804.782	119.62
805.22	119.52
805.658	112.52
806.096	126.22
806.533	141.72
806.971	157.52
807.409	189.82
807.847	269.52
808.284	569.42
808.722	1617.82
809.16	2953.92
809.597	2737.12
810.035	4829.42
810.472	5345.32
810.91	1882.62
811.347	713.12
811.785	360.92
812.222	226.72
812.66	174.92
813.097	141.72
813.535	119.32
813.972	107.42
814.409	105.82
814.846	93.92
815.284	96.22
815.721	89.12
816.158	97.02
816.595	112.52
817.032	160.12
817.47	180.32
817.907	142.72
818.344	137.02
818.781	107.92
819.218	84.02
819.655	105.22
820.092	162.72
820.529	196.02
820.966	154.32
821.403	119.62
821.839	101.42
822.276	88.42
822.713	107.32
823.15	121.32
823.587	108.92
824.023	130.32
824.46	258.42
824.897	782.62
825.333	1222.32
825.77	526.02
826.206	206.62
826.643	116.22
827.08	91.32
827.516	74.02
827.953	65.92
828.389	72.12
828.825	60.72
829.262	52.82
829.698	54.42
830.135	57.22
830.571	58.72
831.007	49.12
831.443	54.92
831.88	60.12
832.316	54.22
832.752	53.22
833.188	59.42
833.624	57.82
834.06	58.42
834.497	67.42
834.933	62.02
835.369	69.42
835.805	58.72
836.241	58.92
836.677	72.32
837.112	77.92
837.548	88.92
837.984	110.82
838.42	178.62
838.856	423.62
839.292	1344.02
839.727	2104.32
840.163	969.12
840.599	802.72
841.034	1799.62
841.47	1950.42
841.906	696.42
842.341	304.32
842.777	203.62
843.212	280.82
843.648	280.02
844.083	133.12
844.519	85.52
844.954	65.12
845.39	49.42
845.825	50.42
846.261	48.62
846.696	46.12
847.131	46.42
847.566	50.72
848.002	48.62
848.437	49.12
848.872	57.82
849.307	58.72
849.742	77.42
850.177	166.02
850.613	489.52
851.048	788.92
851.483	347.22
851.918	135.82
852.353	78.32
852.788	49.02
853.223	46.62
853.657	46.22
854.092	42.02
854.527	29.52
854.962	33.92
855.397	34.72
855.832	47.22
856.266	42.42
856.701	34.92
857.136	28.22
857.57	36.52
858.005	44.92
858.44	46.82
858.874	37.22
859.309	44.82
859.743	26.92
860.178	39.52
860.612	34.52
861.047	44.12
861.481	57.02
861.915	56.72
862.35	46.12
862.784	27.92
863.218	31.82
863.653	33.52
864.087	36.72
864.521	46.72
864.955	59.82
865.39	136.32
865.824	153.92
866.258	98.62
866.692	146.42
867.126	161.12
867.56	96.22
867.994	47.12
868.428	30.42
868.862	40.22
869.296	43.02
869.73	54.52
870.164	50.12
870.598	47.62
871.031	27.82
871.465	28.02
871.899	24.82
872.333	21.02
872.766	22.92
873.2	16.42
873.634	31.52
874.067	24.12
874.501	23.12
874.935	29.12
875.368	25.22
875.802	29.22
876.235	21.12
876.669	17.22
877.102	16.72
877.535	26.12
877.969	18.42
878.402	21.12
878.836	10.42
879.269	19.72
879.702	19.32
880.135	13.52
880.569	19.92
881.002	19.52
881.435	16.32
881.868	5.02
882.301	18.32
882.734	6.72
883.167	24.02
883.601	12.42
884.034	19.22
884.467	13.32
884.899	17.92
885.332	23.32
885.765	13.72
886.198	15.72
886.631	11.12
887.064	10.62
887.497	14.02
887.929	24.02
888.362	14.32
888.795	7.72
889.228	12.92
889.66	16.92
890.093	13.52
890.526	15.82
890.958	12.02
891.391	14.32
891.823	17.32
892.256	11.92
892.688	12.32
893.121	12.92
893.553	11.82
893.985	16.42
894.418	17.32
894.85	9.42
895.282	13.32
895.715	12.32
896.147	13.52
896.579	8.62
897.011	12.02
897.444	14.42
897.876	13.72
898.308	14.12
898.74	14.52
899.172	8.62
899.604	23.02
900.036	14.82
900.468	15.62
900.9	14.92
901.332	16.82
901.764	16.22
902.196	8.22
902.628	10.62
903.06	12.52
903.491	27.92
903.923	21.12
904.355	21.92
904.787	26.62
905.218	17.02
905.65	20.82
906.082	8.52
906.513	10.12
906.945	5.82
907.376	7.12
907.808	16.32
908.239	17.42
908.671	18.62
909.102	21.02
909.534	24.52
909.965	39.32
910.397	82.82
910.828	273.32
911.259	435.92
911.691	196.92
912.122	95.32
912.553	40.82
912.984	23.42
913.415	20.62
913.847	22.62
914.278	11.82
914.709	7.92
915.14	11.32
915.571	11.92
916.002	6.72
916.433	17.22
916.864	11.42
917.295	10.12
917.726	14.92
918.157	14.72
918.587	23.42
919.018	13.42
919.449	17.22
919.88	26.22
920.311	30.62
920.741	40.22
921.172	147.62
921.603	139.02
922.033	66.22
922.464	36.42
922.895	17.22
923.325	12.02
923.756	14.02
924.186	10.32
924.617	17.92
925.047	38.42
925.478	45.12
925.908	35.62
926.338	17.82
926.769	18.32
927.199	16.82
927.629	6.52
928.06	16.32
928.49	7.62
928.92	14.22
929.35	10.32
929.78	9.42
930.21	1.72
930.641	9.42
931.071	-0.28
931.501	1.22
931.931	10.12
932.361	9.62
932.791	2.22
933.221	-3.58
933.651	3.02
934.08	13.32
934.51	27.32
934.94	6.72
935.37	8.82
935.8	10.62
936.229	1.92
936.659	12.52
937.089	-0.78
937.519	11.52
937.948	18.02
938.378	18.52
938.807	4.62
939.237	8.52
939.666	4.02
940.096	-9.88
940.525	-2.58
940.955	-2.78
941.384	4.22
941.814	-4.18
942.243	-2.18
942.672	2.32
943.102	2.22
943.531	0.52
943.96	-0.48
944.39	4.22
944.819	-2.18
945.248	-3.48
945.677	-3.18
946.106	-0.68
946.535	0.92
946.964	-0.38
947.393	4.02
947.822	2.52
948.251	-2.78
948.68	-0.58
949.109	6.52
949.538	9.62
949.967	-3.48
950.396	-1.38
950.825	-0.48
951.254	-0.38
951.682	-12.28
952.111	1.82
952.54	6.22
952.969	-6.78
953.397	-6.68
953.826	3.02
954.254	-12.68
954.683	-3.98
955.112	-4.98
955.54	-5.08
955.969	-3.08
956.397	-1.48
956.826	0.92
957.254	-1.98
957.682	0.62
958.111	6.22
958.539	-2.48
958.967	-1.38
959.396	-3.38
959.824	-0.78
960.252	-4.28
960.68	-10.18
961.109	-8.08
961.537	0.62
961.965	-1.28
962.393	-1.98
962.821	-4.38
963.249	-0.28
963.677	4.82
964.105	5.82
964.533	40.12
964.961	28.32
965.389	14.72
965.817	7.72
966.245	-0.38
966.672	-2.28
967.1	-3.98
967.528	1.72
967.956	-2.88
968.383	0.32
968.811	-2.98
969.239	-4.38
969.666	-6.08
970.094	-2.28
970.522	0.82
970.949	-5.68
971.377	-12.48
971.804	2.12
972.232	-3.48
972.659	-6.18
973.087	-1.58
973.514	-0.68
973.941	-10.18
974.369	4.02
974.796	-2.48
975.223	-3.98
975.651	-1.48
976.078	4.32
976.505	1.32
976.932	0.22
977.359	8.72
977.786	13.52
978.214	0.52
978.641	-6.28
979.068	-5.78
979.495	-6.38
979.922	-6.28
980.349	1.32
980.776	-3.88
981.202	-3.28
981.629	5.82
982.056	-0.28
982.483	-6.08
982.91	-4.68
983.337	-0.48
983.763	-2.68
984.19	-8.38
984.617	-3.68
985.043	-3.88
985.47	0.82
985.897	-5.98
986.323	-2.38
986.75	-0.98
987.176	4.42
987.603	-0.28
988.029	-4.88
988.456	-4.58
988.882	-7.18
989.308	-5.38
989.735	-6.38
990.161	-7.28
990.587	-2.38
991.014	-2.48
991.44	3.92
991.866	-3.78
992.292	-0.28
992.719	-2.28
993.145	1.02
993.571	-10.98
993.997	-1.38
994.423	-0.48
994.849	-8.38
995.275	-3.48
995.701	-1.38
996.127	-3.38
996.553	0.92
996.979	-7.08
997.405	-7.38
997.83	-4.48
998.256	-6.18
998.682	-11.28
999.108	-12.38
999.534	2.72
999.959	-1.38
1000.385	-3.08
1000.811	1.62
1001.236	-7.28
1001.662	-6.18
1002.087	-15.78
1002.513	-0.38
1002.938	2.32
1003.364	-6.68
1003.789	-1.38
1004.215	3.22
1004.64	-4.28
1005.066	6.92
1005.491	-2.28
1005.916	-3.88
1006.342	-6.78
1006.767	-11.88
1007.192	3.82
1007.617	-6.08
1008.042	0.12
1008.468	-6.58
1008.893	-4.88
1009.318	-3.38
1009.743	-6.48
1010.168	-4.78
1010.593	-1.28
1011.018	-8.38
1011.443	-7.98
1011.868	-1.38
1012.293	1.32
1012.718	-5.78
1013.143	4.22
1013.567	-1.48
1013.992	-4.28
1014.417	-13.48
1014.842	6.02
1015.267	-0.58
1015.691	-5.28
1016.116	2.52
1016.541	-2.98
1016.965	0.42
1017.39	-2.38
1017.814	-1.08
1018.239	0.92
1018.663	-3.28
1019.088	-12.78
1019.512	-7.38
1019.937	-3.18
1020.361	-5.08
1020.785	-12.38
1021.21	-5.38
1021.634	-3.48
1022.058	-1.18
1022.483	2.72
1022.907	-8.58
1023.331	-6.28
1023.755	-0.58
1024.179	1.02
1024.604	-9.38
1025.028	-3.08
1025.452	-4.08
1025.876	-1.18
1026.3	-0.58
1026.724	-14.68
1027.148	-3.68
1027.572	-6.68
1027.996	-6.78
1028.42	0.22
1028.843	-8.68
1029.267	-8.58
1029.691	-7.18
1030.115	-6.58
1030.539	-8.58
1030.962	-5.08
1031.386	-7.28
1031.81	0.62
1032.233	-2.08
1032.657	3.12
1033.08	-3.88
1033.504	-3.78
1033.927	-5.08
1034.351	2.92
1034.774	-5.68
1035.198	-2.78
1035.621	-9.28
1036.045	-10.68
1036.468	-2.38
1036.891	-6.78
1037.315	-5.38
1037.738	-10.78
1038.161	-1.78
1038.584	-1.98
1039.008	-13.08
1039.431	-2.78
1039.854	-8.48
1040.277	-12.68
1040.7	-10.28
1041.123	-5.58
1041.546	-8.48
1041.969	-3.38
1042.392	-8.38
1042.815	-5.18
1043.238	1.52
1043.661	0.62
1044.084	-8.38
1044.507	-6.48
1044.93	-5.88
1045.352	-7.78
1045.775	-5.48
1046.198	-6.38
1046.621	-6.58
1047.043	-3.98
1047.466	4.52
1047.889	-3.88
1048.311	-5.38
1048.734	-1.98
1049.156	-3.98
1049.579	-3.18
1050.001	0.12
1050.424	-3.28
1050.846	-0.88
1051.269	-6.78
1051.691	-4.98
1052.113	-3.78
1052.536	-10.18
1052.958	3.02
1053.38	2.82
1053.802	-10.78
1054.225	-2.28
1054.647	-7.98
1055.069	-7.98
1055.491	1.52
1055.913	-4.38
1056.335	-3.48
1056.757	-3.38
1057.179	-10.78
1057.601	0.32
1058.023	-1.98
1058.445	-5.58
1058.867	-2.58
1059.289	-5.48
1059.711	-7.68
1060.133	-4.18
1060.555	-6.28
1060.976	-4.08
1061.398	-4.88
1061.82	-7.28
1062.241	-8.88
1062.663	-14.88
1063.085	-7.78
1063.506	-4.98
1063.928	-0.08
1064.35	2.42
1064.771	-9.78
1065.193	-5.38
1065.614	-13.48
1066.035	-5.78
1066.457	-5.48
1066.878	-6.88
1067.3	-8.98
1067.721	-3.08
1068.142	-4.98
1068.564	-8.78
1068.985	-10.68
1069.406	-4.98
1069.827	-3.08
1070.248	-3.48
1070.67	-3.18
1071.091	-11.28
1071.512	-7.68
1071.933	-3.18
1072.354	-9.78
1072.775	-5.68
1073.196	-8.58
1073.617	-8.18
1074.038	-8.38
1074.459	-7.08
1074.88	-10.88
1075.3	-2.68
1075.721	-3.98
1076.142	-2.08
1076.563	-0.58
1076.983	-13.28
1077.404	-7.28
1077.825	-12.98
1078.246	-5.58
1078.666	-14.28
1079.087	-6.38
1079.507	-9.18
1079.928	0.02
1080.348	-7.28
1080.769	-7.88
1081.189	-4.58
1081.61	-5.78
1082.03	-5.98
1082.451	-11.98
1082.871	-2.18
1083.291	-8.78
1083.711	-6.38
1084.132	-8.88
1084.552	-5.38
1084.972	2.02
1085.392	-11.78
1085.813	-13.58
1086.233	-12.58
1086.653	-4.68
1087.073	-0.68
1087.493	-10.78
1087.913	-10.28
1088.333	-5.78
1088.753	-1.48
1089.173	1.42
1089.593	-3.48
1090.013	-0.08
1090.433	-1.78
1090.852	-10.08
1091.272	-2.18
1091.692	3.92
1092.112	-4.08
1092.531	-11.28
1092.951	-19.48
1093.371	-3.98
1093.79	-9.18
1094.21	-8.48
1094.63	-10.08
1095.049	-11.48
1095.469	-0.78
1095.888	1.32
1096.308	-0.98
1096.727	2.62
1097.146	-4.68
1097.566	-4.58
1097.985	-4.08
1098.405	-0.28
1098.824	-10.08
1099.243	-8.68
1099.662	-7.18
1100.082	-3.88
1100.501	0.12
1100.92	-9.88
1101.339	-10.28
1101.758	-7.68
