Data from 20171114-ORNL-Ar_H_NY_Subt18_08-06-19-369.txt Node
Date: Tue Nov 14 08:06:19 EST 2017
User: Ender
Spectrometer: HR+D1039
Trigger mode: 0
Integration Time (sec): 2.730000E-2
Scans to average: 10
Electric dark correction enabled: true
Nonlinearity correction enabled: false
Boxcar width: 0
XAxis mode: Wavelengths
Number of Pixels in Spectrum: 2048
>>>>>Begin Spectral Data<<<<<
187.836	-2.89
188.309	-2.89
188.782	-2.89
189.255	1.11
189.728	-2.49
190.201	6.61
190.674	1.51
191.147	6.41
191.619	-6.59
192.092	3.11
192.565	5.51
193.038	-3.39
193.511	-2.09
193.984	-1.19
194.456	-0.19
194.929	-1.29
195.402	-1.19
195.874	-2.99
196.347	-0.89
196.82	-4.49
197.292	3.71
197.765	-2.79
198.237	-9.99
198.71	5.41
199.182	-1.99
199.655	0.71
200.127	-1.79
200.6	-2.09
201.072	-4.59
201.544	-0.99
202.017	0.21
202.489	-1.29
202.961	-6.29
203.433	-1.79
203.906	-6.29
204.378	-3.09
204.85	-4.29
205.322	-9.69
205.794	-2.79
206.266	-3.59
206.739	-8.09
207.211	-7.59
207.683	-10.29
208.155	-3.59
208.627	-3.99
209.099	-6.39
209.57	-9.39
210.042	-5.89
210.514	-7.99
210.986	-0.49
211.458	-4.99
211.93	-0.39
212.402	5.21
212.873	-5.09
213.345	-9.19
213.817	-9.19
214.288	-7.29
214.76	-10.19
215.232	-0.99
215.703	-1.49
216.175	-2.59
216.646	-7.49
217.118	-2.39
217.589	-3.89
218.061	1.61
218.532	-5.89
219.004	-2.39
219.475	-2.59
219.946	-2.39
220.418	-7.19
220.889	5.01
221.36	-0.79
221.832	-6.29
222.303	-8.19
222.774	-2.29
223.245	-4.89
223.717	-6.79
224.188	-4.59
224.659	-10.49
225.13	-8.59
225.601	-4.49
226.072	0.51
226.543	3.11
227.014	0.71
227.485	1.31
227.956	-8.09
228.427	1.31
228.898	-3.19
229.369	2.21
229.839	-4.09
230.31	-5.69
230.781	5.01
231.252	-1.49
231.722	-4.79
232.193	1.31
232.664	1.31
233.135	3.61
233.605	3.71
234.076	-3.49
234.546	-0.19
235.017	3.91
235.487	-1.09
235.958	2.71
236.428	-1.59
236.899	5.81
237.369	2.41
237.84	-1.19
238.31	8.81
238.78	4.61
239.251	-2.99
239.721	5.01
240.191	2.91
240.662	-1.29
241.132	3.11
241.602	-4.99
242.072	1.21
242.542	9.61
243.013	0.91
243.483	11.51
243.953	7.51
244.423	5.61
244.893	-2.69
245.363	1.91
245.833	6.71
246.303	-4.09
246.773	8.01
247.243	3.71
247.712	-0.59
248.182	9.31
248.652	8.01
249.122	0.11
249.592	13.71
250.061	18.31
250.531	24.71
251.001	14.71
251.471	26.51
251.94	18.61
252.41	9.61
252.879	1.01
253.349	13.21
253.818	7.21
254.288	5.41
254.757	8.11
255.227	4.91
255.696	4.91
256.166	9.11
256.635	12.61
257.105	7.31
257.574	7.41
258.043	6.41
258.513	9.61
258.982	14.91
259.451	6.31
259.92	9.81
260.389	10.71
260.859	12.91
261.328	7.31
261.797	23.01
262.266	11.61
262.735	6.31
263.204	5.51
263.673	-2.39
264.142	6.31
264.611	-1.09
265.08	7.91
265.549	0.11
266.018	10.51
266.487	-3.99
266.955	-3.29
267.424	0.91
267.893	-5.09
268.362	-2.49
268.83	4.31
269.299	9.41
269.768	5.61
270.236	11.31
270.705	0.01
271.174	3.31
271.642	10.81
272.111	6.41
272.579	18.61
273.048	30.31
273.516	32.81
273.985	30.21
274.453	18.41
274.922	14.91
275.39	8.71
275.858	1.91
276.327	14.91
276.795	20.01
277.263	12.81
277.731	32.11
278.2	48.81
278.668	58.51
279.136	45.01
279.604	19.91
280.072	18.81
280.54	16.01
281.008	14.71
281.477	12.71
281.945	17.41
282.413	12.21
282.881	16.81
283.348	5.11
283.816	14.51
284.284	23.21
284.752	22.91
285.22	11.21
285.688	14.81
286.156	20.41
286.623	44.21
287.091	47.71
287.559	30.91
288.026	19.91
288.494	20.91
288.962	6.41
289.429	12.21
289.897	18.71
290.364	14.51
290.832	17.91
291.3	12.71
291.767	14.51
292.234	16.11
292.702	12.81
293.169	18.01
293.637	25.41
294.104	22.21
294.571	11.11
295.039	15.31
295.506	18.11
295.973	16.71
296.44	12.41
296.908	16.81
297.375	17.51
297.842	21.81
298.309	18.01
298.776	15.91
299.243	25.51
299.71	12.41
300.177	23.31
300.644	26.61
301.111	22.71
301.578	27.01
302.045	22.11
302.512	26.81
302.979	32.41
303.446	22.41
303.913	19.41
304.379	15.81
304.846	26.71
305.313	26.71
305.78	21.21
306.246	28.31
306.713	27.21
307.18	24.31
307.646	30.91
308.113	33.31
308.579	27.01
309.046	24.51
309.512	23.21
309.979	23.11
310.445	33.11
310.912	30.21
311.378	32.11
311.845	30.81
312.311	30.71
312.777	32.11
313.244	33.91
313.71	36.31
314.176	33.21
314.642	30.91
315.109	30.51
315.575	35.51
316.041	40.31
316.507	31.61
316.973	42.81
317.439	39.91
317.905	37.91
318.371	32.31
318.837	35.31
319.303	28.21
319.769	38.01
320.235	34.41
320.701	38.11
321.167	32.21
321.633	36.61
322.099	43.01
322.564	43.21
323.03	40.81
323.496	36.01
323.962	43.61
324.427	32.91
324.893	42.91
325.359	38.71
325.824	37.61
326.29	36.01
326.755	41.71
327.221	45.21
327.686	36.61
328.152	41.41
328.617	41.41
329.083	42.91
329.548	49.81
330.014	49.41
330.479	39.51
330.944	47.91
331.41	44.51
331.875	45.21
332.34	44.31
332.805	43.21
333.271	50.31
333.736	48.41
334.201	57.81
334.666	51.11
335.131	57.21
335.596	50.71
336.061	50.61
336.526	45.11
336.991	53.11
337.456	66.51
337.921	51.61
338.386	44.81
338.851	39.51
339.316	50.11
339.781	47.11
340.246	50.61
340.711	52.41
341.175	55.11
341.64	44.91
342.105	52.01
342.569	59.21
343.034	61.41
343.499	61.31
343.963	53.91
344.428	70.01
344.893	58.01
345.357	63.51
345.822	64.21
346.286	62.51
346.751	73.11
347.215	70.31
347.679	72.51
348.144	96.81
348.608	87.31
349.073	61.91
349.537	71.01
350.001	83.61
350.465	90.31
350.93	80.81
351.394	87.51
351.858	84.91
352.322	81.71
352.786	90.41
353.25	102.51
353.715	108.11
354.179	102.51
354.643	124.21
355.107	131.51
355.571	113.91
356.035	109.81
356.498	113.91
356.962	126.31
357.426	138.81
357.89	118.01
358.354	91.71
358.818	86.11
359.281	78.21
359.745	75.51
360.209	75.61
360.673	76.41
361.136	82.01
361.6	84.71
362.064	86.01
362.527	84.31
362.991	90.21
363.454	80.61
363.918	73.11
364.381	80.21
364.845	81.91
365.308	91.81
365.772	87.81
366.235	86.01
366.698	86.11
367.162	85.71
367.625	91.21
368.088	94.31
368.552	88.91
369.015	93.31
369.478	99.61
369.941	100.71
370.404	100.51
370.867	105.71
371.331	115.01
371.794	114.91
372.257	109.51
372.72	119.31
373.183	121.51
373.646	104.71
374.109	104.51
374.572	110.81
375.035	110.41
375.497	105.41
375.96	111.41
376.423	104.51
376.886	114.31
377.349	112.41
377.811	101.81
378.274	108.61
378.737	107.41
379.199	117.11
379.662	112.21
380.125	124.31
380.587	119.51
381.05	128.61
381.512	131.91
381.975	135.31
382.437	131.81
382.9	126.21
383.362	132.01
383.825	146.61
384.287	149.01
384.75	151.21
385.212	137.01
385.674	146.91
386.136	141.31
386.599	127.31
387.061	129.71
387.523	125.01
387.985	135.71
388.447	147.71
388.91	146.41
389.372	160.11
389.834	154.31
390.296	146.41
390.758	157.21
391.22	176.41
391.682	219.71
392.144	298.41
392.606	233.71
393.068	174.61
393.529	171.21
393.991	154.31
394.453	154.11
394.915	156.51
395.377	189.71
395.838	220.91
396.3	164.11
396.762	142.11
397.224	134.91
397.685	127.11
398.147	130.01
398.608	137.11
399.07	132.61
399.531	140.31
399.993	144.91
400.454	157.11
400.916	142.01
401.377	149.21
401.839	146.41
402.3	151.41
402.762	165.51
403.223	185.51
403.684	171.11
404.145	164.11
404.607	155.41
405.068	166.01
405.529	173.11
405.99	192.51
406.451	172.81
406.913	179.11
407.374	165.11
407.835	169.11
408.296	173.91
408.757	174.81
409.218	187.11
409.679	183.81
410.14	179.11
410.601	185.51
411.062	184.41
411.522	190.41
411.983	191.31
412.444	176.61
412.905	182.31
413.366	183.01
413.826	202.81
414.287	226.71
414.748	266.41
415.208	253.41
415.669	210.41
416.13	209.61
416.59	203.91
417.051	213.51
417.511	225.51
417.972	239.91
418.432	247.01
418.893	288.11
419.353	250.21
419.814	207.01
420.274	183.11
420.734	180.71
421.195	202.61
421.655	198.41
422.115	193.41
422.576	194.01
423.036	204.31
423.496	213.11
423.956	226.01
424.416	224.91
424.876	269.41
425.336	269.41
425.797	268.41
426.257	267.91
426.717	243.81
427.177	233.81
427.637	233.51
428.097	236.21
428.556	241.81
429.016	272.01
429.476	274.41
429.936	282.81
430.396	294.41
430.856	298.91
431.315	320.61
431.775	367.11
432.235	385.61
432.694	356.51
433.154	377.41
433.614	403.51
434.073	342.61
434.533	291.01
434.993	275.91
435.452	285.01
435.912	298.21
436.371	298.41
436.83	294.01
437.29	276.91
437.749	262.31
438.209	254.01
438.668	281.61
439.127	291.01
439.587	273.21
440.046	260.71
440.505	263.21
440.964	277.01
441.424	338.31
441.883	321.11
442.342	262.11
442.801	230.31
443.26	223.71
443.719	227.01
444.178	224.41
444.637	216.11
445.096	225.81
445.555	216.51
446.014	227.61
446.473	232.21
446.932	234.61
447.391	227.51
447.849	229.21
448.308	227.91
448.767	223.61
449.226	240.71
449.685	234.61
450.143	254.41
450.602	243.21
451.061	227.91
451.519	241.81
451.978	239.71
452.436	238.61
452.895	241.81
453.353	256.11
453.812	239.11
454.27	241.01
454.729	242.01
455.187	243.21
455.646	256.11
456.104	255.61
456.562	275.71
457.021	273.61
457.479	268.61
457.937	275.61
458.395	268.71
458.854	246.91
459.312	263.91
459.77	280.01
460.228	258.31
460.686	249.41
461.144	254.81
461.602	248.91
462.06	245.91
462.518	258.11
462.976	256.81
463.434	265.51
463.892	264.71
464.35	279.81
464.808	295.71
465.266	272.61
465.724	266.51
466.181	275.81
466.639	278.11
467.097	290.11
467.555	303.11
468.012	311.81
468.47	317.11
468.928	329.71
469.385	350.61
469.843	356.51
470.3	354.21
470.758	361.31
471.215	386.51
471.673	416.91
472.13	413.71
472.588	436.01
473.045	370.41
473.503	376.91
473.96	401.81
474.417	414.21
474.875	445.51
475.332	490.31
475.789	467.11
476.246	476.31
476.704	496.11
477.161	513.81
477.618	533.31
478.075	570.51
478.532	631.21
478.989	704.01
479.446	818.91
479.903	793.71
480.36	819.61
480.817	886.31
481.274	992.71
481.731	1097.11
482.188	1195.51
482.645	1332.71
483.102	1435.01
483.558	1572.01
484.015	1626.01
484.472	1619.11
484.929	1559.61
485.385	1487.61
485.842	1437.81
486.299	1375.01
486.755	1323.01
487.212	1120.01
487.668	949.71
488.125	874.61
488.582	798.81
489.038	754.31
489.494	720.01
489.951	701.31
490.407	677.21
490.864	669.21
491.32	659.61
491.776	648.71
492.233	658.11
492.689	620.51
493.145	623.71
493.602	619.11
494.058	623.11
494.514	619.21
494.97	647.61
495.426	663.41
495.882	631.31
496.338	618.51
496.794	631.61
497.251	631.01
497.707	640.61
498.163	644.71
498.618	656.91
499.074	661.01
499.53	690.21
499.986	692.91
500.442	664.11
500.898	646.31
501.354	633.31
501.809	650.01
502.265	653.61
502.721	678.01
503.177	676.41
503.632	674.11
504.088	695.51
504.543	725.51
504.999	720.81
505.455	677.31
505.91	644.71
506.366	632.51
506.821	639.01
507.277	642.71
507.732	624.91
508.187	631.11
508.643	639.31
509.098	635.71
509.553	662.51
510.009	676.71
510.464	681.81
510.919	694.91
511.375	703.11
511.83	717.51
512.285	735.71
512.74	779.11
513.195	795.31
513.65	781.11
514.105	782.11
514.56	782.91
515.015	799.31
515.47	823.21
515.925	788.51
516.38	811.71
516.835	811.61
517.29	803.61
517.745	780.91
518.2	764.71
518.655	765.51
519.109	753.01
519.564	747.81
520.019	745.01
520.474	741.51
520.928	738.21
521.383	729.41
521.838	717.21
522.292	726.51
522.747	718.21
523.201	711.71
523.656	703.01
524.11	700.11
524.565	703.31
525.019	699.21
525.474	716.71
525.928	722.11
526.382	707.01
526.837	702.81
527.291	717.41
527.745	707.11
528.2	711.81
528.654	712.91
529.108	697.61
529.562	703.21
530.016	690.61
530.47	707.41
530.925	711.31
531.379	708.51
531.833	712.91
532.287	708.91
532.741	711.01
533.195	720.91
533.649	729.31
534.103	723.51
534.556	708.01
535.01	723.31
535.464	724.51
535.918	726.01
536.372	723.31
536.826	723.41
537.279	714.21
537.733	720.81
538.187	726.91
538.64	720.91
539.094	733.21
539.548	741.51
540.001	741.01
540.455	731.81
540.908	733.91
541.362	738.91
541.815	751.91
542.269	764.11
542.722	771.81
543.175	772.21
543.629	775.51
544.082	798.01
544.536	799.51
544.989	803.01
545.442	805.81
545.895	804.51
546.349	809.11
546.802	804.11
547.255	797.81
547.708	811.41
548.161	822.21
548.614	835.31
549.067	825.81
549.52	833.41
549.973	826.31
550.426	821.11
550.879	808.61
551.332	814.01
551.785	814.21
552.238	816.91
552.691	843.31
553.144	846.61
553.596	867.01
554.049	876.11
554.502	900.51
554.955	920.21
555.407	918.21
555.86	911.01
556.313	907.81
556.765	895.41
557.218	893.31
557.67	898.31
558.123	893.21
558.576	896.01
559.028	904.41
559.48	896.41
559.933	869.21
560.385	840.61
560.838	820.31
561.29	805.01
561.742	805.11
562.195	777.51
562.647	771.41
563.099	792.21
563.551	789.41
564.004	799.91
564.456	787.11
564.908	778.31
565.36	761.81
565.812	742.21
566.264	729.61
566.716	736.51
567.168	721.91
567.62	726.41
568.072	719.61
568.524	706.11
568.976	699.41
569.428	682.01
569.88	681.21
570.332	694.01
570.784	688.71
571.235	694.51
571.687	711.31
572.139	710.81
572.59	712.91
573.042	713.11
573.494	712.51
573.945	716.41
574.397	700.91
574.849	703.61
575.3	707.71
575.752	693.01
576.203	692.41
576.655	690.21
577.106	679.71
577.557	675.41
578.009	680.61
578.46	669.41
578.912	667.81
579.363	675.31
579.814	677.81
580.265	675.51
580.717	674.51
581.168	680.81
581.619	680.71
582.07	685.21
582.521	680.21
582.972	680.41
583.423	689.71
583.875	683.81
584.326	706.91
584.777	750.71
585.227	828.51
585.678	927.91
586.129	1013.41
586.58	1097.71
587.031	1168.51
587.482	1323.81
587.933	1511.61
588.384	1310.81
588.834	991.51
589.285	815.41
589.736	799.61
590.186	781.21
590.637	777.51
591.088	748.11
591.538	745.11
591.989	741.41
592.439	737.61
592.89	727.11
593.34	711.01
593.791	710.21
594.241	705.21
594.692	712.51
595.142	715.01
595.593	707.21
596.043	713.11
596.493	717.21
596.943	723.71
597.394	727.61
597.844	718.51
598.294	734.61
598.744	754.11
599.195	779.61
599.645	828.41
600.095	871.31
600.545	925.21
600.995	965.81
601.445	1026.91
601.895	1093.71
602.345	1149.91
602.795	1123.61
603.245	1085.61
603.695	1008.11
604.145	959.71
604.594	932.81
605.044	861.71
605.494	812.01
605.944	760.01
606.393	747.31
606.843	735.51
607.293	736.41
607.743	731.51
608.192	749.01
608.642	756.61
609.091	777.71
609.541	765.71
609.99	778.51
610.44	780.71
610.889	728.11
611.339	706.71
611.788	690.51
612.238	701.11
612.687	716.21
613.136	723.41
613.586	748.91
614.035	742.91
614.484	762.51
614.933	768.01
615.383	765.61
615.832	744.61
616.281	727.71
616.73	695.21
617.179	670.91
617.628	654.41
618.077	643.41
618.526	635.51
618.975	624.21
619.424	624.01
619.873	622.91
620.322	624.21
620.771	612.31
621.22	609.41
621.669	595.81
622.118	594.41
622.567	582.01
623.015	572.41
623.464	572.11
623.913	567.41
624.361	555.61
624.81	553.01
625.259	560.21
625.707	558.91
626.156	555.71
626.604	576.11
627.053	559.31
627.501	571.01
627.95	571.71
628.398	577.31
628.847	569.81
629.295	569.01
629.744	568.91
630.192	569.51
630.64	570.41
631.089	563.61
631.537	590.01
631.985	586.61
632.433	602.71
632.881	614.41
633.33	664.51
633.778	646.61
634.226	578.31
634.674	572.71
635.122	581.51
635.57	604.01
636.018	633.91
636.466	592.51
636.914	562.71
637.362	583.51
637.81	579.01
638.258	584.01
638.705	575.51
639.153	615.21
639.601	611.31
640.049	636.91
640.497	676.71
640.944	691.21
641.392	645.61
641.84	613.91
642.287	591.11
642.735	568.01
643.182	571.41
643.63	577.71
644.078	577.11
644.525	602.81
644.973	603.71
645.42	611.31
645.867	628.01
646.315	644.71
646.762	671.41
647.21	701.01
647.657	712.81
648.104	749.01
648.551	779.71
648.999	848.71
649.446	927.31
649.893	1014.11
650.34	1158.21
650.787	1402.51
651.234	1737.21
651.682	2263.91
652.129	3119.81
652.576	4496.71
653.023	6660.81
653.47	9070.01
653.917	11344.71
654.363	13111.21
654.81	14486.51
655.257	13791.51
655.704	9047.91
656.151	5350.31
656.598	3458.31
657.044	2445.01
657.491	1876.11
657.938	1502.81
658.385	1257.91
658.831	1091.31
659.278	964.51
659.724	858.31
660.171	794.51
660.618	720.21
661.064	690.21
661.511	667.61
661.957	656.61
662.404	647.51
662.85	654.11
663.296	627.61
663.743	567.41
664.189	546.31
664.635	536.01
665.082	531.31
665.528	533.21
665.974	530.11
666.42	513.41
666.867	506.71
667.313	493.31
667.759	484.11
668.205	483.71
668.651	493.61
669.097	484.81
669.543	499.11
669.989	473.21
670.435	454.21
670.881	447.81
671.327	445.71
671.773	467.21
672.219	483.01
672.665	545.41
673.11	575.51
673.556	629.11
674.002	671.31
674.448	653.21
674.893	545.61
675.339	478.51
675.785	440.21
676.23	414.51
676.676	396.41
677.122	384.91
677.567	371.41
678.013	359.81
678.458	362.61
678.904	364.31
679.349	348.61
679.794	350.71
680.24	349.91
680.685	347.81
681.131	346.51
681.576	343.11
682.021	349.51
682.466	350.71
682.912	346.31
683.357	354.11
683.802	381.51
684.247	408.01
684.692	450.31
685.137	495.91
685.583	541.91
686.028	550.41
686.473	511.21
686.918	436.11
687.363	410.31
687.807	388.11
688.252	371.81
688.697	361.91
689.142	337.31
689.587	319.41
690.032	320.61
690.477	339.71
690.921	342.31
691.366	378.01
691.811	392.91
692.255	428.71
692.7	461.01
693.145	505.31
693.589	695.11
694.034	1118.01
694.478	1533.71
694.923	1729.51
695.367	2270.51
695.812	1183.31
696.256	498.91
696.701	364.61
697.145	342.61
697.59	332.41
698.034	329.81
698.478	330.41
698.922	327.31
699.367	325.91
699.811	332.81
700.255	348.61
700.699	382.21
701.143	424.41
701.588	476.51
702.032	519.21
702.476	511.21
702.92	486.11
703.364	473.91
703.808	632.71
704.252	1034.31
704.696	1433.21
705.14	1654.71
705.584	2111.11
706.027	1052.21
706.471	511.71
706.915	396.11
707.359	350.71
707.803	326.01
708.246	307.41
708.69	307.71
709.134	314.21
709.577	312.61
710.021	315.81
710.465	309.31
710.908	293.01
711.352	296.61
711.795	309.21
712.239	347.91
712.682	394.01
713.126	414.51
713.569	457.61
714.012	365.31
714.456	314.51
714.899	293.41
715.342	272.91
715.786	258.91
716.229	247.41
716.672	251.71
717.115	242.51
717.558	251.11
718.002	256.01
718.445	262.11
718.888	287.81
719.331	293.51
719.774	310.51
720.217	303.01
720.66	282.31
721.103	262.51
721.546	244.71
721.989	244.11
722.432	220.71
722.874	236.81
723.317	231.81
723.76	231.21
724.203	257.11
724.645	314.31
725.088	449.91
725.531	574.91
725.974	637.01
726.416	542.81
726.859	304.31
727.301	249.01
727.744	238.71
728.187	229.21
728.629	233.81
729.071	242.71
729.514	260.91
729.956	273.71
730.399	279.31
730.841	286.71
731.283	270.71
731.726	273.01
732.168	253.31
732.61	265.51
733.053	288.11
733.495	308.51
733.937	350.41
734.379	392.31
734.821	431.81
735.263	531.51
735.705	826.11
736.148	1542.81
736.59	2522.41
737.032	3015.21
737.474	2472.11
737.916	803.51
738.357	423.81
738.799	330.61
739.241	296.91
739.683	284.71
740.125	295.91
740.567	296.71
741.008	315.01
741.45	318.21
741.892	316.61
742.334	342.81
742.775	361.41
743.217	335.11
743.658	258.61
744.1	246.21
744.542	255.21
744.983	306.11
745.425	345.01
745.866	349.01
746.307	281.01
746.749	280.01
747.19	322.01
747.632	453.21
748.073	867.01
748.514	1840.41
748.956	2816.91
749.397	3530.91
749.838	2920.21
750.279	2918.41
750.72	1478.31
751.162	535.51
751.603	315.41
752.044	249.01
752.485	213.01
752.926	208.41
753.367	203.81
753.808	187.31
754.249	185.71
754.69	179.41
755.131	183.81
755.572	183.31
756.013	177.81
756.453	182.01
756.894	186.21
757.335	192.01
757.776	200.01
758.216	195.41
758.657	191.11
759.098	202.81
759.538	222.01
759.979	258.81
760.42	366.71
760.86	689.51
761.301	1787.41
761.741	4340.31
762.182	6361.01
762.622	4467.51
763.063	1295.11
763.503	533.21
763.943	347.81
764.384	335.11
764.824	402.91
765.264	433.81
765.705	306.41
766.145	212.01
766.585	183.91
767.025	179.21
767.465	186.21
767.906	244.71
768.346	316.21
768.786	339.81
769.226	268.81
769.666	321.21
770.106	607.11
770.546	1528.81
770.986	2618.01
771.426	2349.61
771.866	781.71
772.306	323.91
772.745	208.91
773.185	178.11
773.625	169.71
774.065	162.31
774.505	190.41
774.944	298.61
775.384	680.31
775.824	1223.21
776.263	1202.21
776.703	503.61
777.142	223.61
777.582	161.11
778.021	138.21
778.461	139.71
778.9	140.21
779.34	132.11
779.779	113.91
780.219	111.21
780.658	109.91
781.097	111.31
781.537	115.21
781.976	113.01
782.415	104.41
782.855	98.11
783.294	108.81
783.733	101.01
784.172	104.71
784.611	102.11
785.05	108.41
785.489	111.61
785.928	113.01
786.367	114.51
786.806	118.71
787.245	129.11
787.684	140.21
788.123	150.71
788.562	137.31
789.001	133.91
789.44	123.11
789.879	119.71
790.317	116.31
790.756	129.41
791.195	129.21
791.634	143.01
792.072	207.91
792.511	356.11
792.95	978.71
793.388	2111.61
793.827	1916.21
794.265	671.71
794.704	281.81
795.142	173.71
795.581	144.31
796.019	130.51
796.458	124.61
796.896	125.01
797.334	130.41
797.773	153.11
798.211	223.31
798.649	430.01
799.087	997.71
799.526	1568.11
799.964	1985.91
800.402	1981.71
800.84	743.01
801.278	294.41
801.716	186.91
802.154	149.41
802.592	144.11
803.03	139.71
803.468	134.61
803.906	142.01
804.344	145.51
804.782	136.41
805.22	130.01
805.658	126.11
806.096	148.71
806.533	156.71
806.971	174.71
807.409	214.91
807.847	316.41
808.284	649.61
808.722	1812.21
809.16	3266.41
809.597	3078.51
810.035	5309.81
810.472	5697.21
810.91	2049.01
811.347	777.61
811.785	397.51
812.222	252.61
812.66	199.81
813.097	160.01
813.535	146.61
813.972	124.01
814.409	112.31
814.846	108.21
815.284	112.51
815.721	100.91
816.158	103.41
816.595	117.11
817.032	174.91
817.47	195.11
817.907	174.01
818.344	153.51
818.781	116.81
819.218	103.81
819.655	126.41
820.092	185.51
820.529	217.61
820.966	176.81
821.403	131.71
821.839	110.91
822.276	98.01
822.713	114.21
823.15	139.01
823.587	116.31
824.023	140.51
824.46	288.31
824.897	884.01
825.333	1343.81
825.77	568.91
826.206	229.41
826.643	137.31
827.08	103.01
827.516	86.21
827.953	79.31
828.389	75.91
828.825	70.31
829.262	68.71
829.698	66.21
830.135	62.41
830.571	64.71
831.007	61.51
831.443	66.81
831.88	62.81
832.316	67.01
832.752	64.61
833.188	65.51
833.624	66.41
834.06	66.71
834.497	70.21
834.933	71.11
835.369	72.21
835.805	67.21
836.241	74.81
836.677	82.51
837.112	86.61
837.548	98.41
837.984	136.51
838.42	196.31
838.856	482.41
839.292	1478.71
839.727	2287.71
840.163	1046.61
840.599	903.31
841.034	1990.51
841.47	2102.81
841.906	765.41
842.341	330.81
842.777	236.41
843.212	316.51
843.648	309.91
844.083	154.61
844.519	94.81
844.954	78.91
845.39	65.71
845.825	61.01
846.261	55.31
846.696	54.41
847.131	61.51
847.566	55.61
848.002	53.21
848.437	51.11
848.872	64.61
849.307	56.11
849.742	88.31
850.177	175.31
850.613	535.81
851.048	862.61
851.483	374.11
851.918	155.71
852.353	89.71
852.788	68.51
853.223	56.51
853.657	57.51
854.092	47.41
854.527	35.01
854.962	46.31
855.397	45.41
855.832	52.91
856.266	40.01
856.701	41.51
857.136	39.91
857.57	45.31
858.005	48.61
858.44	61.51
858.874	42.21
859.309	51.41
859.743	39.61
860.178	46.41
860.612	43.91
861.047	52.21
861.481	65.41
861.915	63.31
862.35	50.91
862.784	35.61
863.218	37.91
863.653	30.21
864.087	47.91
864.521	54.11
864.955	72.11
865.39	151.41
865.824	171.11
866.258	110.51
866.692	161.21
867.126	170.71
867.56	98.61
867.994	50.91
868.428	36.51
868.862	45.31
869.296	55.61
869.73	56.41
870.164	50.11
870.598	45.31
871.031	36.81
871.465	28.91
871.899	30.01
872.333	26.31
872.766	21.61
873.2	20.11
873.634	36.31
874.067	25.01
874.501	18.01
874.935	32.11
875.368	31.51
875.802	32.71
876.235	27.81
876.669	23.31
877.102	21.21
877.535	28.21
877.969	22.61
878.402	21.81
878.836	17.61
879.269	21.31
879.702	24.01
880.135	17.21
880.569	18.61
881.002	25.31
881.435	19.91
881.868	19.01
882.301	19.31
882.734	14.71
883.167	28.21
883.601	20.01
884.034	17.91
884.467	12.41
884.899	23.91
885.332	19.91
885.765	16.01
886.198	19.91
886.631	21.01
887.064	17.91
887.497	25.21
887.929	22.21
888.362	13.61
888.795	13.11
889.228	19.51
889.66	22.81
890.093	11.91
890.526	17.51
890.958	18.41
891.391	17.31
891.823	24.71
892.256	19.61
892.688	11.81
893.121	14.51
893.553	18.21
893.985	23.01
894.418	21.41
894.85	7.71
895.282	15.61
895.715	20.21
896.147	20.71
896.579	13.71
897.011	13.11
897.444	19.31
897.876	16.11
898.308	13.61
898.74	16.91
899.172	14.51
899.604	21.41
900.036	19.71
900.468	19.31
900.9	13.51
901.332	22.21
901.764	10.21
902.196	17.21
902.628	16.41
903.06	19.41
903.491	30.81
903.923	22.61
904.355	20.21
904.787	19.51
905.218	21.21
905.65	22.61
906.082	12.31
906.513	12.01
906.945	12.81
907.376	11.31
907.808	22.31
908.239	24.01
908.671	17.81
909.102	23.51
909.534	24.01
909.965	44.41
910.397	81.61
910.828	312.81
911.259	467.11
911.691	209.51
912.122	109.41
912.553	52.11
912.984	30.51
913.415	24.71
913.847	23.01
914.278	16.51
914.709	10.91
915.14	12.21
915.571	18.61
916.002	11.81
916.433	19.51
916.864	16.61
917.295	10.41
917.726	22.71
918.157	20.01
918.587	27.41
919.018	22.21
919.449	22.51
919.88	25.21
920.311	33.61
920.741	50.51
921.172	161.01
921.603	143.11
922.033	69.11
922.464	45.41
922.895	25.61
923.325	18.71
923.756	12.31
924.186	18.01
924.617	25.31
925.047	40.51
925.478	53.01
925.908	41.11
926.338	28.91
926.769	18.51
927.199	18.41
927.629	10.91
928.06	16.51
928.49	15.71
928.92	17.61
929.35	10.31
929.78	3.71
930.21	10.61
930.641	5.81
931.071	12.31
931.501	3.51
931.931	11.51
932.361	11.11
932.791	1.41
933.221	9.71
933.651	1.31
934.08	19.31
934.51	28.41
934.94	7.41
935.37	10.01
935.8	9.11
936.229	4.81
936.659	7.41
937.089	9.11
937.519	13.01
937.948	24.91
938.378	19.21
938.807	3.71
939.237	9.01
939.666	16.41
940.096	-2.49
940.525	5.91
940.955	7.81
941.384	3.31
941.814	-6.39
942.243	1.41
942.672	2.61
943.102	-0.89
943.531	3.41
943.96	5.71
944.39	3.31
944.819	-1.79
945.248	6.11
945.677	-1.39
946.106	4.11
946.535	6.61
946.964	-8.29
947.393	2.31
947.822	-0.69
948.251	0.11
948.68	10.21
949.109	4.61
949.538	5.41
949.967	0.21
950.396	1.11
950.825	1.61
951.254	0.71
951.682	-6.49
952.111	2.51
952.54	5.01
952.969	-0.99
953.397	1.51
953.826	2.71
954.254	-11.79
954.683	-5.89
955.112	-5.59
955.54	0.71
955.969	-6.29
956.397	-1.39
956.826	-2.69
957.254	8.61
957.682	2.61
958.111	10.91
958.539	-6.19
958.967	6.51
959.396	-0.89
959.824	5.31
960.252	3.01
960.68	-6.29
961.109	-1.99
961.537	-2.09
961.965	-1.29
962.393	1.11
962.821	-1.19
963.249	-0.69
963.677	3.51
964.105	6.91
964.533	47.71
964.961	42.01
965.389	20.71
965.817	4.81
966.245	1.81
966.672	2.71
967.1	-1.69
967.528	-0.39
967.956	-1.89
968.383	2.91
968.811	0.11
969.239	-4.09
969.666	-6.79
970.094	1.61
970.522	2.61
970.949	-2.89
971.377	-6.89
971.804	2.41
972.232	-0.09
972.659	1.11
973.087	-4.09
973.514	-2.49
973.941	-2.79
974.369	7.11
974.796	0.01
975.223	-1.69
975.651	-1.79
976.078	-2.49
976.505	-3.29
976.932	5.81
977.359	9.21
977.786	13.81
978.214	2.71
978.641	-3.39
979.068	-3.79
979.495	-3.39
979.922	-2.99
980.349	-3.99
980.776	7.71
981.202	-0.59
981.629	2.91
982.056	5.01
982.483	-2.59
982.91	3.41
983.337	-5.99
983.763	-0.29
984.19	-7.19
984.617	-1.29
985.043	-2.19
985.47	1.11
985.897	-3.59
986.323	-5.99
986.75	5.01
987.176	3.31
987.603	-0.59
988.029	0.41
988.456	-5.89
988.882	4.71
989.308	-7.29
989.735	-5.69
990.161	2.81
990.587	1.11
991.014	-5.69
991.44	4.81
991.866	-2.39
992.292	-11.19
992.719	3.01
993.145	1.11
993.571	-6.69
993.997	-3.59
994.423	3.21
994.849	-5.49
995.275	3.01
995.701	3.21
996.127	-4.99
996.553	4.61
996.979	-7.29
997.405	-2.39
997.83	-7.89
998.256	-0.39
998.682	-2.09
999.108	-5.79
999.534	-2.09
999.959	-4.79
1000.385	-0.79
1000.811	-0.09
1001.236	-4.49
1001.662	-3.59
1002.087	-9.19
1002.513	-0.19
1002.938	-0.59
1003.364	-3.59
1003.789	0.91
1004.215	1.71
1004.64	-7.79
1005.066	3.31
1005.491	1.51
1005.916	-3.59
1006.342	-5.79
1006.767	-6.29
1007.192	7.81
1007.617	-7.19
1008.042	-9.79
1008.468	-7.39
1008.893	-3.29
1009.318	-3.69
1009.743	-7.09
1010.168	1.01
1010.593	2.81
1011.018	-7.59
1011.443	0.91
1011.868	1.81
1012.293	-0.19
1012.718	-2.89
1013.143	0.41
1013.567	2.51
1013.992	-3.89
1014.417	-10.49
1014.842	2.21
1015.267	-2.39
1015.691	-1.19
1016.116	7.81
1016.541	1.61
1016.965	4.11
1017.39	2.91
1017.814	-1.59
1018.239	-0.59
1018.663	-5.79
1019.088	-13.19
1019.512	-1.09
1019.937	-5.89
1020.361	-4.39
1020.785	-10.59
1021.21	0.51
1021.634	-5.29
1022.058	4.91
1022.483	1.31
1022.907	-2.99
1023.331	-3.89
1023.755	-3.89
1024.179	-4.39
1024.604	-8.69
1025.028	-3.59
1025.452	-5.59
1025.876	-4.49
1026.3	-4.89
1026.724	-11.09
1027.148	0.61
1027.572	-8.89
1027.996	-3.29
1028.42	-8.49
1028.843	-4.19
1029.267	-7.29
1029.691	2.01
1030.115	-6.09
1030.539	-11.79
1030.962	-10.49
1031.386	-12.89
1031.81	4.51
1032.233	3.11
1032.657	-4.69
1033.08	-1.19
1033.504	2.01
1033.927	-5.29
1034.351	-0.89
1034.774	-6.79
1035.198	-1.99
1035.621	-6.19
1036.045	-9.09
1036.468	1.41
1036.891	-14.09
1037.315	-3.49
1037.738	-11.39
1038.161	5.01
1038.584	0.91
1039.008	-7.89
1039.431	-3.79
1039.854	-1.69
1040.277	-7.59
1040.7	-9.79
1041.123	1.41
1041.546	-9.89
1041.969	-3.09
1042.392	-11.19
1042.815	-5.79
1043.238	0.61
1043.661	4.91
1044.084	-0.29
1044.507	-6.79
1044.93	-6.99
1045.352	-5.79
1045.775	1.51
1046.198	-2.39
1046.621	-1.19
1047.043	2.81
1047.466	3.91
1047.889	-3.39
1048.311	-3.59
1048.734	0.71
1049.156	-4.09
1049.579	4.51
1050.001	2.61
1050.424	1.41
1050.846	-4.79
1051.269	-3.39
1051.691	-3.69
1052.113	-2.89
1052.536	-6.59
1052.958	-4.59
1053.38	-9.19
1053.802	-12.09
1054.225	-1.49
1054.647	-8.79
1055.069	-2.89
1055.491	3.11
1055.913	-13.19
1056.335	-0.39
1056.757	-4.69
1057.179	-3.79
1057.601	-6.49
1058.023	1.41
1058.445	-6.19
1058.867	-2.79
1059.289	-2.39
1059.711	-6.99
1060.133	0.91
1060.555	-7.49
1060.976	-4.79
1061.398	-10.59
1061.82	-3.89
1062.241	-3.39
1062.663	-7.89
1063.085	-8.39
1063.506	-0.69
1063.928	-3.19
1064.35	-0.89
1064.771	-10.19
1065.193	-2.69
1065.614	-8.79
1066.035	3.81
1066.457	-4.89
1066.878	-1.59
1067.3	-4.69
1067.721	-3.79
1068.142	-11.89
1068.564	-3.89
1068.985	-7.09
1069.406	-4.79
1069.827	-1.19
1070.248	-2.39
1070.67	-11.39
1071.091	-5.69
1071.512	-5.69
1071.933	-5.09
1072.354	-6.29
1072.775	-10.09
1073.196	-6.39
1073.617	-1.99
1074.038	-5.39
1074.459	-2.09
1074.88	-6.39
1075.3	-1.59
1075.721	-4.59
1076.142	2.01
1076.563	-2.39
1076.983	-10.29
1077.404	-6.49
1077.825	-11.39
1078.246	-3.29
1078.666	-15.09
1079.087	-5.29
1079.507	-4.09
1079.928	2.81
1080.348	-1.69
1080.769	-5.39
1081.189	-0.29
1081.61	1.71
1082.03	-3.39
1082.451	-9.99
1082.871	-3.49
1083.291	-8.39
1083.711	-5.99
1084.132	-6.09
1084.552	-3.49
1084.972	-2.39
1085.392	-12.99
1085.813	-13.89
1086.233	-10.09
1086.653	-9.09
1087.073	-3.29
1087.493	-8.49
1087.913	-6.19
1088.333	-7.69
1088.753	-5.49
1089.173	-3.99
1089.593	-0.99
1090.013	3.31
1090.433	-0.39
1090.852	-7.79
1091.272	0.71
1091.692	-3.89
1092.112	0.91
1092.531	-14.39
1092.951	-15.19
1093.371	-3.09
1093.79	-3.49
1094.21	-8.39
1094.63	-6.79
1095.049	-2.69
1095.469	-0.49
1095.888	-3.59
1096.308	-2.09
1096.727	6.21
1097.146	-6.89
1097.566	-5.69
1097.985	-9.19
1098.405	5.21
1098.824	-5.99
1099.243	-6.59
1099.662	-7.09
1100.082	-6.89
1100.501	-3.29
1100.92	-6.79
1101.339	-1.99
1101.758	-5.99
