Data from 20171114-ORNL-Ar_H_NY_Subt18_08-04-57-749.txt Node
Date: Tue Nov 14 08:04:57 EST 2017
User: Ender
Spectrometer: HR+D1039
Trigger mode: 0
Integration Time (sec): 2.730000E-2
Scans to average: 10
Electric dark correction enabled: true
Nonlinearity correction enabled: false
Boxcar width: 0
XAxis mode: Wavelengths
Number of Pixels in Spectrum: 2048
>>>>>Begin Spectral Data<<<<<
187.836	-1.93
188.309	-1.93
188.782	-1.93
189.255	2.27
189.728	-0.13
190.201	2.57
190.674	-0.73
191.147	1.87
191.619	-8.53
192.092	2.17
192.565	-0.23
193.038	-0.43
193.511	2.67
193.984	-0.33
194.456	-1.53
194.929	2.87
195.402	-4.23
195.874	3.67
196.347	-2.33
196.82	-1.63
197.292	8.67
197.765	-5.53
198.237	-8.93
198.71	2.37
199.182	0.27
199.655	2.27
200.127	5.57
200.6	-2.23
201.072	-2.23
201.544	-6.03
202.017	-0.63
202.489	4.47
202.961	-2.33
203.433	0.97
203.906	-6.93
204.378	-7.03
204.85	-6.13
205.322	-8.03
205.794	-2.53
206.266	-6.73
206.739	-11.93
207.211	1.27
207.683	-8.83
208.155	-4.23
208.627	-6.73
209.099	-1.33
209.57	-10.03
210.042	-1.93
210.514	1.37
210.986	-1.53
211.458	-8.13
211.93	-4.53
212.402	-2.73
212.873	-3.03
213.345	-10.23
213.817	-12.13
214.288	-1.33
214.76	-7.23
215.232	-5.23
215.703	-3.43
216.175	0.97
216.646	-0.23
217.118	-5.13
217.589	-6.83
218.061	-6.33
218.532	-0.43
219.004	-0.43
219.475	1.57
219.946	-4.93
220.418	-4.83
220.889	0.77
221.36	0.97
221.832	-0.73
222.303	-8.73
222.774	-2.63
223.245	-4.33
223.717	-0.53
224.188	-7.23
224.659	-4.63
225.13	-1.13
225.601	-0.43
226.072	-2.73
226.543	0.07
227.014	-1.43
227.485	-1.73
227.956	-6.63
228.427	-5.23
228.898	-1.63
229.369	2.97
229.839	-1.03
230.31	-4.23
230.781	6.47
231.252	-2.13
231.722	-0.73
232.193	-4.73
232.664	1.57
233.135	3.97
233.605	-4.23
234.076	-4.73
234.546	2.07
235.017	0.27
235.487	-4.83
235.958	3.87
236.428	3.07
236.899	4.77
237.369	3.47
237.84	-3.53
238.31	13.47
238.78	3.87
239.251	8.17
239.721	3.37
240.191	1.57
240.662	-3.53
241.132	3.17
241.602	-6.03
242.072	2.17
242.542	10.57
243.013	-0.93
243.483	4.07
243.953	4.87
244.423	-0.53
244.893	-4.43
245.363	6.07
245.833	9.07
246.303	4.77
246.773	7.07
247.243	5.07
247.712	7.67
248.182	9.07
248.652	12.07
249.122	-0.33
249.592	8.47
250.061	25.47
250.531	28.37
251.001	17.37
251.471	21.57
251.94	26.97
252.41	6.87
252.879	5.27
253.349	15.67
253.818	13.97
254.288	4.37
254.757	6.07
255.227	3.87
255.696	2.87
256.166	8.17
256.635	10.07
257.105	9.07
257.574	9.37
258.043	17.27
258.513	14.37
258.982	21.47
259.451	4.37
259.92	15.57
260.389	14.87
260.859	12.17
261.328	8.57
261.797	11.47
262.266	8.77
262.735	9.77
263.204	10.07
263.673	1.57
264.142	9.17
264.611	-1.63
265.08	5.07
265.549	4.47
266.018	7.87
266.487	-3.73
266.955	-0.53
267.424	1.97
267.893	7.37
268.362	2.77
268.83	7.97
269.299	10.87
269.768	11.67
270.236	5.77
270.705	5.17
271.174	6.17
271.642	7.47
272.111	18.97
272.579	13.87
273.048	20.87
273.516	36.77
273.985	33.17
274.453	24.17
274.922	28.37
275.39	16.67
275.858	10.27
276.327	13.67
276.795	19.57
277.263	15.27
277.731	34.47
278.2	55.97
278.668	54.57
279.136	51.47
279.604	17.77
280.072	16.67
280.54	11.97
281.008	7.37
281.477	14.47
281.945	12.27
282.413	14.07
282.881	14.87
283.348	13.47
283.816	15.87
284.284	12.87
284.752	22.77
285.22	18.37
285.688	21.77
286.156	16.07
286.623	47.07
287.091	49.47
287.559	31.67
288.026	16.07
288.494	14.57
288.962	10.07
289.429	17.77
289.897	21.07
290.364	17.17
290.832	24.47
291.3	17.47
291.767	18.17
292.234	21.07
292.702	15.87
293.169	21.37
293.637	26.17
294.104	22.97
294.571	13.57
295.039	13.47
295.506	21.37
295.973	19.57
296.44	17.57
296.908	22.17
297.375	19.67
297.842	25.27
298.309	21.97
298.776	17.87
299.243	19.67
299.71	17.07
300.177	21.97
300.644	17.17
301.111	17.17
301.578	28.47
302.045	20.07
302.512	25.17
302.979	24.87
303.446	25.87
303.913	18.57
304.379	18.97
304.846	28.67
305.313	26.47
305.78	25.47
306.246	25.17
306.713	23.37
307.18	28.87
307.646	32.67
308.113	32.87
308.579	27.57
309.046	25.27
309.512	29.57
309.979	22.17
310.445	30.57
310.912	29.37
311.378	29.07
311.845	28.37
312.311	32.67
312.777	31.67
313.244	31.87
313.71	34.97
314.176	32.97
314.642	38.87
315.109	37.67
315.575	38.37
316.041	45.17
316.507	30.47
316.973	41.77
317.439	32.97
317.905	36.27
318.371	36.77
318.837	36.97
319.303	35.97
319.769	31.17
320.235	32.07
320.701	40.57
321.167	40.07
321.633	38.27
322.099	36.67
322.564	41.87
323.03	44.77
323.496	40.27
323.962	49.37
324.427	42.97
324.893	44.97
325.359	43.57
325.824	37.67
326.29	38.57
326.755	40.07
327.221	43.57
327.686	39.67
328.152	48.97
328.617	46.97
329.083	49.27
329.548	55.37
330.014	44.57
330.479	48.07
330.944	42.27
331.41	47.87
331.875	49.67
332.34	45.37
332.805	44.07
333.271	51.17
333.736	46.37
334.201	52.97
334.666	52.27
335.131	54.17
335.596	61.37
336.061	53.17
336.526	47.87
336.991	49.97
337.456	55.87
337.921	49.77
338.386	41.57
338.851	48.07
339.316	44.17
339.781	50.87
340.246	48.37
340.711	52.87
341.175	53.27
341.64	43.37
342.105	57.67
342.569	57.97
343.034	57.27
343.499	57.27
343.963	58.27
344.428	65.47
344.893	64.77
345.357	70.67
345.822	67.87
346.286	72.27
346.751	71.97
347.215	63.77
347.679	75.07
348.144	96.07
348.608	91.37
349.073	70.77
349.537	76.47
350.001	82.67
350.465	98.37
350.93	86.37
351.394	84.67
351.858	76.47
352.322	86.67
352.786	79.27
353.25	101.37
353.715	114.17
354.179	99.57
354.643	123.87
355.107	127.17
355.571	109.27
356.035	106.57
356.498	119.07
356.962	128.27
357.426	136.47
357.89	121.97
358.354	92.57
358.818	86.67
359.281	80.47
359.745	82.67
360.209	79.57
360.673	72.97
361.136	86.97
361.6	86.87
362.064	89.87
362.527	84.37
362.991	89.97
363.454	84.47
363.918	85.57
364.381	82.57
364.845	87.27
365.308	89.17
365.772	87.87
366.235	92.37
366.698	85.37
367.162	86.77
367.625	87.07
368.088	88.87
368.552	85.17
369.015	85.27
369.478	96.07
369.941	105.77
370.404	92.67
370.867	98.77
371.331	106.77
371.794	115.37
372.257	108.97
372.72	116.77
373.183	108.27
373.646	100.87
374.109	107.37
374.572	107.17
375.035	108.97
375.497	109.47
375.96	105.27
376.423	108.07
376.886	105.97
377.349	102.87
377.811	108.57
378.274	111.87
378.737	102.37
379.199	117.17
379.662	111.47
380.125	114.47
380.587	115.47
381.05	115.97
381.512	128.17
381.975	127.07
382.437	123.07
382.9	118.97
383.362	129.37
383.825	138.77
384.287	143.57
384.75	138.67
385.212	140.67
385.674	135.57
386.136	135.07
386.599	128.57
387.061	127.27
387.523	127.27
387.985	128.47
388.447	145.67
388.91	141.37
389.372	156.47
389.834	150.27
390.296	145.27
390.758	156.37
391.22	166.87
391.682	207.07
392.144	289.07
392.606	228.97
393.068	170.57
393.529	172.07
393.991	150.77
394.453	151.47
394.915	152.97
395.377	185.77
395.838	213.27
396.3	152.67
396.762	131.57
397.224	128.57
397.685	127.57
398.147	129.07
398.608	128.57
399.07	129.97
399.531	138.27
399.993	142.97
400.454	147.87
400.916	144.97
401.377	136.57
401.839	146.97
402.3	152.97
402.762	167.87
403.223	181.47
403.684	170.87
404.145	158.47
404.607	153.67
405.068	161.67
405.529	165.37
405.99	195.07
406.451	176.87
406.913	163.57
407.374	163.37
407.835	156.97
408.296	160.57
408.757	162.97
409.218	181.37
409.679	173.47
410.14	179.77
410.601	172.77
411.062	178.57
411.522	185.97
411.983	181.87
412.444	168.27
412.905	181.27
413.366	181.87
413.826	189.27
414.287	214.37
414.748	250.57
415.208	245.47
415.669	207.97
416.13	204.27
416.59	200.87
417.051	206.37
417.511	216.97
417.972	236.77
418.432	246.87
418.893	286.57
419.353	250.37
419.814	199.57
420.274	183.77
420.734	178.67
421.195	199.87
421.655	196.07
422.115	189.37
422.576	186.77
423.036	195.47
423.496	198.27
423.956	213.57
424.416	230.37
424.876	260.77
425.336	253.67
425.797	260.77
426.257	255.17
426.717	239.17
427.177	229.57
427.637	218.17
428.097	231.97
428.556	241.67
429.016	264.07
429.476	260.47
429.936	270.07
430.396	272.47
430.856	289.97
431.315	307.97
431.775	336.27
432.235	366.17
432.694	340.97
433.154	361.77
433.614	384.27
434.073	324.97
434.533	282.27
434.993	265.47
435.452	271.37
435.912	285.97
436.371	288.67
436.83	272.57
437.29	261.87
437.749	240.27
438.209	241.97
438.668	263.07
439.127	280.27
439.587	261.67
440.046	241.17
440.505	255.47
440.964	268.27
441.424	318.77
441.883	304.37
442.342	261.57
442.801	227.67
443.26	218.07
443.719	216.57
444.178	209.77
444.637	198.27
445.096	216.77
445.555	213.77
446.014	220.27
446.473	224.77
446.932	230.57
447.391	224.67
447.849	223.67
448.308	209.67
448.767	218.47
449.226	229.67
449.685	231.17
450.143	241.87
450.602	237.57
451.061	225.47
451.519	219.77
451.978	223.87
452.436	236.87
452.895	235.97
453.353	246.07
453.812	234.17
454.27	231.07
454.729	239.77
455.187	233.47
455.646	242.87
456.104	247.57
456.562	250.97
457.021	267.17
457.479	250.97
457.937	264.17
458.395	258.47
458.854	238.17
459.312	247.47
459.77	263.67
460.228	243.17
460.686	237.07
461.144	246.97
461.602	240.27
462.06	238.37
462.518	248.37
462.976	251.27
463.434	260.57
463.892	269.57
464.35	264.47
464.808	278.57
465.266	265.47
465.724	268.67
466.181	270.37
466.639	267.47
467.097	283.47
467.555	289.67
468.012	299.57
468.47	304.57
468.928	322.47
469.385	334.17
469.843	340.47
470.3	329.37
470.758	353.37
471.215	369.57
471.673	393.77
472.13	395.47
472.588	411.27
473.045	364.67
473.503	360.47
473.96	385.47
474.417	397.17
474.875	415.47
475.332	458.37
475.789	451.37
476.246	465.27
476.704	474.47
477.161	492.07
477.618	517.17
478.075	544.67
478.532	598.87
478.989	685.87
479.446	785.37
479.903	754.67
480.36	782.37
480.817	839.87
481.274	943.87
481.731	1050.67
482.188	1128.77
482.645	1265.57
483.102	1371.87
483.558	1506.57
484.015	1555.87
484.472	1537.77
484.929	1488.27
485.385	1437.27
485.842	1406.07
486.299	1335.57
486.755	1267.97
487.212	1074.17
487.668	905.67
488.125	823.27
488.582	765.87
489.038	726.97
489.494	695.57
489.951	679.47
490.407	657.37
490.864	638.87
491.32	642.97
491.776	624.57
492.233	631.57
492.689	597.97
493.145	585.57
493.602	582.47
494.058	596.57
494.514	604.87
494.97	617.37
495.426	635.17
495.882	613.17
496.338	607.47
496.794	622.17
497.251	614.27
497.707	629.17
498.163	617.37
498.618	630.37
499.074	635.97
499.53	666.27
499.986	665.47
500.442	637.77
500.898	615.57
501.354	608.97
501.809	627.47
502.265	630.07
502.721	656.07
503.177	650.57
503.632	650.97
504.088	660.47
504.543	696.07
504.999	684.77
505.455	647.37
505.91	611.37
506.366	616.07
506.821	614.07
507.277	607.77
507.732	610.47
508.187	609.67
508.643	622.37
509.098	615.17
509.553	632.07
510.009	652.17
510.464	654.87
510.919	675.77
511.375	676.47
511.83	699.07
512.285	706.87
512.74	747.97
513.195	768.37
513.65	759.57
514.105	751.47
514.56	748.77
515.015	773.87
515.47	796.37
515.925	779.27
516.38	765.67
516.835	771.07
517.29	766.77
517.745	757.07
518.2	751.27
518.655	725.27
519.109	733.77
519.564	732.47
520.019	714.47
520.474	696.67
520.928	719.17
521.383	702.57
521.838	699.87
522.292	696.77
522.747	693.67
523.201	682.57
523.656	676.47
524.11	676.97
524.565	673.37
525.019	665.27
525.474	684.67
525.928	693.87
526.382	680.87
526.837	679.87
527.291	686.17
527.745	675.27
528.2	679.07
528.654	660.47
529.108	668.67
529.562	668.37
530.016	670.37
530.47	675.47
530.925	665.27
531.379	675.77
531.833	686.57
532.287	687.27
532.741	679.27
533.195	687.27
533.649	689.37
534.103	708.67
534.556	686.07
535.01	695.47
535.464	701.57
535.918	700.87
536.372	704.17
536.826	698.77
537.279	679.57
537.733	692.47
538.187	698.77
538.64	691.37
539.094	703.17
539.548	709.87
540.001	699.37
540.455	708.57
540.908	712.57
541.362	704.47
541.815	723.97
542.269	735.07
542.722	732.67
543.175	745.57
543.629	742.67
544.082	763.37
544.536	759.97
544.989	754.37
545.442	766.87
545.895	767.07
546.349	758.17
546.802	768.27
547.255	768.67
547.708	777.87
548.161	786.37
548.614	786.57
549.067	810.67
549.52	790.07
549.973	780.67
550.426	778.77
550.879	763.57
551.332	771.07
551.785	779.27
552.238	784.87
552.691	790.27
553.144	797.77
553.596	807.47
554.049	832.97
554.502	864.07
554.955	878.57
555.407	881.47
555.86	865.47
556.313	853.27
556.765	861.67
557.218	855.07
557.67	852.17
558.123	851.57
558.576	850.67
559.028	848.57
559.48	855.07
559.933	828.07
560.385	814.37
560.838	780.57
561.29	752.97
561.742	753.57
562.195	735.97
562.647	729.27
563.099	741.67
563.551	736.27
564.004	754.97
564.456	744.97
564.908	730.47
565.36	716.57
565.812	705.37
566.264	696.97
566.716	696.07
567.168	675.37
567.62	680.57
568.072	675.97
568.524	665.07
568.976	653.67
569.428	644.97
569.88	646.67
570.332	645.07
570.784	658.17
571.235	646.37
571.687	662.87
572.139	675.07
572.59	683.37
573.042	673.57
573.494	672.27
573.945	667.27
574.397	648.77
574.849	660.87
575.3	656.27
575.752	652.67
576.203	649.87
576.655	655.67
577.106	630.77
577.557	632.87
578.009	640.07
578.46	633.37
578.912	629.17
579.363	632.47
579.814	628.97
580.265	625.67
580.717	641.17
581.168	635.47
581.619	646.87
582.07	642.27
582.521	644.87
582.972	639.87
583.423	651.07
583.875	637.37
584.326	671.57
584.777	705.97
585.227	771.97
585.678	857.07
586.129	947.17
586.58	1003.77
587.031	1082.57
587.482	1227.27
587.933	1402.97
588.384	1219.77
588.834	912.37
589.285	755.47
589.736	734.07
590.186	726.17
590.637	731.87
591.088	715.57
591.538	700.47
591.989	693.17
592.439	692.07
592.89	683.97
593.34	670.87
593.791	666.97
594.241	666.17
594.692	671.47
595.142	664.27
595.593	655.27
596.043	667.47
596.493	664.77
596.943	670.77
597.394	683.67
597.844	671.47
598.294	683.67
598.744	698.87
599.195	721.27
599.645	757.87
600.095	803.07
600.545	854.37
600.995	910.77
601.445	960.17
601.895	1013.77
602.345	1062.37
602.795	1046.67
603.245	1001.07
603.695	958.47
604.145	882.57
604.594	844.77
605.044	797.57
605.494	743.07
605.944	706.07
606.393	702.37
606.843	678.77
607.293	686.27
607.743	680.47
608.192	691.37
608.642	713.27
609.091	718.57
609.541	721.67
609.99	717.47
610.44	711.07
610.889	676.37
611.339	646.27
611.788	631.47
612.238	643.47
612.687	665.97
613.136	675.97
613.586	695.67
614.035	686.17
614.484	689.37
614.933	699.27
615.383	699.07
615.832	681.87
616.281	675.37
616.73	640.47
617.179	616.87
617.628	597.37
618.077	582.07
618.526	575.77
618.975	573.27
619.424	570.77
619.873	569.77
620.322	587.17
620.771	563.87
621.22	565.97
621.669	549.57
622.118	544.17
622.567	537.17
623.015	525.27
623.464	530.27
623.913	521.67
624.361	507.17
624.81	517.17
625.259	509.07
625.707	511.87
626.156	510.17
626.604	522.17
627.053	514.37
627.501	522.37
627.95	529.47
628.398	538.57
628.847	524.97
629.295	529.07
629.744	533.07
630.192	532.37
630.64	521.27
631.089	521.07
631.537	531.27
631.985	537.77
632.433	544.77
632.881	548.37
633.33	605.97
633.778	583.07
634.226	510.67
634.674	525.77
635.122	524.87
635.57	543.87
636.018	571.47
636.466	526.77
636.914	513.07
637.362	522.47
637.81	525.77
638.258	527.67
638.705	522.27
639.153	552.87
639.601	569.87
640.049	581.07
640.497	618.37
640.944	635.67
641.392	591.97
641.84	560.27
642.287	536.77
642.735	516.97
643.182	521.37
643.63	517.27
644.078	527.27
644.525	539.07
644.973	542.77
645.42	556.97
645.867	567.07
646.315	585.77
646.762	607.37
647.21	631.27
647.657	655.37
648.104	686.87
648.551	708.67
648.999	755.67
649.446	826.77
649.893	912.27
650.34	1046.87
650.787	1250.47
651.234	1555.17
651.682	2011.77
652.129	2778.37
652.576	3925.67
653.023	5851.27
653.47	8062.77
653.917	10151.67
654.363	11867.47
654.81	13268.97
655.257	12599.87
655.704	8188.37
656.151	4813.67
656.598	3128.17
657.044	2227.87
657.491	1713.07
657.938	1356.67
658.385	1141.57
658.831	992.57
659.278	884.47
659.724	785.17
660.171	715.87
660.618	663.67
661.064	619.87
661.511	607.87
661.957	590.57
662.404	583.57
662.85	590.87
663.296	575.07
663.743	511.27
664.189	493.97
664.635	485.57
665.082	481.77
665.528	485.07
665.974	467.37
666.42	460.97
666.867	456.07
667.313	447.87
667.759	433.97
668.205	436.27
668.651	441.37
669.097	438.07
669.543	451.17
669.989	427.97
670.435	409.67
670.881	407.37
671.327	412.17
671.773	432.77
672.219	439.97
672.665	483.97
673.11	517.27
673.556	562.47
674.002	602.17
674.448	592.67
674.893	499.57
675.339	426.47
675.785	401.47
676.23	387.67
676.676	350.77
677.122	344.37
677.567	337.37
678.013	337.27
678.458	325.37
678.904	321.17
679.349	315.57
679.794	326.77
680.24	316.97
680.685	315.07
681.131	313.67
681.576	321.57
682.021	320.47
682.466	311.07
682.912	314.97
683.357	328.57
683.802	345.57
684.247	361.17
684.692	401.87
685.137	444.87
685.583	483.67
686.028	503.67
686.473	472.87
686.918	399.37
687.363	380.77
687.807	349.97
688.252	328.17
688.697	314.07
689.142	304.67
689.587	306.67
690.032	290.27
690.477	303.77
690.921	316.67
691.366	343.97
691.811	360.87
692.255	381.97
692.7	413.37
693.145	441.87
693.589	617.37
694.034	996.67
694.478	1374.97
694.923	1571.07
695.367	2068.67
695.812	1089.57
696.256	453.67
696.701	340.17
697.145	312.07
697.59	297.17
698.034	284.77
698.478	294.27
698.922	290.57
699.367	293.27
699.811	300.97
700.255	321.47
700.699	350.27
701.143	376.87
701.588	426.97
702.032	464.27
702.476	457.07
702.92	433.57
703.364	430.67
703.808	560.67
704.252	901.17
704.696	1303.07
705.14	1531.47
705.584	1957.47
706.027	966.27
706.471	466.07
706.915	353.57
707.359	308.47
707.803	284.07
708.246	281.37
708.69	277.17
709.134	285.97
709.577	279.77
710.021	280.77
710.465	271.47
710.908	271.67
711.352	273.07
711.795	277.37
712.239	314.97
712.682	339.57
713.126	373.77
713.569	422.57
714.012	334.17
714.456	287.77
714.899	268.27
715.342	253.77
715.786	223.27
716.229	227.17
716.672	231.87
717.115	226.67
717.558	225.97
718.002	225.67
718.445	239.87
718.888	256.77
719.331	262.57
719.774	276.57
720.217	272.67
720.66	256.37
721.103	242.87
721.546	229.17
721.989	223.27
722.432	205.97
722.874	212.27
723.317	201.27
723.76	206.87
724.203	226.17
724.645	283.17
725.088	389.47
725.531	498.97
725.974	590.77
726.416	490.47
726.859	278.37
727.301	228.87
727.744	212.57
728.187	204.57
728.629	213.27
729.071	220.27
729.514	230.67
729.956	242.67
730.399	245.07
730.841	255.27
731.283	241.67
731.726	237.07
732.168	230.37
732.61	238.77
733.053	254.77
733.495	270.77
733.937	310.67
734.379	346.47
734.821	382.67
735.263	474.77
735.705	732.07
736.148	1361.77
736.59	2281.07
737.032	2764.97
737.474	2263.47
737.916	721.97
738.357	385.17
738.799	298.37
739.241	268.47
739.683	260.17
740.125	262.47
740.567	263.17
741.008	280.77
741.45	281.97
741.892	283.47
742.334	308.37
742.775	323.17
743.217	298.17
743.658	239.97
744.1	220.17
744.542	233.57
744.983	280.27
745.425	313.07
745.866	312.87
746.307	256.67
746.749	250.17
747.19	285.57
747.632	395.17
748.073	751.37
748.514	1601.27
748.956	2579.67
749.397	3189.17
749.838	2666.17
750.279	2701.07
750.72	1348.97
751.162	484.77
751.603	284.67
752.044	224.77
752.485	192.87
752.926	185.97
753.367	178.47
753.808	172.27
754.249	163.07
754.69	171.97
755.131	161.37
755.572	162.37
756.013	160.57
756.453	167.47
756.894	163.17
757.335	169.87
757.776	171.87
758.216	173.07
758.657	173.87
759.098	176.67
759.538	194.27
759.979	229.57
760.42	327.87
760.86	605.77
761.301	1558.57
761.741	3878.17
762.182	5898.77
762.622	4135.27
763.063	1175.87
763.503	483.27
763.943	308.87
764.384	291.07
764.824	352.47
765.264	395.47
765.705	268.97
766.145	184.67
766.585	166.27
767.025	151.97
767.465	165.17
767.906	212.77
768.346	273.77
768.786	303.17
769.226	235.07
769.666	277.87
770.106	533.37
770.546	1347.67
770.986	2391.17
771.426	2164.77
771.866	709.37
772.306	291.67
772.745	186.07
773.185	156.07
773.625	150.87
774.065	145.37
774.505	170.87
774.944	259.87
775.384	570.47
775.824	1059.97
776.263	1058.87
776.703	444.87
777.142	195.57
777.582	137.87
778.021	124.47
778.461	122.37
778.9	125.57
779.34	121.67
779.779	109.07
780.219	96.87
780.658	96.37
781.097	102.47
781.537	101.17
781.976	96.37
782.415	93.27
782.855	90.37
783.294	94.17
783.733	94.97
784.172	93.27
784.611	89.97
785.05	95.57
785.489	104.27
785.928	108.37
786.367	105.37
786.806	103.57
787.245	117.37
787.684	123.37
788.123	139.17
788.562	128.27
789.001	114.97
789.44	107.27
789.879	106.47
790.317	107.07
790.756	113.57
791.195	112.87
791.634	128.37
792.072	178.77
792.511	308.17
792.95	862.57
793.388	1903.67
793.827	1787.57
794.265	614.37
794.704	254.27
795.142	169.07
795.581	131.57
796.019	123.57
796.458	113.57
796.896	108.97
797.334	108.57
797.773	134.67
798.211	191.57
798.649	374.97
799.087	886.87
799.526	1416.27
799.964	1784.57
800.402	1840.97
800.84	680.37
801.278	272.17
801.716	165.47
802.154	135.77
802.592	127.07
803.03	130.67
803.468	118.77
803.906	130.27
804.344	136.07
804.782	131.57
805.22	121.37
805.658	114.27
806.096	129.87
806.533	138.77
806.971	152.27
807.409	190.27
807.847	277.37
808.284	573.17
808.722	1617.97
809.16	2971.77
809.597	2731.97
810.035	4847.97
810.472	5346.87
810.91	1901.17
811.347	709.67
811.785	357.57
812.222	227.27
812.66	170.87
813.097	150.27
813.535	127.27
813.972	112.17
814.409	111.17
814.846	100.97
815.284	97.97
815.721	87.07
816.158	101.87
816.595	99.27
817.032	156.87
817.47	181.37
817.907	136.77
818.344	132.17
818.781	100.57
819.218	89.37
819.655	114.27
820.092	172.87
820.529	197.17
820.966	153.77
821.403	125.97
821.839	93.17
822.276	92.17
822.713	113.37
823.15	117.27
823.587	100.87
824.023	128.57
824.46	251.27
824.897	781.27
825.333	1230.17
825.77	521.87
826.206	207.67
826.643	122.67
827.08	91.47
827.516	71.27
827.953	69.27
828.389	64.57
828.825	56.17
829.262	63.77
829.698	53.67
830.135	61.67
830.571	60.27
831.007	58.87
831.443	61.77
831.88	55.17
832.316	53.27
832.752	59.87
833.188	52.87
833.624	55.37
834.06	63.17
834.497	63.97
834.933	64.47
835.369	67.37
835.805	58.37
836.241	64.77
836.677	65.37
837.112	78.07
837.548	89.47
837.984	119.37
838.42	178.47
838.856	420.97
839.292	1343.87
839.727	2107.47
840.163	965.17
840.599	797.67
841.034	1789.37
841.47	1955.07
841.906	707.27
842.341	289.77
842.777	199.77
843.212	276.77
843.648	271.77
844.083	135.27
844.519	87.77
844.954	69.57
845.39	52.37
845.825	52.17
846.261	48.77
846.696	49.37
847.131	47.97
847.566	57.07
848.002	48.47
848.437	49.87
848.872	55.77
849.307	53.77
849.742	79.27
850.177	158.37
850.613	485.07
851.048	801.77
851.483	350.27
851.918	140.37
852.353	76.57
852.788	57.77
853.223	51.37
853.657	51.87
854.092	43.17
854.527	38.37
854.962	34.17
855.397	35.67
855.832	47.87
856.266	35.57
856.701	41.97
857.136	31.57
857.57	35.87
858.005	40.47
858.44	51.77
858.874	35.57
859.309	43.57
859.743	42.37
860.178	43.77
860.612	38.27
861.047	43.47
861.481	57.27
861.915	63.17
862.35	46.97
862.784	26.87
863.218	35.47
863.653	30.07
864.087	41.47
864.521	51.07
864.955	53.07
865.39	130.77
865.824	154.27
866.258	99.57
866.692	145.97
867.126	161.67
867.56	98.47
867.994	39.97
868.428	35.77
868.862	37.87
869.296	49.77
869.73	49.97
870.164	48.27
870.598	45.87
871.031	34.47
871.465	26.27
871.899	25.37
872.333	27.27
872.766	26.07
873.2	19.27
873.634	20.57
874.067	21.27
874.501	23.37
874.935	33.77
875.368	27.77
875.802	19.17
876.235	19.97
876.669	23.17
877.102	21.27
877.535	22.17
877.969	21.47
878.402	20.97
878.836	13.87
879.269	21.97
879.702	27.07
880.135	23.87
880.569	20.67
881.002	26.67
881.435	18.27
881.868	17.07
882.301	21.57
882.734	13.67
883.167	15.77
883.601	14.97
884.034	21.47
884.467	17.27
884.899	18.47
885.332	11.17
885.765	11.07
886.198	13.07
886.631	21.77
887.064	18.97
887.497	20.57
887.929	28.97
888.362	15.57
888.795	10.87
889.228	18.97
889.66	24.37
890.093	13.37
890.526	16.47
890.958	11.97
891.391	16.67
891.823	21.57
892.256	15.57
892.688	10.27
893.121	16.57
893.553	19.57
893.985	19.37
894.418	16.87
894.85	7.57
895.282	17.77
895.715	18.47
896.147	16.07
896.579	15.87
897.011	14.17
897.444	17.37
897.876	10.77
898.308	18.87
898.74	13.37
899.172	14.67
899.604	21.87
900.036	16.67
900.468	9.57
900.9	14.67
901.332	18.57
901.764	14.27
902.196	21.07
902.628	16.17
903.06	17.17
903.491	27.97
903.923	20.07
904.355	24.77
904.787	26.37
905.218	19.67
905.65	14.17
906.082	11.77
906.513	12.77
906.945	13.37
907.376	7.87
907.808	23.77
908.239	17.67
908.671	12.27
909.102	15.27
909.534	20.47
909.965	39.37
910.397	78.87
910.828	283.87
911.259	428.87
911.691	195.67
912.122	99.17
912.553	50.07
912.984	29.47
913.415	23.47
913.847	23.37
914.278	12.87
914.709	15.87
915.14	14.17
915.571	17.37
916.002	11.27
916.433	17.37
916.864	11.47
917.295	10.07
917.726	16.17
918.157	15.37
918.587	30.27
919.018	19.97
919.449	16.47
919.88	19.07
920.311	27.17
920.741	42.77
921.172	152.17
921.603	135.07
922.033	59.57
922.464	46.77
922.895	19.67
923.325	14.67
923.756	8.47
924.186	9.47
924.617	18.37
925.047	38.47
925.478	49.07
925.908	39.37
926.338	19.77
926.769	16.67
927.199	18.07
927.629	7.47
928.06	16.47
928.49	13.77
928.92	11.17
929.35	13.57
929.78	8.37
930.21	6.77
930.641	6.77
931.071	11.27
931.501	5.77
931.931	6.67
932.361	8.77
932.791	-1.53
933.221	3.57
933.651	4.17
934.08	17.17
934.51	19.87
934.94	17.97
935.37	10.37
935.8	11.47
936.229	8.37
936.659	7.17
937.089	5.77
937.519	10.67
937.948	23.57
938.378	16.77
938.807	8.27
939.237	6.17
939.666	13.07
940.096	-3.93
940.525	3.37
940.955	-2.43
941.384	4.57
941.814	-3.93
942.243	4.57
942.672	8.57
943.102	-3.73
943.531	3.07
943.96	4.77
944.39	0.57
944.819	-4.63
945.248	7.37
945.677	3.27
946.106	10.27
946.535	7.07
946.964	3.07
947.393	1.37
947.822	2.87
948.251	-2.33
948.68	0.57
949.109	3.47
949.538	0.97
949.967	1.07
950.396	-0.23
950.825	-0.53
951.254	1.27
951.682	-9.53
952.111	1.37
952.54	8.17
952.969	-4.53
953.397	-3.13
953.826	3.47
954.254	-5.13
954.683	0.37
955.112	-2.73
955.54	4.47
955.969	-2.63
956.397	-0.53
956.826	-2.43
957.254	3.47
957.682	-1.43
958.111	6.27
958.539	-2.73
958.967	3.57
959.396	-8.33
959.824	1.57
960.252	-2.23
960.68	-3.23
961.109	-4.23
961.537	-5.13
961.965	-1.53
962.393	4.07
962.821	-0.03
963.249	-2.13
963.677	5.37
964.105	7.37
964.533	35.37
964.961	37.07
965.389	12.87
965.817	6.57
966.245	0.87
966.672	7.27
967.1	-7.63
967.528	2.47
967.956	4.37
968.383	4.17
968.811	-4.53
969.239	3.27
969.666	-2.83
970.094	2.37
970.522	7.37
970.949	-7.43
971.377	-7.83
971.804	-2.43
972.232	-4.03
972.659	-1.63
973.087	-4.33
973.514	-0.53
973.941	-3.33
974.369	7.57
974.796	-0.53
975.223	-1.93
975.651	-8.93
976.078	1.87
976.505	-1.83
976.932	3.97
977.359	13.37
977.786	17.17
978.214	-2.23
978.641	-4.93
979.068	-3.73
979.495	-2.43
979.922	-1.03
980.349	-4.63
980.776	5.57
981.202	-3.53
981.629	6.87
982.056	4.87
982.483	-5.33
982.91	4.37
983.337	-7.13
983.763	3.87
984.19	-6.33
984.617	-4.53
985.043	-8.13
985.47	-2.23
985.897	-0.93
986.323	-11.83
986.75	8.27
987.176	-3.83
987.603	1.67
988.029	-6.03
988.456	-1.63
988.882	-0.43
989.308	-3.63
989.735	-1.33
990.161	1.07
990.587	-4.43
991.014	-2.83
991.44	13.07
991.866	0.77
992.292	-2.93
992.719	-1.03
993.145	7.47
993.571	-9.33
993.997	-1.03
994.423	-2.13
994.849	-7.53
995.275	-1.43
995.701	-0.63
996.127	-2.93
996.553	1.17
996.979	-1.03
997.405	0.67
997.83	-0.93
998.256	-4.73
998.682	-12.73
999.108	-1.13
999.534	-0.53
999.959	3.67
1000.385	-5.53
1000.811	1.97
1001.236	-9.73
1001.662	-7.03
1002.087	-4.13
1002.513	-2.73
1002.938	3.07
1003.364	-4.83
1003.789	-0.83
1004.215	5.87
1004.64	-0.53
1005.066	-3.43
1005.491	-1.73
1005.916	0.77
1006.342	0.07
1006.767	-3.43
1007.192	5.97
1007.617	-6.73
1008.042	-3.03
1008.468	-9.83
1008.893	-1.63
1009.318	-2.83
1009.743	4.37
1010.168	5.37
1010.593	-0.73
1011.018	-9.93
1011.443	-0.63
1011.868	-3.73
1012.293	-2.23
1012.718	-4.33
1013.143	-1.03
1013.567	2.57
1013.992	-3.63
1014.417	-10.53
1014.842	4.67
1015.267	-9.73
1015.691	0.07
1016.116	4.07
1016.541	1.97
1016.965	1.27
1017.39	6.37
1017.814	-6.33
1018.239	-4.43
1018.663	-8.53
1019.088	-8.33
1019.512	-3.23
1019.937	1.47
1020.361	-4.33
1020.785	-9.53
1021.21	-0.43
1021.634	-1.03
1022.058	0.87
1022.483	3.17
1022.907	-4.63
1023.331	-5.73
1023.755	-4.13
1024.179	3.47
1024.604	-3.43
1025.028	-3.23
1025.452	-1.73
1025.876	0.07
1026.3	-1.93
1026.724	-9.23
1027.148	-5.93
1027.572	-5.73
1027.996	-5.53
1028.42	-0.13
1028.843	-1.23
1029.267	-8.03
1029.691	1.77
1030.115	-9.43
1030.539	-9.83
1030.962	-11.63
1031.386	-5.13
1031.81	-1.73
1032.233	-3.83
1032.657	-3.63
1033.08	0.97
1033.504	-2.13
1033.927	-3.53
1034.351	3.57
1034.774	0.87
1035.198	-3.53
1035.621	-2.53
1036.045	-4.73
1036.468	-2.03
1036.891	-10.83
1037.315	-5.43
1037.738	-10.43
1038.161	-3.23
1038.584	-7.03
1039.008	-1.83
1039.431	-0.43
1039.854	-2.03
1040.277	-8.63
1040.7	-10.13
1041.123	5.17
1041.546	-11.43
1041.969	-0.63
1042.392	-1.23
1042.815	-2.33
1043.238	2.27
1043.661	3.37
1044.084	-4.53
1044.507	-3.43
1044.93	-8.63
1045.352	-3.93
1045.775	-3.73
1046.198	-3.93
1046.621	0.47
1047.043	4.27
1047.466	1.57
1047.889	-2.43
1048.311	-8.43
1048.734	1.47
1049.156	-2.83
1049.579	-4.33
1050.001	-6.63
1050.424	-0.73
1050.846	-11.13
1051.269	-1.23
1051.691	-6.53
1052.113	-8.73
1052.536	-2.73
1052.958	-4.23
1053.38	-2.53
1053.802	-8.13
1054.225	-0.83
1054.647	-13.83
1055.069	-2.53
1055.491	3.87
1055.913	-2.63
1056.335	0.47
1056.757	-8.03
1057.179	-8.93
1057.601	-6.73
1058.023	2.07
1058.445	-3.43
1058.867	-0.03
1059.289	-4.23
1059.711	-7.83
1060.133	0.87
1060.555	-3.53
1060.976	-9.23
1061.398	-6.43
1061.82	-8.33
1062.241	-6.73
1062.663	-8.53
1063.085	-7.63
1063.506	-4.93
1063.928	4.57
1064.35	1.87
1064.771	-15.43
1065.193	-6.83
1065.614	-8.13
1066.035	-5.63
1066.457	-2.93
1066.878	0.97
1067.3	-4.03
1067.721	-3.73
1068.142	-2.13
1068.564	-1.03
1068.985	-7.33
1069.406	-4.73
1069.827	-4.73
1070.248	-5.03
1070.67	-9.53
1071.091	-5.43
1071.512	-2.83
1071.933	0.87
1072.354	-0.93
1072.775	1.17
1073.196	1.97
1073.617	3.57
1074.038	-1.33
1074.459	-5.43
1074.88	-4.13
1075.3	-5.03
1075.721	-3.33
1076.142	-0.93
1076.563	-7.63
1076.983	-7.63
1077.404	-7.73
1077.825	-11.93
1078.246	-5.73
1078.666	-11.53
1079.087	-3.03
1079.507	-3.43
1079.928	-4.13
1080.348	-0.53
1080.769	-6.23
1081.189	-3.33
1081.61	-0.33
1082.03	-6.93
1082.451	-4.33
1082.871	-3.63
1083.291	-4.63
1083.711	-4.73
1084.132	-2.53
1084.552	-6.43
1084.972	-1.33
1085.392	-12.73
1085.813	-5.53
1086.233	-3.33
1086.653	-2.63
1087.073	-5.23
1087.493	-7.23
1087.913	-4.93
1088.333	-10.73
1088.753	-5.43
1089.173	-1.43
1089.593	-5.93
1090.013	1.37
1090.433	3.37
1090.852	-4.53
1091.272	-0.63
1091.692	-0.33
1092.112	-3.93
1092.531	-7.43
1092.951	-15.33
1093.371	-1.83
1093.79	-1.83
1094.21	-2.33
1094.63	-2.53
1095.049	-5.73
1095.469	2.67
1095.888	-1.13
1096.308	-4.43
1096.727	-3.13
1097.146	-5.63
1097.566	-1.63
1097.985	-4.63
1098.405	3.07
1098.824	-3.23
1099.243	-6.03
1099.662	-7.03
1100.082	-7.13
1100.501	-0.03
1100.92	-9.13
1101.339	-8.43
1101.758	-15.13
