Data from 20171114-ORNL-Ar_H_NY_Subt18_08-09-25-052.txt Node
Date: Tue Nov 14 08:09:25 EST 2017
User: Ender
Spectrometer: HR+D1039
Trigger mode: 0
Integration Time (sec): 2.730000E-2
Scans to average: 10
Electric dark correction enabled: true
Nonlinearity correction enabled: false
Boxcar width: 0
XAxis mode: Wavelengths
Number of Pixels in Spectrum: 2048
>>>>>Begin Spectral Data<<<<<
187.836	-5.07
188.309	-5.07
188.782	-5.07
189.255	4.53
189.728	-1.77
190.201	4.23
190.674	-0.97
191.147	3.53
191.619	-8.57
192.092	-0.57
192.565	6.13
193.038	6.33
193.511	1.93
193.984	-4.37
194.456	-3.87
194.929	5.43
195.402	-7.47
195.874	0.53
196.347	-2.37
196.82	-7.27
197.292	0.43
197.765	-3.17
198.237	-3.17
198.71	5.43
199.182	-5.57
199.655	1.33
200.127	2.03
200.6	-3.77
201.072	-6.87
201.544	-2.57
202.017	-5.37
202.489	-3.77
202.961	-2.07
203.433	-3.97
203.906	-5.47
204.378	-8.37
204.85	-7.67
205.322	-10.47
205.794	-3.17
206.266	-9.87
206.739	-13.17
207.211	-1.57
207.683	-3.37
208.155	-6.87
208.627	-7.57
209.099	-2.57
209.57	-13.47
210.042	-9.27
210.514	-5.87
210.986	-1.37
211.458	-9.77
211.93	-7.67
212.402	1.33
212.873	-7.87
213.345	-11.77
213.817	-4.77
214.288	-5.27
214.76	-13.67
215.232	-7.77
215.703	-11.67
216.175	-3.07
216.646	-9.77
217.118	-6.37
217.589	-12.47
218.061	-1.67
218.532	-8.97
219.004	-3.97
219.475	-7.47
219.946	-3.77
220.418	-10.07
220.889	7.23
221.36	0.03
221.832	-5.97
222.303	-5.87
222.774	-1.37
223.245	-15.57
223.717	-11.77
224.188	-9.37
224.659	-8.77
225.13	-9.47
225.601	-1.67
226.072	0.83
226.543	-6.47
227.014	2.43
227.485	-7.77
227.956	-6.87
228.427	-1.97
228.898	-1.47
229.369	-0.57
229.839	-7.87
230.31	-7.57
230.781	-3.37
231.252	-4.27
231.722	-5.47
232.193	-3.57
232.664	-2.47
233.135	-9.17
233.605	-6.47
234.076	-9.17
234.546	-0.17
235.017	-3.07
235.487	-3.47
235.958	-4.67
236.428	-8.77
236.899	0.83
237.369	-8.67
237.84	-4.97
238.31	0.43
238.78	-5.77
239.251	-6.17
239.721	-2.87
240.191	-3.27
240.662	-4.47
241.132	5.43
241.602	-10.47
242.072	-4.77
242.542	0.13
243.013	-4.07
243.483	-1.37
243.953	-7.57
244.423	-5.87
244.893	-6.67
245.363	0.63
245.833	0.43
246.303	-7.87
246.773	1.13
247.243	-2.97
247.712	-4.07
248.182	1.03
248.652	0.43
249.122	-14.67
249.592	-7.67
250.061	-4.87
250.531	5.03
251.001	-4.57
251.471	-0.17
251.94	3.03
252.41	0.73
252.879	-5.37
253.349	6.93
253.818	3.33
254.288	-1.27
254.757	-0.37
255.227	-8.97
255.696	-0.57
256.166	-2.57
256.635	4.73
257.105	0.83
257.574	0.03
258.043	2.73
258.513	-4.07
258.982	-0.27
259.451	-2.57
259.92	-4.17
260.389	-1.27
260.859	5.23
261.328	-0.07
261.797	1.93
262.266	-8.87
262.735	-0.57
263.204	-0.57
263.673	-2.07
264.142	0.33
264.611	-3.77
265.08	-5.67
265.549	-3.27
266.018	-1.57
266.487	-5.57
266.955	-6.27
267.424	-2.17
267.893	2.43
268.362	1.43
268.83	-0.77
269.299	7.03
269.768	-0.17
270.236	0.03
270.705	-6.07
271.174	-4.67
271.642	-4.07
272.111	3.73
272.579	3.33
273.048	0.63
273.516	-3.77
273.985	3.93
274.453	3.83
274.922	4.03
275.39	2.03
275.858	-5.67
276.327	-3.47
276.795	11.43
277.263	1.73
277.731	6.13
278.2	5.83
278.668	2.73
279.136	7.83
279.604	-1.77
280.072	4.83
280.54	2.03
281.008	1.23
281.477	8.03
281.945	4.73
282.413	4.73
282.881	2.63
283.348	0.43
283.816	5.33
284.284	7.93
284.752	8.93
285.22	8.43
285.688	11.23
286.156	8.43
286.623	9.93
287.091	1.83
287.559	3.13
288.026	6.83
288.494	6.83
288.962	-1.77
289.429	6.23
289.897	16.13
290.364	10.03
290.832	11.53
291.3	7.33
291.767	6.13
292.234	3.43
292.702	3.93
293.169	7.63
293.637	11.13
294.104	11.13
294.571	1.33
295.039	2.83
295.506	7.13
295.973	10.83
296.44	4.03
296.908	8.83
297.375	7.93
297.842	13.73
298.309	9.13
298.776	1.53
299.243	6.03
299.71	0.03
300.177	12.23
300.644	11.73
301.111	7.63
301.578	8.03
302.045	9.23
302.512	9.73
302.979	14.83
303.446	14.33
303.913	7.43
304.379	5.03
304.846	21.13
305.313	14.33
305.78	9.73
306.246	10.13
306.713	14.53
307.18	16.63
307.646	15.83
308.113	18.23
308.579	8.83
309.046	11.13
309.512	13.53
309.979	16.93
310.445	19.63
310.912	21.73
311.378	25.73
311.845	19.13
312.311	17.03
312.777	17.43
313.244	16.33
313.71	22.43
314.176	14.73
314.642	15.33
315.109	16.13
315.575	27.93
316.041	25.83
316.507	14.13
316.973	23.93
317.439	21.83
317.905	24.03
318.371	25.03
318.837	20.73
319.303	15.43
319.769	23.03
320.235	20.93
320.701	25.43
321.167	26.73
321.633	25.63
322.099	23.03
322.564	25.53
323.03	22.43
323.496	19.53
323.962	27.43
324.427	22.03
324.893	24.03
325.359	28.63
325.824	25.03
326.29	24.83
326.755	25.03
327.221	25.33
327.686	24.93
328.152	32.73
328.617	27.43
329.083	34.33
329.548	38.23
330.014	39.03
330.479	18.63
330.944	32.43
331.41	25.63
331.875	33.13
332.34	30.13
332.805	29.93
333.271	28.13
333.736	29.13
334.201	35.53
334.666	33.33
335.131	38.33
335.596	33.93
336.061	33.93
336.526	27.23
336.991	34.53
337.456	40.93
337.921	36.53
338.386	34.63
338.851	33.33
339.316	37.33
339.781	38.43
340.246	29.43
340.711	33.33
341.175	35.03
341.64	32.83
342.105	43.03
342.569	45.93
343.034	42.63
343.499	42.53
343.963	42.93
344.428	56.33
344.893	48.53
345.357	52.93
345.822	44.73
346.286	52.43
346.751	56.43
347.215	53.33
347.679	52.03
348.144	67.23
348.608	59.83
349.073	55.23
349.537	59.13
350.001	61.73
350.465	64.33
350.93	64.13
351.394	67.73
351.858	53.03
352.322	67.13
352.786	62.73
353.25	70.53
353.715	78.73
354.179	71.53
354.643	91.43
355.107	92.23
355.571	75.53
356.035	71.93
356.498	82.63
356.962	84.93
357.426	96.83
357.89	89.53
358.354	70.23
358.818	65.13
359.281	61.23
359.745	61.73
360.209	62.93
360.673	53.33
361.136	68.03
361.6	68.73
362.064	63.93
362.527	61.83
362.991	69.73
363.454	70.03
363.918	62.63
364.381	61.73
364.845	61.23
365.308	66.13
365.772	72.53
366.235	74.33
366.698	66.23
367.162	73.13
367.625	64.63
368.088	71.13
368.552	77.03
369.015	75.93
369.478	83.93
369.941	80.53
370.404	75.13
370.867	80.73
371.331	81.13
371.794	91.63
372.257	75.63
372.72	93.73
373.183	88.43
373.646	77.73
374.109	80.53
374.572	85.63
375.035	83.93
375.497	89.43
375.96	89.93
376.423	92.63
376.886	92.23
377.349	94.03
377.811	89.23
378.274	85.83
378.737	94.23
379.199	96.13
379.662	96.03
380.125	90.43
380.587	90.13
381.05	88.03
381.512	96.53
381.975	102.93
382.437	106.03
382.9	102.43
383.362	110.23
383.825	110.83
384.287	108.53
384.75	100.53
385.212	106.73
385.674	120.13
386.136	113.43
386.599	103.73
387.061	105.33
387.523	104.93
387.985	103.53
388.447	120.53
388.91	110.13
389.372	115.23
389.834	112.03
390.296	108.63
390.758	119.73
391.22	115.43
391.682	130.03
392.144	133.83
392.606	126.03
393.068	130.13
393.529	143.83
393.991	134.33
394.453	120.23
394.915	118.73
395.377	120.93
395.838	120.33
396.3	117.83
396.762	130.23
397.224	120.33
397.685	124.43
398.147	122.33
398.608	117.13
399.07	123.33
399.531	119.63
399.993	135.23
400.454	141.93
400.916	135.23
401.377	133.03
401.839	139.03
402.3	150.43
402.762	152.43
403.223	165.63
403.684	160.13
404.145	149.03
404.607	145.53
405.068	148.83
405.529	155.53
405.99	165.23
406.451	153.73
406.913	161.53
407.374	154.03
407.835	153.63
408.296	157.93
408.757	164.03
409.218	171.03
409.679	171.83
410.14	163.03
410.601	159.13
411.062	169.73
411.522	174.53
411.983	164.13
412.444	166.43
412.905	181.23
413.366	180.83
413.826	194.63
414.287	215.33
414.748	256.83
415.208	239.83
415.669	214.93
416.13	201.13
416.59	194.03
417.051	210.43
417.511	216.23
417.972	232.63
418.432	239.33
418.893	282.23
419.353	247.63
419.814	198.93
420.274	178.23
420.734	177.23
421.195	186.13
421.655	181.13
422.115	192.73
422.576	192.33
423.036	204.83
423.496	204.03
423.956	211.13
424.416	224.53
424.876	256.73
425.336	252.33
425.797	254.73
426.257	247.53
426.717	230.13
427.177	225.13
427.637	219.73
428.097	226.83
428.556	229.33
429.016	255.83
429.476	252.33
429.936	252.63
430.396	265.43
430.856	277.43
431.315	300.73
431.775	331.93
432.235	358.43
432.694	323.63
433.154	340.23
433.614	364.93
434.073	320.13
434.533	272.33
434.993	254.03
435.452	262.83
435.912	278.73
436.371	271.33
436.83	267.93
437.29	251.43
437.749	239.13
438.209	243.13
438.668	259.73
439.127	271.63
439.587	265.93
440.046	237.03
440.505	253.73
440.964	266.73
441.424	309.33
441.883	311.93
442.342	254.23
442.801	222.53
443.26	213.83
443.719	226.23
444.178	216.33
444.637	212.63
445.096	222.03
445.555	227.63
446.014	222.73
446.473	233.63
446.932	232.63
447.391	228.33
447.849	234.93
448.308	215.93
448.767	226.23
449.226	241.33
449.685	242.53
450.143	250.93
450.602	241.73
451.061	227.93
451.519	231.43
451.978	230.63
452.436	233.93
452.895	232.53
453.353	244.03
453.812	236.13
454.27	240.33
454.729	237.13
455.187	235.93
455.646	241.43
456.104	248.13
456.562	253.43
457.021	262.13
457.479	263.93
457.937	268.23
458.395	270.13
458.854	246.43
459.312	257.13
459.77	268.53
460.228	260.73
460.686	244.13
461.144	250.33
461.602	242.43
462.06	250.93
462.518	257.33
462.976	260.43
463.434	263.83
463.892	263.03
464.35	274.13
464.808	288.83
465.266	272.23
465.724	272.03
466.181	278.73
466.639	274.03
467.097	297.73
467.555	298.53
468.012	305.03
468.47	314.23
468.928	332.53
469.385	344.63
469.843	341.83
470.3	345.63
470.758	364.43
471.215	386.63
471.673	400.03
472.13	397.83
472.588	425.23
473.045	380.43
473.503	378.83
473.96	397.83
474.417	404.43
474.875	437.23
475.332	472.83
475.789	462.83
476.246	459.13
476.704	485.03
477.161	511.23
477.618	526.13
478.075	560.13
478.532	615.53
478.989	668.43
479.446	783.23
479.903	751.53
480.36	780.03
480.817	825.03
481.274	923.63
481.731	1002.53
482.188	1072.83
482.645	1200.73
483.102	1282.33
483.558	1386.43
484.015	1434.53
484.472	1399.53
484.929	1359.83
485.385	1334.43
485.842	1294.73
486.299	1262.73
486.755	1221.43
487.212	1036.83
487.668	895.63
488.125	819.73
488.582	760.83
489.038	724.33
489.494	695.63
489.951	681.83
490.407	661.53
490.864	639.03
491.32	639.83
491.776	633.93
492.233	655.03
492.689	613.13
493.145	607.23
493.602	602.73
494.058	610.83
494.514	624.53
494.97	633.73
495.426	652.73
495.882	626.53
496.338	605.13
496.794	615.03
497.251	615.53
497.707	622.43
498.163	640.83
498.618	639.83
499.074	650.53
499.53	662.13
499.986	672.03
500.442	647.83
500.898	628.63
501.354	617.73
501.809	626.63
502.265	629.63
502.721	631.43
503.177	646.43
503.632	648.83
504.088	657.63
504.543	670.33
504.999	695.33
505.455	655.23
505.91	639.43
506.366	641.53
506.821	639.23
507.277	637.13
507.732	642.23
508.187	650.93
508.643	656.03
509.098	655.83
509.553	673.73
510.009	681.33
510.464	688.43
510.919	707.43
511.375	705.43
511.83	726.13
512.285	738.63
512.74	774.53
513.195	791.73
513.65	780.53
514.105	772.43
514.56	789.83
515.015	795.63
515.47	817.73
515.925	788.83
516.38	793.23
516.835	800.13
517.29	790.93
517.745	784.93
518.2	775.13
518.655	763.83
519.109	754.83
519.564	749.13
520.019	733.83
520.474	742.03
520.928	727.73
521.383	734.53
521.838	725.43
522.292	723.33
522.747	731.23
523.201	719.63
523.656	705.73
524.11	715.23
524.565	719.63
525.019	703.63
525.474	714.33
525.928	716.73
526.382	708.83
526.837	719.13
527.291	724.23
527.745	714.63
528.2	714.13
528.654	708.33
529.108	704.03
529.562	705.63
530.016	703.53
530.47	702.33
530.925	706.23
531.379	704.73
531.833	720.93
532.287	713.23
532.741	711.03
533.195	724.33
533.649	725.53
534.103	727.93
534.556	715.93
535.01	723.83
535.464	706.83
535.918	729.93
536.372	732.23
536.826	730.03
537.279	716.83
537.733	732.83
538.187	721.33
538.64	733.83
539.094	742.13
539.548	751.53
540.001	732.23
540.455	734.83
540.908	754.93
541.362	766.23
541.815	762.73
542.269	774.43
542.722	790.13
543.175	787.53
543.629	791.13
544.082	801.93
544.536	809.43
544.989	803.33
545.442	818.13
545.895	814.23
546.349	812.23
546.802	818.43
547.255	826.83
547.708	829.43
548.161	839.73
548.614	852.13
549.067	856.73
549.52	845.73
549.973	837.53
550.426	831.43
550.879	816.13
551.332	826.83
551.785	843.43
552.238	841.33
552.691	842.13
553.144	863.83
553.596	875.33
554.049	894.43
554.502	916.73
554.955	934.33
555.407	924.03
555.86	915.53
556.313	918.93
556.765	902.83
557.218	904.43
557.67	909.83
558.123	900.83
558.576	900.43
559.028	907.43
559.48	900.63
559.933	893.43
560.385	872.33
560.838	832.33
561.29	821.83
561.742	817.53
562.195	786.83
562.647	792.13
563.099	799.33
563.551	802.83
564.004	817.83
564.456	801.43
564.908	785.63
565.36	766.43
565.812	751.83
566.264	746.83
566.716	733.33
567.168	729.93
567.62	734.23
568.072	721.43
568.524	713.73
568.976	704.83
569.428	699.03
569.88	702.03
570.332	708.33
570.784	712.53
571.235	716.23
571.687	712.33
572.139	726.63
572.59	744.93
573.042	732.83
573.494	737.13
573.945	724.73
574.397	714.53
574.849	717.93
575.3	711.73
575.752	698.33
576.203	693.53
576.655	709.63
577.106	693.43
577.557	693.83
578.009	692.53
578.46	686.73
578.912	696.33
579.363	688.73
579.814	692.63
580.265	687.03
580.717	686.93
581.168	688.13
581.619	702.13
582.07	702.53
582.521	706.63
582.972	694.53
583.423	699.73
583.875	698.73
584.326	698.23
584.777	713.03
585.227	728.83
585.678	748.23
586.129	763.03
586.58	773.23
587.031	788.23
587.482	806.93
587.933	836.73
588.384	827.23
588.834	803.43
589.285	800.73
589.736	797.03
590.186	796.63
590.637	796.63
591.088	782.83
591.538	774.03
591.989	754.03
592.439	754.83
592.89	731.33
593.34	728.53
593.791	731.63
594.241	721.33
594.692	725.03
595.142	720.83
595.593	719.83
596.043	718.93
596.493	733.73
596.943	730.53
597.394	743.53
597.844	745.23
598.294	761.03
598.744	785.93
599.195	805.23
599.645	856.63
600.095	904.93
600.545	955.23
600.995	1017.23
601.445	1068.43
601.895	1130.73
602.345	1183.83
602.795	1151.73
603.245	1120.13
603.695	1055.53
604.145	988.43
604.594	956.43
605.044	903.53
605.494	831.43
605.944	787.03
606.393	771.13
606.843	755.93
607.293	753.73
607.743	761.63
608.192	773.63
608.642	775.83
609.091	795.13
609.541	776.83
609.99	799.63
610.44	775.23
610.889	735.03
611.339	729.93
611.788	722.83
612.238	714.43
612.687	730.13
613.136	716.43
613.586	728.03
614.035	722.53
614.484	738.73
614.933	735.23
615.383	733.03
615.832	736.83
616.281	716.53
616.73	687.53
617.179	675.43
617.628	673.83
618.077	657.03
618.526	642.33
618.975	638.93
619.424	630.03
619.873	638.63
620.322	635.43
620.771	624.23
621.22	629.13
621.669	612.33
622.118	605.03
622.567	596.33
623.015	600.43
623.464	583.33
623.913	583.63
624.361	573.03
624.81	568.93
625.259	571.23
625.707	585.23
626.156	575.53
626.604	589.23
627.053	588.33
627.501	580.73
627.95	596.33
628.398	604.93
628.847	590.73
629.295	602.13
629.744	601.93
630.192	579.93
630.64	578.23
631.089	562.93
631.537	556.33
631.985	557.93
632.433	552.33
632.881	548.63
633.33	550.23
633.778	535.03
634.226	536.83
634.674	559.33
635.122	565.13
635.57	570.83
636.018	570.93
636.466	590.03
636.914	572.03
637.362	591.23
637.81	607.93
638.258	614.73
638.705	593.03
639.153	643.13
639.601	646.13
640.049	661.43
640.497	698.53
640.944	729.63
641.392	667.73
641.84	634.43
642.287	615.33
642.735	583.53
643.182	587.63
643.63	587.83
644.078	591.53
644.525	594.83
644.973	591.83
645.42	615.73
645.867	630.13
646.315	657.03
646.762	677.43
647.21	705.53
647.657	730.03
648.104	756.13
648.551	779.23
648.999	834.63
649.446	913.43
649.893	996.53
650.34	1153.83
650.787	1352.53
651.234	1687.33
651.682	2186.03
652.129	2957.63
652.576	4207.43
653.023	6131.13
653.47	8245.53
653.917	10160.13
654.363	11625.03
654.81	12727.63
655.257	12097.43
655.704	7995.03
656.151	4828.13
656.598	3170.13
657.044	2278.23
657.491	1765.93
657.938	1424.43
658.385	1205.63
658.831	1067.73
659.278	944.33
659.724	854.23
660.171	786.43
660.618	724.83
661.064	698.73
661.511	682.53
661.957	665.43
662.404	655.23
662.85	659.33
663.296	649.33
663.743	580.23
664.189	560.43
664.635	555.03
665.082	548.03
665.528	550.93
665.974	539.73
666.42	530.73
666.867	522.43
667.313	506.33
667.759	484.13
668.205	464.43
668.651	474.13
669.097	462.43
669.543	461.43
669.989	456.93
670.435	464.73
670.881	473.13
671.327	465.53
671.773	495.13
672.219	520.13
672.665	581.03
673.11	618.73
673.556	658.23
674.002	702.63
674.448	697.23
674.893	587.13
675.339	500.13
675.785	465.13
676.23	443.93
676.676	410.73
677.122	401.73
677.567	392.73
678.013	388.13
678.458	386.83
678.904	379.23
679.349	363.73
679.794	372.03
680.24	371.83
680.685	365.83
681.131	369.23
681.576	365.93
682.021	373.93
682.466	365.93
682.912	372.53
683.357	373.43
683.802	400.13
684.247	438.73
684.692	484.13
685.137	530.53
685.583	559.93
686.028	583.43
686.473	546.13
686.918	478.13
687.363	442.73
687.807	410.33
688.252	389.63
688.697	374.93
689.142	353.33
689.587	354.33
690.032	350.33
690.477	365.23
690.921	372.33
691.366	406.43
691.811	426.93
692.255	455.13
692.7	484.43
693.145	549.63
693.589	778.03
694.034	1243.43
694.478	1668.23
694.923	1851.73
695.367	2382.63
695.812	1268.93
696.256	533.83
696.701	393.33
697.145	370.83
697.59	345.93
698.034	337.13
698.478	346.73
698.922	337.13
699.367	342.33
699.811	353.23
700.255	370.73
700.699	406.03
701.143	456.73
701.588	499.33
702.032	543.83
702.476	546.13
702.92	522.43
703.364	530.83
703.808	700.13
704.252	1162.53
704.696	1580.53
705.14	1762.83
705.584	2239.53
706.027	1130.53
706.471	566.33
706.915	419.93
707.359	373.93
707.803	337.33
708.246	327.73
708.69	331.83
709.134	331.53
709.577	324.43
710.021	333.43
710.465	326.73
710.908	314.73
711.352	315.33
711.795	330.33
712.239	367.83
712.682	408.83
713.126	437.03
713.569	475.53
714.012	372.43
714.456	325.03
714.899	303.63
715.342	291.53
715.786	270.63
716.229	268.83
716.672	272.43
717.115	265.53
717.558	268.63
718.002	265.83
718.445	277.13
718.888	306.13
719.331	309.13
719.774	321.53
720.217	319.13
720.66	290.43
721.103	285.13
721.546	267.13
721.989	266.23
722.432	244.53
722.874	245.73
723.317	240.23
723.76	247.33
724.203	272.83
724.645	339.83
725.088	482.03
725.531	605.13
725.974	681.93
726.416	571.93
726.859	322.23
727.301	259.33
727.744	246.93
728.187	244.23
728.629	255.73
729.071	256.33
729.514	276.03
729.956	292.23
730.399	300.73
730.841	302.93
731.283	289.03
731.726	276.63
732.168	273.73
732.61	291.13
733.053	309.73
733.495	336.73
733.937	382.13
734.379	436.23
734.821	479.53
735.263	606.23
735.705	946.63
736.148	1778.93
736.59	2814.73
737.032	3220.43
737.474	2637.23
737.916	880.33
738.357	465.63
738.799	353.03
739.241	316.83
739.683	308.13
740.125	312.73
740.567	310.13
741.008	339.03
741.45	325.83
741.892	331.23
742.334	371.83
742.775	372.53
743.217	363.23
743.658	289.93
744.1	268.43
744.542	281.43
744.983	345.03
745.425	372.93
745.866	368.33
746.307	302.23
746.749	303.23
747.19	351.53
747.632	509.03
748.073	1010.13
748.514	2091.03
748.956	3092.33
749.397	3882.73
749.838	3205.83
750.279	3109.13
750.72	1609.23
751.162	584.13
751.603	344.93
752.044	269.73
752.485	232.13
752.926	220.53
753.367	209.03
753.808	212.93
754.249	204.53
754.69	196.13
755.131	196.43
755.572	198.43
756.013	188.63
756.453	195.63
756.894	205.03
757.335	203.63
757.776	210.03
758.216	203.53
758.657	203.53
759.098	209.03
759.538	243.23
759.979	295.13
760.42	422.23
760.86	808.83
761.301	2120.13
761.741	4959.93
762.182	6769.03
762.622	4784.53
763.063	1422.43
763.503	574.53
763.943	348.33
764.384	283.63
764.824	252.13
765.264	232.23
765.705	221.93
766.145	196.33
766.585	183.73
767.025	177.63
767.465	169.13
767.906	185.33
768.346	195.63
768.786	203.43
769.226	235.83
769.666	341.03
770.106	701.93
770.546	1764.63
770.986	2820.23
771.426	2484.83
771.866	851.13
772.306	345.83
772.745	216.03
773.185	174.63
773.625	170.63
774.065	161.43
774.505	170.43
774.944	220.53
775.384	385.33
775.824	594.43
776.263	570.43
776.703	283.23
777.142	161.43
777.582	143.33
778.021	128.73
778.461	134.83
778.9	132.33
779.34	130.73
779.779	120.63
780.219	113.83
780.658	117.03
781.097	111.93
781.537	114.03
781.976	114.63
782.415	113.73
782.855	108.13
783.294	111.53
783.733	107.83
784.172	113.43
784.611	112.43
785.05	121.13
785.489	117.23
785.928	123.53
786.367	124.13
786.806	116.13
787.245	134.03
787.684	141.63
788.123	148.73
788.562	141.33
789.001	132.83
789.44	126.83
789.879	127.83
790.317	128.73
790.756	136.83
791.195	136.23
791.634	163.93
792.072	226.83
792.511	422.63
792.95	1156.33
793.388	2274.63
793.827	1989.03
794.265	706.63
794.704	297.83
795.142	190.93
795.581	160.13
796.019	144.23
796.458	136.23
796.896	130.43
797.334	135.63
797.773	171.93
798.211	239.03
798.649	506.93
799.087	1128.43
799.526	1740.33
799.964	2211.33
800.402	2111.63
800.84	817.33
801.278	331.83
801.716	197.23
802.154	171.83
802.592	160.03
803.03	145.73
803.468	144.43
803.906	147.23
804.344	158.03
804.782	153.93
805.22	146.13
805.658	139.83
806.096	161.93
806.533	164.03
806.971	194.73
807.409	244.13
807.847	359.33
808.284	757.83
808.722	2101.23
809.16	3542.03
809.597	3533.93
810.035	5959.13
810.472	6057.33
810.91	2243.73
811.347	869.53
811.785	434.03
812.222	276.43
812.66	208.73
813.097	177.73
813.535	151.43
813.972	141.13
814.409	129.13
814.846	123.23
815.284	111.83
815.721	102.33
816.158	111.63
816.595	118.23
817.032	160.23
817.47	185.23
817.907	132.63
818.344	105.03
818.781	107.83
819.218	94.43
819.655	132.63
820.092	200.63
820.529	224.03
820.966	179.13
821.403	136.83
821.839	103.43
822.276	107.03
822.713	131.33
823.15	148.03
823.587	129.63
824.023	158.93
824.46	349.53
824.897	1006.73
825.333	1428.63
825.77	613.93
826.206	251.83
826.643	144.53
827.08	105.23
827.516	90.73
827.953	91.23
828.389	81.93
828.825	77.93
829.262	74.33
829.698	68.33
830.135	69.53
830.571	65.33
831.007	71.03
831.443	64.23
831.88	69.13
832.316	61.33
832.752	67.43
833.188	70.73
833.624	66.23
834.06	67.83
834.497	71.83
834.933	78.83
835.369	79.13
835.805	77.93
836.241	79.73
836.677	86.23
837.112	97.63
837.548	116.23
837.984	155.43
838.42	223.53
838.856	574.83
839.292	1688.73
839.727	2443.43
840.163	1158.33
840.599	1063.73
841.034	2245.73
841.47	2221.43
841.906	826.33
842.341	360.13
842.777	210.83
843.212	214.93
843.648	190.23
844.083	118.33
844.519	90.33
844.954	73.43
845.39	58.43
845.825	59.63
846.261	61.03
846.696	60.73
847.131	55.43
847.566	59.03
848.002	54.23
848.437	51.73
848.872	63.13
849.307	69.53
849.742	91.73
850.177	206.63
850.613	619.63
851.048	921.33
851.483	404.63
851.918	174.43
852.353	94.63
852.788	53.13
853.223	51.63
853.657	55.83
854.092	48.63
854.527	41.53
854.962	40.43
855.397	48.43
855.832	51.73
856.266	44.23
856.701	41.63
857.136	37.33
857.57	44.83
858.005	55.93
858.44	60.83
858.874	44.13
859.309	50.03
859.743	39.83
860.178	51.73
860.612	43.53
861.047	61.03
861.481	74.93
861.915	78.33
862.35	47.93
862.784	36.73
863.218	41.43
863.653	30.83
864.087	48.63
864.521	47.33
864.955	75.53
865.39	167.23
865.824	185.53
866.258	123.53
866.692	176.43
867.126	194.23
867.56	114.13
867.994	53.93
868.428	42.73
868.862	54.33
869.296	59.13
869.73	64.13
870.164	61.33
870.598	48.83
871.031	39.73
871.465	36.33
871.899	31.63
872.333	23.23
872.766	26.83
873.2	24.23
873.634	37.53
874.067	26.93
874.501	22.43
874.935	31.23
875.368	25.43
875.802	30.73
876.235	18.93
876.669	25.83
877.102	26.33
877.535	30.53
877.969	26.73
878.402	30.33
878.836	23.43
879.269	20.93
879.702	23.93
880.135	20.63
880.569	21.43
881.002	22.43
881.435	25.43
881.868	16.63
882.301	27.23
882.734	16.23
883.167	19.03
883.601	18.43
884.034	24.73
884.467	14.33
884.899	25.43
885.332	16.73
885.765	14.83
886.198	20.43
886.631	21.23
887.064	24.13
887.497	19.63
887.929	25.03
888.362	14.33
888.795	12.43
889.228	16.43
889.66	12.23
890.093	13.23
890.526	12.43
890.958	19.13
891.391	18.93
891.823	18.93
892.256	15.33
892.688	7.43
893.121	14.03
893.553	17.13
893.985	21.93
894.418	17.13
894.85	11.43
895.282	13.93
895.715	9.33
896.147	20.73
896.579	16.03
897.011	11.93
897.444	19.23
897.876	14.43
898.308	15.83
898.74	10.73
899.172	9.43
899.604	21.83
900.036	24.63
900.468	10.53
900.9	13.93
901.332	18.33
901.764	16.03
902.196	17.43
902.628	14.13
903.06	14.43
903.491	29.63
903.923	26.43
904.355	17.63
904.787	28.23
905.218	29.53
905.65	20.73
906.082	16.13
906.513	9.93
906.945	15.23
907.376	12.03
907.808	17.13
908.239	16.13
908.671	21.23
909.102	18.13
909.534	24.03
909.965	47.33
910.397	103.13
910.828	344.13
911.259	495.63
911.691	234.13
912.122	114.63
912.553	59.33
912.984	37.83
913.415	25.13
913.847	27.43
914.278	14.33
914.709	11.83
915.14	16.43
915.571	14.83
916.002	7.53
916.433	15.03
916.864	17.53
917.295	12.93
917.726	23.83
918.157	20.43
918.587	27.93
919.018	16.53
919.449	15.23
919.88	21.93
920.311	31.83
920.741	53.53
921.172	187.13
921.603	161.73
922.033	72.23
922.464	51.53
922.895	21.83
923.325	18.53
923.756	6.53
924.186	13.53
924.617	19.63
925.047	20.73
925.478	20.53
925.908	18.93
926.338	13.73
926.769	12.03
927.199	14.63
927.629	8.23
928.06	19.93
928.49	8.53
928.92	13.53
929.35	7.83
929.78	10.23
930.21	6.23
930.641	7.73
931.071	6.93
931.501	4.43
931.931	11.23
932.361	11.93
932.791	3.33
933.221	8.83
933.651	5.93
934.08	17.53
934.51	32.33
934.94	15.73
935.37	10.53
935.8	11.33
936.229	9.53
936.659	8.93
937.089	7.23
937.519	14.23
937.948	26.03
938.378	16.03
938.807	5.03
939.237	1.93
939.666	8.93
940.096	-4.67
940.525	10.23
940.955	2.53
941.384	0.03
941.814	-6.47
942.243	-5.27
942.672	-2.27
943.102	-4.27
943.531	-1.17
943.96	0.43
944.39	4.83
944.819	-0.27
945.248	-4.57
945.677	0.63
946.106	3.23
946.535	6.23
946.964	-0.57
947.393	2.23
947.822	-5.77
948.251	-9.67
948.68	-4.57
949.109	6.83
949.538	7.63
949.967	-3.07
950.396	0.83
950.825	-2.37
951.254	-2.87
951.682	-7.17
952.111	1.73
952.54	3.73
952.969	0.63
953.397	-5.27
953.826	0.33
954.254	-4.37
954.683	-4.37
955.112	-3.17
955.54	1.53
955.969	-0.97
956.397	2.63
956.826	-0.87
957.254	1.63
957.682	4.53
958.111	-0.77
958.539	-2.17
958.967	1.73
959.396	-0.97
959.824	2.83
960.252	2.93
960.68	-6.07
961.109	1.23
961.537	1.03
961.965	1.33
962.393	0.03
962.821	-4.67
963.249	-2.07
963.677	7.33
964.105	6.23
964.533	53.53
964.961	43.83
965.389	21.73
965.817	5.83
966.245	-1.27
966.672	-2.57
967.1	-11.37
967.528	2.83
967.956	-4.47
968.383	-1.57
968.811	-5.97
969.239	-6.77
969.666	1.13
970.094	-5.77
970.522	-2.37
970.949	0.53
971.377	-1.57
971.804	-5.87
972.232	-2.87
972.659	2.03
973.087	-5.97
973.514	4.53
973.941	-4.37
974.369	10.13
974.796	-3.47
975.223	-1.87
975.651	-5.37
976.078	3.13
976.505	-2.87
976.932	-3.37
977.359	12.13
977.786	12.53
978.214	-1.17
978.641	-3.57
979.068	-1.27
979.495	-7.27
979.922	-0.77
980.349	-6.57
980.776	3.23
981.202	-3.07
981.629	6.73
982.056	0.23
982.483	-8.67
982.91	1.43
983.337	-9.37
983.763	3.53
984.19	-4.77
984.617	-5.67
985.043	-4.47
985.47	-0.17
985.897	-4.67
986.323	-12.37
986.75	0.33
987.176	-4.87
987.603	1.03
988.029	-0.17
988.456	-3.97
988.882	2.93
989.308	-7.37
989.735	-5.77
990.161	-1.87
990.587	-5.87
991.014	-2.57
991.44	4.93
991.866	-7.87
992.292	-5.27
992.719	-4.07
993.145	1.23
993.571	-5.77
993.997	-8.07
994.423	0.53
994.849	-8.07
995.275	-2.77
995.701	0.33
996.127	-9.87
996.553	2.93
996.979	-7.17
997.405	0.93
997.83	-5.17
998.256	-4.97
998.682	-3.37
999.108	-7.17
999.534	-4.97
999.959	-3.47
1000.385	-3.17
1000.811	-0.37
1001.236	-7.77
1001.662	-13.47
1002.087	-9.67
1002.513	-3.37
1002.938	-1.07
1003.364	-1.57
1003.789	0.23
1004.215	1.73
1004.64	-10.97
1005.066	-0.67
1005.491	-0.97
1005.916	-6.47
1006.342	-8.27
1006.767	-5.77
1007.192	0.63
1007.617	-11.17
1008.042	-6.97
1008.468	-3.37
1008.893	-2.97
1009.318	-1.47
1009.743	-3.87
1010.168	2.53
1010.593	0.33
1011.018	-10.57
1011.443	0.43
1011.868	4.93
1012.293	-11.07
1012.718	-6.37
1013.143	1.13
1013.567	3.63
1013.992	-7.47
1014.417	-11.87
1014.842	4.93
1015.267	-3.67
1015.691	-3.37
1016.116	2.73
1016.541	-2.77
1016.965	-0.47
1017.39	3.73
1017.814	0.93
1018.239	-1.47
1018.663	-7.07
1019.088	-9.77
1019.512	-0.07
1019.937	-2.37
1020.361	-1.97
1020.785	-8.07
1021.21	-7.27
1021.634	-7.37
1022.058	2.83
1022.483	1.63
1022.907	-4.47
1023.331	-4.97
1023.755	-4.87
1024.179	-4.87
1024.604	-12.37
1025.028	-9.07
1025.452	-10.27
1025.876	-0.77
1026.3	1.63
1026.724	-13.07
1027.148	-5.67
1027.572	-8.37
1027.996	-1.77
1028.42	-0.27
1028.843	-9.27
1029.267	-4.07
1029.691	-6.07
1030.115	-7.77
1030.539	-7.97
1030.962	-11.57
1031.386	-13.47
1031.81	-3.67
1032.233	-2.37
1032.657	-0.57
1033.08	-5.97
1033.504	-1.97
1033.927	-7.17
1034.351	-2.97
1034.774	-5.77
1035.198	-2.27
1035.621	-2.37
1036.045	-4.97
1036.468	-1.67
1036.891	-11.67
1037.315	-10.67
1037.738	-12.67
1038.161	-0.97
1038.584	-7.17
1039.008	-5.67
1039.431	-10.07
1039.854	-5.17
1040.277	-11.57
1040.7	-12.27
1041.123	-0.67
1041.546	-8.67
1041.969	-9.57
1042.392	-2.77
1042.815	-4.57
1043.238	2.73
1043.661	0.13
1044.084	-3.57
1044.507	-6.37
1044.93	-10.87
1045.352	-7.47
1045.775	2.43
1046.198	-5.07
1046.621	-5.37
1047.043	-4.87
1047.466	0.03
1047.889	-2.17
1048.311	-10.27
1048.734	-4.47
1049.156	-9.97
1049.579	-4.47
1050.001	-6.07
1050.424	-4.57
1050.846	-3.77
1051.269	-7.27
1051.691	-2.37
1052.113	-5.77
1052.536	-6.47
1052.958	-5.67
1053.38	-8.77
1053.802	-11.57
1054.225	0.33
1054.647	-8.67
1055.069	-4.27
1055.491	0.43
1055.913	-7.47
1056.335	3.43
1056.757	-6.27
1057.179	-2.37
1057.601	-10.77
1058.023	-8.07
1058.445	-8.57
1058.867	-6.07
1059.289	-2.67
1059.711	-7.87
1060.133	-1.77
1060.555	-12.17
1060.976	-10.57
1061.398	-6.47
1061.82	-9.57
1062.241	-10.37
1062.663	-7.17
1063.085	-4.97
1063.506	-0.47
1063.928	-3.47
1064.35	-4.87
1064.771	-11.07
1065.193	-0.67
1065.614	-6.17
1066.035	-2.77
1066.457	-5.87
1066.878	2.63
1067.3	-7.57
1067.721	-5.07
1068.142	-10.07
1068.564	-2.37
1068.985	-10.17
1069.406	-14.57
1069.827	-4.37
1070.248	0.83
1070.67	-6.67
1071.091	-5.87
1071.512	-0.57
1071.933	-5.77
1072.354	-7.47
1072.775	-4.67
1073.196	-7.47
1073.617	-7.27
1074.038	-6.97
1074.459	-4.57
1074.88	-12.27
1075.3	-2.67
1075.721	-3.77
1076.142	-0.87
1076.563	-4.87
1076.983	-13.27
1077.404	-10.67
1077.825	-12.27
1078.246	-10.37
1078.666	-12.77
1079.087	-6.27
1079.507	-10.17
1079.928	-2.97
1080.348	-2.27
1080.769	-4.67
1081.189	-1.57
1081.61	-8.47
1082.03	-9.97
1082.451	-8.67
1082.871	-7.17
1083.291	-11.47
1083.711	-14.27
1084.132	-12.57
1084.552	-5.67
1084.972	-2.67
1085.392	-16.47
1085.813	-14.07
1086.233	-9.07
1086.653	-9.07
1087.073	-7.77
1087.493	-11.97
1087.913	-3.77
1088.333	-8.27
1088.753	-6.87
1089.173	5.23
1089.593	-5.87
1090.013	-2.47
1090.433	-0.87
1090.852	-1.47
1091.272	-6.87
1091.692	-2.67
1092.112	-4.17
1092.531	-5.77
1092.951	-13.77
1093.371	-8.37
1093.79	-0.97
1094.21	-4.27
1094.63	-3.07
1095.049	-4.27
1095.469	-8.77
1095.888	-0.47
1096.308	1.93
1096.727	4.63
1097.146	-6.97
1097.566	-3.47
1097.985	-6.17
1098.405	-0.47
1098.824	-4.47
1099.243	-11.67
1099.662	-9.17
1100.082	-3.17
1100.501	-5.17
1100.92	-4.37
1101.339	-5.97
1101.758	-9.47
