Data from 20171114-ORNL-Ar_H_NY_Subt18_08-04-58-022.txt Node
Date: Tue Nov 14 08:04:58 EST 2017
User: Ender
Spectrometer: HR+D1039
Trigger mode: 0
Integration Time (sec): 2.730000E-2
Scans to average: 10
Electric dark correction enabled: true
Nonlinearity correction enabled: false
Boxcar width: 0
XAxis mode: Wavelengths
Number of Pixels in Spectrum: 2048
>>>>>Begin Spectral Data<<<<<
187.836	-2.38
188.309	-2.38
188.782	-2.38
189.255	-1.18
189.728	-0.57
190.201	3.32
190.674	4.42
191.147	3.62
191.619	-11.28
192.092	0.83
192.565	7.02
193.038	-4.08
193.511	-2.08
193.984	-2.58
194.456	4.12
194.929	0.73
195.402	2.72
195.874	-2.67
196.347	-1.18
196.82	-6.88
197.292	4.42
197.765	0.83
198.237	-7.17
198.71	-0.58
199.182	0.23
199.655	0.52
200.127	1.32
200.6	-1.98
201.072	-3.68
201.544	-4.08
202.017	-5.48
202.489	0.72
202.961	-3.57
203.433	-6.28
203.906	-2.88
204.378	-4.77
204.85	-6.88
205.322	-10.08
205.794	-0.88
206.266	-4.98
206.739	-3.68
207.211	2.83
207.683	-9.67
208.155	-6.28
208.627	-7.48
209.099	-3.18
209.57	-8.17
210.042	-0.08
210.514	-2.48
210.986	-1.38
211.458	-10.38
211.93	1.02
212.402	1.82
212.873	-7.08
213.345	-11.17
213.817	-12.48
214.288	-6.88
214.76	-11.98
215.232	-1.48
215.703	-5.08
216.175	-7.27
216.646	-1.88
217.118	-6.58
217.589	-1.38
218.061	-2.68
218.532	-4.57
219.004	2.23
219.475	-4.08
219.946	-1.48
220.418	-12.17
220.889	4.62
221.36	4.02
221.832	-8.88
222.303	-5.48
222.774	-0.98
223.245	-5.77
223.717	-0.78
224.188	-3.88
224.659	-10.58
225.13	-0.57
225.601	-1.18
226.072	1.42
226.543	-2.08
227.014	-1.28
227.485	-6.68
227.956	-6.77
228.427	-2.77
228.898	-4.27
229.369	4.02
229.839	-5.48
230.31	-4.08
230.781	8.12
231.252	-2.38
231.722	-2.58
232.193	-1.38
232.664	-3.27
233.135	0.72
233.605	0.33
234.076	1.42
234.546	0.62
235.017	6.62
235.487	3.82
235.958	-1.38
236.428	-10.77
236.899	1.52
237.369	-2.07
237.84	-4.08
238.31	5.82
238.78	5.73
239.251	1.33
239.721	5.12
240.191	8.62
240.662	-1.98
241.132	-2.27
241.602	-4.48
242.072	3.23
242.542	10.42
243.013	1.82
243.483	5.52
243.953	0.33
244.423	2.52
244.893	2.02
245.363	7.12
245.833	1.92
246.303	-2.08
246.773	8.92
247.243	2.82
247.712	4.32
248.182	3.02
248.652	7.62
249.122	3.32
249.592	17.52
250.061	25.02
250.531	37.93
251.001	20.52
251.471	20.92
251.94	16.62
252.41	7.43
252.879	4.12
253.349	9.92
253.818	8.73
254.288	7.33
254.757	7.12
255.227	9.23
255.696	8.32
256.166	8.93
256.635	6.92
257.105	8.02
257.574	8.82
258.043	12.02
258.513	13.52
258.982	18.62
259.451	8.72
259.92	15.12
260.389	15.33
260.859	15.32
261.328	18.02
261.797	21.12
262.266	7.23
262.735	12.83
263.204	8.72
263.673	-0.18
264.142	10.83
264.611	0.02
265.08	0.72
265.549	-0.27
266.018	5.43
266.487	2.62
266.955	-0.18
267.424	-0.27
267.893	8.62
268.362	0.43
268.83	6.23
269.299	8.43
269.768	2.32
270.236	10.52
270.705	1.23
271.174	9.33
271.642	6.82
272.111	11.02
272.579	16.22
273.048	29.42
273.516	27.02
273.985	26.83
274.453	26.23
274.922	17.72
275.39	15.02
275.858	10.82
276.327	15.73
276.795	24.73
277.263	15.42
277.731	30.72
278.2	54.22
278.668	63.83
279.136	50.92
279.604	19.83
280.072	18.23
280.54	19.62
281.008	13.22
281.477	16.32
281.945	10.62
282.413	15.02
282.881	15.62
283.348	11.83
283.816	16.02
284.284	16.32
284.752	25.72
285.22	16.62
285.688	20.72
286.156	18.52
286.623	47.12
287.091	57.42
287.559	31.92
288.026	22.33
288.494	17.12
288.962	5.02
289.429	10.62
289.897	16.93
290.364	14.92
290.832	23.43
291.3	16.92
291.767	19.62
292.234	23.02
292.702	13.92
293.169	20.02
293.637	23.12
294.104	18.52
294.571	11.52
295.039	16.72
295.506	17.82
295.973	18.32
296.44	16.02
296.908	20.93
297.375	18.42
297.842	21.02
298.309	17.12
298.776	10.52
299.243	22.32
299.71	9.52
300.177	24.73
300.644	25.42
301.111	21.52
301.578	25.52
302.045	20.73
302.512	23.92
302.979	29.02
303.446	24.92
303.913	13.93
304.379	24.12
304.846	30.23
305.313	27.92
305.78	24.42
306.246	26.62
306.713	32.02
307.18	22.62
307.646	32.62
308.113	32.82
308.579	31.12
309.046	28.02
309.512	31.23
309.979	13.72
310.445	32.92
310.912	35.32
311.378	38.12
311.845	29.62
312.311	37.42
312.777	34.22
313.244	30.12
313.71	36.73
314.176	33.23
314.642	34.32
315.109	31.73
315.575	37.83
316.041	42.23
316.507	38.92
316.973	41.32
317.439	30.82
317.905	36.62
318.371	34.42
318.837	35.83
319.303	36.12
319.769	35.83
320.235	34.52
320.701	36.62
321.167	37.32
321.633	34.23
322.099	37.82
322.564	48.32
323.03	42.72
323.496	42.83
323.962	41.43
324.427	40.32
324.893	47.82
325.359	37.52
325.824	40.02
326.29	40.42
326.755	42.32
327.221	45.52
327.686	44.32
328.152	48.73
328.617	42.42
329.083	52.72
329.548	50.72
330.014	51.42
330.479	40.12
330.944	39.02
331.41	45.52
331.875	45.23
332.34	43.92
332.805	44.52
333.271	53.82
333.736	45.92
334.201	56.73
334.666	52.22
335.131	57.12
335.596	56.32
336.061	52.22
336.526	45.42
336.991	47.23
337.456	62.43
337.921	48.22
338.386	51.12
338.851	41.12
339.316	48.62
339.781	44.62
340.246	54.62
340.711	50.72
341.175	51.73
341.64	47.23
342.105	55.73
342.569	54.32
343.034	67.82
343.499	59.82
343.963	53.52
344.428	60.02
344.893	59.22
345.357	57.22
345.822	59.42
346.286	63.92
346.751	73.12
347.215	69.73
347.679	77.83
348.144	95.92
348.608	83.92
349.073	71.82
349.537	72.12
350.001	79.23
350.465	88.23
350.93	83.92
351.394	80.73
351.858	74.93
352.322	81.33
352.786	83.52
353.25	101.82
353.715	108.33
354.179	98.32
354.643	121.43
355.107	125.73
355.571	110.52
356.035	99.12
356.498	119.32
356.962	121.72
357.426	134.92
357.89	116.42
358.354	86.92
358.818	88.23
359.281	80.43
359.745	76.23
360.209	76.12
360.673	80.23
361.136	79.43
361.6	92.92
362.064	83.43
362.527	81.72
362.991	88.92
363.454	77.92
363.918	72.23
364.381	71.72
364.845	87.92
365.308	82.82
365.772	90.02
366.235	91.32
366.698	87.32
367.162	82.52
367.625	82.32
368.088	94.62
368.552	90.52
369.015	93.02
369.478	98.52
369.941	97.52
370.404	94.92
370.867	106.22
371.331	110.32
371.794	112.02
372.257	99.12
372.72	115.52
373.183	111.42
373.646	100.42
374.109	97.33
374.572	103.42
375.035	108.72
375.497	106.92
375.96	109.42
376.423	100.62
376.886	110.83
377.349	110.62
377.811	98.73
378.274	106.23
378.737	104.72
379.199	114.23
379.662	103.52
380.125	115.62
380.587	113.33
381.05	117.62
381.512	129.02
381.975	134.92
382.437	123.33
382.9	124.92
383.362	133.82
383.825	138.12
384.287	139.52
384.75	137.32
385.212	137.52
385.674	136.32
386.136	125.43
386.599	120.22
387.061	123.83
387.523	130.92
387.985	132.42
388.447	140.02
388.91	142.02
389.372	155.02
389.834	146.52
390.296	137.42
390.758	152.73
391.22	165.32
391.682	204.72
392.144	291.42
392.606	228.62
393.068	160.52
393.529	163.12
393.991	149.92
394.453	141.22
394.915	153.82
395.377	184.42
395.838	203.62
396.3	144.12
396.762	140.33
397.224	129.52
397.685	119.42
398.147	129.23
398.608	126.42
399.07	124.52
399.531	133.12
399.993	139.83
400.454	148.22
400.916	144.22
401.377	139.62
401.839	145.72
402.3	144.22
402.762	160.23
403.223	176.42
403.684	172.52
404.145	157.72
404.607	163.23
405.068	160.62
405.529	162.62
405.99	183.33
406.451	181.62
406.913	164.52
407.374	160.42
407.835	161.23
408.296	171.52
408.757	168.02
409.218	178.32
409.679	169.12
410.14	167.43
410.601	169.82
411.062	172.83
411.522	179.42
411.983	182.52
412.444	169.52
412.905	162.93
413.366	172.42
413.826	193.23
414.287	212.03
414.748	252.53
415.208	233.73
415.669	204.62
416.13	199.42
416.59	199.23
417.051	203.62
417.511	211.73
417.972	226.23
418.432	230.62
418.893	278.03
419.353	238.23
419.814	196.42
420.274	172.82
420.734	176.52
421.195	186.72
421.655	190.63
422.115	192.12
422.576	190.22
423.036	187.02
423.496	203.52
423.956	214.02
424.416	226.12
424.876	254.52
425.336	260.02
425.797	252.02
426.257	250.82
426.717	231.02
427.177	219.92
427.637	211.23
428.097	232.42
428.556	229.22
429.016	258.22
429.476	253.62
429.936	263.23
430.396	261.72
430.856	281.52
431.315	307.12
431.775	339.92
432.235	365.12
432.694	342.93
433.154	353.53
433.614	371.12
434.073	329.12
434.533	276.82
434.993	260.53
435.452	275.02
435.912	290.62
436.371	285.73
436.83	284.43
437.29	266.02
437.749	233.33
438.209	238.42
438.668	261.22
439.127	282.42
439.587	256.32
440.046	247.42
440.505	250.63
440.964	264.52
441.424	306.12
441.883	296.02
442.342	254.93
442.801	219.22
443.26	214.72
443.719	210.62
444.178	205.72
444.637	196.23
445.096	215.62
445.555	216.83
446.014	218.12
446.473	211.42
446.932	220.52
447.391	216.22
447.849	220.73
448.308	204.62
448.767	212.52
449.226	224.32
449.685	231.12
450.143	241.33
450.602	227.73
451.061	221.62
451.519	219.63
451.978	222.33
452.436	226.62
452.895	224.73
453.353	241.23
453.812	232.23
454.27	224.12
454.729	231.63
455.187	234.72
455.646	232.82
456.104	231.53
456.562	242.12
457.021	251.12
457.479	244.22
457.937	271.12
458.395	254.32
458.854	230.72
459.312	246.92
459.77	264.12
460.228	236.52
460.686	233.12
461.144	239.52
461.602	234.02
462.06	229.52
462.518	240.23
462.976	251.42
463.434	253.83
463.892	254.72
464.35	265.42
464.808	279.03
465.266	253.33
465.724	259.52
466.181	264.22
466.639	266.62
467.097	275.92
467.555	288.22
468.012	289.33
468.47	298.12
468.928	317.23
469.385	329.02
469.843	337.02
470.3	333.23
470.758	348.33
471.215	367.72
471.673	389.22
472.13	395.52
472.588	397.22
473.045	359.63
473.503	363.73
473.96	375.02
474.417	384.33
474.875	417.23
475.332	461.03
475.789	441.73
476.246	447.52
476.704	473.32
477.161	486.22
477.618	506.22
478.075	545.43
478.532	598.33
478.989	666.42
479.446	766.32
479.903	742.43
480.36	790.52
480.817	842.02
481.274	940.62
481.731	1051.72
482.188	1144.42
482.645	1284.33
483.102	1381.43
483.558	1519.33
484.015	1552.03
484.472	1543.03
484.929	1490.12
485.385	1455.02
485.842	1408.53
486.299	1341.42
486.755	1268.63
487.212	1065.03
487.668	896.62
488.125	822.22
488.582	764.73
489.038	725.62
489.494	692.02
489.951	674.83
490.407	641.73
490.864	635.23
491.32	616.92
491.776	620.92
492.233	629.52
492.689	586.42
493.145	573.62
493.602	566.52
494.058	591.33
494.514	583.02
494.97	613.23
495.426	627.92
495.882	601.92
496.338	596.03
496.794	612.22
497.251	597.02
497.707	609.63
498.163	624.92
498.618	619.52
499.074	627.12
499.53	650.12
499.986	652.42
500.442	635.32
500.898	613.02
501.354	604.02
501.809	610.62
502.265	617.62
502.721	640.02
503.177	639.82
503.632	639.22
504.088	657.23
504.543	684.43
504.999	687.92
505.455	633.02
505.91	601.72
506.366	614.02
506.821	610.52
507.277	594.12
507.732	595.62
508.187	601.92
508.643	606.42
509.098	601.12
509.553	629.02
510.009	632.52
510.464	644.92
510.919	659.42
511.375	666.82
511.83	682.73
512.285	700.73
512.74	733.92
513.195	755.33
513.65	739.73
514.105	743.23
514.56	743.82
515.015	766.13
515.47	787.83
515.925	770.52
516.38	761.22
516.835	774.92
517.29	759.82
517.745	757.73
518.2	746.92
518.655	711.42
519.109	713.32
519.564	707.12
520.019	711.22
520.474	706.43
520.928	696.32
521.383	697.42
521.838	676.62
522.292	686.53
522.747	685.33
523.201	681.32
523.656	670.12
524.11	668.43
524.565	660.72
525.019	654.93
525.474	670.83
525.928	671.93
526.382	666.12
526.837	667.53
527.291	675.12
527.745	671.23
528.2	669.82
528.654	671.22
529.108	665.02
529.562	668.33
530.016	664.13
530.47	665.42
530.925	671.62
531.379	665.22
531.833	671.32
532.287	670.32
532.741	676.93
533.195	679.93
533.649	688.02
534.103	689.83
534.556	677.12
535.01	684.32
535.464	689.42
535.918	701.93
536.372	698.43
536.826	685.93
537.279	682.93
537.733	682.92
538.187	682.62
538.64	691.12
539.094	697.72
539.548	699.73
540.001	699.73
540.455	686.32
540.908	699.22
541.362	704.72
541.815	708.12
542.269	726.73
542.722	721.83
543.175	730.33
543.629	735.73
544.082	748.12
544.536	754.33
544.989	747.73
545.442	752.02
545.895	759.92
546.349	745.23
546.802	758.12
547.255	762.33
547.708	773.03
548.161	770.12
548.614	786.32
549.067	786.62
549.52	783.72
549.973	776.92
550.426	775.82
550.879	767.02
551.332	758.62
551.785	768.62
552.238	768.33
552.691	784.52
553.144	797.02
553.596	804.82
554.049	811.52
554.502	854.02
554.955	869.02
555.407	868.72
555.86	854.83
556.313	857.33
556.765	847.43
557.218	843.62
557.67	832.52
558.123	824.12
558.576	836.42
559.028	838.93
559.48	833.52
559.933	826.42
560.385	796.42
560.838	763.82
561.29	740.83
561.742	742.02
562.195	719.83
562.647	719.43
563.099	725.12
563.551	731.72
564.004	747.42
564.456	733.93
564.908	723.62
565.36	712.72
565.812	694.82
566.264	685.13
566.716	686.32
567.168	671.73
567.62	682.82
568.072	663.42
568.524	647.73
568.976	650.12
569.428	644.92
569.88	636.52
570.332	645.73
570.784	650.32
571.235	652.62
571.687	658.62
572.139	651.73
572.59	674.32
573.042	677.23
573.494	666.52
573.945	661.32
574.397	645.53
574.849	655.42
575.3	647.53
575.752	643.62
576.203	640.73
576.655	644.73
577.106	633.33
577.557	622.13
578.009	635.73
578.46	623.32
578.912	620.62
579.363	626.12
579.814	635.12
580.265	626.02
580.717	633.22
581.168	623.62
581.619	640.43
582.07	633.43
582.521	638.32
582.972	626.02
583.423	634.32
583.875	644.42
584.326	656.32
584.777	699.93
585.227	766.22
585.678	866.33
586.129	940.93
586.58	1008.23
587.031	1097.92
587.482	1263.42
587.933	1450.22
588.384	1244.93
588.834	920.92
589.285	759.62
589.736	724.52
590.186	731.12
590.637	721.22
591.088	695.82
591.538	690.92
591.989	685.72
592.439	673.02
592.89	670.62
593.34	665.42
593.791	658.92
594.241	662.23
594.692	659.33
595.142	655.12
595.593	646.22
596.043	655.23
596.493	663.33
596.943	660.02
597.394	672.12
597.844	664.22
598.294	677.63
598.744	692.12
599.195	707.22
599.645	746.22
600.095	783.73
600.545	844.62
600.995	894.93
601.445	949.62
601.895	1005.23
602.345	1059.92
602.795	1021.43
603.245	990.22
603.695	949.12
604.145	896.12
604.594	847.23
605.044	798.33
605.494	737.02
605.944	700.62
606.393	697.32
606.843	679.02
607.293	686.13
607.743	680.03
608.192	690.82
608.642	699.12
609.091	707.43
609.541	717.02
609.99	706.63
610.44	700.23
610.889	668.13
611.339	648.32
611.788	636.13
612.238	649.32
612.687	668.02
613.136	662.33
613.586	682.52
614.035	683.02
614.484	702.83
614.933	714.92
615.383	690.33
615.832	688.93
616.281	670.13
616.73	629.72
617.179	615.23
617.628	600.12
618.077	579.52
618.526	572.73
618.975	565.93
619.424	565.42
619.873	563.43
620.322	568.33
620.771	561.12
621.22	557.52
621.669	543.63
622.118	545.43
622.567	526.82
623.015	531.92
623.464	517.52
623.913	504.93
624.361	509.12
624.81	505.33
625.259	498.43
625.707	507.23
626.156	507.33
626.604	511.82
627.053	514.62
627.501	510.82
627.95	524.52
628.398	536.62
628.847	523.02
629.295	521.53
629.744	522.43
630.192	517.93
630.64	516.12
631.089	508.62
631.537	524.62
631.985	531.53
632.433	549.33
632.881	551.13
633.33	597.52
633.778	569.12
634.226	517.13
634.674	518.13
635.122	530.23
635.57	543.82
636.018	569.52
636.466	521.83
636.914	507.92
637.362	523.93
637.81	525.32
638.258	532.82
638.705	520.12
639.153	550.62
639.601	555.92
640.049	586.52
640.497	609.73
640.944	631.02
641.392	593.42
641.84	558.93
642.287	529.53
642.735	520.43
643.182	519.93
643.63	517.52
644.078	519.43
644.525	540.42
644.973	551.92
645.42	552.02
645.867	561.03
646.315	581.73
646.762	592.32
647.21	632.93
647.657	646.02
648.104	682.33
648.551	700.92
648.999	761.53
649.446	829.22
649.893	905.93
650.34	1053.43
650.787	1270.53
651.234	1552.33
651.682	2033.62
652.129	2791.43
652.576	4018.43
653.023	5957.43
653.47	8198.22
653.917	10367.62
654.363	12066.23
654.81	13521.52
655.257	12858.52
655.704	8335.82
656.151	4897.62
656.598	3163.93
657.044	2234.02
657.491	1716.62
657.938	1368.03
658.385	1150.42
658.831	985.42
659.278	885.33
659.724	785.23
660.171	718.42
660.618	659.52
661.064	622.73
661.511	606.92
661.957	596.23
662.404	592.62
662.85	592.13
663.296	564.92
663.743	501.12
664.189	489.32
664.635	488.33
665.082	471.52
665.528	477.62
665.974	469.62
666.42	457.82
666.867	462.62
667.313	442.92
667.759	433.62
668.205	439.12
668.651	443.13
669.097	434.42
669.543	453.62
669.989	420.02
670.435	401.43
670.881	400.73
671.327	403.72
671.773	420.92
672.219	436.23
672.665	490.32
673.11	518.73
673.556	563.12
674.002	595.12
674.448	598.02
674.893	488.53
675.339	426.93
675.785	396.03
676.23	372.62
676.676	363.42
677.122	341.93
677.567	332.62
678.013	323.02
678.458	323.72
678.904	319.63
679.349	310.22
679.794	308.22
680.24	312.32
680.685	309.02
681.131	308.83
681.576	313.42
682.021	310.03
682.466	314.23
682.912	307.12
683.357	310.33
683.802	339.32
684.247	359.82
684.692	401.32
685.137	437.02
685.583	483.12
686.028	500.52
686.473	462.02
686.918	393.32
687.363	369.82
687.807	356.12
688.252	322.52
688.697	315.93
689.142	300.83
689.587	283.02
690.032	284.23
690.477	291.82
690.921	305.82
691.366	339.02
691.811	355.43
692.255	375.22
692.7	408.83
693.145	453.23
693.589	610.12
694.034	972.02
694.478	1359.53
694.923	1556.83
695.367	2065.73
695.812	1070.62
696.256	446.23
696.701	327.12
697.145	308.22
697.59	290.23
698.034	279.42
698.478	293.73
698.922	283.93
699.367	289.62
699.811	295.22
700.255	310.43
700.699	341.53
701.143	374.93
701.588	417.02
702.032	464.03
702.476	458.32
702.92	432.02
703.364	439.23
703.808	548.32
704.252	891.52
704.696	1279.33
705.14	1497.82
705.584	1918.93
706.027	943.52
706.471	462.12
706.915	354.23
707.359	306.22
707.803	285.73
708.246	273.63
708.69	274.43
709.134	278.12
709.577	279.72
710.021	279.02
710.465	271.82
710.908	265.72
711.352	258.83
711.795	263.52
712.239	307.53
712.682	340.52
713.126	367.62
713.569	409.83
714.012	337.42
714.456	289.02
714.899	262.92
715.342	241.93
715.786	225.33
716.229	227.82
716.672	226.52
717.115	221.42
717.558	218.82
718.002	223.02
718.445	234.83
718.888	250.32
719.331	253.63
719.774	273.62
720.217	274.83
720.66	254.02
721.103	235.23
721.546	216.63
721.989	217.12
722.432	202.72
722.874	212.12
723.317	205.72
723.76	207.52
724.203	234.62
724.645	272.62
725.088	391.32
725.531	504.12
725.974	571.23
726.416	482.82
726.859	271.43
727.301	218.12
727.744	206.23
728.187	201.52
728.629	207.62
729.071	215.53
729.514	226.12
729.956	237.82
730.399	246.72
730.841	251.52
731.283	244.73
731.726	229.23
732.168	230.52
732.61	231.02
733.053	247.82
733.495	274.73
733.937	311.13
734.379	345.92
734.821	378.92
735.263	471.52
735.705	710.52
736.148	1352.93
736.59	2263.43
737.032	2728.12
737.474	2232.62
737.916	714.72
738.357	385.33
738.799	289.83
739.241	260.02
739.683	247.23
740.125	259.92
740.567	257.22
741.008	282.23
741.45	275.72
741.892	278.92
742.334	301.93
742.775	314.62
743.217	296.82
743.658	228.73
744.1	222.52
744.542	232.33
744.983	273.83
745.425	303.82
745.866	312.92
746.307	255.22
746.749	247.72
747.19	283.93
747.632	388.43
748.073	747.93
748.514	1587.03
748.956	2525.72
749.397	3152.62
749.838	2610.43
750.279	2677.62
750.72	1332.23
751.162	478.22
751.603	283.52
752.044	220.82
752.485	183.92
752.926	185.73
753.367	173.72
753.808	168.22
754.249	170.52
754.69	164.23
755.131	153.23
755.572	157.23
756.013	160.52
756.453	159.12
756.894	163.73
757.335	169.62
757.776	169.12
758.216	175.22
758.657	168.43
759.098	174.23
759.538	196.42
759.979	231.42
760.42	319.03
760.86	602.92
761.301	1538.32
761.741	3854.43
762.182	5822.23
762.622	4089.12
763.063	1166.82
763.503	474.43
763.943	302.02
764.384	295.02
764.824	352.52
765.264	391.92
765.705	272.02
766.145	183.12
766.585	165.02
767.025	152.62
767.465	159.62
767.906	214.12
768.346	288.32
768.786	311.82
769.226	224.53
769.666	279.82
770.106	528.12
770.546	1334.12
770.986	2358.93
771.426	2140.53
771.866	706.73
772.306	284.03
772.745	186.02
773.185	151.92
773.625	150.82
774.065	143.52
774.505	178.12
774.944	270.02
775.384	607.12
775.824	1135.13
776.263	1128.62
776.703	480.32
777.142	194.72
777.582	139.32
778.021	125.33
778.461	117.02
778.9	128.42
779.34	117.93
779.779	99.33
780.219	105.23
780.658	98.02
781.097	92.83
781.537	98.73
781.976	102.02
782.415	99.12
782.855	87.42
783.294	86.93
783.733	95.02
784.172	94.72
784.611	92.32
785.05	88.72
785.489	98.23
785.928	100.73
786.367	104.52
786.806	100.52
787.245	118.82
787.684	117.62
788.123	134.92
788.562	119.73
789.001	109.33
789.44	114.23
789.879	102.32
790.317	101.23
790.756	112.73
791.195	106.83
791.634	124.83
792.072	174.43
792.511	304.13
792.95	848.62
793.388	1905.03
793.827	1762.12
794.265	596.52
794.704	240.03
795.142	159.73
795.581	138.12
796.019	120.02
796.458	110.33
796.896	102.42
797.334	115.23
797.773	135.52
798.211	185.92
798.649	371.23
799.087	887.13
799.526	1414.23
799.964	1767.93
800.402	1821.23
800.84	668.02
801.278	260.83
801.716	165.92
802.154	134.12
802.592	133.52
803.03	124.43
803.468	118.43
803.906	130.73
804.344	127.33
804.782	117.42
805.22	111.62
805.658	114.02
806.096	132.52
806.533	128.42
806.971	152.42
807.409	186.12
807.847	266.12
808.284	562.73
808.722	1619.13
809.16	2950.53
809.597	2721.62
810.035	4780.03
810.472	5270.82
810.91	1885.73
811.347	708.43
811.785	353.52
812.222	226.62
812.66	176.23
813.097	142.12
813.535	126.62
813.972	112.42
814.409	101.02
814.846	100.52
815.284	91.23
815.721	90.52
816.158	88.83
816.595	105.93
817.032	157.72
817.47	176.62
817.907	149.83
818.344	139.62
818.781	97.52
819.218	88.42
819.655	101.73
820.092	163.42
820.529	185.42
820.966	151.43
821.403	118.32
821.839	102.42
822.276	88.12
822.713	103.92
823.15	121.73
823.587	107.62
824.023	123.22
824.46	254.52
824.897	775.72
825.333	1219.62
825.77	524.32
826.206	204.92
826.643	118.22
827.08	89.02
827.516	69.62
827.953	66.82
828.389	70.62
828.825	64.32
829.262	62.82
829.698	56.12
830.135	47.73
830.571	52.02
831.007	50.42
831.443	54.92
831.88	56.02
832.316	51.52
832.752	60.12
833.188	61.73
833.624	55.93
834.06	53.52
834.497	58.62
834.933	62.93
835.369	69.92
835.805	55.62
836.241	66.02
836.677	65.83
837.112	74.32
837.548	86.82
837.984	117.62
838.42	170.73
838.856	416.83
839.292	1309.12
839.727	2080.03
840.163	963.72
840.599	785.53
841.034	1787.72
841.47	1936.43
841.906	690.32
842.341	295.42
842.777	197.23
843.212	285.23
843.648	292.23
844.083	143.52
844.519	87.83
844.954	68.33
845.39	53.52
845.825	53.92
846.261	47.93
846.696	46.92
847.131	46.23
847.566	49.02
848.002	47.33
848.437	48.12
848.872	51.52
849.307	53.23
849.742	70.23
850.177	152.93
850.613	487.82
851.048	782.52
851.483	328.02
851.918	137.82
852.353	80.32
852.788	49.82
853.223	48.72
853.657	42.42
854.092	36.62
854.527	33.12
854.962	34.72
855.397	34.73
855.832	37.92
856.266	43.43
856.701	31.73
857.136	26.92
857.57	34.02
858.005	40.33
858.44	54.12
858.874	38.52
859.309	42.33
859.743	29.02
860.178	42.32
860.612	33.02
861.047	44.32
861.481	56.02
861.915	63.43
862.35	38.82
862.784	27.62
863.218	33.02
863.653	24.42
864.087	38.72
864.521	50.62
864.955	59.02
865.39	133.72
865.824	148.02
866.258	106.33
866.692	141.42
867.126	154.22
867.56	99.62
867.994	38.22
868.428	36.23
868.862	42.33
869.296	50.52
869.73	52.72
870.164	43.02
870.598	42.83
871.031	33.72
871.465	32.72
871.899	29.83
872.333	23.52
872.766	22.02
873.2	14.02
873.634	26.52
874.067	29.42
874.501	22.02
874.935	33.52
875.368	31.02
875.802	29.62
876.235	19.22
876.669	25.62
877.102	17.73
877.535	23.62
877.969	21.62
878.402	18.82
878.836	16.73
879.269	21.43
879.702	17.52
880.135	20.42
880.569	18.12
881.002	24.93
881.435	16.92
881.868	15.62
882.301	18.23
882.734	14.02
883.167	20.92
883.601	13.92
884.034	18.12
884.467	9.73
884.899	16.02
885.332	11.33
885.765	7.83
886.198	11.22
886.631	15.62
887.064	12.52
887.497	22.32
887.929	24.12
888.362	16.23
888.795	14.92
889.228	17.32
889.66	18.12
890.093	15.02
890.526	10.92
890.958	14.73
891.391	8.93
891.823	20.83
892.256	15.23
892.688	9.72
893.121	12.23
893.553	16.02
893.985	18.92
894.418	14.52
894.85	12.73
895.282	14.82
895.715	17.32
896.147	16.83
896.579	9.62
897.011	12.62
897.444	12.02
897.876	13.23
898.308	19.82
898.74	5.73
899.172	14.83
899.604	16.73
900.036	15.82
900.468	13.52
900.9	8.52
901.332	14.62
901.764	10.82
902.196	18.43
902.628	18.82
903.06	14.42
903.491	28.12
903.923	19.92
904.355	20.33
904.787	22.82
905.218	20.02
905.65	21.72
906.082	5.32
906.513	8.32
906.945	13.82
907.376	12.92
907.808	19.52
908.239	22.02
908.671	18.92
909.102	18.42
909.534	21.73
909.965	39.23
910.397	79.72
910.828	276.72
911.259	428.93
911.691	198.22
912.122	94.43
912.553	43.12
912.984	29.52
913.415	23.73
913.847	26.52
914.278	13.52
914.709	8.62
915.14	14.02
915.571	16.62
916.002	10.42
916.433	15.83
916.864	13.82
917.295	15.02
917.726	20.52
918.157	13.42
918.587	24.12
919.018	20.52
919.449	19.23
919.88	17.32
920.311	24.33
920.741	42.12
921.172	143.12
921.603	133.52
922.033	59.92
922.464	38.93
922.895	21.82
923.325	22.83
923.756	13.92
924.186	19.43
924.617	29.52
925.047	34.33
925.478	47.12
925.908	38.82
926.338	23.52
926.769	11.52
927.199	19.33
927.629	11.73
928.06	14.23
928.49	13.62
928.92	12.12
929.35	11.12
929.78	6.82
930.21	7.52
930.641	12.52
931.071	5.92
931.501	-3.08
931.931	9.62
932.361	5.83
932.791	0.32
933.221	6.92
933.651	2.83
934.08	16.32
934.51	22.73
934.94	10.83
935.37	5.62
935.8	7.62
936.229	8.22
936.659	4.62
937.089	2.02
937.519	10.32
937.948	21.42
938.378	14.52
938.807	9.12
939.237	5.73
939.666	5.33
940.096	-3.98
940.525	3.02
940.955	0.62
941.384	3.33
941.814	-8.18
942.243	-3.98
942.672	-3.88
943.102	-4.77
943.531	0.02
943.96	5.73
944.39	3.32
944.819	-0.18
945.248	0.32
945.677	2.32
946.106	3.02
946.535	2.22
946.964	-3.98
947.393	2.42
947.822	1.83
948.251	-4.68
948.68	3.02
949.109	-1.28
949.538	4.23
949.967	1.12
950.396	0.12
950.825	-3.58
951.254	-1.57
951.682	-1.08
952.111	-2.27
952.54	4.42
952.969	-4.18
953.397	-5.68
953.826	0.62
954.254	-2.58
954.683	0.72
955.112	-4.17
955.54	2.62
955.969	0.42
956.397	0.62
956.826	-6.58
957.254	2.02
957.682	-1.28
958.111	3.92
958.539	2.42
958.967	5.02
959.396	-2.98
959.824	-3.77
960.252	5.62
960.68	-7.08
961.109	-0.78
961.537	-3.67
961.965	2.52
962.393	1.12
962.821	-5.48
963.249	4.92
963.677	2.12
964.105	4.02
964.533	40.83
964.961	34.82
965.389	21.62
965.817	4.12
966.245	3.12
966.672	0.43
967.1	-9.38
967.528	0.72
967.956	-0.38
968.383	-0.18
968.811	0.92
969.239	-3.58
969.666	-4.38
970.094	-0.17
970.522	0.62
970.949	0.22
971.377	-2.17
971.804	1.62
972.232	-5.48
972.659	4.52
973.087	2.52
973.514	-0.78
973.941	-4.77
974.369	5.32
974.796	1.43
975.223	-4.58
975.651	-3.98
976.078	-7.17
976.505	-0.98
976.932	3.73
977.359	10.42
977.786	11.42
978.214	0.02
978.641	-5.88
979.068	-5.68
979.495	-7.68
979.922	-3.68
980.349	-1.58
980.776	0.32
981.202	-2.28
981.629	4.62
982.056	6.62
982.483	-5.48
982.91	1.62
983.337	-5.68
983.763	0.52
984.19	-4.28
984.617	-2.48
985.043	-6.48
985.47	0.73
985.897	-3.98
986.323	-6.58
986.75	-1.48
987.176	0.42
987.603	-0.18
988.029	0.32
988.456	-7.98
988.882	4.23
989.308	-10.18
989.735	-2.78
990.161	4.23
990.587	-6.58
991.014	0.02
991.44	2.82
991.866	-1.17
992.292	-3.67
992.719	-6.18
993.145	-0.88
993.571	-8.77
993.997	-4.77
994.423	-2.58
994.849	-1.58
995.275	4.73
995.701	2.52
996.127	-4.48
996.553	3.62
996.979	-3.67
997.405	-3.27
997.83	-7.88
998.256	-10.28
998.682	-2.67
999.108	-6.98
999.534	0.02
999.959	-3.08
1000.385	-7.08
1000.811	1.32
1001.236	-5.78
1001.662	-8.48
1002.087	-2.77
1002.513	-3.88
1002.938	3.43
1003.364	-1.67
1003.789	1.23
1004.215	5.23
1004.64	-3.88
1005.066	-0.27
1005.491	2.12
1005.916	-4.98
1006.342	-6.27
1006.767	-12.48
1007.192	6.23
1007.617	-4.58
1008.042	-9.67
1008.468	-9.38
1008.893	-1.38
1009.318	0.42
1009.743	-4.68
1010.168	0.42
1010.593	1.73
1011.018	-6.38
1011.443	-6.18
1011.868	-1.27
1012.293	-4.88
1012.718	2.62
1013.143	4.52
1013.567	2.32
1013.992	-4.08
1014.417	-8.68
1014.842	0.42
1015.267	-6.58
1015.691	-5.67
1016.116	1.32
1016.541	4.32
1016.965	0.32
1017.39	0.22
1017.814	-3.17
1018.239	-0.48
1018.663	-8.78
1019.088	-13.48
1019.512	-0.28
1019.937	-5.08
1020.361	0.23
1020.785	-10.88
1021.21	-4.48
1021.634	-6.27
1022.058	-6.68
1022.483	8.12
1022.907	-1.88
1023.331	-1.07
1023.755	-7.58
1024.179	-3.88
1024.604	-4.38
1025.028	-6.18
1025.452	-3.98
1025.876	-6.18
1026.3	-3.98
1026.724	-6.68
1027.148	-3.08
1027.572	-7.58
1027.996	-5.18
1028.42	-4.18
1028.843	5.42
1029.267	-3.88
1029.691	-0.78
1030.115	-12.68
1030.539	-7.88
1030.962	-9.98
1031.386	-11.57
1031.81	1.12
1032.233	-0.58
1032.657	-2.67
1033.08	-4.77
1033.504	-1.78
1033.927	-5.27
1034.351	-0.27
1034.774	-1.88
1035.198	-0.98
1035.621	-6.07
1036.045	-8.38
1036.468	0.12
1036.891	-7.48
1037.315	-12.58
1037.738	-10.98
1038.161	5.12
1038.584	4.02
1039.008	-9.08
1039.431	-1.88
1039.854	-1.98
1040.277	-6.67
1040.7	-13.48
1041.123	-2.68
1041.546	-6.88
1041.969	-2.58
1042.392	-11.88
1042.815	3.12
1043.238	3.02
1043.661	-2.58
1044.084	-10.58
1044.507	-4.77
1044.93	-4.18
1045.352	-5.78
1045.775	-6.48
1046.198	-5.17
1046.621	0.73
1047.043	-0.27
1047.466	3.52
1047.889	-3.38
1048.311	-2.77
1048.734	-4.38
1049.156	-0.08
1049.579	-1.68
1050.001	-1.08
1050.424	1.32
1050.846	-4.38
1051.269	-4.57
1051.691	-1.77
1052.113	-7.08
1052.536	0.33
1052.958	-5.18
1053.38	-4.48
1053.802	-8.68
1054.225	-5.08
1054.647	-12.68
1055.069	-3.48
1055.491	1.92
1055.913	-9.88
1056.335	-2.08
1056.757	0.62
1057.179	-10.08
1057.601	-3.27
1058.023	-2.07
1058.445	-2.98
1058.867	-9.68
1059.289	1.42
1059.711	-4.17
1060.133	-2.98
1060.555	-3.08
1060.976	-0.08
1061.398	-4.08
1061.82	-4.88
1062.241	-11.28
1062.663	-10.38
1063.085	-5.38
1063.506	-1.48
1063.928	-2.28
1064.35	-6.67
1064.771	-8.78
1065.193	-5.58
1065.614	-15.77
1066.035	-3.07
1066.457	-6.58
1066.878	-0.88
1067.3	-9.48
1067.721	-5.88
1068.142	-6.18
1068.564	2.62
1068.985	-5.58
1069.406	0.02
1069.827	-7.27
1070.248	-5.38
1070.67	-7.27
1071.091	-6.07
1071.512	-3.78
1071.933	-9.38
1072.354	-1.67
1072.775	-5.08
1073.196	-1.88
1073.617	-7.98
1074.038	-8.27
1074.459	0.12
1074.88	-6.48
1075.3	0.23
1075.721	-10.48
1076.142	0.73
1076.563	-3.48
1076.983	-17.38
1077.404	-8.98
1077.825	-9.98
1078.246	-1.18
1078.666	-11.98
1079.087	-2.67
1079.507	-8.48
1079.928	-2.78
1080.348	1.33
1080.769	-2.98
1081.189	-1.57
1081.61	-3.48
1082.03	-1.77
1082.451	-6.27
1082.871	-2.17
1083.291	-14.18
1083.711	-14.27
1084.132	-6.17
1084.552	-3.78
1084.972	0.23
1085.392	-7.38
1085.813	-9.98
1086.233	-10.77
1086.653	-5.48
1087.073	1.02
1087.493	-10.68
1087.913	-9.88
1088.333	-8.98
1088.753	-3.58
1089.173	1.02
1089.593	-5.57
1090.013	-0.48
1090.433	2.12
1090.852	-3.27
1091.272	-2.78
1091.692	-4.88
1092.112	-4.27
1092.531	-8.48
1092.951	-10.08
1093.371	-3.68
1093.79	-1.17
1094.21	-3.98
1094.63	-5.67
1095.049	-5.58
1095.469	-4.58
1095.888	1.92
1096.308	-3.78
1096.727	1.73
1097.146	-3.77
1097.566	3.33
1097.985	-1.27
1098.405	0.62
1098.824	-5.38
1099.243	-5.48
1099.662	-12.08
1100.082	-8.88
1100.501	-0.38
1100.92	-7.98
1101.339	-2.58
1101.758	-4.57
