Data from 20171114-ORNL-Ar_H_NY_Subt18_08-07-19-151.txt Node
Date: Tue Nov 14 08:07:19 EST 2017
User: Ender
Spectrometer: HR+D1039
Trigger mode: 0
Integration Time (sec): 2.730000E-2
Scans to average: 10
Electric dark correction enabled: true
Nonlinearity correction enabled: false
Boxcar width: 0
XAxis mode: Wavelengths
Number of Pixels in Spectrum: 2048
>>>>>Begin Spectral Data<<<<<
187.836	1.99
188.309	1.99
188.782	1.99
189.255	-0.21
189.728	-0.71
190.201	6.89
190.674	-1.11
191.147	0.79
191.619	-4.41
192.092	-2.81
192.565	6.19
193.038	0.69
193.511	0.99
193.984	0.59
194.456	-2.51
194.929	-0.91
195.402	-5.21
195.874	-0.31
196.347	-0.81
196.82	-6.61
197.292	4.79
197.765	-1.71
198.237	-6.11
198.71	-3.61
199.182	2.19
199.655	2.39
200.127	6.09
200.6	-5.51
201.072	-2.71
201.544	-7.61
202.017	3.39
202.489	0.99
202.961	-1.91
203.433	-6.81
203.906	-7.61
204.378	-7.81
204.85	-2.71
205.322	-8.11
205.794	-3.61
206.266	-4.51
206.739	-10.31
207.211	0.09
207.683	-10.91
208.155	-6.41
208.627	-5.81
209.099	-3.31
209.57	-11.31
210.042	-8.61
210.514	-2.71
210.986	-5.01
211.458	-7.61
211.93	-5.31
212.402	4.79
212.873	-9.41
213.345	-10.41
213.817	-11.21
214.288	-12.31
214.76	-12.81
215.232	-3.71
215.703	-4.71
216.175	-2.71
216.646	-4.61
217.118	-9.01
217.589	-8.51
218.061	-5.81
218.532	-5.81
219.004	-4.21
219.475	-6.81
219.946	-3.91
220.418	-8.91
220.889	0.79
221.36	-3.61
221.832	-9.41
222.303	-9.31
222.774	-4.11
223.245	-12.21
223.717	-3.91
224.188	2.79
224.659	-7.91
225.13	-10.21
225.601	-1.51
226.072	-0.41
226.543	-0.31
227.014	-3.91
227.485	-1.41
227.956	-8.21
228.427	-4.61
228.898	-0.21
229.369	1.99
229.839	-7.01
230.31	-5.51
230.781	1.99
231.252	-2.11
231.722	-6.21
232.193	-5.01
232.664	-7.51
233.135	-9.21
233.605	-1.41
234.076	-7.81
234.546	-7.21
235.017	-0.51
235.487	-3.11
235.958	-4.31
236.428	-7.61
236.899	-0.21
237.369	-2.51
237.84	-4.71
238.31	-0.21
238.78	-5.31
239.251	-10.41
239.721	-1.31
240.191	-6.11
240.662	-11.31
241.132	-6.11
241.602	-9.21
242.072	-3.41
242.542	8.99
243.013	-10.11
243.483	-2.91
243.953	-0.31
244.423	-3.21
244.893	-10.41
245.363	2.99
245.833	-2.41
246.303	-7.31
246.773	2.59
247.243	-3.41
247.712	-2.71
248.182	0.59
248.652	-1.91
249.122	-4.91
249.592	-2.11
250.061	2.29
250.531	4.99
251.001	-5.21
251.471	0.89
251.94	2.59
252.41	-2.31
252.879	-7.31
253.349	1.79
253.818	4.79
254.288	-2.41
254.757	0.59
255.227	-5.11
255.696	1.59
256.166	-4.81
256.635	-0.61
257.105	1.19
257.574	-0.21
258.043	-5.81
258.513	-11.71
258.982	5.09
259.451	-8.01
259.92	-3.81
260.389	-0.31
260.859	9.09
261.328	-3.01
261.797	-5.51
262.266	-2.31
262.735	7.19
263.204	-2.81
263.673	1.69
264.142	1.79
264.611	-7.21
265.08	-4.91
265.549	-4.21
266.018	-0.01
266.487	-10.91
266.955	-9.31
267.424	-7.11
267.893	1.89
268.362	-4.11
268.83	-0.91
269.299	3.09
269.768	2.09
270.236	0.49
270.705	-3.81
271.174	-3.61
271.642	-0.81
272.111	-1.31
272.579	1.39
273.048	0.39
273.516	-0.61
273.985	-0.71
274.453	0.29
274.922	8.59
275.39	0.69
275.858	-3.21
276.327	-0.61
276.795	15.19
277.263	3.29
277.731	11.09
278.2	5.19
278.668	6.39
279.136	5.69
279.604	0.09
280.072	7.49
280.54	3.39
281.008	3.89
281.477	12.89
281.945	2.19
282.413	5.69
282.881	13.19
283.348	0.79
283.816	9.29
284.284	10.79
284.752	16.29
285.22	8.59
285.688	7.89
286.156	6.39
286.623	11.29
287.091	1.39
287.559	13.89
288.026	6.29
288.494	8.39
288.962	-3.11
289.429	1.99
289.897	13.09
290.364	6.69
290.832	8.09
291.3	8.99
291.767	13.29
292.234	14.89
292.702	6.09
293.169	7.29
293.637	10.29
294.104	9.59
294.571	1.59
295.039	0.09
295.506	0.89
295.973	13.29
296.44	6.49
296.908	6.69
297.375	3.29
297.842	14.59
298.309	10.69
298.776	0.69
299.243	13.89
299.71	1.59
300.177	10.19
300.644	18.79
301.111	13.29
301.578	11.89
302.045	9.29
302.512	14.29
302.979	19.89
303.446	16.69
303.913	15.99
304.379	16.49
304.846	19.09
305.313	16.59
305.78	11.49
306.246	14.19
306.713	19.39
307.18	16.99
307.646	21.39
308.113	17.89
308.579	13.79
309.046	15.39
309.512	18.49
309.979	9.59
310.445	20.39
310.912	22.39
311.378	24.59
311.845	21.39
312.311	23.49
312.777	25.69
313.244	28.89
313.71	36.59
314.176	18.49
314.642	21.29
315.109	22.29
315.575	23.49
316.041	29.39
316.507	20.69
316.973	21.69
317.439	24.99
317.905	25.39
318.371	21.09
318.837	22.29
319.303	23.79
319.769	21.49
320.235	24.39
320.701	21.09
321.167	25.39
321.633	20.39
322.099	29.79
322.564	27.29
323.03	22.69
323.496	23.89
323.962	31.29
324.427	22.69
324.893	37.79
325.359	34.49
325.824	26.19
326.29	27.49
326.755	30.69
327.221	27.99
327.686	29.49
328.152	37.49
328.617	33.99
329.083	31.29
329.548	43.29
330.014	38.59
330.479	27.29
330.944	34.99
331.41	30.79
331.875	35.59
332.34	36.39
332.805	36.49
333.271	36.09
333.736	30.39
334.201	35.69
334.666	36.99
335.131	34.39
335.596	36.09
336.061	38.69
336.526	36.19
336.991	36.39
337.456	41.59
337.921	35.29
338.386	31.29
338.851	37.69
339.316	37.19
339.781	35.69
340.246	42.09
340.711	35.59
341.175	35.19
341.64	35.99
342.105	45.99
342.569	43.29
343.034	46.59
343.499	43.59
343.963	40.89
344.428	50.29
344.893	48.59
345.357	52.99
345.822	51.89
346.286	57.39
346.751	59.29
347.215	52.29
347.679	62.39
348.144	76.09
348.608	62.29
349.073	58.99
349.537	61.69
350.001	65.79
350.465	70.89
350.93	65.89
351.394	64.79
351.858	60.29
352.322	74.19
352.786	72.09
353.25	84.19
353.715	84.09
354.179	83.19
354.643	97.59
355.107	96.29
355.571	87.89
356.035	83.49
356.498	91.09
356.962	91.39
357.426	100.79
357.89	93.09
358.354	76.79
358.818	76.49
359.281	64.29
359.745	68.59
360.209	68.59
360.673	62.79
361.136	69.39
361.6	75.09
362.064	77.49
362.527	66.09
362.991	88.89
363.454	70.59
363.918	66.79
364.381	63.39
364.845	72.79
365.308	70.39
365.772	78.49
366.235	73.59
366.698	77.89
367.162	73.69
367.625	67.49
368.088	72.19
368.552	81.59
369.015	74.99
369.478	80.99
369.941	86.69
370.404	80.39
370.867	91.19
371.331	93.59
371.794	94.79
372.257	84.19
372.72	92.79
373.183	95.39
373.646	86.19
374.109	87.99
374.572	89.49
375.035	90.39
375.497	96.19
375.96	94.29
376.423	92.89
376.886	100.29
377.349	95.99
377.811	90.79
378.274	100.09
378.737	96.79
379.199	94.69
379.662	99.39
380.125	97.69
380.587	92.99
381.05	101.69
381.512	102.79
381.975	116.49
382.437	107.29
382.9	108.19
383.362	116.79
383.825	118.39
384.287	119.19
384.75	107.09
385.212	111.19
385.674	121.89
386.136	113.39
386.599	106.69
387.061	111.09
387.523	111.69
387.985	117.59
388.447	127.59
388.91	118.19
389.372	122.19
389.834	123.49
390.296	117.99
390.758	121.19
391.22	122.89
391.682	132.19
392.144	145.79
392.606	141.69
393.068	134.79
393.529	141.99
393.991	131.09
394.453	122.39
394.915	129.29
395.377	128.79
395.838	137.49
396.3	128.79
396.762	135.09
397.224	133.49
397.685	125.09
398.147	134.29
398.608	127.79
399.07	132.49
399.531	136.29
399.993	143.99
400.454	157.99
400.916	141.99
401.377	142.39
401.839	147.39
402.3	141.49
402.762	168.79
403.223	177.29
403.684	161.99
404.145	157.99
404.607	158.29
405.068	158.99
405.529	161.59
405.99	175.09
406.451	173.49
406.913	174.59
407.374	162.19
407.835	157.79
408.296	170.09
408.757	165.59
409.218	183.19
409.679	172.49
410.14	179.39
410.601	167.09
411.062	174.29
411.522	176.09
411.983	165.39
412.444	171.49
412.905	179.89
413.366	188.39
413.826	197.69
414.287	221.99
414.748	266.69
415.208	250.39
415.669	213.59
416.13	207.89
416.59	207.69
417.051	212.39
417.511	221.99
417.972	246.29
418.432	252.79
418.893	292.09
419.353	257.89
419.814	197.89
420.274	188.49
420.734	180.89
421.195	193.39
421.655	189.89
422.115	195.99
422.576	198.59
423.036	203.99
423.496	206.89
423.956	228.19
424.416	232.59
424.876	271.19
425.336	261.89
425.797	261.49
426.257	258.09
426.717	244.49
427.177	235.49
427.637	217.79
428.097	232.49
428.556	250.29
429.016	261.99
429.476	257.89
429.936	272.99
430.396	273.39
430.856	290.09
431.315	300.09
431.775	334.09
432.235	381.09
432.694	344.79
433.154	356.99
433.614	376.69
434.073	323.89
434.533	267.89
434.993	261.69
435.452	277.29
435.912	287.19
436.371	278.99
436.83	272.29
437.29	259.39
437.749	250.69
438.209	250.39
438.668	278.79
439.127	287.39
439.587	261.99
440.046	250.39
440.505	266.09
440.964	276.49
441.424	316.69
441.883	312.89
442.342	255.79
442.801	229.59
443.26	225.39
443.719	228.89
444.178	233.09
444.637	213.19
445.096	227.49
445.555	230.99
446.014	237.69
446.473	236.69
446.932	242.49
447.391	234.69
447.849	243.29
448.308	230.69
448.767	234.99
449.226	237.59
449.685	252.99
450.143	254.39
450.602	249.09
451.061	241.09
451.519	245.39
451.978	243.19
452.436	230.19
452.895	245.09
453.353	261.39
453.812	249.39
454.27	243.99
454.729	245.29
455.187	253.49
455.646	254.99
456.104	253.39
456.562	262.49
457.021	277.69
457.479	270.49
457.937	278.19
458.395	262.49
458.854	255.39
459.312	258.09
459.77	283.39
460.228	258.99
460.686	250.59
461.144	260.69
461.602	255.69
462.06	258.39
462.518	266.79
462.976	265.79
463.434	270.89
463.892	273.69
464.35	285.49
464.808	304.59
465.266	282.79
465.724	283.09
466.181	281.59
466.639	285.89
467.097	310.19
467.555	310.79
468.012	314.89
468.47	316.89
468.928	336.59
469.385	348.49
469.843	361.99
470.3	367.59
470.758	378.89
471.215	397.69
471.673	417.69
472.13	415.69
472.588	428.99
473.045	393.09
473.503	400.99
473.96	411.99
474.417	422.89
474.875	456.29
475.332	485.69
475.789	474.19
476.246	480.99
476.704	501.99
477.161	529.29
477.618	539.29
478.075	573.89
478.532	619.79
478.989	692.89
479.446	813.59
479.903	763.89
480.36	806.89
480.817	850.09
481.274	933.39
481.731	1021.49
482.188	1113.99
482.645	1228.99
483.102	1314.59
483.558	1448.99
484.015	1487.39
484.472	1455.99
484.929	1413.29
485.385	1376.29
485.842	1350.69
486.299	1290.89
486.755	1245.29
487.212	1063.99
487.668	920.39
488.125	853.69
488.582	785.49
489.038	744.19
489.494	719.19
489.951	687.69
490.407	687.19
490.864	667.89
491.32	654.89
491.776	654.29
492.233	663.89
492.689	630.29
493.145	630.79
493.602	620.59
494.058	633.39
494.514	634.59
494.97	657.99
495.426	669.09
495.882	646.59
496.338	622.69
496.794	643.09
497.251	648.39
497.707	648.99
498.163	648.69
498.618	655.49
499.074	661.59
499.53	686.79
499.986	689.09
500.442	665.79
500.898	639.69
501.354	621.39
501.809	645.59
502.265	649.69
502.721	648.29
503.177	663.89
503.632	662.89
504.088	667.39
504.543	690.19
504.999	715.09
505.455	675.89
505.91	657.19
506.366	668.59
506.821	666.19
507.277	652.99
507.732	658.69
508.187	654.99
508.643	667.19
509.098	670.79
509.553	686.79
510.009	692.49
510.464	701.89
510.919	726.99
511.375	719.99
511.83	742.79
512.285	747.89
512.74	779.39
513.195	810.99
513.65	809.89
514.105	794.99
514.56	795.29
515.015	814.19
515.47	838.29
515.925	821.89
516.38	801.39
516.835	823.29
517.29	803.69
517.745	807.79
518.2	791.49
518.655	779.59
519.109	781.59
519.564	768.69
520.019	755.79
520.474	752.59
520.928	742.09
521.383	749.59
521.838	743.99
522.292	746.89
522.747	748.89
523.201	725.09
523.656	722.29
524.11	734.59
524.565	725.79
525.019	727.19
525.474	726.59
525.928	724.99
526.382	727.69
526.837	724.49
527.291	724.29
527.745	723.89
528.2	730.19
528.654	724.29
529.108	718.69
529.562	723.09
530.016	712.49
530.47	706.69
530.925	712.99
531.379	726.39
531.833	732.09
532.287	726.69
532.741	725.69
533.195	723.69
533.649	738.49
534.103	741.59
534.556	728.39
535.01	726.59
535.464	731.59
535.918	745.89
536.372	743.79
536.826	741.49
537.279	732.59
537.733	739.59
538.187	745.19
538.64	742.89
539.094	746.99
539.548	749.89
540.001	754.59
540.455	751.49
540.908	757.29
541.362	767.19
541.815	776.19
542.269	793.69
542.722	787.39
543.175	798.59
543.629	797.69
544.082	813.59
544.536	825.39
544.989	818.99
545.442	823.69
545.895	821.59
546.349	824.89
546.802	831.19
547.255	833.49
547.708	840.69
548.161	856.49
548.614	857.19
549.067	862.79
549.52	857.19
549.973	854.49
550.426	839.19
550.879	829.09
551.332	840.99
551.785	843.59
552.238	844.49
552.691	856.09
553.144	875.59
553.596	886.79
554.049	911.09
554.502	937.59
554.955	944.29
555.407	939.19
555.86	937.69
556.313	935.19
556.765	917.39
557.218	912.69
557.67	911.69
558.123	919.09
558.576	901.09
559.028	914.19
559.48	925.99
559.933	909.09
560.385	871.39
560.838	858.49
561.29	816.19
561.742	820.39
562.195	798.49
562.647	797.09
563.099	808.09
563.551	811.09
564.004	815.79
564.456	795.69
564.908	793.49
565.36	770.39
565.812	752.29
566.264	755.59
566.716	743.69
567.168	726.79
567.62	734.89
568.072	733.59
568.524	723.69
568.976	721.99
569.428	696.59
569.88	705.99
570.332	709.49
570.784	711.39
571.235	715.39
571.687	728.39
572.139	727.49
572.59	741.99
573.042	743.99
573.494	732.59
573.945	737.69
574.397	713.09
574.849	719.19
575.3	716.29
575.752	712.59
576.203	707.59
576.655	710.69
577.106	701.89
577.557	687.09
578.009	697.79
578.46	694.79
578.912	682.69
579.363	686.49
579.814	690.39
580.265	688.49
580.717	692.39
581.168	708.79
581.619	700.09
582.07	705.69
582.521	698.79
582.972	687.59
583.423	696.49
583.875	704.29
584.326	708.49
584.777	719.79
585.227	742.19
585.678	756.59
586.129	763.59
586.58	778.09
587.031	810.19
587.482	844.09
587.933	863.99
588.384	840.19
588.834	803.79
589.285	801.19
589.736	793.19
590.186	789.59
590.637	794.29
591.088	762.09
591.538	754.19
591.989	765.29
592.439	744.89
592.89	740.99
593.34	736.89
593.791	731.49
594.241	723.99
594.692	718.09
595.142	721.89
595.593	709.79
596.043	718.69
596.493	726.49
596.943	723.69
597.394	744.69
597.844	742.59
598.294	757.89
598.744	784.09
599.195	817.29
599.645	858.69
600.095	879.69
600.545	951.99
600.995	996.19
601.445	1060.09
601.895	1128.49
602.345	1165.99
602.795	1154.09
603.245	1090.19
603.695	1048.79
604.145	989.69
604.594	943.09
605.044	898.69
605.494	837.19
605.944	781.29
606.393	767.49
606.843	751.19
607.293	756.59
607.743	756.59
608.192	765.79
608.642	775.89
609.091	785.69
609.541	776.79
609.99	781.09
610.44	777.29
610.889	738.29
611.339	712.49
611.788	696.49
612.238	709.59
612.687	722.19
613.136	710.79
613.586	722.79
614.035	720.49
614.484	733.89
614.933	724.69
615.383	715.99
615.832	718.49
616.281	711.79
616.73	682.09
617.179	667.69
617.628	665.49
618.077	653.69
618.526	649.19
618.975	630.29
619.424	635.89
619.873	626.89
620.322	630.69
620.771	619.39
621.22	616.19
621.669	614.39
622.118	611.29
622.567	600.89
623.015	579.79
623.464	587.39
623.913	571.59
624.361	566.59
624.81	559.59
625.259	567.89
625.707	577.79
626.156	565.19
626.604	587.09
627.053	575.69
627.501	576.69
627.95	580.29
628.398	600.19
628.847	593.69
629.295	582.09
629.744	591.89
630.192	576.39
630.64	579.59
631.089	562.59
631.537	552.59
631.985	544.69
632.433	541.79
632.881	536.59
633.33	552.59
633.778	541.29
634.226	542.39
634.674	550.39
635.122	558.29
635.57	570.99
636.018	571.29
636.466	574.49
636.914	568.19
637.362	566.49
637.81	584.89
638.258	595.39
638.705	590.19
639.153	634.29
639.601	634.19
640.049	664.99
640.497	691.09
640.944	711.19
641.392	657.79
641.84	624.99
642.287	599.69
642.735	573.29
643.182	575.09
643.63	582.59
644.078	573.69
644.525	585.39
644.973	598.79
645.42	599.39
645.867	627.09
646.315	637.89
646.762	665.99
647.21	693.09
647.657	712.19
648.104	738.49
648.551	765.09
648.999	816.09
649.446	896.89
649.893	974.09
650.34	1109.69
650.787	1338.89
651.234	1644.99
651.682	2098.49
652.129	2866.39
652.576	4071.19
653.023	5920.29
653.47	7998.69
653.917	9955.09
654.363	11445.29
654.81	12645.59
655.257	12023.49
655.704	7933.39
656.151	4767.69
656.598	3149.39
657.044	2256.39
657.491	1735.29
657.938	1406.69
658.385	1184.19
658.831	1041.39
659.278	939.99
659.724	838.19
660.171	780.59
660.618	715.29
661.064	687.69
661.511	673.99
661.957	652.99
662.404	641.09
662.85	653.19
663.296	630.59
663.743	565.69
664.189	539.59
664.635	540.39
665.082	534.59
665.528	531.19
665.974	527.89
666.42	520.79
666.867	517.69
667.313	499.09
667.759	477.19
668.205	464.49
668.651	461.99
669.097	453.29
669.543	461.19
669.989	452.09
670.435	461.79
670.881	455.19
671.327	456.39
671.773	474.99
672.219	504.19
672.665	568.99
673.11	600.59
673.556	652.39
674.002	682.49
674.448	679.39
674.893	572.79
675.339	493.29
675.785	449.19
676.23	424.89
676.676	410.09
677.122	399.99
677.567	390.99
678.013	379.79
678.458	368.99
678.904	375.49
679.349	357.79
679.794	369.89
680.24	365.09
680.685	361.59
681.131	354.89
681.576	359.29
682.021	363.49
682.466	366.29
682.912	358.49
683.357	358.69
683.802	397.19
684.247	418.79
684.692	471.29
685.137	503.89
685.583	552.09
686.028	585.39
686.473	531.79
686.918	460.39
687.363	430.79
687.807	401.79
688.252	373.59
688.697	366.29
689.142	346.59
689.587	343.29
690.032	333.09
690.477	349.89
690.921	361.09
691.366	398.09
691.811	418.09
692.255	448.39
692.7	480.39
693.145	520.19
693.589	734.89
694.034	1196.39
694.478	1618.99
694.923	1796.69
695.367	2359.69
695.812	1245.99
696.256	520.39
696.701	382.99
697.145	347.69
697.59	336.09
698.034	320.29
698.478	335.39
698.922	336.39
699.367	336.59
699.811	340.49
700.255	355.19
700.699	393.19
701.143	440.89
701.588	492.49
702.032	532.59
702.476	528.99
702.92	505.39
703.364	510.29
703.808	669.59
704.252	1093.69
704.696	1519.89
705.14	1750.69
705.584	2216.89
706.027	1094.19
706.471	543.49
706.915	413.79
707.359	362.49
707.803	332.99
708.246	324.09
708.69	322.49
709.134	324.09
709.577	325.19
710.021	324.79
710.465	310.39
710.908	300.69
711.352	304.39
711.795	317.49
712.239	364.19
712.682	400.29
713.126	424.09
713.569	464.29
714.012	367.49
714.456	312.49
714.899	298.19
715.342	281.89
715.786	267.59
716.229	258.89
716.672	260.49
717.115	252.29
717.558	260.59
718.002	248.59
718.445	271.99
718.888	288.59
719.331	301.89
719.774	318.49
720.217	316.99
720.66	294.09
721.103	277.19
721.546	257.79
721.989	257.39
722.432	233.19
722.874	238.59
723.317	237.09
723.76	238.99
724.203	263.39
724.645	327.39
725.088	463.49
725.531	593.99
725.974	659.79
726.416	567.19
726.859	312.99
727.301	253.59
727.744	240.19
728.187	230.29
728.629	247.09
729.071	252.59
729.514	264.49
729.956	285.49
730.399	288.79
730.841	298.89
731.283	283.49
731.726	272.99
732.168	271.69
732.61	274.69
733.053	290.89
733.495	326.19
733.937	358.39
734.379	418.69
734.821	442.09
735.263	566.39
735.705	880.99
736.148	1681.59
736.59	2715.09
737.032	3196.29
737.474	2584.69
737.916	845.79
738.357	449.99
738.799	343.99
739.241	312.99
739.683	292.79
740.125	295.29
740.567	309.49
741.008	326.29
741.45	323.79
741.892	329.49
742.334	359.79
742.775	366.29
743.217	355.69
743.658	278.89
744.1	265.79
744.542	271.99
744.983	322.49
745.425	359.99
745.866	355.89
746.307	288.79
746.749	287.69
747.19	334.19
747.632	477.99
748.073	935.49
748.514	1970.49
748.956	2983.89
749.397	3772.29
749.838	3109.69
750.279	3096.99
750.72	1564.49
751.162	573.39
751.603	332.99
752.044	264.79
752.485	218.69
752.926	217.49
753.367	215.69
753.808	199.49
754.249	199.09
754.69	194.69
755.131	191.19
755.572	191.69
756.013	190.49
756.453	193.39
756.894	195.39
757.335	190.49
757.776	200.29
758.216	205.39
758.657	203.59
759.098	207.69
759.538	228.49
759.979	285.19
760.42	396.09
760.86	758.59
761.301	1945.59
761.741	4695.09
762.182	6707.89
762.622	4731.79
763.063	1366.89
763.503	556.59
763.943	335.29
764.384	280.09
764.824	252.89
765.264	227.89
765.705	208.29
766.145	188.19
766.585	182.39
767.025	174.29
767.465	160.49
767.906	183.29
768.346	196.29
768.786	203.89
769.226	218.49
769.666	320.89
770.106	648.09
770.546	1631.79
770.986	2774.19
771.426	2469.09
771.866	822.49
772.306	342.49
772.745	209.49
773.185	168.79
773.625	159.79
774.065	156.69
774.505	162.29
774.944	208.89
775.384	363.39
775.824	597.19
776.263	570.99
776.703	289.19
777.142	157.79
777.582	135.79
778.021	128.09
778.461	128.19
778.9	133.69
779.34	126.39
779.779	120.79
780.219	110.59
780.658	109.89
781.097	112.09
781.537	120.39
781.976	107.89
782.415	105.49
782.855	108.69
783.294	102.89
783.733	101.29
784.172	110.19
784.611	110.29
785.05	109.39
785.489	113.29
785.928	121.59
786.367	123.39
786.806	119.59
787.245	133.19
787.684	139.59
788.123	150.99
788.562	132.99
789.001	130.49
789.44	133.89
789.879	115.99
790.317	121.79
790.756	129.39
791.195	124.19
791.634	155.19
792.072	212.39
792.511	375.59
792.95	1042.09
793.388	2202.99
793.827	1989.99
794.265	691.29
794.704	283.29
795.142	183.59
795.581	146.69
796.019	135.49
796.458	136.19
796.896	123.59
797.334	133.39
797.773	165.99
798.211	233.49
798.649	463.89
799.087	1070.59
799.526	1682.09
799.964	2105.99
800.402	2084.89
800.84	785.19
801.278	314.29
801.716	190.39
802.154	155.09
802.592	156.09
803.03	144.79
803.468	138.39
803.906	147.99
804.344	154.99
804.782	148.69
805.22	137.59
805.658	143.59
806.096	152.69
806.533	163.09
806.971	179.79
807.409	231.79
807.847	333.69
808.284	705.89
808.722	1985.29
809.16	3471.39
809.597	3322.99
810.035	5712.49
810.472	6025.49
810.91	2190.79
811.347	840.79
811.785	423.79
812.222	264.99
812.66	204.29
813.097	177.19
813.535	145.79
813.972	128.59
814.409	122.59
814.846	105.39
815.284	113.99
815.721	103.09
816.158	107.59
816.595	108.39
817.032	158.39
817.47	192.69
817.907	132.89
818.344	107.39
818.781	95.59
819.218	100.49
819.655	125.89
820.092	197.49
820.529	222.19
820.966	180.19
821.403	128.09
821.839	103.39
822.276	98.49
822.713	130.59
823.15	146.69
823.587	118.09
824.023	156.19
824.46	322.99
824.897	938.89
825.333	1411.59
825.77	611.99
826.206	242.79
826.643	140.89
827.08	103.59
827.516	91.79
827.953	78.09
828.389	78.89
828.825	69.49
829.262	74.59
829.698	64.19
830.135	66.19
830.571	63.19
831.007	61.59
831.443	66.29
831.88	65.49
832.316	60.19
832.752	63.19
833.188	65.09
833.624	66.69
834.06	64.49
834.497	68.39
834.933	71.69
835.369	76.59
835.805	71.59
836.241	77.69
836.677	83.59
837.112	91.99
837.548	110.29
837.984	142.99
838.42	209.19
838.856	540.09
839.292	1599.89
839.727	2398.09
840.163	1141.59
840.599	987.79
841.034	2128.79
841.47	2197.79
841.906	811.99
842.341	344.79
842.777	207.89
843.212	214.49
843.648	191.89
844.083	112.09
844.519	86.69
844.954	74.39
845.39	65.39
845.825	51.89
846.261	60.09
846.696	60.19
847.131	61.29
847.566	64.29
848.002	53.19
848.437	58.49
848.872	55.69
849.307	60.49
849.742	85.99
850.177	190.39
850.613	585.99
851.048	916.49
851.483	397.99
851.918	158.29
852.353	91.59
852.788	57.09
853.223	56.59
853.657	54.69
854.092	43.89
854.527	39.29
854.962	45.09
855.397	42.59
855.832	52.49
856.266	40.79
856.701	44.79
857.136	35.09
857.57	38.29
858.005	49.69
858.44	60.59
858.874	43.79
859.309	52.69
859.743	37.89
860.178	47.79
860.612	48.69
861.047	54.99
861.481	66.39
861.915	68.09
862.35	50.29
862.784	35.69
863.218	41.09
863.653	33.49
864.087	43.39
864.521	52.49
864.955	67.49
865.39	157.89
865.824	172.39
866.258	120.59
866.692	168.99
867.126	187.39
867.56	108.99
867.994	60.99
868.428	43.19
868.862	52.69
869.296	56.49
869.73	60.59
870.164	58.89
870.598	48.79
871.031	43.09
871.465	29.39
871.899	33.69
872.333	23.49
872.766	26.09
873.2	24.39
873.634	28.69
874.067	24.49
874.501	29.69
874.935	34.19
875.368	30.09
875.802	34.89
876.235	20.39
876.669	26.09
877.102	22.29
877.535	32.79
877.969	19.69
878.402	24.89
878.836	21.69
879.269	23.19
879.702	29.99
880.135	18.59
880.569	21.59
881.002	27.09
881.435	19.29
881.868	14.19
882.301	23.79
882.734	23.19
883.167	18.69
883.601	16.39
884.034	24.19
884.467	17.39
884.899	21.99
885.332	14.69
885.765	11.79
886.198	13.29
886.631	17.89
887.064	19.99
887.497	22.69
887.929	21.19
888.362	15.79
888.795	15.09
889.228	19.79
889.66	17.79
890.093	22.89
890.526	17.09
890.958	20.49
891.391	21.39
891.823	23.49
892.256	13.09
892.688	10.19
893.121	16.99
893.553	19.49
893.985	17.29
894.418	21.69
894.85	9.99
895.282	19.09
895.715	16.59
896.147	22.09
896.579	21.39
897.011	16.49
897.444	15.49
897.876	18.09
898.308	12.79
898.74	14.09
899.172	9.99
899.604	22.09
900.036	19.59
900.468	15.19
900.9	15.19
901.332	20.29
901.764	16.69
902.196	16.89
902.628	12.19
903.06	17.49
903.491	30.09
903.923	25.49
904.355	20.99
904.787	28.09
905.218	16.59
905.65	25.19
906.082	13.49
906.513	16.69
906.945	21.59
907.376	6.79
907.808	17.09
908.239	16.19
908.671	17.49
909.102	20.29
909.534	25.79
909.965	47.19
910.397	106.99
910.828	332.99
911.259	490.69
911.691	224.79
912.122	115.39
912.553	60.69
912.984	35.89
913.415	29.39
913.847	21.29
914.278	13.89
914.709	13.69
915.14	20.59
915.571	22.69
916.002	6.29
916.433	15.89
916.864	17.49
917.295	19.69
917.726	19.29
918.157	14.89
918.587	23.59
919.018	19.69
919.449	21.49
919.88	25.09
920.311	34.09
920.741	49.59
921.172	171.39
921.603	154.59
922.033	74.59
922.464	43.19
922.895	22.19
923.325	18.59
923.756	14.39
924.186	15.19
924.617	18.09
925.047	13.89
925.478	21.69
925.908	18.49
926.338	13.79
926.769	9.29
927.199	13.29
927.629	9.79
928.06	12.39
928.49	8.09
928.92	15.89
929.35	11.09
929.78	9.39
930.21	9.79
930.641	5.99
931.071	8.89
931.501	0.99
931.931	7.59
932.361	7.09
932.791	1.09
933.221	9.19
933.651	7.59
934.08	17.19
934.51	27.69
934.94	8.79
935.37	5.89
935.8	11.29
936.229	8.99
936.659	9.59
937.089	6.19
937.519	14.89
937.948	25.89
938.378	20.89
938.807	1.19
939.237	0.39
939.666	7.69
940.096	-6.71
940.525	6.99
940.955	4.29
941.384	2.89
941.814	-7.11
942.243	-2.91
942.672	3.59
943.102	0.09
943.531	-0.81
943.96	0.89
944.39	6.79
944.819	0.79
945.248	3.99
945.677	-2.11
946.106	6.19
946.535	9.59
946.964	5.49
947.393	3.59
947.822	7.59
948.251	-3.91
948.68	2.69
949.109	4.49
949.538	3.39
949.967	2.19
950.396	2.59
950.825	0.79
951.254	1.19
951.682	-5.91
952.111	4.69
952.54	9.19
952.969	1.09
953.397	-7.51
953.826	-1.81
954.254	-5.21
954.683	2.99
955.112	-6.31
955.54	3.19
955.969	-0.11
956.397	-0.01
956.826	-7.81
957.254	5.29
957.682	3.39
958.111	3.59
958.539	-0.31
958.967	5.89
959.396	-2.41
959.824	0.19
960.252	1.39
960.68	-1.01
961.109	-6.71
961.537	-0.51
961.965	4.49
962.393	6.79
962.821	-3.01
963.249	-1.01
963.677	6.69
964.105	3.89
964.533	53.99
964.961	47.79
965.389	21.19
965.817	9.49
966.245	2.19
966.672	6.09
967.1	-8.01
967.528	2.09
967.956	-5.21
968.383	5.69
968.811	-0.41
969.239	-5.21
969.666	-6.71
970.094	-3.71
970.522	1.09
970.949	-5.21
971.377	-6.21
971.804	3.29
972.232	4.49
972.659	-0.41
973.087	-0.01
973.514	-2.11
973.941	-4.81
974.369	4.29
974.796	0.69
975.223	-2.51
975.651	-2.81
976.078	7.79
976.505	-1.11
976.932	6.29
977.359	16.09
977.786	15.29
978.214	5.49
978.641	-4.61
979.068	-1.71
979.495	-4.51
979.922	-2.41
980.349	-6.71
980.776	7.59
981.202	-4.21
981.629	3.79
982.056	3.79
982.483	-1.01
982.91	1.59
983.337	-13.41
983.763	5.29
984.19	-2.81
984.617	-6.31
985.043	-9.71
985.47	-2.01
985.897	-1.91
986.323	-6.01
986.75	1.89
987.176	-2.51
987.603	-1.31
988.029	-1.01
988.456	-0.81
988.882	5.99
989.308	-0.11
989.735	-3.11
990.161	-1.61
990.587	-5.61
991.014	-0.61
991.44	1.79
991.866	-5.81
992.292	-7.61
992.719	-4.21
993.145	3.59
993.571	-12.91
993.997	-5.01
994.423	-1.91
994.849	-8.01
995.275	2.59
995.701	-0.21
996.127	-1.91
996.553	-3.21
996.979	-1.71
997.405	-3.91
997.83	-4.61
998.256	-6.51
998.682	-3.41
999.108	-8.61
999.534	-1.21
999.959	-1.01
1000.385	-4.21
1000.811	1.59
1001.236	-9.81
1001.662	-3.41
1002.087	-7.91
1002.513	-2.61
1002.938	3.29
1003.364	-5.31
1003.789	-3.61
1004.215	4.49
1004.64	-1.41
1005.066	-2.61
1005.491	-3.41
1005.916	-2.11
1006.342	-2.01
1006.767	-10.91
1007.192	0.29
1007.617	-1.11
1008.042	-6.71
1008.468	-2.31
1008.893	0.89
1009.318	-1.91
1009.743	-3.71
1010.168	1.49
1010.593	6.09
1011.018	-10.81
1011.443	-0.61
1011.868	4.29
1012.293	0.79
1012.718	-9.01
1013.143	-5.01
1013.567	5.49
1013.992	-4.21
1014.417	-13.51
1014.842	-1.11
1015.267	-5.01
1015.691	-10.81
1016.116	4.09
1016.541	-1.51
1016.965	5.59
1017.39	4.19
1017.814	4.29
1018.239	-0.11
1018.663	-11.41
1019.088	-14.11
1019.512	-4.31
1019.937	1.79
1020.361	-2.11
1020.785	-8.51
1021.21	-3.11
1021.634	-4.11
1022.058	2.59
1022.483	2.99
1022.907	-5.51
1023.331	-7.11
1023.755	-5.51
1024.179	-1.31
1024.604	-6.91
1025.028	-10.31
1025.452	-3.31
1025.876	-4.31
1026.3	1.89
1026.724	-7.11
1027.148	-2.81
1027.572	-5.41
1027.996	-8.11
1028.42	-1.21
1028.843	-4.51
1029.267	-6.31
1029.691	-6.11
1030.115	-9.51
1030.539	-6.91
1030.962	-3.11
1031.386	-10.61
1031.81	-7.01
1032.233	1.69
1032.657	-3.61
1033.08	0.59
1033.504	-5.51
1033.927	-5.61
1034.351	2.19
1034.774	-5.71
1035.198	-5.41
1035.621	-2.61
1036.045	-2.41
1036.468	0.89
1036.891	-13.41
1037.315	-9.41
1037.738	-12.11
1038.161	-1.41
1038.584	0.59
1039.008	-2.51
1039.431	-1.41
1039.854	-9.41
1040.277	-10.31
1040.7	-9.41
1041.123	0.79
1041.546	-13.61
1041.969	-9.71
1042.392	-8.31
1042.815	1.09
1043.238	3.19
1043.661	1.69
1044.084	-5.51
1044.507	-2.81
1044.93	-9.31
1045.352	-7.11
1045.775	-2.21
1046.198	-1.21
1046.621	-4.21
1047.043	-1.41
1047.466	1.79
1047.889	-4.01
1048.311	-9.61
1048.734	-6.71
1049.156	-3.51
1049.579	-0.61
1050.001	-7.91
1050.424	1.49
1050.846	-1.51
1051.269	0.49
1051.691	-12.01
1052.113	-5.41
1052.536	-1.81
1052.958	-5.21
1053.38	-9.71
1053.802	-10.11
1054.225	2.59
1054.647	-13.71
1055.069	-6.31
1055.491	0.89
1055.913	-8.71
1056.335	-1.11
1056.757	-2.01
1057.179	-9.61
1057.601	-7.71
1058.023	-3.11
1058.445	-4.41
1058.867	-6.61
1059.289	-3.51
1059.711	-4.41
1060.133	-5.81
1060.555	-6.51
1060.976	-8.71
1061.398	-12.51
1061.82	-10.81
1062.241	-8.61
1062.663	-4.01
1063.085	-3.51
1063.506	-2.81
1063.928	-2.81
1064.35	-7.51
1064.771	-7.61
1065.193	0.49
1065.614	-7.81
1066.035	0.19
1066.457	0.29
1066.878	-3.01
1067.3	-6.31
1067.721	-3.61
1068.142	-8.21
1068.564	-2.81
1068.985	-8.01
1069.406	-6.31
1069.827	-6.11
1070.248	-1.91
1070.67	-14.41
1071.091	-9.11
1071.512	-9.21
1071.933	-11.81
1072.354	-6.91
1072.775	-7.71
1073.196	-10.01
1073.617	-3.31
1074.038	-11.91
1074.459	-9.11
1074.88	-10.11
1075.3	-2.41
1075.721	-7.31
1076.142	-4.31
1076.563	-0.11
1076.983	-9.31
1077.404	-11.41
1077.825	-7.41
1078.246	-6.81
1078.666	-12.41
1079.087	-5.11
1079.507	-3.41
1079.928	-0.31
1080.348	-7.51
1080.769	-11.81
1081.189	-4.71
1081.61	-2.01
1082.03	-13.21
1082.451	-6.91
1082.871	-3.41
1083.291	-7.91
1083.711	-12.11
1084.132	-6.51
1084.552	-2.81
1084.972	-1.41
1085.392	-14.11
1085.813	-6.61
1086.233	-5.31
1086.653	-5.61
1087.073	-1.11
1087.493	-8.71
1087.913	-1.91
1088.333	-2.01
1088.753	-5.31
1089.173	6.09
1089.593	-3.11
1090.013	3.19
1090.433	-3.71
1090.852	-3.91
1091.272	-6.11
1091.692	0.39
1092.112	-3.31
1092.531	-9.11
1092.951	-14.01
1093.371	-3.81
1093.79	0.69
1094.21	-5.11
1094.63	-9.31
1095.049	-4.71
1095.469	-0.61
1095.888	-1.41
1096.308	1.39
1096.727	-0.71
1097.146	-7.51
1097.566	1.29
1097.985	-9.41
1098.405	-6.01
1098.824	-8.01
1099.243	-6.51
1099.662	-11.01
1100.082	-5.91
1100.501	-0.91
1100.92	-13.41
1101.339	-8.41
1101.758	-8.31
