Data from 20171114-ORNL-Ar_H_NY_Subt18_08-07-26-521.txt Node
Date: Tue Nov 14 08:07:26 EST 2017
User: Ender
Spectrometer: HR+D1039
Trigger mode: 0
Integration Time (sec): 2.730000E-2
Scans to average: 10
Electric dark correction enabled: true
Nonlinearity correction enabled: false
Boxcar width: 0
XAxis mode: Wavelengths
Number of Pixels in Spectrum: 2048
>>>>>Begin Spectral Data<<<<<
187.836	0.13
188.309	0.13
188.782	0.13
189.255	1.63
189.728	-3.37
190.201	0.23
190.674	-1.57
191.147	3.33
191.619	-4.97
192.092	4.03
192.565	7.63
193.038	-2.87
193.511	-1.17
193.984	3.93
194.456	-2.07
194.929	-2.37
195.402	-3.27
195.874	0.73
196.347	-3.67
196.82	-9.87
197.292	4.83
197.765	-1.27
198.237	-12.37
198.71	1.63
199.182	-2.77
199.655	2.13
200.127	-0.47
200.6	-1.77
201.072	-0.87
201.544	-6.07
202.017	-6.17
202.489	1.33
202.961	-0.07
203.433	-4.67
203.906	-0.27
204.378	-3.67
204.85	-6.87
205.322	-9.27
205.794	-4.57
206.266	-4.87
206.739	-14.17
207.211	3.73
207.683	-10.17
208.155	-7.57
208.627	-10.67
209.099	-3.57
209.57	-8.97
210.042	-6.47
210.514	-7.37
210.986	-5.17
211.458	-10.37
211.93	-7.47
212.402	-5.47
212.873	-11.87
213.345	-9.57
213.817	-16.67
214.288	-5.57
214.76	-11.97
215.232	-1.47
215.703	-4.57
216.175	-1.37
216.646	-7.07
217.118	-7.17
217.589	-6.27
218.061	-1.37
218.532	-6.17
219.004	-3.07
219.475	-1.77
219.946	-10.17
220.418	-7.97
220.889	2.73
221.36	1.03
221.832	-2.97
222.303	-9.37
222.774	-0.67
223.245	-9.37
223.717	-9.97
224.188	-6.17
224.659	-11.27
225.13	-12.87
225.601	-4.07
226.072	-2.07
226.543	3.73
227.014	2.33
227.485	-5.47
227.956	-6.67
228.427	-4.77
228.898	-1.67
229.369	-0.47
229.839	-5.07
230.31	-10.07
230.781	0.53
231.252	-4.37
231.722	-5.77
232.193	-4.27
232.664	-4.37
233.135	-3.97
233.605	0.83
234.076	-11.27
234.546	-1.37
235.017	3.23
235.487	-3.27
235.958	-4.67
236.428	-4.47
236.899	-0.17
237.369	1.83
237.84	-2.27
238.31	-3.27
238.78	-2.87
239.251	-3.47
239.721	-3.57
240.191	-0.87
240.662	0.73
241.132	1.23
241.602	-5.57
242.072	-3.57
242.542	2.23
243.013	0.53
243.483	0.73
243.953	2.03
244.423	-3.97
244.893	-10.07
245.363	0.63
245.833	-0.17
246.303	-2.67
246.773	-1.27
247.243	0.13
247.712	-4.27
248.182	1.23
248.652	6.63
249.122	-8.37
249.592	0.93
250.061	14.93
250.531	21.33
251.001	4.13
251.471	12.53
251.94	13.53
252.41	3.23
252.879	-3.87
253.349	7.03
253.818	3.33
254.288	-1.77
254.757	1.03
255.227	-1.47
255.696	-4.57
256.166	-0.17
256.635	-2.07
257.105	2.93
257.574	0.83
258.043	3.33
258.513	2.73
258.982	7.53
259.451	-2.17
259.92	-1.07
260.389	7.43
260.859	8.43
261.328	5.23
261.797	9.73
262.266	7.63
262.735	11.03
263.204	6.23
263.673	-6.77
264.142	-1.57
264.611	-5.37
265.08	1.73
265.549	-7.57
266.018	1.13
266.487	-6.17
266.955	-4.17
267.424	-1.87
267.893	0.83
268.362	-1.37
268.83	0.13
269.299	7.13
269.768	5.33
270.236	2.23
270.705	-5.27
271.174	2.83
271.642	3.33
272.111	6.43
272.579	9.63
273.048	14.53
273.516	15.43
273.985	15.53
274.453	17.03
274.922	10.43
275.39	0.93
275.858	-3.27
276.327	6.43
276.795	9.33
277.263	3.03
277.731	19.53
278.2	37.93
278.668	33.33
279.136	29.53
279.604	9.73
280.072	7.73
280.54	0.83
281.008	5.33
281.477	12.13
281.945	5.43
282.413	5.83
282.881	7.63
283.348	1.13
283.816	4.83
284.284	8.93
284.752	14.43
285.22	8.13
285.688	9.63
286.156	6.73
286.623	33.83
287.091	37.03
287.559	16.83
288.026	6.33
288.494	5.43
288.962	-1.27
289.429	1.93
289.897	11.63
290.364	6.63
290.832	12.93
291.3	5.43
291.767	12.93
292.234	12.63
292.702	9.13
293.169	5.23
293.637	14.63
294.104	9.83
294.571	3.33
295.039	1.73
295.506	8.53
295.973	6.23
296.44	4.23
296.908	12.53
297.375	11.23
297.842	12.63
298.309	8.03
298.776	11.73
299.243	12.73
299.71	5.93
300.177	11.63
300.644	14.83
301.111	8.93
301.578	10.43
302.045	3.63
302.512	16.13
302.979	22.43
303.446	15.73
303.913	15.93
304.379	9.03
304.846	20.83
305.313	18.83
305.78	14.53
306.246	16.43
306.713	13.73
307.18	19.13
307.646	19.63
308.113	16.23
308.579	9.83
309.046	16.43
309.512	17.33
309.979	15.03
310.445	18.63
310.912	18.13
311.378	18.83
311.845	19.33
312.311	21.73
312.777	26.63
313.244	22.63
313.71	26.63
314.176	25.73
314.642	16.93
315.109	20.93
315.575	21.33
316.041	24.53
316.507	16.13
316.973	26.93
317.439	17.83
317.905	21.73
318.371	21.43
318.837	22.13
319.303	29.73
319.769	22.53
320.235	23.33
320.701	26.83
321.167	28.03
321.633	22.53
322.099	27.43
322.564	34.23
323.03	28.63
323.496	22.23
323.962	30.83
324.427	25.33
324.893	29.93
325.359	28.83
325.824	28.83
326.29	25.03
326.755	31.73
327.221	26.13
327.686	29.73
328.152	37.13
328.617	26.63
329.083	35.13
329.548	33.93
330.014	39.03
330.479	36.43
330.944	34.33
331.41	37.43
331.875	40.43
332.34	34.33
332.805	34.63
333.271	35.13
333.736	28.53
334.201	39.73
334.666	43.93
335.131	41.23
335.596	37.63
336.061	34.43
336.526	32.03
336.991	33.43
337.456	45.83
337.921	36.93
338.386	24.73
338.851	31.93
339.316	32.63
339.781	37.43
340.246	44.53
340.711	37.53
341.175	40.53
341.64	29.43
342.105	36.93
342.569	44.53
343.034	41.63
343.499	44.53
343.963	40.33
344.428	47.33
344.893	50.23
345.357	43.53
345.822	53.93
346.286	54.83
346.751	61.53
347.215	48.93
347.679	55.03
348.144	71.33
348.608	60.03
349.073	53.43
349.537	52.13
350.001	61.63
350.465	66.33
350.93	64.23
351.394	66.93
351.858	54.03
352.322	68.93
352.786	66.73
353.25	72.33
353.715	84.73
354.179	81.13
354.643	97.03
355.107	90.73
355.571	81.13
356.035	69.53
356.498	89.23
356.962	96.53
357.426	98.23
357.89	84.63
358.354	72.23
358.818	65.93
359.281	64.83
359.745	57.73
360.209	62.53
360.673	59.43
361.136	59.93
361.6	67.43
362.064	64.23
362.527	67.73
362.991	72.93
363.454	65.33
363.918	56.63
364.381	58.83
364.845	68.73
365.308	70.33
365.772	74.03
366.235	75.43
366.698	61.03
367.162	71.23
367.625	73.33
368.088	73.03
368.552	75.33
369.015	70.53
369.478	76.83
369.941	80.83
370.404	77.43
370.867	84.03
371.331	87.53
371.794	90.33
372.257	96.03
372.72	93.33
373.183	92.43
373.646	87.63
374.109	83.33
374.572	90.83
375.035	87.83
375.497	91.43
375.96	94.93
376.423	85.13
376.886	94.33
377.349	96.63
377.811	83.23
378.274	91.63
378.737	88.03
379.199	95.93
379.662	97.23
380.125	101.13
380.587	102.43
381.05	103.83
381.512	115.23
381.975	114.23
382.437	107.53
382.9	108.03
383.362	116.13
383.825	124.23
384.287	121.63
384.75	116.13
385.212	120.13
385.674	117.83
386.136	113.13
386.599	109.83
387.061	112.83
387.523	114.63
387.985	121.33
388.447	129.13
388.91	132.03
389.372	137.03
389.834	132.53
390.296	126.93
390.758	132.83
391.22	139.03
391.682	185.03
392.144	258.43
392.606	201.93
393.068	141.73
393.529	146.63
393.991	129.33
394.453	125.13
394.915	137.63
395.377	167.33
395.838	181.73
396.3	139.73
396.762	125.33
397.224	118.03
397.685	108.33
398.147	115.53
398.608	117.33
399.07	119.33
399.531	120.63
399.993	119.13
400.454	139.43
400.916	130.03
401.377	130.33
401.839	133.43
402.3	131.43
402.762	140.73
403.223	157.63
403.684	150.93
404.145	147.13
404.607	144.53
405.068	145.33
405.529	151.33
405.99	165.53
406.451	153.73
406.913	153.23
407.374	145.33
407.835	144.53
408.296	153.43
408.757	152.53
409.218	162.43
409.679	164.73
410.14	162.23
410.601	160.93
411.062	160.63
411.522	176.73
411.983	160.33
412.444	156.43
412.905	160.93
413.366	167.43
413.826	175.43
414.287	197.43
414.748	233.33
415.208	226.03
415.669	189.73
416.13	183.33
416.59	188.33
417.051	196.83
417.511	203.83
417.972	214.13
418.432	234.13
418.893	265.83
419.353	227.13
419.814	177.93
420.274	169.73
420.734	165.73
421.195	183.03
421.655	178.63
422.115	170.53
422.576	174.63
423.036	177.83
423.496	194.43
423.956	198.63
424.416	213.13
424.876	244.63
425.336	240.43
425.797	240.23
426.257	230.43
426.717	222.03
427.177	209.03
427.637	202.23
428.097	213.53
428.556	223.13
429.016	248.83
429.476	235.23
429.936	256.23
430.396	254.73
430.856	270.13
431.315	285.73
431.775	313.13
432.235	352.93
432.694	324.33
433.154	340.43
433.614	359.13
434.073	305.03
434.533	264.83
434.993	245.23
435.452	258.23
435.912	261.03
436.371	260.73
436.83	258.83
437.29	245.93
437.749	231.93
438.209	224.63
438.668	247.43
439.127	259.93
439.587	240.13
440.046	224.03
440.505	237.43
440.964	250.63
441.424	289.03
441.883	286.53
442.342	242.33
442.801	212.93
443.26	203.13
443.719	203.33
444.178	199.83
444.637	193.43
445.096	206.33
445.555	212.33
446.014	202.23
446.473	212.93
446.932	214.33
447.391	213.23
447.849	210.73
448.308	197.43
448.767	212.13
449.226	218.33
449.685	216.43
450.143	236.43
450.602	222.53
451.061	209.83
451.519	221.33
451.978	216.93
452.436	221.93
452.895	220.63
453.353	228.53
453.812	224.63
454.27	223.83
454.729	217.23
455.187	223.53
455.646	226.33
456.104	234.43
456.562	245.13
457.021	250.23
457.479	240.13
457.937	250.73
458.395	240.43
458.854	231.33
459.312	234.03
459.77	257.53
460.228	237.23
460.686	231.43
461.144	237.23
461.602	226.23
462.06	224.03
462.518	228.03
462.976	235.93
463.434	242.53
463.892	248.23
464.35	253.43
464.808	272.13
465.266	248.23
465.724	252.13
466.181	259.53
466.639	255.13
467.097	276.73
467.555	281.33
468.012	282.83
468.47	292.33
468.928	310.13
469.385	317.23
469.843	329.93
470.3	321.33
470.758	337.53
471.215	363.83
471.673	368.73
472.13	388.53
472.588	395.63
473.045	358.13
473.503	362.13
473.96	372.63
474.417	383.23
474.875	409.93
475.332	444.93
475.789	436.03
476.246	441.93
476.704	457.73
477.161	476.73
477.618	486.53
478.075	530.13
478.532	577.53
478.989	652.73
479.446	758.43
479.903	721.43
480.36	759.63
480.817	801.23
481.274	914.13
481.731	1018.03
482.188	1092.63
482.645	1237.93
483.102	1338.63
483.558	1460.83
484.015	1511.93
484.472	1485.13
484.929	1440.53
485.385	1403.63
485.842	1353.33
486.299	1273.93
486.755	1216.73
487.212	1026.93
487.668	874.93
488.125	803.33
488.582	743.13
489.038	708.73
489.494	675.23
489.951	642.73
490.407	626.23
490.864	610.03
491.32	612.03
491.776	602.73
492.233	607.73
492.689	577.23
493.145	574.93
493.602	565.53
494.058	581.83
494.514	590.23
494.97	598.73
495.426	606.03
495.882	589.23
496.338	583.43
496.794	597.73
497.251	579.13
497.707	598.73
498.163	605.63
498.618	606.03
499.074	610.53
499.53	627.03
499.986	641.83
500.442	612.73
500.898	596.83
501.354	594.33
501.809	609.63
502.265	618.33
502.721	627.73
503.177	632.43
503.632	626.53
504.088	636.63
504.543	676.53
504.999	673.23
505.455	627.43
505.91	607.53
506.366	603.73
506.821	596.23
507.277	588.33
507.732	586.83
508.187	593.93
508.643	604.03
509.098	607.33
509.553	622.53
510.009	631.03
510.464	634.83
510.919	660.33
511.375	654.63
511.83	671.03
512.285	685.73
512.74	727.03
513.195	748.43
513.65	732.93
514.105	724.93
514.56	726.53
515.015	759.13
515.47	780.83
515.925	750.33
516.38	750.03
516.835	760.13
517.29	751.63
517.745	742.93
518.2	733.73
518.655	717.63
519.109	717.53
519.564	714.53
520.019	701.13
520.474	687.43
520.928	691.03
521.383	689.23
521.838	683.03
522.292	687.63
522.747	672.23
523.201	671.43
523.656	667.73
524.11	667.63
524.565	667.43
525.019	661.53
525.474	670.43
525.928	671.03
526.382	660.13
526.837	666.13
527.291	672.33
527.745	665.33
528.2	667.23
528.654	661.43
529.108	662.73
529.562	666.63
530.016	660.63
530.47	664.33
530.925	666.83
531.379	663.33
531.833	676.13
532.287	669.13
532.741	670.63
533.195	674.83
533.649	674.73
534.103	699.43
534.556	675.73
535.01	680.73
535.464	680.93
535.918	686.63
536.372	698.93
536.826	684.53
537.279	663.93
537.733	680.03
538.187	683.23
538.64	686.63
539.094	696.83
539.548	709.03
540.001	703.23
540.455	693.93
540.908	710.33
541.362	711.53
541.815	725.33
542.269	734.13
542.722	730.93
543.175	741.83
543.629	746.13
544.082	757.43
544.536	756.93
544.989	756.73
545.442	763.93
545.895	766.63
546.349	762.03
546.802	762.63
547.255	771.73
547.708	769.93
548.161	789.03
548.614	796.53
549.067	798.43
549.52	787.73
549.973	779.83
550.426	773.33
550.879	764.23
551.332	775.43
551.785	772.83
552.238	784.63
552.691	788.93
553.144	794.53
553.596	818.73
554.049	831.13
554.502	862.33
554.955	869.83
555.407	874.33
555.86	863.63
556.313	861.83
556.765	844.23
557.218	855.53
557.67	852.03
558.123	851.53
558.576	845.53
559.028	852.93
559.48	845.93
559.933	835.83
560.385	805.73
560.838	772.93
561.29	760.23
561.742	756.23
562.195	746.03
562.647	732.73
563.099	745.23
563.551	754.13
564.004	762.13
564.456	744.03
564.908	726.33
565.36	726.23
565.812	710.73
566.264	693.33
566.716	702.53
567.168	689.83
567.62	697.13
568.072	684.33
568.524	668.83
568.976	666.13
569.428	660.43
569.88	655.93
570.332	663.93
570.784	663.93
571.235	659.53
571.687	683.13
572.139	674.43
572.59	682.63
573.042	680.63
573.494	679.73
573.945	679.83
574.397	658.93
574.849	656.03
575.3	670.53
575.752	663.33
576.203	661.13
576.655	660.03
577.106	644.23
577.557	642.73
578.009	649.33
578.46	641.43
578.912	644.83
579.363	640.43
579.814	647.73
580.265	635.13
580.717	637.83
581.168	655.33
581.619	657.43
582.07	659.03
582.521	664.93
582.972	649.13
583.423	649.73
583.875	656.43
584.326	673.63
584.777	714.33
585.227	794.23
585.678	874.03
586.129	947.33
586.58	1006.43
587.031	1085.43
587.482	1212.93
587.933	1381.93
588.384	1214.63
588.834	923.03
589.285	783.43
589.736	764.03
590.186	745.93
590.637	743.33
591.088	720.13
591.538	725.23
591.989	709.83
592.439	705.53
592.89	692.73
593.34	687.63
593.791	688.53
594.241	690.93
594.692	681.83
595.142	676.33
595.593	680.73
596.043	683.03
596.493	686.63
596.943	686.03
597.394	700.43
597.844	692.13
598.294	704.73
598.744	731.43
599.195	760.33
599.645	789.63
600.095	833.83
600.545	884.23
600.995	943.73
601.445	1004.93
601.895	1051.03
602.345	1101.03
602.795	1081.63
603.245	1032.13
603.695	974.73
604.145	928.13
604.594	880.83
605.044	817.53
605.494	768.53
605.944	732.93
606.393	716.43
606.843	707.03
607.293	708.43
607.743	700.83
608.192	723.13
608.642	735.43
609.091	753.33
609.541	752.83
609.99	739.73
610.44	746.33
610.889	693.63
611.339	679.03
611.788	669.43
612.238	675.33
612.687	698.73
613.136	698.93
613.586	711.33
614.035	716.53
614.484	729.73
614.933	734.53
615.383	736.33
615.832	718.63
616.281	705.53
616.73	677.43
617.179	645.63
617.628	638.93
618.077	612.53
618.526	598.63
618.975	597.93
619.424	601.13
619.873	586.53
620.322	600.53
620.771	585.13
621.22	588.43
621.669	569.93
622.118	569.33
622.567	564.33
623.015	550.73
623.464	550.23
623.913	539.03
624.361	535.43
624.81	536.03
625.259	537.83
625.707	546.63
626.156	549.93
626.604	556.73
627.053	542.93
627.501	535.03
627.95	545.73
628.398	558.93
628.847	549.63
629.295	548.93
629.744	556.43
630.192	548.53
630.64	548.43
631.089	545.73
631.537	551.83
631.985	560.73
632.433	569.13
632.881	573.83
633.33	618.53
633.778	610.43
634.226	543.23
634.674	549.03
635.122	552.63
635.57	572.53
636.018	598.93
636.466	552.23
636.914	545.23
637.362	558.53
637.81	561.13
638.258	563.43
638.705	561.93
639.153	599.53
639.601	601.33
640.049	626.13
640.497	660.83
640.944	669.43
641.392	629.83
641.84	586.43
642.287	570.43
642.735	557.43
643.182	562.13
643.63	558.03
644.078	553.13
644.525	564.83
644.973	577.53
645.42	589.43
645.867	609.53
646.315	620.63
646.762	647.03
647.21	662.73
647.657	692.03
648.104	727.83
648.551	745.53
648.999	806.93
649.446	882.23
649.893	975.63
650.34	1130.63
650.787	1347.33
651.234	1693.33
651.682	2187.73
652.129	3022.13
652.576	4369.03
653.023	6439.63
653.47	8814.23
653.917	10995.63
654.363	12632.33
654.81	13963.23
655.257	13264.33
655.704	8651.83
656.151	5074.13
656.598	3294.83
657.044	2333.93
657.491	1801.83
657.938	1440.23
658.385	1199.33
658.831	1040.63
659.278	931.83
659.724	828.13
660.171	758.33
660.618	703.43
661.064	661.43
661.511	647.73
661.957	636.43
662.404	635.63
662.85	639.83
663.296	608.33
663.743	547.83
664.189	527.93
664.635	527.63
665.082	503.93
665.528	512.13
665.974	500.13
666.42	494.03
666.867	487.13
667.313	476.53
667.759	463.13
668.205	459.13
668.651	474.93
669.097	467.73
669.543	479.03
669.989	449.93
670.435	433.33
670.881	430.13
671.327	435.53
671.773	452.13
672.219	474.33
672.665	533.63
673.11	564.03
673.556	612.33
674.002	658.43
674.448	641.53
674.893	532.43
675.339	459.23
675.785	422.33
676.23	405.23
676.676	373.73
677.122	371.03
677.567	366.43
678.013	355.23
678.458	351.93
678.904	348.03
679.349	339.93
679.794	346.53
680.24	339.33
680.685	340.43
681.131	336.13
681.576	340.93
682.021	344.53
682.466	342.53
682.912	339.43
683.357	339.43
683.802	374.13
684.247	399.43
684.692	439.33
685.137	475.93
685.583	518.83
686.028	542.53
686.473	501.23
686.918	434.43
687.363	400.33
687.807	381.23
688.252	360.83
688.697	344.03
689.142	331.53
689.587	322.93
690.032	314.93
690.477	333.73
690.921	341.73
691.366	378.73
691.811	394.43
692.255	416.63
692.7	450.73
693.145	494.43
693.589	695.53
694.034	1112.63
694.478	1505.83
694.923	1699.33
695.367	2218.33
695.812	1175.43
696.256	477.53
696.701	353.43
697.145	334.53
697.59	318.93
698.034	315.13
698.478	322.83
698.922	321.63
699.367	314.33
699.811	334.03
700.255	351.13
700.699	380.33
701.143	413.73
701.588	463.03
702.032	499.93
702.476	505.63
702.92	477.53
703.364	484.43
703.808	627.03
704.252	1027.13
704.696	1439.03
705.14	1635.63
705.584	2076.73
706.027	1039.73
706.471	506.53
706.915	390.23
707.359	339.83
707.803	308.33
708.246	301.03
708.69	308.03
709.134	298.13
709.577	294.93
710.021	307.83
710.465	302.73
710.908	290.93
711.352	288.83
711.795	304.73
712.239	343.13
712.682	378.23
713.126	402.63
713.569	460.53
714.012	361.33
714.456	322.43
714.899	290.33
715.342	269.13
715.786	253.83
716.229	252.23
716.672	248.33
717.115	240.73
717.558	248.43
718.002	244.93
718.445	262.43
718.888	274.13
719.331	295.43
719.774	295.73
720.217	292.63
720.66	280.03
721.103	258.73
721.546	242.73
721.989	241.13
722.432	224.83
722.874	228.03
723.317	226.43
723.76	232.53
724.203	263.53
724.645	305.73
725.088	442.43
725.531	563.03
725.974	629.33
726.416	542.53
726.859	299.73
727.301	241.23
727.744	236.33
728.187	226.93
728.629	235.13
729.071	231.53
729.514	251.53
729.956	269.03
730.399	276.23
730.841	276.23
731.283	268.73
731.726	255.73
732.168	251.53
732.61	258.23
733.053	283.83
733.495	309.83
733.937	335.63
734.379	390.23
734.821	427.23
735.263	543.73
735.705	839.13
736.148	1569.43
736.59	2553.33
737.032	2981.13
737.474	2422.63
737.916	788.03
738.357	420.13
738.799	317.23
739.241	288.53
739.683	277.43
740.125	284.43
740.567	287.73
741.008	303.13
741.45	305.63
741.892	310.53
742.334	334.93
742.775	340.43
743.217	332.33
743.658	261.63
744.1	246.43
744.542	255.73
744.983	304.53
745.425	331.33
745.866	327.23
746.307	274.33
746.749	272.73
747.19	321.53
747.632	446.73
748.073	886.63
748.514	1852.53
748.956	2796.73
749.397	3511.23
749.838	2915.43
750.279	2883.13
750.72	1457.03
751.162	537.03
751.603	309.73
752.044	241.53
752.485	212.63
752.926	204.53
753.367	199.13
753.808	191.03
754.249	182.63
754.69	178.53
755.131	172.33
755.572	178.83
756.013	178.03
756.453	180.33
756.894	183.63
757.335	189.43
757.776	192.63
758.216	192.53
758.657	194.43
759.098	200.23
759.538	213.43
759.979	255.23
760.42	361.93
760.86	708.73
761.301	1832.93
761.741	4408.43
762.182	6276.03
762.622	4392.13
763.063	1290.33
763.503	531.73
763.943	344.83
764.384	324.83
764.824	375.13
765.264	393.93
765.705	273.63
766.145	198.23
766.585	176.33
767.025	172.13
767.465	177.93
767.906	230.83
768.346	285.33
768.786	311.63
769.226	250.23
769.666	313.83
770.106	622.73
770.546	1553.73
770.986	2578.43
771.426	2297.23
771.866	768.73
772.306	322.33
772.745	205.13
773.185	168.03
773.625	167.23
774.065	164.63
774.505	185.53
774.944	297.73
775.384	646.93
775.824	1164.93
776.263	1116.53
776.703	481.73
777.142	211.53
777.582	152.63
778.021	132.43
778.461	132.43
778.9	132.53
779.34	129.93
779.779	113.23
780.219	105.73
780.658	104.63
781.097	105.03
781.537	114.33
781.976	103.93
782.415	102.73
782.855	101.23
783.294	103.43
783.733	102.23
784.172	109.43
784.611	99.03
785.05	105.93
785.489	109.43
785.928	112.93
786.367	113.13
786.806	112.73
787.245	125.33
787.684	138.23
788.123	141.03
788.562	131.13
789.001	118.93
789.44	115.83
789.879	115.53
790.317	113.33
790.756	125.63
791.195	125.03
791.634	140.83
792.072	196.63
792.511	360.83
792.95	1005.13
793.388	2100.93
793.827	1881.13
794.265	652.03
794.704	272.53
795.142	178.33
795.581	155.73
796.019	131.83
796.458	126.63
796.896	117.03
797.334	128.63
797.773	148.73
798.211	210.13
798.649	436.73
799.087	1011.93
799.526	1579.13
799.964	1981.33
800.402	1961.03
800.84	741.43
801.278	306.13
801.716	181.83
802.154	153.33
802.592	143.43
803.03	133.03
803.468	131.33
803.906	143.53
804.344	145.33
804.782	139.93
805.22	128.53
805.658	128.63
806.096	151.73
806.533	153.33
806.971	166.73
807.409	213.33
807.847	312.53
808.284	657.43
808.722	1857.83
809.16	3241.13
809.597	3096.03
810.035	5362.53
810.472	5610.33
810.91	2029.03
811.347	776.43
811.785	390.33
812.222	249.13
812.66	195.73
813.097	158.63
813.535	141.03
813.972	125.53
814.409	122.03
814.846	107.43
815.284	115.43
815.721	101.03
816.158	100.23
816.595	120.43
817.032	170.83
817.47	196.73
817.907	152.83
818.344	144.93
818.781	117.03
819.218	97.53
819.655	119.93
820.092	183.13
820.529	197.63
820.966	164.33
821.403	133.63
821.839	103.03
822.276	97.73
822.713	120.03
823.15	128.53
823.587	117.43
824.023	148.43
824.46	298.33
824.897	894.03
825.333	1328.53
825.77	567.53
826.206	221.03
826.643	136.13
827.08	96.43
827.516	76.73
827.953	72.83
828.389	80.13
828.825	66.53
829.262	68.03
829.698	60.73
830.135	60.83
830.571	57.43
831.007	66.93
831.443	62.73
831.88	65.63
832.316	63.73
832.752	58.93
833.188	59.53
833.624	62.83
834.06	63.93
834.497	66.33
834.933	70.73
835.369	77.53
835.805	70.43
836.241	73.33
836.677	81.33
837.112	88.83
837.548	104.23
837.984	127.93
838.42	199.43
838.856	498.03
839.292	1512.23
839.727	2266.93
840.163	1048.83
840.599	927.53
841.034	2010.13
841.47	2057.93
841.906	755.43
842.341	329.73
842.777	221.93
843.212	312.23
843.648	295.73
844.083	146.93
844.519	94.83
844.954	70.53
845.39	58.03
845.825	60.23
846.261	57.93
846.696	55.73
847.131	56.33
847.566	53.23
848.002	47.03
848.437	48.43
848.872	54.13
849.307	55.63
849.742	79.73
850.177	190.43
850.613	549.93
851.048	855.73
851.483	376.63
851.918	147.23
852.353	85.73
852.788	62.53
853.223	51.03
853.657	51.73
854.092	46.03
854.527	33.63
854.962	39.13
855.397	48.13
855.832	47.73
856.266	38.23
856.701	33.53
857.136	35.43
857.57	35.53
858.005	49.23
858.44	56.23
858.874	41.53
859.309	49.83
859.743	39.13
860.178	47.73
860.612	40.03
861.047	54.13
861.481	64.43
861.915	72.23
862.35	52.13
862.784	31.83
863.218	37.33
863.653	35.33
864.087	48.43
864.521	52.73
864.955	66.73
865.39	155.63
865.824	170.63
866.258	112.73
866.692	160.93
867.126	165.93
867.56	104.33
867.994	54.43
868.428	33.63
868.862	39.83
869.296	51.13
869.73	58.23
870.164	48.13
870.598	47.83
871.031	33.63
871.465	29.73
871.899	32.83
872.333	24.63
872.766	22.43
873.2	21.33
873.634	29.33
874.067	26.03
874.501	24.13
874.935	37.73
875.368	28.43
875.802	29.13
876.235	21.63
876.669	23.93
877.102	22.23
877.535	25.73
877.969	21.63
878.402	27.93
878.836	14.03
879.269	21.73
879.702	18.03
880.135	21.43
880.569	22.73
881.002	26.43
881.435	17.43
881.868	12.53
882.301	20.23
882.734	18.83
883.167	22.13
883.601	19.63
884.034	15.73
884.467	9.83
884.899	15.13
885.332	16.53
885.765	13.93
886.198	17.63
886.631	18.83
887.064	17.93
887.497	18.23
887.929	25.23
888.362	9.93
888.795	9.13
889.228	20.43
889.66	20.73
890.093	18.13
890.526	15.03
890.958	14.63
891.391	14.83
891.823	16.93
892.256	17.53
892.688	13.03
893.121	12.53
893.553	14.13
893.985	20.93
894.418	14.53
894.85	15.03
895.282	14.73
895.715	15.43
896.147	15.33
896.579	14.93
897.011	16.63
897.444	14.13
897.876	10.43
898.308	17.43
898.74	14.23
899.172	13.03
899.604	24.83
900.036	12.23
900.468	13.43
900.9	13.83
901.332	17.73
901.764	6.33
902.196	17.03
902.628	16.13
903.06	15.83
903.491	27.83
903.923	17.43
904.355	21.23
904.787	20.33
905.218	23.93
905.65	19.13
906.082	13.33
906.513	10.83
906.945	15.13
907.376	20.03
907.808	20.03
908.239	20.93
908.671	19.93
909.102	15.83
909.534	19.23
909.965	43.73
910.397	100.53
910.828	317.43
911.259	463.53
911.691	210.63
912.122	105.93
912.553	47.93
912.984	33.73
913.415	23.83
913.847	26.33
914.278	17.33
914.709	14.53
915.14	21.53
915.571	16.73
916.002	12.33
916.433	19.03
916.864	11.83
917.295	12.33
917.726	19.63
918.157	13.03
918.587	27.03
919.018	20.93
919.449	21.03
919.88	24.03
920.311	30.13
920.741	42.43
921.172	163.23
921.603	143.93
922.033	74.13
922.464	43.53
922.895	22.83
923.325	20.83
923.756	16.43
924.186	17.23
924.617	20.13
925.047	40.03
925.478	52.83
925.908	44.23
926.338	26.93
926.769	21.63
927.199	13.83
927.629	9.23
928.06	12.93
928.49	13.73
928.92	13.23
929.35	14.33
929.78	9.53
930.21	9.13
930.641	11.53
931.071	1.43
931.501	5.63
931.931	11.83
932.361	8.53
932.791	0.83
933.221	0.33
933.651	10.03
934.08	18.23
934.51	30.43
934.94	7.93
935.37	8.53
935.8	9.63
936.229	3.83
936.659	10.63
937.089	2.63
937.519	17.63
937.948	24.43
938.378	17.63
938.807	7.93
939.237	3.63
939.666	11.13
940.096	-3.37
940.525	4.53
940.955	-0.37
941.384	-1.87
941.814	-1.77
942.243	3.73
942.672	5.53
943.102	3.33
943.531	4.23
943.96	0.83
944.39	1.13
944.819	3.83
945.248	2.63
945.677	-2.47
946.106	6.63
946.535	2.63
946.964	-5.97
947.393	2.43
947.822	2.83
948.251	-6.07
948.68	3.23
949.109	3.53
949.538	1.03
949.967	4.93
950.396	-1.77
950.825	1.53
951.254	-1.47
951.682	-5.97
952.111	4.13
952.54	2.83
952.969	-3.97
953.397	-4.47
953.826	1.43
954.254	-9.77
954.683	-4.17
955.112	-2.47
955.54	4.93
955.969	-1.47
956.397	1.03
956.826	-6.27
957.254	4.33
957.682	3.93
958.111	2.23
958.539	-0.47
958.967	1.83
959.396	-2.77
959.824	1.23
960.252	-0.47
960.68	-5.27
961.109	-5.07
961.537	-8.37
961.965	-1.27
962.393	3.13
962.821	-4.87
963.249	1.03
963.677	8.33
964.105	5.83
964.533	45.03
964.961	39.93
965.389	18.73
965.817	7.93
966.245	0.53
966.672	3.03
967.1	-8.57
967.528	1.43
967.956	-3.87
968.383	0.93
968.811	-3.77
969.239	-2.07
969.666	-4.47
970.094	5.63
970.522	0.93
970.949	0.83
971.377	-6.87
971.804	-6.47
972.232	-0.77
972.659	-0.17
973.087	-0.77
973.514	-3.37
973.941	-8.87
974.369	-2.77
974.796	-3.67
975.223	-4.27
975.651	-1.87
976.078	3.73
976.505	-0.97
976.932	3.23
977.359	12.83
977.786	18.53
978.214	0.23
978.641	-3.87
979.068	-5.07
979.495	-11.47
979.922	-5.07
980.349	0.03
980.776	0.63
981.202	-1.97
981.629	4.83
982.056	3.23
982.483	-4.07
982.91	-2.67
983.337	-8.67
983.763	-1.87
984.19	-2.77
984.617	-5.27
985.043	-3.17
985.47	0.33
985.897	-4.87
986.323	-14.27
986.75	2.33
987.176	1.03
987.603	1.43
988.029	-3.77
988.456	-2.47
988.882	-1.37
989.308	-4.77
989.735	-8.17
990.161	-6.97
990.587	-4.77
991.014	-0.57
991.44	7.23
991.866	-4.17
992.292	-4.07
992.719	-2.87
993.145	1.53
993.571	-9.37
993.997	-3.87
994.423	1.23
994.849	-7.97
995.275	-0.57
995.701	-6.57
996.127	-3.27
996.553	-1.87
996.979	-5.17
997.405	-2.57
997.83	-0.97
998.256	-3.07
998.682	-8.57
999.108	-9.07
999.534	-5.07
999.959	-1.27
1000.385	-0.77
1000.811	1.03
1001.236	-9.97
1001.662	-12.97
1002.087	-3.77
1002.513	0.73
1002.938	1.33
1003.364	-13.37
1003.789	-0.77
1004.215	-1.57
1004.64	-1.47
1005.066	-0.27
1005.491	-4.97
1005.916	-2.17
1006.342	-5.97
1006.767	-4.47
1007.192	0.93
1007.617	-2.57
1008.042	-3.57
1008.468	-0.77
1008.893	2.03
1009.318	-2.97
1009.743	-3.67
1010.168	5.93
1010.593	1.73
1011.018	-9.67
1011.443	-3.37
1011.868	3.23
1012.293	-7.07
1012.718	-1.57
1013.143	-0.37
1013.567	2.43
1013.992	-5.27
1014.417	-18.37
1014.842	-0.57
1015.267	-1.47
1015.691	-5.57
1016.116	0.83
1016.541	1.23
1016.965	-4.57
1017.39	-1.77
1017.814	4.13
1018.239	-0.87
1018.663	-4.87
1019.088	-8.77
1019.512	-6.37
1019.937	-2.47
1020.361	-6.07
1020.785	-5.17
1021.21	-0.27
1021.634	-0.97
1022.058	-2.77
1022.483	2.13
1022.907	-5.37
1023.331	-8.27
1023.755	-3.07
1024.179	1.03
1024.604	-9.77
1025.028	-5.07
1025.452	-2.37
1025.876	-1.67
1026.3	-0.37
1026.724	-3.77
1027.148	-2.47
1027.572	-12.17
1027.996	-4.17
1028.42	1.03
1028.843	-5.07
1029.267	-8.37
1029.691	-1.37
1030.115	-5.07
1030.539	-4.37
1030.962	-3.37
1031.386	-8.87
1031.81	-0.97
1032.233	-0.17
1032.657	-3.27
1033.08	5.73
1033.504	2.53
1033.927	0.03
1034.351	0.23
1034.774	-8.97
1035.198	1.53
1035.621	-4.87
1036.045	-1.07
1036.468	0.23
1036.891	-14.37
1037.315	-10.37
1037.738	-7.97
1038.161	3.83
1038.584	-6.07
1039.008	0.23
1039.431	-5.07
1039.854	-3.07
1040.277	-6.97
1040.7	-8.47
1041.123	-0.57
1041.546	-5.67
1041.969	-5.37
1042.392	-3.87
1042.815	0.53
1043.238	-0.67
1043.661	-5.27
1044.084	-4.87
1044.507	-4.37
1044.93	-4.27
1045.352	-4.67
1045.775	-1.47
1046.198	-1.07
1046.621	-6.37
1047.043	-5.07
1047.466	4.93
1047.889	-4.77
1048.311	1.93
1048.734	-5.57
1049.156	-5.57
1049.579	-1.97
1050.001	-5.07
1050.424	-2.67
1050.846	-0.37
1051.269	-3.67
1051.691	-10.47
1052.113	-7.27
1052.536	-8.37
1052.958	-4.57
1053.38	-3.17
1053.802	-11.17
1054.225	2.33
1054.647	-12.07
1055.069	-1.17
1055.491	-1.87
1055.913	-6.87
1056.335	-2.27
1056.757	-8.17
1057.179	-5.97
1057.601	-1.27
1058.023	2.43
1058.445	-9.57
1058.867	-1.97
1059.289	0.03
1059.711	-8.37
1060.133	-6.07
1060.555	-9.97
1060.976	-7.97
1061.398	-4.97
1061.82	-6.17
1062.241	-5.27
1062.663	-6.77
1063.085	-6.07
1063.506	-0.57
1063.928	-3.17
1064.35	-0.87
1064.771	-11.57
1065.193	-8.57
1065.614	-7.07
1066.035	-0.77
1066.457	-6.77
1066.878	2.83
1067.3	-7.87
1067.721	-1.97
1068.142	-4.47
1068.564	0.33
1068.985	-5.57
1069.406	-3.37
1069.827	-2.87
1070.248	3.03
1070.67	-6.07
1071.091	-5.27
1071.512	-5.67
1071.933	-8.37
1072.354	-11.57
1072.775	-9.17
1073.196	-5.97
1073.617	0.63
1074.038	-5.87
1074.459	-7.07
1074.88	-4.37
1075.3	-4.47
1075.721	-5.37
1076.142	0.93
1076.563	-4.17
1076.983	-12.57
1077.404	-6.87
1077.825	-2.87
1078.246	-8.07
1078.666	-14.37
1079.087	-2.17
1079.507	-10.37
1079.928	-2.47
1080.348	-2.27
1080.769	-8.77
1081.189	-6.27
1081.61	-6.97
1082.03	-7.37
1082.451	-4.27
1082.871	-5.47
1083.291	-6.17
1083.711	-5.57
1084.132	-5.67
1084.552	-2.27
1084.972	0.03
1085.392	-16.37
1085.813	-8.67
1086.233	-14.67
1086.653	-9.67
1087.073	-3.07
1087.493	-6.67
1087.913	-4.67
1088.333	-6.57
1088.753	-6.57
1089.173	-1.27
1089.593	-7.97
1090.013	4.63
1090.433	0.83
1090.852	-6.67
1091.272	-1.27
1091.692	0.73
1092.112	-5.97
1092.531	-6.97
1092.951	-20.37
1093.371	-8.97
1093.79	2.53
1094.21	-8.27
1094.63	-6.97
1095.049	-5.47
1095.469	-7.07
1095.888	-9.17
1096.308	2.83
1096.727	3.53
1097.146	-7.47
1097.566	-0.27
1097.985	-5.87
1098.405	-0.87
1098.824	-2.87
1099.243	-6.57
1099.662	-10.57
1100.082	-6.07
1100.501	-0.67
1100.92	-12.27
1101.339	-6.97
1101.758	-10.27
