Data from 20171114-ORNL-Ar_H_NY_Subt18_08-06-17-458.txt Node
Date: Tue Nov 14 08:06:17 EST 2017
User: Ender
Spectrometer: HR+D1039
Trigger mode: 0
Integration Time (sec): 2.730000E-2
Scans to average: 10
Electric dark correction enabled: true
Nonlinearity correction enabled: false
Boxcar width: 0
XAxis mode: Wavelengths
Number of Pixels in Spectrum: 2048
>>>>>Begin Spectral Data<<<<<
187.836	-6.91
188.309	-6.91
188.782	-6.91
189.255	2.89
189.728	-1.81
190.201	8.39
190.674	2.49
191.147	0.39
191.619	-3.11
192.092	2.39
192.565	5.49
193.038	-5.21
193.511	0.19
193.984	-3.71
194.456	-5.01
194.929	2.49
195.402	5.19
195.874	-4.21
196.347	0.79
196.82	-3.31
197.292	5.89
197.765	-0.01
198.237	-2.91
198.71	1.99
199.182	-2.41
199.655	1.49
200.127	3.89
200.6	-3.71
201.072	-4.01
201.544	-7.01
202.017	-1.11
202.489	3.29
202.961	-3.71
203.433	-3.11
203.906	-1.71
204.378	-6.01
204.85	-3.31
205.322	-8.31
205.794	-2.01
206.266	-1.31
206.739	-6.71
207.211	7.69
207.683	-0.51
208.155	-5.51
208.627	-2.11
209.099	-4.21
209.57	-1.61
210.042	-2.61
210.514	-1.41
210.986	-2.01
211.458	-9.11
211.93	-2.91
212.402	3.39
212.873	-8.11
213.345	-15.61
213.817	-7.51
214.288	-4.81
214.76	-14.61
215.232	-3.41
215.703	-1.41
216.175	-4.01
216.646	0.49
217.118	-3.61
217.589	-2.01
218.061	-2.11
218.532	-6.51
219.004	-3.41
219.475	-3.81
219.946	-5.51
220.418	-6.81
220.889	1.09
221.36	-1.81
221.832	-2.31
222.303	-9.71
222.774	-0.61
223.245	-7.01
223.717	-4.31
224.188	-0.01
224.659	-10.31
225.13	-8.41
225.601	1.89
226.072	0.99
226.543	2.89
227.014	-0.41
227.485	-0.31
227.956	-3.91
228.427	-0.01
228.898	0.89
229.369	7.29
229.839	-5.31
230.31	-7.01
230.781	0.69
231.252	-0.11
231.722	1.29
232.193	-0.61
232.664	0.99
233.135	1.39
233.605	0.29
234.076	-2.61
234.546	4.19
235.017	9.89
235.487	5.49
235.958	-1.31
236.428	-5.21
236.899	6.59
237.369	4.29
237.84	0.59
238.31	7.59
238.78	6.59
239.251	4.99
239.721	-2.91
240.191	1.19
240.662	-1.71
241.132	3.99
241.602	3.59
242.072	2.79
242.542	5.39
243.013	-1.11
243.483	11.69
243.953	7.09
244.423	5.59
244.893	-5.01
245.363	7.89
245.833	5.49
246.303	-0.61
246.773	8.99
247.243	1.09
247.712	9.89
248.182	10.29
248.652	3.89
249.122	-1.31
249.592	11.99
250.061	19.29
250.531	30.39
251.001	17.79
251.471	18.99
251.94	17.59
252.41	7.99
252.879	4.39
253.349	10.59
253.818	13.49
254.288	9.79
254.757	6.39
255.227	1.89
255.696	2.09
256.166	8.39
256.635	14.19
257.105	9.99
257.574	7.19
258.043	12.89
258.513	11.09
258.982	16.99
259.451	11.89
259.92	15.49
260.389	14.09
260.859	16.79
261.328	14.39
261.797	17.39
262.266	7.29
262.735	6.09
263.204	10.89
263.673	0.89
264.142	4.69
264.611	0.09
265.08	5.99
265.549	2.59
266.018	7.39
266.487	0.09
266.955	0.59
267.424	5.69
267.893	8.89
268.362	10.09
268.83	6.29
269.299	12.29
269.768	9.99
270.236	12.49
270.705	8.79
271.174	7.39
271.642	8.89
272.111	9.49
272.579	22.49
273.048	23.29
273.516	28.29
273.985	30.99
274.453	27.49
274.922	22.49
275.39	16.79
275.858	7.09
276.327	13.39
276.795	25.89
277.263	15.39
277.731	31.29
278.2	60.19
278.668	60.39
279.136	48.89
279.604	23.39
280.072	22.69
280.54	14.19
281.008	8.09
281.477	17.09
281.945	16.19
282.413	14.79
282.881	12.89
283.348	8.89
283.816	15.39
284.284	20.19
284.752	19.59
285.22	21.39
285.688	17.49
286.156	26.29
286.623	42.59
287.091	48.79
287.559	28.59
288.026	19.39
288.494	20.69
288.962	6.39
289.429	13.59
289.897	21.19
290.364	23.09
290.832	17.69
291.3	17.09
291.767	20.89
292.234	20.59
292.702	13.59
293.169	14.99
293.637	23.79
294.104	25.99
294.571	14.89
295.039	14.39
295.506	13.29
295.973	18.89
296.44	12.19
296.908	18.59
297.375	20.49
297.842	22.49
298.309	20.59
298.776	18.69
299.243	21.49
299.71	20.39
300.177	21.79
300.644	24.29
301.111	27.19
301.578	28.69
302.045	20.89
302.512	27.59
302.979	25.29
303.446	26.59
303.913	23.69
304.379	15.69
304.846	28.39
305.313	30.09
305.78	21.69
306.246	30.39
306.713	22.59
307.18	27.69
307.646	37.59
308.113	35.39
308.579	24.89
309.046	28.39
309.512	26.69
309.979	12.99
310.445	28.59
310.912	28.09
311.378	37.79
311.845	38.29
312.311	37.79
312.777	33.09
313.244	31.79
313.71	37.09
314.176	31.19
314.642	39.29
315.109	28.59
315.575	38.39
316.041	36.39
316.507	40.39
316.973	41.09
317.439	39.79
317.905	35.19
318.371	34.49
318.837	35.39
319.303	38.09
319.769	34.29
320.235	31.39
320.701	42.49
321.167	38.39
321.633	34.59
322.099	36.99
322.564	39.39
323.03	40.09
323.496	31.89
323.962	42.09
324.427	31.99
324.893	39.89
325.359	40.69
325.824	36.49
326.29	35.09
326.755	40.89
327.221	51.19
327.686	38.59
328.152	48.29
328.617	41.49
329.083	47.99
329.548	53.99
330.014	51.09
330.479	41.69
330.944	45.99
331.41	51.29
331.875	52.59
332.34	49.09
332.805	49.49
333.271	50.89
333.736	48.69
334.201	52.59
334.666	56.19
335.131	53.19
335.596	52.29
336.061	56.59
336.526	45.79
336.991	44.69
337.456	61.59
337.921	48.69
338.386	44.59
338.851	50.49
339.316	50.69
339.781	50.49
340.246	55.79
340.711	51.39
341.175	56.49
341.64	47.19
342.105	54.29
342.569	56.79
343.034	56.89
343.499	60.89
343.963	53.09
344.428	58.09
344.893	66.59
345.357	61.69
345.822	67.39
346.286	74.19
346.751	75.69
347.215	72.09
347.679	81.09
348.144	101.19
348.608	82.59
349.073	74.79
349.537	76.89
350.001	80.79
350.465	87.49
350.93	86.99
351.394	86.99
351.858	81.79
352.322	89.49
352.786	91.69
353.25	106.29
353.715	112.79
354.179	103.89
354.643	117.79
355.107	127.19
355.571	110.99
356.035	102.59
356.498	121.79
356.962	122.29
357.426	137.79
357.89	123.59
358.354	90.89
358.818	86.29
359.281	85.89
359.745	80.09
360.209	81.69
360.673	79.29
361.136	81.89
361.6	90.99
362.064	86.99
362.527	88.39
362.991	93.09
363.454	88.39
363.918	79.69
364.381	86.39
364.845	83.19
365.308	87.89
365.772	90.19
366.235	91.49
366.698	91.39
367.162	86.09
367.625	94.09
368.088	83.59
368.552	95.39
369.015	94.89
369.478	99.69
369.941	105.49
370.404	101.79
370.867	106.19
371.331	113.99
371.794	122.79
372.257	118.19
372.72	118.09
373.183	113.89
373.646	103.09
374.109	102.29
374.572	106.09
375.035	115.89
375.497	107.99
375.96	107.09
376.423	99.59
376.886	120.59
377.349	114.79
377.811	108.49
378.274	105.29
378.737	105.39
379.199	114.19
379.662	110.09
380.125	119.79
380.587	117.09
381.05	131.59
381.512	133.09
381.975	141.79
382.437	131.79
382.9	125.89
383.362	138.49
383.825	144.09
384.287	153.09
384.75	145.59
385.212	144.09
385.674	140.49
386.136	141.09
386.599	126.99
387.061	129.69
387.523	134.69
387.985	141.19
388.447	146.89
388.91	148.39
389.372	156.79
389.834	157.79
390.296	156.49
390.758	160.99
391.22	181.59
391.682	215.09
392.144	302.59
392.606	233.69
393.068	168.69
393.529	172.59
393.991	164.29
394.453	153.99
394.915	161.59
395.377	200.29
395.838	221.19
396.3	157.59
396.762	148.39
397.224	129.49
397.685	132.59
398.147	126.89
398.608	135.89
399.07	137.29
399.531	137.39
399.993	147.59
400.454	154.69
400.916	152.99
401.377	145.89
401.839	152.29
402.3	156.79
402.762	167.39
403.223	188.09
403.684	173.59
404.145	168.79
404.607	164.19
405.068	163.99
405.529	173.49
405.99	196.69
406.451	176.89
406.913	180.79
407.374	170.39
407.835	166.09
408.296	169.99
408.757	171.89
409.218	190.29
409.679	181.49
410.14	182.09
410.601	173.59
411.062	183.49
411.522	194.39
411.983	194.39
412.444	182.19
412.905	184.49
413.366	189.29
413.826	197.29
414.287	220.19
414.748	275.89
415.208	249.59
415.669	217.99
416.13	207.29
416.59	206.89
417.051	216.09
417.511	227.39
417.972	238.99
418.432	250.89
418.893	289.69
419.353	256.39
419.814	198.69
420.274	189.99
420.734	185.19
421.195	203.89
421.655	198.59
422.115	202.29
422.576	203.39
423.036	199.19
423.496	213.39
423.956	222.89
424.416	241.09
424.876	281.39
425.336	271.19
425.797	270.59
426.257	259.09
426.717	245.69
427.177	239.19
427.637	233.19
428.097	235.49
428.556	251.79
429.016	282.59
429.476	264.09
429.936	284.69
430.396	285.59
430.856	292.69
431.315	322.69
431.775	359.49
432.235	386.19
432.694	359.49
433.154	366.29
433.614	398.69
434.073	354.09
434.533	285.29
434.993	282.99
435.452	284.59
435.912	300.69
436.371	295.19
436.83	294.69
437.29	274.79
437.749	255.39
438.209	248.19
438.668	276.79
439.127	295.99
439.587	263.49
440.046	260.49
440.505	261.29
440.964	291.69
441.424	336.49
441.883	320.39
442.342	262.09
442.801	234.29
443.26	226.09
443.719	225.79
444.178	228.99
444.637	213.89
445.096	232.99
445.555	231.19
446.014	231.89
446.473	234.29
446.932	238.39
447.391	231.39
447.849	238.89
448.308	232.29
448.767	225.09
449.226	248.49
449.685	236.59
450.143	249.89
450.602	244.69
451.061	244.69
451.519	239.19
451.978	231.59
452.436	241.19
452.895	247.49
453.353	270.19
453.812	252.29
454.27	242.99
454.729	250.49
455.187	249.69
455.646	248.59
456.104	253.99
456.562	268.49
457.021	270.29
457.479	269.79
457.937	279.59
458.395	268.09
458.854	251.19
459.312	261.39
459.77	278.09
460.228	261.59
460.686	250.99
461.144	250.59
461.602	249.79
462.06	246.69
462.518	262.29
462.976	256.79
463.434	257.29
463.892	272.69
464.35	282.79
464.808	286.39
465.266	274.29
465.724	278.19
466.181	277.29
466.639	278.59
467.097	292.29
467.555	304.49
468.012	308.69
468.47	319.59
468.928	335.09
469.385	345.99
469.843	357.79
470.3	361.09
470.758	373.49
471.215	398.19
471.673	421.89
472.13	416.99
472.588	426.69
473.045	380.99
473.503	387.29
473.96	405.59
474.417	414.69
474.875	448.79
475.332	484.99
475.789	471.29
476.246	482.89
476.704	488.69
477.161	513.39
477.618	540.49
478.075	574.89
478.532	626.79
478.989	707.29
479.446	823.59
479.903	788.29
480.36	826.69
480.817	886.19
481.274	983.89
481.731	1080.89
482.188	1195.79
482.645	1315.39
483.102	1430.89
483.558	1571.69
484.015	1634.59
484.472	1609.69
484.929	1545.89
485.385	1494.29
485.842	1455.69
486.299	1392.69
486.755	1319.99
487.212	1124.19
487.668	938.99
488.125	861.19
488.582	786.09
489.038	761.89
489.494	723.99
489.951	700.89
490.407	682.69
490.864	666.69
491.32	659.49
491.776	657.39
492.233	661.79
492.689	630.39
493.145	614.99
493.602	612.79
494.058	630.99
494.514	638.79
494.97	647.89
495.426	665.29
495.882	633.49
496.338	626.59
496.794	632.89
497.251	635.29
497.707	646.09
498.163	653.19
498.618	662.19
499.074	656.29
499.53	692.69
499.986	693.39
500.442	665.89
500.898	646.09
501.354	633.99
501.809	645.99
502.265	654.29
502.721	677.19
503.177	691.09
503.632	672.69
504.088	689.09
504.543	736.99
504.999	722.69
505.455	672.19
505.91	647.09
506.366	644.69
506.821	645.99
507.277	635.49
507.732	622.19
508.187	639.99
508.643	642.39
509.098	645.99
509.553	666.29
510.009	680.29
510.464	688.09
510.919	699.39
511.375	702.09
511.83	715.39
512.285	742.19
512.74	778.99
513.195	806.49
513.65	775.19
514.105	779.29
514.56	782.49
515.015	811.89
515.47	824.29
515.925	806.79
516.38	799.69
516.835	810.39
517.29	800.59
517.745	798.19
518.2	773.89
518.655	766.99
519.109	756.39
519.564	746.89
520.019	735.89
520.474	728.49
520.928	734.49
521.383	726.49
521.838	729.09
522.292	724.89
522.747	722.09
523.201	714.99
523.656	711.49
524.11	701.49
524.565	700.99
525.019	700.19
525.474	701.59
525.928	713.09
526.382	704.39
526.837	707.79
527.291	711.69
527.745	714.09
528.2	711.39
528.654	699.89
529.108	697.69
529.562	703.29
530.016	705.59
530.47	704.69
530.925	702.59
531.379	710.59
531.833	708.79
532.287	713.29
532.741	718.09
533.195	714.99
533.649	728.89
534.103	722.39
534.556	712.99
535.01	723.59
535.464	724.19
535.918	735.39
536.372	734.99
536.826	724.79
537.279	718.89
537.733	723.49
538.187	732.29
538.64	725.99
539.094	733.29
539.548	737.99
540.001	740.09
540.455	734.39
540.908	735.29
541.362	757.79
541.815	767.39
542.269	773.39
542.722	773.99
543.175	787.89
543.629	781.49
544.082	794.99
544.536	813.29
544.989	799.69
545.442	796.69
545.895	795.69
546.349	806.89
546.802	804.59
547.255	819.19
547.708	826.49
548.161	830.79
548.614	839.99
549.067	845.79
549.52	837.89
549.973	822.29
550.426	824.09
550.879	810.49
551.332	805.59
551.785	821.69
552.238	827.29
552.691	827.29
553.144	847.19
553.596	866.69
554.049	874.89
554.502	911.19
554.955	925.29
555.407	922.99
555.86	903.29
556.313	904.79
556.765	893.59
557.218	890.09
557.67	901.19
558.123	894.29
558.576	891.49
559.028	889.09
559.48	904.19
559.933	887.69
560.385	850.69
560.838	816.19
561.29	797.09
561.742	787.69
562.195	787.89
562.647	786.49
563.099	771.99
563.551	791.39
564.004	791.09
564.456	777.59
564.908	777.59
565.36	754.29
565.812	749.59
566.264	739.19
566.716	740.79
567.168	719.39
567.62	732.89
568.072	725.89
568.524	717.89
568.976	704.59
569.428	690.59
569.88	687.89
570.332	689.29
570.784	690.29
571.235	682.09
571.687	700.69
572.139	714.19
572.59	725.29
573.042	716.99
573.494	722.29
573.945	715.09
574.397	696.29
574.849	694.79
575.3	699.29
575.752	689.89
576.203	678.69
576.655	691.59
577.106	679.29
577.557	675.89
578.009	682.29
578.46	676.19
578.912	678.19
579.363	675.39
579.814	673.79
580.265	670.99
580.717	682.19
581.168	681.09
581.619	682.89
582.07	690.69
582.521	685.19
582.972	686.79
583.423	686.29
583.875	693.09
584.326	709.29
584.777	753.79
585.227	827.39
585.678	915.19
586.129	1002.19
586.58	1057.39
587.031	1147.09
587.482	1290.79
587.933	1462.99
588.384	1274.89
588.834	976.99
589.285	816.19
589.736	800.79
590.186	785.89
590.637	775.09
591.088	761.39
591.538	749.49
591.989	746.49
592.439	728.19
592.89	738.19
593.34	731.29
593.791	721.79
594.241	717.79
594.692	712.39
595.142	706.49
595.593	702.09
596.043	715.39
596.493	719.29
596.943	723.49
597.394	735.39
597.844	729.79
598.294	738.49
598.744	759.89
599.195	774.49
599.645	821.89
600.095	861.59
600.545	920.09
600.995	973.39
601.445	1021.99
601.895	1100.79
602.345	1142.09
602.795	1113.69
603.245	1084.49
603.695	1019.99
604.145	967.29
604.594	916.79
605.044	869.49
605.494	802.09
605.944	753.29
606.393	744.29
606.843	738.19
607.293	736.99
607.743	738.19
608.192	750.49
608.642	764.59
609.091	777.89
609.541	764.99
609.99	772.69
610.44	771.39
610.889	724.79
611.339	713.79
611.788	696.79
612.238	706.49
612.687	710.79
613.136	728.49
613.586	745.99
614.035	738.49
614.484	755.09
614.933	764.29
615.383	763.59
615.832	748.99
616.281	739.29
616.73	691.09
617.179	674.99
617.628	652.79
618.077	647.39
618.526	626.49
618.975	625.49
619.424	615.69
619.873	613.69
620.322	620.19
620.771	611.09
621.22	603.69
621.669	602.59
622.118	597.79
622.567	589.69
623.015	573.09
623.464	574.09
623.913	562.09
624.361	559.19
624.81	555.59
625.259	552.69
625.707	547.89
626.156	558.19
626.604	576.09
627.053	564.09
627.501	568.59
627.95	568.99
628.398	578.79
628.847	574.49
629.295	583.29
629.744	579.99
630.192	574.19
630.64	569.69
631.089	564.69
631.537	573.69
631.985	594.69
632.433	594.79
632.881	611.69
633.33	658.79
633.778	641.69
634.226	576.69
634.674	569.99
635.122	578.09
635.57	609.59
636.018	633.89
636.466	574.79
636.914	556.89
637.362	564.29
637.81	570.59
638.258	582.69
638.705	590.49
639.153	603.09
639.601	615.99
640.049	639.39
640.497	670.59
640.944	683.09
641.392	639.49
641.84	615.29
642.287	572.79
642.735	567.79
643.182	566.89
643.63	566.19
644.078	574.79
644.525	588.79
644.973	597.39
645.42	606.99
645.867	618.99
646.315	635.39
646.762	658.99
647.21	693.69
647.657	716.69
648.104	749.99
648.551	776.59
648.999	830.89
649.446	913.19
649.893	1007.49
650.34	1160.49
650.787	1391.39
651.234	1716.59
651.682	2245.39
652.129	3078.99
652.576	4408.99
653.023	6497.59
653.47	8942.69
653.917	11161.29
654.363	12879.79
654.81	14251.29
655.257	13539.39
655.704	8912.99
656.151	5267.39
656.598	3413.59
657.044	2428.69
657.491	1850.99
657.938	1476.59
658.385	1256.89
658.831	1081.49
659.278	967.19
659.724	859.99
660.171	784.69
660.618	715.59
661.064	689.19
661.511	662.59
661.957	653.09
662.404	643.19
662.85	655.19
663.296	627.49
663.743	553.69
664.189	541.19
664.635	537.09
665.082	519.39
665.528	517.69
665.974	518.99
666.42	517.19
666.867	504.69
667.313	491.29
667.759	478.09
668.205	482.79
668.651	485.59
669.097	483.29
669.543	501.49
669.989	465.69
670.435	452.89
670.881	451.59
671.327	450.39
671.773	466.19
672.219	491.09
672.665	538.69
673.11	575.69
673.556	625.89
674.002	669.89
674.448	657.29
674.893	543.99
675.339	472.59
675.785	436.69
676.23	426.99
676.676	392.39
677.122	382.59
677.567	375.39
678.013	359.29
678.458	356.49
678.904	357.39
679.349	346.09
679.794	353.39
680.24	350.99
680.685	343.69
681.131	344.59
681.576	347.39
682.021	353.39
682.466	349.29
682.912	350.29
683.357	349.69
683.802	382.19
684.247	412.39
684.692	451.29
685.137	495.19
685.583	536.99
686.028	561.59
686.473	516.79
686.918	442.99
687.363	410.29
687.807	391.69
688.252	368.89
688.697	356.89
689.142	342.79
689.587	330.89
690.032	323.89
690.477	341.79
690.921	353.09
691.366	380.49
691.811	400.59
692.255	423.09
692.7	451.59
693.145	498.99
693.589	689.79
694.034	1116.09
694.478	1509.19
694.923	1717.49
695.367	2255.39
695.812	1189.39
696.256	491.09
696.701	375.59
697.145	343.89
697.59	327.59
698.034	322.89
698.478	331.19
698.922	327.59
699.367	331.19
699.811	339.29
700.255	354.19
700.699	385.39
701.143	422.79
701.588	473.99
702.032	511.99
702.476	514.99
702.92	488.69
703.364	490.19
703.808	622.99
704.252	1020.39
704.696	1445.79
705.14	1657.89
705.584	2108.59
706.027	1054.99
706.471	513.39
706.915	394.59
707.359	353.49
707.803	317.59
708.246	315.99
708.69	312.99
709.134	308.99
709.577	299.09
710.021	317.49
710.465	301.29
710.908	304.69
711.352	304.79
711.795	310.99
712.239	354.99
712.682	382.59
713.126	419.39
713.569	455.39
714.012	365.89
714.456	318.89
714.899	303.89
715.342	286.49
715.786	263.99
716.229	257.39
716.672	255.89
717.115	247.09
717.558	251.99
718.002	254.59
718.445	258.39
718.888	288.79
719.331	295.69
719.774	305.09
720.217	302.59
720.66	281.79
721.103	265.19
721.546	248.49
721.989	246.79
722.432	235.19
722.874	236.79
723.317	229.19
723.76	239.99
724.203	255.09
724.645	322.59
725.088	446.09
725.531	567.49
725.974	635.59
726.416	543.99
726.859	307.39
727.301	246.39
727.744	227.99
728.187	231.79
728.629	230.59
729.071	243.09
729.514	258.89
729.956	273.19
730.399	277.79
730.841	284.49
731.283	276.29
731.726	267.59
732.168	263.19
732.61	271.49
733.053	284.39
733.495	310.89
733.937	349.69
734.379	392.09
734.821	431.69
735.263	530.49
735.705	824.19
736.148	1540.69
736.59	2543.99
737.032	3017.99
737.474	2456.09
737.916	797.39
738.357	425.29
738.799	322.59
739.241	303.39
739.683	283.69
740.125	287.99
740.567	300.89
741.008	311.99
741.45	313.29
741.892	310.39
742.334	348.49
742.775	355.09
743.217	336.99
743.658	274.39
744.1	251.59
744.542	260.89
744.983	314.09
745.425	337.09
745.866	342.69
746.307	283.89
746.749	272.49
747.19	309.69
747.632	451.49
748.073	866.49
748.514	1818.69
748.956	2812.99
749.397	3516.89
749.838	2912.59
750.279	2924.49
750.72	1474.19
751.162	536.19
751.603	316.19
752.044	252.49
752.485	216.19
752.926	212.89
753.367	200.09
753.808	190.79
754.249	198.79
754.69	190.59
755.131	182.99
755.572	174.19
756.013	177.19
756.453	187.29
756.894	190.79
757.335	191.09
757.776	193.39
758.216	197.49
758.657	196.09
759.098	194.29
759.538	228.59
759.979	258.79
760.42	367.99
760.86	694.59
761.301	1783.19
761.741	4375.69
762.182	6355.49
762.622	4476.69
763.063	1273.29
763.503	532.99
763.943	340.89
764.384	326.69
764.824	388.49
765.264	424.99
765.705	295.59
766.145	198.29
766.585	188.59
767.025	183.79
767.465	180.59
767.906	231.59
768.346	304.59
768.786	328.89
769.226	256.99
769.666	317.99
770.106	606.19
770.546	1517.39
770.986	2615.79
771.426	2335.29
771.866	776.39
772.306	330.59
772.745	205.69
773.185	178.39
773.625	168.99
774.065	159.19
774.505	193.29
774.944	301.39
775.384	644.49
775.824	1183.29
776.263	1134.39
776.703	480.99
777.142	212.49
777.582	157.69
778.021	126.09
778.461	138.89
778.9	136.99
779.34	133.49
779.779	117.49
780.219	109.09
780.658	111.99
781.097	111.69
781.537	117.79
781.976	105.79
782.415	111.99
782.855	101.79
783.294	107.99
783.733	109.19
784.172	118.39
784.611	106.89
785.05	109.09
785.489	107.19
785.928	117.39
786.367	125.79
786.806	109.29
787.245	123.89
787.684	132.69
788.123	142.59
788.562	127.99
789.001	128.39
789.44	123.89
789.879	120.39
790.317	117.59
790.756	123.59
791.195	128.59
791.634	150.09
792.072	207.99
792.511	360.09
792.95	985.69
793.388	2107.49
793.827	1915.39
794.265	670.99
794.704	282.89
795.142	183.09
795.581	150.59
796.019	138.39
796.458	129.99
796.896	118.09
797.334	127.69
797.773	150.09
798.211	214.29
798.649	424.19
799.087	1005.19
799.526	1571.09
799.964	1972.09
800.402	1990.09
800.84	746.19
801.278	300.29
801.716	181.89
802.154	152.99
802.592	145.19
803.03	145.09
803.468	133.19
803.906	143.69
804.344	152.19
804.782	139.09
805.22	131.49
805.658	129.49
806.096	144.09
806.533	152.29
806.971	180.19
807.409	213.19
807.847	313.09
808.284	643.89
808.722	1815.39
809.16	3244.19
809.597	3063.09
810.035	5326.29
810.472	5698.09
810.91	2044.69
811.347	776.39
811.785	401.89
812.222	250.09
812.66	193.39
813.097	158.99
813.535	143.39
813.972	128.79
814.409	111.59
814.846	111.29
815.284	109.89
815.721	98.39
816.158	104.89
816.595	124.99
817.032	171.99
817.47	195.89
817.907	166.39
818.344	153.39
818.781	113.99
819.218	100.89
819.655	123.39
820.092	188.59
820.529	212.19
820.966	171.69
821.403	136.09
821.839	109.89
822.276	101.79
822.713	118.39
823.15	135.39
823.587	120.39
824.023	142.49
824.46	296.79
824.897	887.29
825.333	1343.49
825.77	572.89
826.206	230.09
826.643	141.39
827.08	101.29
827.516	86.19
827.953	72.09
828.389	79.19
828.825	66.79
829.262	72.09
829.698	63.39
830.135	65.79
830.571	61.89
831.007	62.69
831.443	63.09
831.88	58.89
832.316	62.49
832.752	61.59
833.188	64.59
833.624	66.49
834.06	71.79
834.497	67.09
834.933	69.69
835.369	70.09
835.805	65.89
836.241	74.79
836.677	76.09
837.112	89.09
837.548	103.09
837.984	128.39
838.42	198.79
838.856	482.29
839.292	1483.99
839.727	2268.19
840.163	1063.69
840.599	903.39
841.034	1985.09
841.47	2094.49
841.906	771.59
842.341	326.59
842.777	225.19
843.212	313.09
843.648	301.29
844.083	142.49
844.519	94.09
844.954	78.19
845.39	58.99
845.825	63.29
846.261	57.59
846.696	57.19
847.131	60.79
847.566	57.69
848.002	52.99
848.437	52.79
848.872	66.19
849.307	61.59
849.742	83.09
850.177	169.69
850.613	540.69
851.048	867.39
851.483	370.89
851.918	151.49
852.353	84.79
852.788	69.69
853.223	62.79
853.657	48.79
854.092	46.89
854.527	47.49
854.962	41.29
855.397	50.39
855.832	49.69
856.266	42.59
856.701	43.29
857.136	39.19
857.57	38.39
858.005	48.19
858.44	56.79
858.874	48.89
859.309	51.49
859.743	40.09
860.178	44.89
860.612	41.59
861.047	51.09
861.481	68.09
861.915	74.79
862.35	50.49
862.784	39.79
863.218	39.49
863.653	34.09
864.087	43.39
864.521	53.19
864.955	69.99
865.39	156.29
865.824	177.09
866.258	116.09
866.692	161.69
867.126	177.29
867.56	112.19
867.994	53.99
868.428	46.19
868.862	42.09
869.296	61.09
869.73	56.29
870.164	57.29
870.598	44.69
871.031	35.59
871.465	30.69
871.899	31.39
872.333	23.39
872.766	28.89
873.2	19.69
873.634	30.99
874.067	23.59
874.501	27.59
874.935	38.39
875.368	31.49
875.802	27.69
876.235	23.79
876.669	23.19
877.102	23.29
877.535	23.79
877.969	25.79
878.402	24.79
878.836	18.69
879.269	24.89
879.702	23.29
880.135	21.89
880.569	21.19
881.002	27.49
881.435	19.79
881.868	18.89
882.301	22.99
882.734	17.69
883.167	26.59
883.601	18.79
884.034	28.59
884.467	13.09
884.899	21.69
885.332	15.49
885.765	18.39
886.198	17.09
886.631	17.69
887.064	24.39
887.497	24.39
887.929	22.59
888.362	17.39
888.795	13.49
889.228	22.59
889.66	22.09
890.093	16.99
890.526	19.09
890.958	18.39
891.391	14.39
891.823	22.69
892.256	14.79
892.688	17.99
893.121	19.99
893.553	13.89
893.985	21.29
894.418	18.59
894.85	15.99
895.282	18.39
895.715	19.99
896.147	21.19
896.579	23.29
897.011	17.29
897.444	22.29
897.876	12.69
898.308	19.49
898.74	20.39
899.172	17.19
899.604	27.69
900.036	17.69
900.468	25.69
900.9	14.89
901.332	22.49
901.764	12.29
902.196	17.99
902.628	20.99
903.06	13.49
903.491	28.69
903.923	21.89
904.355	20.59
904.787	22.89
905.218	25.19
905.65	21.79
906.082	17.29
906.513	14.09
906.945	17.29
907.376	18.69
907.808	17.39
908.239	20.29
908.671	19.69
909.102	21.49
909.534	26.19
909.965	47.49
910.397	86.69
910.828	312.09
911.259	470.69
911.691	215.39
912.122	102.89
912.553	53.19
912.984	37.69
913.415	25.99
913.847	26.39
914.278	13.79
914.709	15.99
915.14	18.29
915.571	15.99
916.002	13.99
916.433	16.89
916.864	13.89
917.295	12.89
917.726	23.39
918.157	12.79
918.587	27.89
919.018	21.09
919.449	18.79
919.88	30.99
920.311	27.89
920.741	49.69
921.172	156.89
921.603	152.79
922.033	77.09
922.464	45.59
922.895	24.69
923.325	25.39
923.756	18.99
924.186	12.69
924.617	29.79
925.047	36.39
925.478	51.99
925.908	44.09
926.338	26.49
926.769	22.59
927.199	21.29
927.629	9.49
928.06	16.79
928.49	15.69
928.92	12.59
929.35	10.29
929.78	7.39
930.21	6.39
930.641	15.59
931.071	13.69
931.501	6.09
931.931	4.09
932.361	12.49
932.791	0.49
933.221	11.09
933.651	2.79
934.08	21.19
934.51	28.49
934.94	13.09
935.37	9.49
935.8	14.19
936.229	10.39
936.659	8.89
937.089	5.59
937.519	13.39
937.948	28.09
938.378	14.69
938.807	10.49
939.237	6.79
939.666	8.79
940.096	-1.31
940.525	4.59
940.955	5.69
941.384	0.79
941.814	-1.71
942.243	0.99
942.672	4.89
943.102	-6.81
943.531	2.19
943.96	4.39
944.39	1.29
944.819	-1.11
945.248	6.89
945.677	4.39
946.106	3.29
946.535	7.69
946.964	0.39
947.393	4.39
947.822	0.19
948.251	-4.71
948.68	12.09
949.109	5.99
949.538	7.79
949.967	-0.61
950.396	0.79
950.825	1.29
951.254	2.59
951.682	-3.41
952.111	4.49
952.54	11.79
952.969	0.39
953.397	-2.81
953.826	1.89
954.254	-5.61
954.683	0.19
955.112	-3.11
955.54	6.49
955.969	2.09
956.397	1.79
956.826	-4.21
957.254	-1.71
957.682	3.99
958.111	3.09
958.539	3.99
958.967	0.69
959.396	3.39
959.824	3.29
960.252	3.69
960.68	-3.51
961.109	-5.61
961.537	-8.81
961.965	1.49
962.393	5.39
962.821	-7.31
963.249	4.69
963.677	1.59
964.105	3.49
964.533	41.49
964.961	42.09
965.389	23.49
965.817	12.39
966.245	-5.51
966.672	-3.01
967.1	-8.51
967.528	1.49
967.956	-1.21
968.383	-2.11
968.811	-2.61
969.239	4.99
969.666	-4.81
970.094	-0.21
970.522	4.49
970.949	3.49
971.377	-4.81
971.804	-7.91
972.232	4.29
972.659	-1.61
973.087	1.29
973.514	4.89
973.941	0.59
974.369	1.39
974.796	3.09
975.223	5.59
975.651	1.19
976.078	-0.31
976.505	-1.21
976.932	-3.91
977.359	15.89
977.786	11.49
978.214	-1.41
978.641	-2.41
979.068	-4.21
979.495	6.29
979.922	5.49
980.349	-4.51
980.776	0.79
981.202	-2.31
981.629	6.29
982.056	10.99
982.483	-0.91
982.91	2.29
983.337	-10.21
983.763	4.59
984.19	-6.11
984.617	5.89
985.043	-2.21
985.47	3.09
985.897	-0.21
986.323	-2.41
986.75	8.89
987.176	-4.41
987.603	-1.91
988.029	3.39
988.456	-1.61
988.882	5.09
989.308	-6.91
989.735	-3.21
990.161	2.19
990.587	-4.21
991.014	0.69
991.44	-0.81
991.866	2.49
992.292	-5.61
992.719	-2.51
993.145	-0.61
993.571	-5.21
993.997	-3.51
994.423	-2.71
994.849	-3.21
995.275	4.19
995.701	5.89
996.127	-0.51
996.553	-2.31
996.979	-5.71
997.405	2.39
997.83	-6.71
998.256	-11.81
998.682	-0.11
999.108	-9.81
999.534	-2.31
999.959	-2.21
1000.385	-0.91
1000.811	-3.51
1001.236	-8.41
1001.662	-2.21
1002.087	-7.21
1002.513	2.69
1002.938	2.59
1003.364	0.79
1003.789	-3.51
1004.215	6.79
1004.64	-4.51
1005.066	3.39
1005.491	-4.81
1005.916	1.59
1006.342	0.89
1006.767	-6.91
1007.192	8.99
1007.617	-1.01
1008.042	-0.31
1008.468	-5.61
1008.893	-0.81
1009.318	-3.01
1009.743	0.69
1010.168	6.09
1010.593	4.29
1011.018	-7.51
1011.443	-2.41
1011.868	0.79
1012.293	-4.81
1012.718	-7.41
1013.143	-1.51
1013.567	2.39
1013.992	-0.21
1014.417	-10.01
1014.842	4.39
1015.267	-3.51
1015.691	0.19
1016.116	9.59
1016.541	4.39
1016.965	-0.81
1017.39	4.39
1017.814	0.99
1018.239	-0.41
1018.663	-4.71
1019.088	-14.01
1019.512	-5.31
1019.937	2.79
1020.361	1.79
1020.785	-7.31
1021.21	2.39
1021.634	-6.61
1022.058	-0.61
1022.483	5.19
1022.907	-4.31
1023.331	-12.31
1023.755	0.59
1024.179	-0.31
1024.604	-3.71
1025.028	-6.01
1025.452	-5.21
1025.876	-2.11
1026.3	0.49
1026.724	-8.01
1027.148	-3.71
1027.572	-11.51
1027.996	-1.11
1028.42	2.99
1028.843	-0.31
1029.267	-8.01
1029.691	-5.01
1030.115	-1.71
1030.539	-14.21
1030.962	-5.71
1031.386	-8.41
1031.81	0.49
1032.233	-1.21
1032.657	-5.41
1033.08	-1.61
1033.504	-2.01
1033.927	-5.81
1034.351	-0.21
1034.774	2.79
1035.198	5.09
1035.621	1.09
1036.045	-3.11
1036.468	-1.11
1036.891	-13.11
1037.315	-6.41
1037.738	-3.11
1038.161	2.69
1038.584	-2.71
1039.008	-9.91
1039.431	-2.21
1039.854	5.39
1040.277	-8.51
1040.7	-11.71
1041.123	6.49
1041.546	-4.41
1041.969	-7.61
1042.392	0.69
1042.815	1.59
1043.238	1.09
1043.661	-2.31
1044.084	-5.81
1044.507	-4.01
1044.93	-8.41
1045.352	-4.21
1045.775	0.49
1046.198	2.99
1046.621	-0.11
1047.043	-0.31
1047.466	5.79
1047.889	-2.11
1048.311	-6.21
1048.734	-6.71
1049.156	0.39
1049.579	2.99
1050.001	-3.01
1050.424	-0.81
1050.846	-4.11
1051.269	0.19
1051.691	-2.71
1052.113	-2.91
1052.536	-8.61
1052.958	-5.11
1053.38	-2.91
1053.802	-8.61
1054.225	2.29
1054.647	-7.21
1055.069	-4.21
1055.491	4.39
1055.913	-1.91
1056.335	-1.11
1056.757	-0.91
1057.179	-7.51
1057.601	-6.51
1058.023	-4.61
1058.445	-4.41
1058.867	-0.91
1059.289	-7.41
1059.711	-3.51
1060.133	0.29
1060.555	-3.91
1060.976	-5.71
1061.398	-8.01
1061.82	-10.31
1062.241	-3.61
1062.663	-5.31
1063.085	-1.61
1063.506	-2.71
1063.928	-2.51
1064.35	0.39
1064.771	-9.91
1065.193	-2.81
1065.614	-12.91
1066.035	0.69
1066.457	-6.31
1066.878	1.29
1067.3	-8.01
1067.721	-3.81
1068.142	-5.91
1068.564	0.89
1068.985	-2.71
1069.406	-5.51
1069.827	-5.31
1070.248	4.99
1070.67	-8.31
1071.091	-7.41
1071.512	-5.01
1071.933	-5.91
1072.354	-2.51
1072.775	-3.01
1073.196	-8.11
1073.617	-6.71
1074.038	-7.61
1074.459	-2.71
1074.88	-8.91
1075.3	5.09
1075.721	-7.61
1076.142	3.99
1076.563	0.59
1076.983	-6.21
1077.404	-10.01
1077.825	-7.61
1078.246	-1.91
1078.666	-8.21
1079.087	-8.11
1079.507	-6.01
1079.928	3.19
1080.348	2.19
1080.769	-3.41
1081.189	-0.81
1081.61	-1.21
1082.03	-8.31
1082.451	-3.41
1082.871	-0.01
1083.291	-12.71
1083.711	-5.51
1084.132	-1.71
1084.552	-0.11
1084.972	0.89
1085.392	-9.71
1085.813	-6.61
1086.233	-8.41
1086.653	-12.11
1087.073	-4.81
1087.493	-1.91
1087.913	-6.91
1088.333	-7.61
1088.753	-1.11
1089.173	2.69
1089.593	-2.41
1090.013	0.79
1090.433	-0.41
1090.852	-5.51
1091.272	-1.21
1091.692	-1.21
1092.112	-0.91
1092.531	-8.01
1092.951	-13.31
1093.371	-8.61
1093.79	4.29
1094.21	-3.31
1094.63	-1.61
1095.049	-6.11
1095.469	-4.21
1095.888	1.89
1096.308	2.29
1096.727	7.89
1097.146	-5.91
1097.566	1.79
1097.985	-1.91
1098.405	-2.51
1098.824	-8.61
1099.243	-5.01
1099.662	-5.51
1100.082	-5.21
1100.501	-4.21
1100.92	-8.11
1101.339	-2.51
1101.758	-4.01
