Data from 20171114-ORNL-Ar_H_NY_Subt18_08-04-56-112.txt Node
Date: Tue Nov 14 08:04:56 EST 2017
User: Ender
Spectrometer: HR+D1039
Trigger mode: 0
Integration Time (sec): 2.730000E-2
Scans to average: 10
Electric dark correction enabled: true
Nonlinearity correction enabled: false
Boxcar width: 0
XAxis mode: Wavelengths
Number of Pixels in Spectrum: 2048
>>>>>Begin Spectral Data<<<<<
187.836	-8.73
188.309	-8.73
188.782	-8.73
189.255	1.97
189.728	2.28
190.201	0.17
190.674	2.38
191.147	4.67
191.619	-2.93
192.092	-1.12
192.565	4.88
193.038	3.07
193.511	2.48
193.984	-3.62
194.456	-4.52
194.929	-0.72
195.402	-2.93
195.874	2.68
196.347	-1.12
196.82	-1.52
197.292	5.27
197.765	-2.32
198.237	-2.62
198.71	2.57
199.182	-3.83
199.655	4.27
200.127	0.47
200.6	-7.02
201.072	-2.03
201.544	-5.62
202.017	0.77
202.489	7.38
202.961	-1.42
203.433	-1.93
203.906	-5.12
204.378	-5.32
204.85	-8.03
205.322	-6.23
205.794	-6.33
206.266	-1.12
206.739	-8.12
207.211	5.58
207.683	-9.62
208.155	-4.83
208.627	-10.42
209.099	-7.73
209.57	-7.12
210.042	-5.83
210.514	-8.22
210.986	-3.73
211.458	-8.23
211.93	-2.83
212.402	6.38
212.873	-5.73
213.345	-10.42
213.817	-12.43
214.288	-0.73
214.76	-7.23
215.232	-4.62
215.703	-1.02
216.175	-3.23
216.646	-7.12
217.118	-3.43
217.589	-1.22
218.061	0.88
218.532	-4.62
219.004	-1.62
219.475	-2.12
219.946	-1.62
220.418	-4.32
220.889	4.48
221.36	-0.42
221.832	-1.93
222.303	-8.42
222.774	-3.83
223.245	-8.02
223.717	-8.52
224.188	-3.62
224.659	-7.43
225.13	-7.12
225.601	-6.62
226.072	-2.23
226.543	0.57
227.014	-0.52
227.485	-2.33
227.956	-10.92
228.427	-1.02
228.898	4.38
229.369	1.88
229.839	2.38
230.31	-6.83
230.781	6.67
231.252	-4.62
231.722	-5.73
232.193	-3.52
232.664	-1.52
233.135	1.67
233.605	-0.02
234.076	-7.43
234.546	-1.03
235.017	3.48
235.487	5.98
235.958	-4.02
236.428	-2.62
236.899	6.48
237.369	7.28
237.84	0.08
238.31	8.67
238.78	5.18
239.251	3.78
239.721	6.77
240.191	-3.72
240.662	-9.52
241.132	-1.73
241.602	1.07
242.072	-2.83
242.542	12.58
243.013	1.07
243.483	9.38
243.953	3.88
244.423	1.08
244.893	-3.33
245.363	2.67
245.833	5.08
246.303	-1.12
246.773	11.48
247.243	3.97
247.712	2.38
248.182	14.17
248.652	6.77
249.122	-0.62
249.592	13.08
250.061	20.48
250.531	40.68
251.001	18.38
251.471	18.27
251.94	21.07
252.41	3.98
252.879	6.27
253.349	11.77
253.818	8.67
254.288	5.18
254.757	10.18
255.227	1.58
255.696	1.57
256.166	6.58
256.635	11.38
257.105	10.38
257.574	7.47
258.043	13.88
258.513	14.07
258.982	22.98
259.451	10.48
259.92	16.98
260.389	13.18
260.859	16.17
261.328	17.68
261.797	19.88
262.266	13.98
262.735	6.98
263.204	4.98
263.673	1.58
264.142	11.58
264.611	-0.33
265.08	-2.33
265.549	3.78
266.018	7.08
266.487	2.17
266.955	-5.92
267.424	3.48
267.893	11.18
268.362	4.18
268.83	8.48
269.299	14.38
269.768	7.77
270.236	14.58
270.705	2.08
271.174	6.18
271.642	8.38
272.111	9.77
272.579	22.97
273.048	25.38
273.516	28.98
273.985	28.98
274.453	29.88
274.922	15.98
275.39	11.27
275.858	5.67
276.327	11.48
276.795	13.38
277.263	8.17
277.731	30.57
278.2	53.88
278.668	63.68
279.136	53.67
279.604	17.58
280.072	14.58
280.54	18.98
281.008	9.07
281.477	13.27
281.945	14.88
282.413	14.48
282.881	18.08
283.348	13.18
283.816	22.27
284.284	19.77
284.752	21.27
285.22	17.98
285.688	20.17
286.156	19.77
286.623	45.77
287.091	55.68
287.559	31.98
288.026	16.08
288.494	18.08
288.962	3.88
289.429	10.57
289.897	21.28
290.364	13.88
290.832	11.98
291.3	12.77
291.767	16.88
292.234	16.67
292.702	20.18
293.169	21.08
293.637	21.27
294.104	19.38
294.571	12.07
295.039	20.88
295.506	15.98
295.973	19.77
296.44	17.38
296.908	23.88
297.375	20.48
297.842	17.27
298.309	13.77
298.776	11.48
299.243	21.07
299.71	13.48
300.177	21.98
300.644	25.18
301.111	22.98
301.578	27.57
302.045	22.27
302.512	23.98
302.979	25.08
303.446	23.27
303.913	17.38
304.379	18.48
304.846	25.78
305.313	29.58
305.78	18.88
306.246	28.77
306.713	28.57
307.18	28.48
307.646	30.07
308.113	30.67
308.579	29.17
309.046	31.28
309.512	27.58
309.979	19.47
310.445	28.27
310.912	26.67
311.378	36.48
311.845	32.48
312.311	31.67
312.777	38.57
313.244	32.88
313.71	39.48
314.176	29.88
314.642	35.98
315.109	33.77
315.575	37.98
316.041	43.08
316.507	41.27
316.973	43.77
317.439	32.38
317.905	39.28
318.371	35.38
318.837	39.08
319.303	39.88
319.769	40.18
320.235	35.98
320.701	36.38
321.167	42.88
321.633	40.68
322.099	43.27
322.564	43.88
323.03	39.98
323.496	42.77
323.962	39.98
324.427	44.98
324.893	41.17
325.359	41.38
325.824	40.17
326.29	37.07
326.755	43.38
327.221	43.77
327.686	41.17
328.152	41.68
328.617	45.88
329.083	48.57
329.548	55.07
330.014	52.08
330.479	37.57
330.944	45.38
331.41	42.27
331.875	49.18
332.34	50.38
332.805	47.47
333.271	51.77
333.736	47.48
334.201	51.98
334.666	56.07
335.131	53.57
335.596	49.88
336.061	55.48
336.526	43.57
336.991	50.48
337.456	55.38
337.921	51.27
338.386	46.67
338.851	49.67
339.316	46.88
339.781	48.18
340.246	54.77
340.711	53.67
341.175	46.08
341.64	47.77
342.105	53.38
342.569	57.57
343.034	67.67
343.499	56.77
343.963	57.28
344.428	62.78
344.893	62.97
345.357	68.07
345.822	65.38
346.286	67.38
346.751	71.98
347.215	67.48
347.679	73.58
348.144	99.98
348.608	84.48
349.073	75.17
349.537	78.08
350.001	82.38
350.465	96.08
350.93	83.17
351.394	80.68
351.858	71.88
352.322	92.58
352.786	85.88
353.25	99.38
353.715	113.27
354.179	102.88
354.643	120.68
355.107	127.88
355.571	116.68
356.035	99.98
356.498	119.98
356.962	124.17
357.426	133.38
357.89	116.58
358.354	92.17
358.818	81.17
359.281	79.88
359.745	78.58
360.209	74.68
360.673	72.48
361.136	76.28
361.6	85.67
362.064	84.78
362.527	85.17
362.991	88.17
363.454	82.58
363.918	78.98
364.381	82.48
364.845	82.07
365.308	86.77
365.772	83.38
366.235	85.98
366.698	83.17
367.162	86.77
367.625	85.98
368.088	85.07
368.552	93.07
369.015	87.68
369.478	96.77
369.941	100.88
370.404	93.77
370.867	103.88
371.331	105.07
371.794	107.57
372.257	108.88
372.72	111.97
373.183	107.27
373.646	101.77
374.109	104.78
374.572	106.27
375.035	102.27
375.497	110.47
375.96	104.68
376.423	98.27
376.886	115.58
377.349	109.98
377.811	103.27
378.274	111.18
378.737	109.17
379.199	115.28
379.662	107.27
380.125	115.18
380.587	113.27
381.05	122.88
381.512	122.57
381.975	125.48
382.437	125.27
382.9	120.48
383.362	124.77
383.825	140.48
384.287	145.67
384.75	138.57
385.212	140.77
385.674	133.88
386.136	137.98
386.599	120.38
387.061	124.78
387.523	125.98
387.985	133.88
388.447	145.98
388.91	135.18
389.372	157.48
389.834	146.17
390.296	139.77
390.758	148.67
391.22	172.17
391.682	205.98
392.144	285.98
392.606	230.38
393.068	154.78
393.529	166.77
393.991	148.88
394.453	145.88
394.915	152.17
395.377	185.68
395.838	204.07
396.3	153.88
396.762	143.38
397.224	135.27
397.685	131.47
398.147	131.08
398.608	130.48
399.07	130.98
399.531	134.68
399.993	138.48
400.454	140.77
400.916	143.77
401.377	143.48
401.839	150.77
402.3	150.67
402.762	164.08
403.223	171.27
403.684	162.47
404.145	156.38
404.607	153.17
405.068	163.27
405.529	165.08
405.99	186.58
406.451	167.07
406.913	169.57
407.374	153.98
407.835	158.08
408.296	164.98
408.757	161.27
409.218	183.67
409.679	177.18
410.14	163.78
410.601	166.08
411.062	177.18
411.522	181.18
411.983	179.17
412.444	163.58
412.905	175.28
413.366	179.08
413.826	185.67
414.287	209.48
414.748	251.98
415.208	241.88
415.669	204.17
416.13	196.27
416.59	196.58
417.051	205.97
417.511	214.97
417.972	229.17
418.432	241.98
418.893	273.27
419.353	244.38
419.814	190.38
420.274	177.47
420.734	175.38
421.195	196.47
421.655	190.38
422.115	180.67
422.576	186.57
423.036	189.67
423.496	200.38
423.956	207.48
424.416	222.17
424.876	253.47
425.336	253.08
425.797	260.78
426.257	248.88
426.717	239.88
427.177	221.48
427.637	220.38
428.097	223.17
428.556	239.48
429.016	255.27
429.476	256.58
429.936	270.28
430.396	267.77
430.856	280.08
431.315	301.97
431.775	337.67
432.235	362.77
432.694	341.08
433.154	350.88
433.614	372.97
434.073	318.97
434.533	283.88
434.993	261.88
435.452	275.18
435.912	286.17
436.371	282.67
436.83	277.38
437.29	268.08
437.749	234.88
438.209	240.18
438.668	260.77
439.127	281.68
439.587	255.48
440.046	242.98
440.505	250.98
440.964	269.67
441.424	311.17
441.883	296.47
442.342	255.48
442.801	217.57
443.26	218.57
443.719	218.98
444.178	207.77
444.637	198.28
445.096	211.17
445.555	214.18
446.014	221.47
446.473	219.68
446.932	223.88
447.391	218.87
447.849	221.17
448.308	210.68
448.767	212.88
449.226	227.08
449.685	229.48
450.143	233.57
450.602	225.88
451.061	217.48
451.519	223.28
451.978	223.57
452.436	225.07
452.895	232.38
453.353	236.97
453.812	231.38
454.27	236.18
454.729	230.48
455.187	238.37
455.646	231.38
456.104	237.48
456.562	250.67
457.021	259.77
457.479	254.98
457.937	263.97
458.395	248.67
458.854	233.77
459.312	249.27
459.77	263.57
460.228	244.97
460.686	235.27
461.144	243.57
461.602	241.78
462.06	231.78
462.518	241.78
462.976	243.97
463.434	254.18
463.892	255.77
464.35	266.47
464.808	282.98
465.266	258.88
465.724	260.78
466.181	266.77
466.639	258.57
467.097	275.88
467.555	291.48
468.012	288.98
468.47	306.77
468.928	310.17
469.385	332.17
469.843	338.48
470.3	329.28
470.758	343.38
471.215	366.98
471.673	391.07
472.13	396.38
472.588	403.98
473.045	353.08
473.503	366.38
473.96	379.37
474.417	385.77
474.875	418.47
475.332	464.18
475.789	445.17
476.246	449.77
476.704	472.47
477.161	494.88
477.618	502.37
478.075	541.78
478.532	591.57
478.989	670.77
479.446	779.78
479.903	740.88
480.36	772.77
480.817	821.58
481.274	928.18
481.731	1038.67
482.188	1137.78
482.645	1262.88
483.102	1370.58
483.558	1505.88
484.015	1556.38
484.472	1532.28
484.929	1477.47
485.385	1444.08
485.842	1395.38
486.299	1344.27
486.755	1252.77
487.212	1065.38
487.668	890.88
488.125	834.48
488.582	750.08
489.038	723.98
489.494	686.97
489.951	667.68
490.407	646.38
490.864	621.78
491.32	627.57
491.776	620.88
492.233	627.17
492.689	591.68
493.145	583.58
493.602	579.98
494.058	588.98
494.514	596.78
494.97	625.67
495.426	627.98
495.882	602.07
496.338	597.07
496.794	595.07
497.251	598.18
497.707	618.58
498.163	619.07
498.618	627.97
499.074	623.98
499.53	655.88
499.986	653.27
500.442	630.48
500.898	612.47
501.354	602.97
501.809	612.58
502.265	621.98
502.721	643.97
503.177	638.17
503.632	642.27
504.088	651.67
504.543	698.38
504.999	683.57
505.455	635.38
505.91	610.07
506.366	612.98
506.821	611.47
507.277	602.27
507.732	606.88
508.187	607.68
508.643	612.18
509.098	611.18
509.553	621.27
510.009	639.58
510.464	643.18
510.919	661.68
511.375	661.38
511.83	678.38
512.285	692.38
512.74	739.88
513.195	763.48
513.65	741.28
514.105	741.88
514.56	750.38
515.015	770.67
515.47	780.88
515.925	778.78
516.38	770.98
516.835	767.37
517.29	759.17
517.745	750.98
518.2	737.38
518.655	718.58
519.109	719.88
519.564	723.28
520.019	704.57
520.474	704.98
520.928	692.97
521.383	691.88
521.838	689.48
522.292	694.57
522.747	679.68
523.201	675.17
523.656	668.07
524.11	670.88
524.565	662.77
525.019	660.58
525.474	675.27
525.928	671.78
526.382	661.57
526.837	668.48
527.291	671.27
527.745	675.67
528.2	668.47
528.654	664.77
529.108	664.48
529.562	669.98
530.016	674.48
530.47	663.98
530.925	660.77
531.379	673.68
531.833	686.58
532.287	687.88
532.741	676.88
533.195	682.08
533.649	688.07
534.103	689.27
534.556	678.58
535.01	695.78
535.464	685.57
535.918	689.78
536.372	689.28
536.826	686.17
537.279	673.97
537.733	679.27
538.187	690.77
538.64	682.97
539.094	694.57
539.548	696.58
540.001	683.47
540.455	692.47
540.908	702.87
541.362	700.38
541.815	715.68
542.269	717.08
542.722	725.27
543.175	733.18
543.629	733.58
544.082	751.98
544.536	755.68
544.989	744.28
545.442	757.48
545.895	762.17
546.349	748.17
546.802	748.67
547.255	758.87
547.708	764.38
548.161	779.67
548.614	775.27
549.067	792.98
549.52	782.88
549.973	769.68
550.426	777.27
550.879	751.48
551.332	757.47
551.785	761.48
552.238	773.77
552.691	781.08
553.144	791.47
553.596	819.17
554.049	817.37
554.502	860.77
554.955	867.67
555.407	872.87
555.86	854.18
556.313	852.27
556.765	839.28
557.218	839.08
557.67	839.88
558.123	825.27
558.576	824.77
559.028	832.08
559.48	834.67
559.933	817.68
560.385	792.88
560.838	767.77
561.29	746.87
561.742	733.67
562.195	723.98
562.647	727.88
563.099	727.88
563.551	721.18
564.004	740.08
564.456	731.08
564.908	712.67
565.36	704.07
565.812	696.47
566.264	691.58
566.716	677.38
567.168	665.88
567.62	684.28
568.072	663.98
568.524	651.17
568.976	651.47
569.428	622.98
569.88	635.98
570.332	647.17
570.784	641.88
571.235	643.28
571.687	650.57
572.139	661.38
572.59	670.27
573.042	669.17
573.494	662.67
573.945	668.38
574.397	640.18
574.849	651.18
575.3	653.18
575.752	645.77
576.203	637.88
576.655	645.08
577.106	627.18
577.557	626.08
578.009	624.17
578.46	626.17
578.912	625.97
579.363	623.68
579.814	622.17
580.265	621.47
580.717	623.57
581.168	633.57
581.619	643.98
582.07	640.78
582.521	632.08
582.972	624.97
583.423	635.88
583.875	641.18
584.326	655.58
584.777	700.28
585.227	771.77
585.678	849.57
586.129	928.78
586.58	1005.28
587.031	1085.97
587.482	1240.67
587.933	1407.17
588.384	1216.97
588.834	911.18
589.285	749.97
589.736	735.57
590.186	735.17
590.637	710.68
591.088	694.88
591.538	687.88
591.989	680.68
592.439	672.97
592.89	674.08
593.34	658.18
593.791	656.27
594.241	653.17
594.692	652.57
595.142	647.48
595.593	647.48
596.043	659.67
596.493	669.77
596.943	664.67
597.394	672.77
597.844	659.57
598.294	676.98
598.744	695.18
599.195	721.68
599.645	755.88
600.095	793.78
600.545	834.17
600.995	893.28
601.445	950.67
601.895	1011.08
602.345	1044.97
602.795	1028.68
603.245	989.67
603.695	936.58
604.145	893.48
604.594	846.98
605.044	802.07
605.494	739.97
605.944	692.98
606.393	686.67
606.843	667.27
607.293	674.17
607.743	679.27
608.192	689.38
608.642	693.07
609.091	707.67
609.541	704.77
609.99	718.28
610.44	703.08
610.889	665.98
611.339	639.97
611.788	630.08
612.238	642.67
612.687	658.97
613.136	657.07
613.586	686.08
614.035	682.17
614.484	700.37
614.933	702.07
615.383	691.07
615.832	674.17
616.281	661.48
616.73	624.98
617.179	610.58
617.628	582.97
618.077	573.57
618.526	573.38
618.975	562.88
619.424	565.58
619.873	562.38
620.322	561.27
620.771	546.18
621.22	549.47
621.669	546.78
622.118	539.58
622.567	535.48
623.015	513.07
623.464	517.68
623.913	507.97
624.361	508.47
624.81	501.57
625.259	508.98
625.707	507.38
626.156	515.27
626.604	518.47
627.053	503.88
627.501	502.08
627.95	516.08
628.398	522.67
628.847	518.08
629.295	522.98
629.744	526.08
630.192	518.28
630.64	515.77
631.089	516.97
631.537	518.88
631.985	532.68
632.433	543.88
632.881	543.67
633.33	589.67
633.778	576.18
634.226	519.88
634.674	516.17
635.122	526.08
635.57	528.27
636.018	561.87
636.466	528.68
636.914	504.98
637.362	514.67
637.81	528.78
638.258	527.67
638.705	524.07
639.153	553.57
639.601	551.68
640.049	581.17
640.497	609.47
640.944	630.88
641.392	590.87
641.84	555.67
642.287	521.07
642.735	513.28
643.182	519.98
643.63	522.07
644.078	526.67
644.525	520.67
644.973	539.37
645.42	538.97
645.867	565.98
646.315	575.28
646.762	604.48
647.21	625.38
647.657	654.27
648.104	684.77
648.551	695.98
648.999	742.88
649.446	825.18
649.893	916.28
650.34	1043.78
650.787	1251.07
651.234	1542.97
651.682	2015.07
652.129	2758.97
652.576	3939.38
653.023	5858.78
653.47	8056.07
653.917	10182.47
654.363	11868.77
654.81	13289.98
655.257	12647.48
655.704	8186.97
656.151	4829.77
656.598	3123.28
657.044	2204.57
657.491	1702.47
657.938	1347.97
658.385	1130.58
658.831	981.17
659.278	873.27
659.724	767.78
660.171	711.27
660.618	648.87
661.064	610.28
661.511	596.18
661.957	587.28
662.404	579.77
662.85	587.17
663.296	556.98
663.743	512.17
664.189	488.38
664.635	476.18
665.082	484.77
665.528	472.97
665.974	464.07
666.42	462.38
666.867	455.07
667.313	438.57
667.759	431.38
668.205	429.08
668.651	435.28
669.097	442.97
669.543	447.58
669.989	427.07
670.435	388.08
670.881	393.58
671.327	406.87
671.773	418.38
672.219	433.77
672.665	490.78
673.11	515.67
673.556	550.27
674.002	600.27
674.448	588.08
674.893	501.57
675.339	426.97
675.785	399.07
676.23	372.78
676.676	349.38
677.122	337.47
677.567	333.18
678.013	324.07
678.458	320.88
678.904	317.58
679.349	307.27
679.794	310.38
680.24	315.08
680.685	306.57
681.131	312.48
681.576	311.17
682.021	315.68
682.466	309.28
682.912	310.08
683.357	318.77
683.802	338.67
684.247	361.38
684.692	402.97
685.137	441.07
685.583	474.77
686.028	507.88
686.473	459.67
686.918	398.27
687.363	369.47
687.807	346.58
688.252	327.08
688.697	314.08
689.142	295.98
689.587	294.58
690.032	286.17
690.477	296.38
690.921	305.78
691.366	340.37
691.811	355.47
692.255	384.27
692.7	405.38
693.145	445.38
693.589	607.67
694.034	994.18
694.478	1350.48
694.923	1553.78
695.367	2055.68
695.812	1068.38
696.256	452.47
696.701	333.08
697.145	307.18
697.59	292.58
698.034	285.27
698.478	295.08
698.922	286.08
699.367	289.48
699.811	299.98
700.255	310.48
700.699	337.98
701.143	377.58
701.588	425.97
702.032	460.38
702.476	452.17
702.92	436.78
703.364	437.77
703.808	541.08
704.252	879.48
704.696	1272.88
705.14	1488.47
705.584	1924.08
706.027	953.47
706.471	465.58
706.915	345.47
707.359	309.98
707.803	281.58
708.246	267.17
708.69	278.38
709.134	272.18
709.577	272.27
710.021	278.97
710.465	269.78
710.908	268.37
711.352	260.77
711.795	268.47
712.239	300.38
712.682	339.08
713.126	369.97
713.569	413.77
714.012	329.18
714.456	285.28
714.899	261.18
715.342	241.17
715.786	233.57
716.229	232.97
716.672	228.48
717.115	213.07
717.558	219.58
718.002	220.78
718.445	231.57
718.888	248.47
719.331	261.88
719.774	276.27
720.217	264.68
720.66	245.28
721.103	233.17
721.546	228.78
721.989	219.27
722.432	201.88
722.874	212.27
723.317	196.18
723.76	210.87
724.203	222.08
724.645	273.68
725.088	388.47
725.531	492.47
725.974	571.67
726.416	489.47
726.859	279.17
727.301	219.27
727.744	207.58
728.187	204.98
728.629	215.17
729.071	213.98
729.514	229.77
729.956	242.67
730.399	247.98
730.841	250.58
731.283	237.78
731.726	236.88
732.168	223.68
732.61	232.58
733.053	242.88
733.495	275.08
733.937	306.38
734.379	351.97
734.821	378.38
735.263	471.17
735.705	715.68
736.148	1350.47
736.59	2256.77
737.032	2742.77
737.474	2235.88
737.916	710.77
738.357	366.98
738.799	289.48
739.241	266.68
739.683	251.47
740.125	256.68
740.567	259.27
741.008	276.08
741.45	278.07
741.892	279.77
742.334	304.67
742.775	313.88
743.217	301.27
743.658	239.78
744.1	217.58
744.542	223.27
744.983	266.98
745.425	312.28
745.866	310.07
746.307	253.07
746.749	250.27
747.19	280.98
747.632	389.28
748.073	749.38
748.514	1603.58
748.956	2496.47
749.397	3129.78
749.838	2605.68
750.279	2682.38
750.72	1333.77
751.162	479.57
751.603	278.08
752.044	216.97
752.485	192.98
752.926	183.38
753.367	174.38
753.808	163.47
754.249	166.77
754.69	165.38
755.131	157.88
755.572	160.08
756.013	149.38
756.453	157.68
756.894	162.28
757.335	167.38
757.776	167.38
758.216	172.17
758.657	177.08
759.098	184.08
759.538	196.07
759.979	233.47
760.42	317.27
760.86	604.77
761.301	1547.28
761.741	3822.38
762.182	5838.77
762.622	4099.88
763.063	1171.78
763.503	473.17
763.943	302.88
764.384	305.17
764.824	348.78
765.264	394.27
765.705	269.47
766.145	190.57
766.585	162.67
767.025	151.17
767.465	160.27
767.906	210.38
768.346	283.08
768.786	303.38
769.226	227.07
769.666	268.47
770.106	523.47
770.546	1319.08
770.986	2350.77
771.426	2145.18
771.866	708.58
772.306	291.98
772.745	183.57
773.185	151.88
773.625	151.58
774.065	147.67
774.505	175.47
774.944	268.67
775.384	590.97
775.824	1098.67
776.263	1093.68
776.703	451.28
777.142	189.88
777.582	143.17
778.021	122.38
778.461	124.88
778.9	127.27
779.34	114.88
779.779	103.77
780.219	99.28
780.658	92.77
781.097	99.88
781.537	102.17
781.976	97.97
782.415	97.88
782.855	92.98
783.294	85.48
783.733	89.88
784.172	93.38
784.611	85.88
785.05	98.88
785.489	95.48
785.928	108.48
786.367	110.48
786.806	103.57
787.245	113.07
787.684	117.48
788.123	129.08
788.562	112.98
789.001	113.58
789.44	101.98
789.879	96.07
790.317	107.77
790.756	114.08
791.195	111.18
791.634	129.18
792.072	176.38
792.511	304.38
792.95	851.47
793.388	1898.78
793.827	1760.38
794.265	595.77
794.704	249.98
795.142	160.38
795.581	127.27
796.019	116.17
796.458	117.18
796.896	107.88
797.334	109.77
797.773	132.58
798.211	188.48
798.649	371.67
799.087	879.38
799.526	1410.47
799.964	1764.97
800.402	1822.58
800.84	670.17
801.278	269.57
801.716	163.58
802.154	134.07
802.592	129.08
803.03	124.78
803.468	117.08
803.906	127.77
804.344	126.88
804.782	118.27
805.22	114.88
805.658	113.48
806.096	127.68
806.533	138.88
806.971	153.67
807.409	181.47
807.847	265.17
808.284	555.78
808.722	1616.87
809.16	2925.78
809.597	2710.77
810.035	4775.17
810.472	5300.58
810.91	1872.58
811.347	704.98
811.785	353.17
812.222	223.88
812.66	180.38
813.097	139.88
813.535	123.57
813.972	115.27
814.409	105.58
814.846	99.68
815.284	102.27
815.721	93.77
816.158	95.58
816.595	107.18
817.032	159.88
817.47	176.27
817.907	141.98
818.344	134.47
818.781	101.48
819.218	87.58
819.655	115.58
820.092	165.98
820.529	192.97
820.966	158.78
821.403	121.27
821.839	94.18
822.276	91.98
822.713	113.77
823.15	118.98
823.587	103.67
824.023	125.57
824.46	252.88
824.897	774.48
825.333	1222.68
825.77	520.47
826.206	201.27
826.643	113.57
827.08	86.08
827.516	72.38
827.953	66.98
828.389	73.77
828.825	54.58
829.262	60.07
829.698	50.17
830.135	57.58
830.571	55.38
831.007	54.58
831.443	55.77
831.88	60.48
832.316	56.88
832.752	56.58
833.188	57.88
833.624	51.08
834.06	60.18
834.497	61.98
834.933	64.48
835.369	60.88
835.805	54.77
836.241	66.27
836.677	68.58
837.112	78.07
837.548	86.98
837.984	109.58
838.42	167.88
838.856	425.87
839.292	1322.47
839.727	2083.07
840.163	964.58
840.599	798.18
841.034	1781.68
841.47	1938.88
841.906	689.38
842.341	289.18
842.777	208.98
843.212	270.38
843.648	291.58
844.083	133.67
844.519	85.38
844.954	66.48
845.39	50.58
845.825	52.58
846.261	49.28
846.696	47.17
847.131	43.18
847.566	51.47
848.002	47.38
848.437	41.77
848.872	51.27
849.307	57.48
849.742	79.98
850.177	148.58
850.613	477.28
851.048	796.58
851.483	342.58
851.918	125.07
852.353	74.38
852.788	51.38
853.223	47.17
853.657	46.27
854.092	42.38
854.527	32.77
854.962	34.67
855.397	41.77
855.832	44.17
856.266	30.28
856.701	37.28
857.136	31.27
857.57	38.98
858.005	49.38
858.44	50.98
858.874	43.18
859.309	44.28
859.743	37.98
860.178	46.38
860.612	33.98
861.047	43.67
861.481	61.48
861.915	61.88
862.35	46.38
862.784	28.47
863.218	37.98
863.653	38.88
864.087	39.67
864.521	48.77
864.955	57.48
865.39	135.88
865.824	153.78
866.258	103.78
866.692	146.08
867.126	160.17
867.56	95.17
867.994	43.17
868.428	36.38
868.862	36.98
869.296	49.08
869.73	52.47
870.164	54.27
870.598	41.18
871.031	34.98
871.465	24.77
871.899	36.18
872.333	19.48
872.766	21.98
873.2	22.57
873.634	30.48
874.067	20.88
874.501	18.07
874.935	29.47
875.368	26.27
875.802	19.77
876.235	20.77
876.669	23.68
877.102	20.88
877.535	20.08
877.969	20.88
878.402	24.48
878.836	16.77
879.269	18.48
879.702	21.17
880.135	17.17
880.569	21.57
881.002	26.98
881.435	20.98
881.868	15.98
882.301	19.08
882.734	12.17
883.167	17.77
883.601	18.68
884.034	19.67
884.467	11.38
884.899	15.58
885.332	10.98
885.765	13.48
886.198	11.17
886.631	16.27
887.064	12.98
887.497	17.27
887.929	23.17
888.362	9.58
888.795	10.98
889.228	10.08
889.66	16.67
890.093	14.97
890.526	14.47
890.958	7.58
891.391	17.08
891.823	18.38
892.256	13.88
892.688	10.67
893.121	12.98
893.553	16.57
893.985	23.47
894.418	18.97
894.85	7.38
895.282	14.07
895.715	13.98
896.147	14.88
896.579	13.48
897.011	13.48
897.444	13.77
897.876	10.38
898.308	13.88
898.74	13.68
899.172	11.58
899.604	24.68
900.036	17.17
900.468	16.58
900.9	10.77
901.332	12.57
901.764	12.67
902.196	16.98
902.628	13.77
903.06	11.47
903.491	26.58
903.923	24.17
904.355	19.48
904.787	26.38
905.218	23.68
905.65	18.57
906.082	7.07
906.513	10.38
906.945	12.57
907.376	13.07
907.808	20.48
908.239	20.88
908.671	13.77
909.102	23.68
909.534	19.68
909.965	39.98
910.397	78.07
910.828	281.68
911.259	433.28
911.691	193.57
912.122	93.98
912.553	44.17
912.984	29.18
913.415	23.18
913.847	24.27
914.278	11.08
914.709	10.98
915.14	12.78
915.571	10.17
916.002	5.27
916.433	16.18
916.864	15.77
917.295	11.07
917.726	21.88
918.157	12.77
918.587	27.27
919.018	15.68
919.449	15.78
919.88	20.47
920.311	25.98
920.741	41.77
921.172	150.58
921.603	134.77
922.033	65.38
922.464	40.08
922.895	15.07
923.325	12.18
923.756	8.48
924.186	16.38
924.617	27.48
925.047	34.98
925.478	43.77
925.908	48.58
926.338	24.98
926.769	12.78
927.199	21.18
927.629	6.58
928.06	18.67
928.49	8.38
928.92	10.98
929.35	10.58
929.78	5.98
930.21	11.88
930.641	10.27
931.071	8.98
931.501	-0.82
931.931	6.78
932.361	7.18
932.791	5.27
933.221	2.77
933.651	7.08
934.08	20.98
934.51	26.08
934.94	14.88
935.37	8.08
935.8	13.07
936.229	12.07
936.659	9.47
937.089	5.48
937.519	13.08
937.948	11.88
938.378	11.27
938.807	6.27
939.237	7.58
939.666	11.58
940.096	-5.62
940.525	1.17
940.955	1.38
941.384	2.18
941.814	-7.93
942.243	-3.42
942.672	1.58
943.102	-1.22
943.531	1.77
943.96	1.48
944.39	3.07
944.819	-1.53
945.248	0.67
945.677	4.67
946.106	7.08
946.535	8.27
946.964	-4.92
947.393	2.27
947.822	-1.62
948.251	6.07
948.68	6.78
949.109	5.77
949.538	4.98
949.967	4.58
950.396	1.57
950.825	-4.53
951.254	0.48
951.682	-4.52
952.111	2.27
952.54	9.58
952.969	1.27
953.397	-5.62
953.826	0.48
954.254	-7.83
954.683	2.17
955.112	2.48
955.54	-0.12
955.969	-4.23
956.397	-3.02
956.826	-6.12
957.254	-2.52
957.682	-3.83
958.111	6.48
958.539	-1.12
958.967	2.68
959.396	-6.12
959.824	3.38
960.252	4.17
960.68	-3.03
961.109	-2.83
961.537	-11.23
961.965	-3.93
962.393	-0.62
962.821	-4.62
963.249	0.88
963.677	-0.62
964.105	4.57
964.533	42.08
964.961	38.47
965.389	18.88
965.817	6.07
966.245	-0.02
966.672	-6.42
967.1	-11.02
967.528	-1.53
967.956	-9.62
968.383	-7.12
968.811	-9.62
969.239	2.97
969.666	-4.42
970.094	-2.73
970.522	1.48
970.949	-2.53
971.377	-1.62
971.804	-3.92
972.232	1.27
972.659	-1.32
973.087	-5.43
973.514	-4.03
973.941	-7.52
974.369	1.67
974.796	-2.82
975.223	0.47
975.651	-4.92
976.078	1.27
976.505	-3.52
976.932	0.27
977.359	11.17
977.786	11.38
978.214	-2.02
978.641	0.27
979.068	-2.73
979.495	-2.83
979.922	-2.03
980.349	-0.73
980.776	5.17
981.202	-1.12
981.629	2.38
982.056	4.27
982.483	-4.92
982.91	7.58
983.337	-3.83
983.763	2.17
984.19	-7.73
984.617	-8.02
985.043	-5.83
985.47	-4.02
985.897	-3.32
986.323	-7.52
986.75	3.38
987.176	-2.43
987.603	-0.33
988.029	-2.93
988.456	-5.23
988.882	1.68
989.308	-7.23
989.735	1.17
990.161	3.08
990.587	-3.43
991.014	-0.12
991.44	7.88
991.866	-1.02
992.292	-6.72
992.719	-2.62
993.145	4.48
993.571	-11.62
993.997	-4.12
994.423	3.38
994.849	-3.23
995.275	0.48
995.701	5.38
996.127	-4.03
996.553	1.18
996.979	-2.62
997.405	-4.72
997.83	-8.33
998.256	-3.73
998.682	-7.12
999.108	-11.93
999.534	-7.53
999.959	0.17
1000.385	-6.83
1000.811	1.27
1001.236	-10.23
1001.662	-6.73
1002.087	-12.72
1002.513	-2.12
1002.938	3.68
1003.364	-4.22
1003.789	-2.32
1004.215	-0.32
1004.64	-0.73
1005.066	3.77
1005.491	-3.52
1005.916	-4.33
1006.342	-4.72
1006.767	-5.23
1007.192	2.77
1007.617	-4.83
1008.042	-2.62
1008.468	-4.12
1008.893	-9.22
1009.318	-0.42
1009.743	-2.62
1010.168	2.67
1010.593	0.27
1011.018	-13.73
1011.443	-6.02
1011.868	-2.52
1012.293	-3.62
1012.718	-7.32
1013.143	2.38
1013.567	5.27
1013.992	-1.23
1014.417	-8.23
1014.842	-1.43
1015.267	-3.43
1015.691	0.38
1016.116	9.48
1016.541	-0.02
1016.965	5.17
1017.39	4.27
1017.814	-5.82
1018.239	-1.33
1018.663	-7.43
1019.088	-4.12
1019.512	0.48
1019.937	1.08
1020.361	-4.23
1020.785	-11.33
1021.21	-1.62
1021.634	-4.42
1022.058	-4.62
1022.483	4.98
1022.907	-7.83
1023.331	-9.82
1023.755	-6.33
1024.179	-7.73
1024.604	-7.02
1025.028	-2.33
1025.452	-3.23
1025.876	0.77
1026.3	-0.52
1026.724	-7.43
1027.148	-2.92
1027.572	-5.52
1027.996	-8.62
1028.42	-1.62
1028.843	-5.53
1029.267	-5.93
1029.691	-0.53
1030.115	-7.62
1030.539	-5.53
1030.962	-7.62
1031.386	-5.52
1031.81	-1.42
1032.233	-3.62
1032.657	-5.22
1033.08	-0.02
1033.504	0.38
1033.927	-3.82
1034.351	-3.92
1034.774	-5.33
1035.198	2.38
1035.621	-5.22
1036.045	-6.93
1036.468	6.88
1036.891	-15.02
1037.315	-9.73
1037.738	-12.62
1038.161	3.88
1038.584	-5.92
1039.008	-3.02
1039.431	-7.23
1039.854	-4.43
1040.277	-9.23
1040.7	-7.52
1041.123	2.67
1041.546	-10.42
1041.969	-2.82
1042.392	-11.33
1042.815	-6.93
1043.238	-4.62
1043.661	2.17
1044.084	-8.73
1044.507	-6.23
1044.93	-5.73
1045.352	-7.23
1045.775	-0.53
1046.198	1.38
1046.621	1.18
1047.043	4.98
1047.466	7.08
1047.889	-2.52
1048.311	-3.92
1048.734	-4.92
1049.156	-4.32
1049.579	-1.43
1050.001	-5.12
1050.424	1.38
1050.846	-3.12
1051.269	-1.92
1051.691	-1.22
1052.113	-5.12
1052.536	-2.62
1052.958	-4.73
1053.38	-5.43
1053.802	-6.73
1054.225	-3.73
1054.647	-11.12
1055.069	-2.43
1055.491	-0.73
1055.913	-11.02
1056.335	-2.62
1056.757	-1.62
1057.179	-3.83
1057.601	-6.82
1058.023	-0.42
1058.445	-2.53
1058.867	-4.62
1059.289	-11.93
1059.711	-9.72
1060.133	-6.12
1060.555	-8.33
1060.976	-3.93
1061.398	-6.02
1061.82	-0.12
1062.241	-12.83
1062.663	-6.62
1063.085	-2.42
1063.506	-3.52
1063.928	-4.33
1064.35	0.08
1064.771	-13.93
1065.193	-1.03
1065.614	-6.92
1066.035	-3.92
1066.457	-4.02
1066.878	3.38
1067.3	-6.43
1067.721	-4.62
1068.142	-9.23
1068.564	-3.93
1068.985	-6.33
1069.406	-5.82
1069.827	-5.83
1070.248	-3.52
1070.67	-9.23
1071.091	-4.12
1071.512	-5.12
1071.933	-4.33
1072.354	-8.42
1072.775	-2.92
1073.196	-2.02
1073.617	-4.33
1074.038	-5.42
1074.459	-8.22
1074.88	-8.62
1075.3	0.08
1075.721	-11.33
1076.142	-0.02
1076.563	-7.23
1076.983	-12.02
1077.404	-5.92
1077.825	-9.92
1078.246	-7.52
1078.666	-13.12
1079.087	-9.62
1079.507	-8.12
1079.928	-2.73
1080.348	2.88
1080.769	-1.02
1081.189	-1.42
1081.61	-5.92
1082.03	-5.23
1082.451	-2.33
1082.871	-7.72
1083.291	-7.03
1083.711	-8.62
1084.132	-6.02
1084.552	-6.12
1084.972	-0.52
1085.392	-9.23
1085.813	-7.12
1086.233	-7.23
1086.653	-7.02
1087.073	-5.73
1087.493	-6.12
1087.913	-5.43
1088.333	-6.43
1088.753	0.27
1089.173	1.17
1089.593	-7.42
1090.013	0.77
1090.433	1.17
1090.852	-3.52
1091.272	-0.33
1091.692	-3.52
1092.112	-3.73
1092.531	-10.02
1092.951	-9.23
1093.371	-2.12
1093.79	1.48
1094.21	-6.02
1094.63	-6.62
1095.049	-7.23
1095.469	-6.02
1095.888	-3.52
1096.308	-0.12
1096.727	4.77
1097.146	-8.02
1097.566	0.88
1097.985	-4.83
1098.405	-3.62
1098.824	-8.62
1099.243	-9.82
1099.662	-7.43
1100.082	-4.92
1100.501	0.17
1100.92	-5.93
1101.339	0.88
1101.758	-10.32
