Data from 20171114-ORNL-Ar_H_NY_Subt18_08-08-54-720.txt Node
Date: Tue Nov 14 08:08:54 EST 2017
User: Ender
Spectrometer: HR+D1039
Trigger mode: 0
Integration Time (sec): 2.730000E-2
Scans to average: 10
Electric dark correction enabled: true
Nonlinearity correction enabled: false
Boxcar width: 0
XAxis mode: Wavelengths
Number of Pixels in Spectrum: 2048
>>>>>Begin Spectral Data<<<<<
187.836	0.36
188.309	0.36
188.782	0.36
189.255	0.56
189.728	1.66
190.201	2.96
190.674	4.56
191.147	-1.04
191.619	-8.24
192.092	1.46
192.565	2.26
193.038	-1.64
193.511	2.96
193.984	4.16
194.456	-7.84
194.929	-5.54
195.402	2.76
195.874	0.66
196.347	-1.84
196.82	-4.94
197.292	8.16
197.765	-5.04
198.237	-0.24
198.71	0.86
199.182	-2.54
199.655	4.66
200.127	2.46
200.6	1.06
201.072	-5.84
201.544	-4.34
202.017	0.06
202.489	4.56
202.961	-6.14
203.433	-1.74
203.906	-4.14
204.378	-9.34
204.85	-2.14
205.322	-7.84
205.794	0.96
206.266	-4.44
206.739	-5.54
207.211	2.66
207.683	-6.14
208.155	-1.24
208.627	-1.64
209.099	0.36
209.57	-12.44
210.042	-4.14
210.514	-5.04
210.986	-3.24
211.458	-6.04
211.93	-8.64
212.402	4.56
212.873	-7.64
213.345	-1.84
213.817	-13.34
214.288	-6.54
214.76	-18.34
215.232	2.86
215.703	-2.34
216.175	-4.04
216.646	-7.74
217.118	-9.24
217.589	3.36
218.061	-10.24
218.532	-0.34
219.004	-4.04
219.475	-2.14
219.946	-4.14
220.418	-3.54
220.889	-1.44
221.36	-1.44
221.832	-0.94
222.303	-12.14
222.774	-2.44
223.245	-7.84
223.717	-4.04
224.188	-4.74
224.659	-5.54
225.13	0.56
225.601	-4.14
226.072	1.56
226.543	0.86
227.014	1.86
227.485	-7.94
227.956	-3.14
228.427	-10.74
228.898	2.96
229.369	4.36
229.839	-10.24
230.31	-2.04
230.781	-0.94
231.252	-0.84
231.722	-5.24
232.193	-2.64
232.664	-0.64
233.135	2.56
233.605	-1.74
234.076	-7.94
234.546	-2.04
235.017	2.76
235.487	0.46
235.958	-4.24
236.428	-4.24
236.899	-4.54
237.369	4.56
237.84	-0.74
238.31	7.86
238.78	8.36
239.251	1.46
239.721	3.06
240.191	-1.84
240.662	-6.24
241.132	-0.54
241.602	0.96
242.072	-2.94
242.542	0.56
243.013	0.36
243.483	3.06
243.953	3.46
244.423	-2.04
244.893	-7.54
245.363	-1.44
245.833	3.16
246.303	-9.14
246.773	5.56
247.243	6.06
247.712	-2.84
248.182	10.06
248.652	3.16
249.122	-7.34
249.592	2.26
250.061	15.36
250.531	20.96
251.001	10.36
251.471	11.36
251.94	8.06
252.41	1.96
252.879	-2.74
253.349	7.86
253.818	2.66
254.288	8.66
254.757	0.96
255.227	-2.64
255.696	-1.14
256.166	4.86
256.635	1.26
257.105	1.06
257.574	7.46
258.043	0.46
258.513	6.66
258.982	8.96
259.451	-1.04
259.92	6.66
260.389	3.86
260.859	9.06
261.328	7.66
261.797	13.76
262.266	0.56
262.735	9.06
263.204	5.16
263.673	-0.94
264.142	3.16
264.611	-6.34
265.08	3.66
265.549	-0.54
266.018	7.86
266.487	-3.84
266.955	0.66
267.424	4.86
267.893	7.76
268.362	3.36
268.83	-2.74
269.299	5.26
269.768	2.76
270.236	7.06
270.705	1.36
271.174	5.06
271.642	2.66
272.111	4.66
272.579	13.56
273.048	15.66
273.516	19.76
273.985	14.76
274.453	13.36
274.922	7.16
275.39	7.86
275.858	1.56
276.327	9.66
276.795	15.86
277.263	7.06
277.731	21.86
278.2	34.46
278.668	40.56
279.136	28.76
279.604	8.06
280.072	5.96
280.54	9.76
281.008	3.26
281.477	10.56
281.945	7.76
282.413	7.06
282.881	8.26
283.348	0.96
283.816	12.66
284.284	8.16
284.752	15.96
285.22	5.46
285.688	10.56
286.156	13.76
286.623	31.76
287.091	31.66
287.559	15.86
288.026	11.16
288.494	12.46
288.962	-3.24
289.429	5.16
289.897	14.96
290.364	8.06
290.832	11.26
291.3	11.76
291.767	7.86
292.234	15.76
292.702	3.16
293.169	5.66
293.637	16.76
294.104	12.36
294.571	6.36
295.039	12.46
295.506	6.66
295.973	6.96
296.44	11.36
296.908	11.96
297.375	13.46
297.842	10.56
298.309	10.06
298.776	8.16
299.243	14.06
299.71	5.76
300.177	14.06
300.644	22.66
301.111	13.26
301.578	11.36
302.045	9.46
302.512	19.66
302.979	11.46
303.446	13.16
303.913	18.06
304.379	14.16
304.846	22.26
305.313	17.86
305.78	15.96
306.246	19.76
306.713	20.06
307.18	16.56
307.646	18.66
308.113	19.16
308.579	12.76
309.046	18.46
309.512	18.26
309.979	11.06
310.445	20.96
310.912	18.76
311.378	24.06
311.845	17.06
312.311	23.36
312.777	24.66
313.244	24.06
313.71	30.96
314.176	20.86
314.642	18.36
315.109	23.66
315.575	29.76
316.041	32.06
316.507	26.76
316.973	23.96
317.439	23.56
317.905	24.76
318.371	28.96
318.837	24.16
319.303	24.46
319.769	32.06
320.235	27.56
320.701	27.86
321.167	29.86
321.633	27.66
322.099	28.26
322.564	35.76
323.03	30.56
323.496	25.56
323.962	32.16
324.427	25.56
324.893	34.16
325.359	27.66
325.824	33.26
326.29	25.66
326.755	32.26
327.221	31.06
327.686	28.26
328.152	42.16
328.617	38.06
329.083	39.76
329.548	40.66
330.014	37.26
330.479	35.16
330.944	44.96
331.41	32.26
331.875	39.56
332.34	34.86
332.805	29.86
333.271	42.56
333.736	36.66
334.201	41.86
334.666	41.66
335.131	46.56
335.596	42.16
336.061	43.86
336.526	31.96
336.991	44.36
337.456	48.96
337.921	39.06
338.386	37.96
338.851	34.96
339.316	40.66
339.781	38.56
340.246	39.56
340.711	42.36
341.175	41.86
341.64	31.66
342.105	44.36
342.569	44.66
343.034	44.36
343.499	44.56
343.963	39.46
344.428	54.26
344.893	45.76
345.357	47.36
345.822	52.96
346.286	54.06
346.751	61.26
347.215	52.26
347.679	54.86
348.144	72.96
348.608	63.96
349.073	59.86
349.537	66.16
350.001	67.86
350.465	77.56
350.93	71.06
351.394	71.66
351.858	62.46
352.322	71.06
352.786	68.06
353.25	82.66
353.715	91.06
354.179	80.06
354.643	97.06
355.107	101.26
355.571	86.96
356.035	81.86
356.498	93.66
356.962	104.56
357.426	108.06
357.89	96.06
358.354	76.96
358.818	70.46
359.281	68.26
359.745	62.36
360.209	69.26
360.673	69.66
361.136	77.36
361.6	77.76
362.064	74.16
362.527	73.96
362.991	85.06
363.454	71.26
363.918	66.96
364.381	72.36
364.845	67.16
365.308	75.16
365.772	79.76
366.235	79.26
366.698	74.26
367.162	76.56
367.625	75.56
368.088	73.76
368.552	85.86
369.015	78.16
369.478	79.96
369.941	87.06
370.404	79.06
370.867	95.26
371.331	91.66
371.794	98.36
372.257	97.66
372.72	103.46
373.183	100.06
373.646	90.26
374.109	84.96
374.572	94.46
375.035	95.86
375.497	94.86
375.96	89.06
376.423	92.06
376.886	105.06
377.349	102.16
377.811	96.16
378.274	97.96
378.737	96.16
379.199	104.86
379.662	102.46
380.125	114.66
380.587	104.86
381.05	108.56
381.512	109.56
381.975	121.56
382.437	117.06
382.9	113.76
383.362	124.66
383.825	125.86
384.287	136.86
384.75	122.36
385.212	126.16
385.674	128.26
386.136	127.56
386.599	110.76
387.061	121.56
387.523	116.66
387.985	121.16
388.447	134.86
388.91	126.06
389.372	145.76
389.834	141.46
390.296	131.36
390.758	136.76
391.22	150.06
391.682	179.06
392.144	256.26
392.606	197.16
393.068	151.46
393.529	152.96
393.991	138.66
394.453	142.76
394.915	141.56
395.377	167.76
395.838	184.36
396.3	140.16
396.762	142.06
397.224	126.46
397.685	123.66
398.147	126.86
398.608	121.46
399.07	122.66
399.531	136.36
399.993	128.26
400.454	140.56
400.916	142.96
401.377	141.56
401.839	140.76
402.3	141.56
402.762	158.36
403.223	171.16
403.684	168.86
404.145	151.06
404.607	154.86
405.068	158.06
405.529	155.56
405.99	170.46
406.451	158.46
406.913	159.86
407.374	153.36
407.835	159.06
408.296	169.86
408.757	167.96
409.218	182.36
409.679	173.16
410.14	172.06
410.601	167.06
411.062	181.96
411.522	190.96
411.983	180.36
412.444	174.86
412.905	173.66
413.366	174.86
413.826	186.36
414.287	212.56
414.748	248.06
415.208	234.56
415.669	204.76
416.13	209.16
416.59	194.46
417.051	209.36
417.511	216.56
417.972	230.26
418.432	239.96
418.893	272.26
419.353	242.26
419.814	192.56
420.274	175.56
420.734	171.36
421.195	200.16
421.655	189.66
422.115	189.46
422.576	190.66
423.036	188.36
423.496	202.96
423.956	214.36
424.416	226.96
424.876	257.96
425.336	251.86
425.797	256.06
426.257	245.76
426.717	235.16
427.177	231.66
427.637	212.06
428.097	225.46
428.556	238.16
429.016	263.86
429.476	258.96
429.936	267.26
430.396	266.46
430.856	282.36
431.315	308.36
431.775	338.86
432.235	368.46
432.694	335.66
433.154	349.26
433.614	373.56
434.073	316.26
434.533	271.36
434.993	265.26
435.452	266.06
435.912	281.26
436.371	274.16
436.83	269.46
437.29	261.26
437.749	241.46
438.209	241.16
438.668	263.56
439.127	280.46
439.587	255.26
440.046	249.26
440.505	252.46
440.964	271.86
441.424	300.36
441.883	299.46
442.342	253.36
442.801	215.96
443.26	219.26
443.719	216.96
444.178	214.26
444.637	211.86
445.096	221.56
445.555	221.46
446.014	216.96
446.473	225.36
446.932	229.76
447.391	217.26
447.849	231.66
448.308	222.56
448.767	218.86
449.226	239.26
449.685	238.56
450.143	242.56
450.602	235.76
451.061	227.26
451.519	230.56
451.978	229.76
452.436	236.06
452.895	232.16
453.353	252.06
453.812	241.46
454.27	236.36
454.729	236.56
455.187	235.46
455.646	242.76
456.104	250.06
456.562	265.76
457.021	267.86
457.479	258.86
457.937	258.86
458.395	262.86
458.854	247.96
459.312	259.96
459.77	274.46
460.228	260.16
460.686	236.36
461.144	251.66
461.602	247.46
462.06	245.86
462.518	257.96
462.976	255.36
463.434	251.06
463.892	256.46
464.35	268.46
464.808	285.36
465.266	262.76
465.724	267.56
466.181	265.26
466.639	270.96
467.097	287.16
467.555	296.96
468.012	302.26
468.47	306.66
468.928	328.06
469.385	329.86
469.843	341.86
470.3	338.96
470.758	361.06
471.215	373.46
471.673	396.46
472.13	395.06
472.588	406.56
473.045	366.96
473.503	376.56
473.96	396.46
474.417	394.96
474.875	423.26
475.332	471.96
475.789	451.76
476.246	454.96
476.704	478.06
477.161	500.46
477.618	513.46
478.075	546.86
478.532	603.26
478.989	687.66
479.446	783.46
479.903	757.06
480.36	786.96
480.817	835.26
481.274	934.46
481.731	1034.16
482.188	1106.96
482.645	1236.36
483.102	1330.66
483.558	1452.36
484.015	1518.36
484.472	1475.46
484.929	1442.06
485.385	1385.66
485.842	1359.36
486.299	1292.46
486.755	1244.96
487.212	1059.66
487.668	913.66
488.125	827.56
488.582	766.66
489.038	727.36
489.494	696.06
489.951	666.36
490.407	658.96
490.864	628.06
491.32	632.36
491.776	626.96
492.233	643.76
492.689	604.06
493.145	594.36
493.602	593.76
494.058	611.76
494.514	617.16
494.97	621.26
495.426	640.36
495.882	601.86
496.338	602.86
496.794	604.76
497.251	596.26
497.707	628.96
498.163	621.26
498.618	633.56
499.074	634.56
499.53	671.16
499.986	665.06
500.442	646.16
500.898	623.26
501.354	616.36
501.809	623.96
502.265	629.36
502.721	651.06
503.177	656.06
503.632	655.46
504.088	664.46
504.543	697.16
504.999	694.66
505.455	648.26
505.91	629.26
506.366	625.16
506.821	620.46
507.277	615.56
507.732	636.36
508.187	626.66
508.643	632.16
509.098	642.56
509.553	653.26
510.009	662.46
510.464	669.96
510.919	677.76
511.375	680.76
511.83	690.86
512.285	715.86
512.74	749.06
513.195	775.06
513.65	765.66
514.105	757.66
514.56	760.06
515.015	784.06
515.47	797.86
515.925	776.96
516.38	776.66
516.835	771.46
517.29	778.26
517.745	773.66
518.2	757.06
518.655	744.46
519.109	735.76
519.564	735.26
520.019	721.86
520.474	720.26
520.928	720.06
521.383	712.96
521.838	703.36
522.292	700.66
522.747	703.16
523.201	695.56
523.656	693.16
524.11	691.16
524.565	694.26
525.019	697.56
525.474	696.86
525.928	699.86
526.382	697.36
526.837	683.46
527.291	703.76
527.745	685.86
528.2	699.06
528.654	689.76
529.108	684.36
529.562	682.66
530.016	684.86
530.47	694.96
530.925	690.36
531.379	691.86
531.833	696.96
532.287	691.96
532.741	701.16
533.195	697.36
533.649	706.46
534.103	705.76
534.556	706.66
535.01	709.06
535.464	696.96
535.918	708.16
536.372	715.86
536.826	704.46
537.279	703.66
537.733	704.46
538.187	705.36
538.64	708.96
539.094	714.76
539.548	727.86
540.001	720.36
540.455	721.46
540.908	726.66
541.362	736.26
541.815	741.16
542.269	747.96
542.722	754.16
543.175	760.06
543.629	772.16
544.082	781.36
544.536	790.06
544.989	783.36
545.442	786.76
545.895	784.96
546.349	783.36
546.802	781.16
547.255	792.36
547.708	807.96
548.161	814.36
548.614	825.86
549.067	834.26
549.52	819.76
549.973	809.06
550.426	799.06
550.879	795.66
551.332	801.66
551.785	805.16
552.238	806.26
552.691	822.46
553.144	819.06
553.596	845.46
554.049	848.36
554.502	894.96
554.955	909.76
555.407	905.96
555.86	902.46
556.313	893.76
556.765	885.66
557.218	872.46
557.67	879.36
558.123	868.56
558.576	868.46
559.028	872.46
559.48	882.86
559.933	864.46
560.385	841.76
560.838	811.06
561.29	784.06
561.742	789.16
562.195	768.86
562.647	765.06
563.099	775.96
563.551	777.56
564.004	786.56
564.456	774.36
564.908	763.96
565.36	741.96
565.812	744.16
566.264	730.46
566.716	719.96
567.168	706.36
567.62	710.96
568.072	691.76
568.524	698.06
568.976	700.76
569.428	676.26
569.88	678.16
570.332	682.26
570.784	684.76
571.235	689.16
571.687	703.56
572.139	699.56
572.59	705.66
573.042	716.06
573.494	706.66
573.945	703.36
574.397	671.86
574.849	690.16
575.3	696.26
575.752	691.16
576.203	682.96
576.655	684.56
577.106	681.06
577.557	667.06
578.009	673.66
578.46	672.36
578.912	665.96
579.363	671.66
579.814	671.86
580.265	668.06
580.717	666.86
581.168	668.86
581.619	678.76
582.07	680.06
582.521	678.66
582.972	674.76
583.423	683.06
583.875	684.46
584.326	711.16
584.777	744.96
585.227	803.26
585.678	886.76
586.129	949.96
586.58	1005.96
587.031	1060.96
587.482	1188.36
587.933	1323.36
588.384	1184.86
588.834	924.46
589.285	806.06
589.736	797.46
590.186	790.86
590.637	767.16
591.088	747.66
591.538	734.46
591.989	739.96
592.439	739.66
592.89	733.66
593.34	721.56
593.791	711.86
594.241	706.46
594.692	706.86
595.142	704.46
595.593	702.86
596.043	715.76
596.493	712.56
596.943	720.46
597.394	732.16
597.844	726.56
598.294	730.26
598.744	757.36
599.195	781.36
599.645	835.36
600.095	860.56
600.545	933.56
600.995	981.96
601.445	1049.06
601.895	1101.46
602.345	1152.86
602.795	1109.16
603.245	1074.66
603.695	1014.76
604.145	967.76
604.594	917.66
605.044	863.46
605.494	803.06
605.944	767.76
606.393	746.66
606.843	739.16
607.293	745.86
607.743	740.76
608.192	753.16
608.642	766.66
609.091	776.06
609.541	768.96
609.99	773.06
610.44	776.46
610.889	728.16
611.339	713.86
611.788	693.16
612.238	714.16
612.687	717.66
613.136	716.96
613.586	735.36
614.035	735.46
614.484	757.86
614.933	751.86
615.383	744.36
615.832	732.46
616.281	725.16
616.73	687.76
617.179	663.96
617.628	656.56
618.077	643.36
618.526	627.56
618.975	627.86
619.424	625.66
619.873	622.86
620.322	610.66
620.771	612.86
621.22	610.26
621.669	596.76
622.118	592.56
622.567	591.46
623.015	571.56
623.464	575.26
623.913	567.36
624.361	561.26
624.81	564.26
625.259	565.76
625.707	554.96
626.156	556.16
626.604	572.76
627.053	567.96
627.501	575.86
627.95	581.76
628.398	596.56
628.847	579.26
629.295	587.06
629.744	578.76
630.192	580.56
630.64	584.36
631.089	574.36
631.537	581.76
631.985	587.56
632.433	597.46
632.881	595.36
633.33	634.16
633.778	614.96
634.226	568.46
634.674	576.66
635.122	574.56
635.57	595.36
636.018	622.26
636.466	578.76
636.914	564.56
637.362	578.96
637.81	585.46
638.258	581.06
638.705	592.26
639.153	615.96
639.601	630.16
640.049	659.86
640.497	688.46
640.944	697.16
641.392	646.26
641.84	607.76
642.287	594.26
642.735	582.36
643.182	579.66
643.63	586.86
644.078	585.16
644.525	599.86
644.973	601.66
645.42	611.66
645.867	631.26
646.315	642.06
646.762	664.96
647.21	695.76
647.657	721.96
648.104	762.26
648.551	778.26
648.999	846.96
649.446	920.36
649.893	1005.66
650.34	1162.66
650.787	1397.16
651.234	1738.06
651.682	2240.26
652.129	3096.46
652.576	4462.56
653.023	6516.86
653.47	8814.46
653.917	10909.16
654.363	12473.06
654.81	13705.96
655.257	13004.96
655.704	8545.66
656.151	5080.86
656.598	3312.96
657.044	2358.76
657.491	1820.86
657.938	1455.16
658.385	1216.36
658.831	1071.16
659.278	957.96
659.724	849.36
660.171	782.86
660.618	725.16
661.064	683.56
661.511	669.46
661.957	656.86
662.404	640.36
662.85	658.16
663.296	632.16
663.743	576.06
664.189	545.66
664.635	541.66
665.082	533.36
665.528	530.86
665.974	531.36
666.42	521.26
666.867	517.16
667.313	497.26
667.759	490.66
668.205	477.56
668.651	485.76
669.097	482.86
669.543	487.06
669.989	472.06
670.435	458.26
670.881	459.86
671.327	449.46
671.773	484.16
672.219	506.46
672.665	568.86
673.11	589.46
673.556	645.56
674.002	690.26
674.448	676.16
674.893	563.46
675.339	488.46
675.785	452.06
676.23	422.26
676.676	397.96
677.122	388.56
677.567	380.26
678.013	369.46
678.458	367.36
678.904	375.26
679.349	352.66
679.794	362.46
680.24	362.26
680.685	354.26
681.131	352.76
681.576	360.46
682.021	358.86
682.466	359.76
682.912	355.26
683.357	361.76
683.802	391.56
684.247	416.76
684.692	477.66
685.137	513.86
685.583	549.76
686.028	575.36
686.473	539.06
686.918	456.06
687.363	426.26
687.807	400.76
688.252	373.16
688.697	367.86
689.142	350.86
689.587	351.36
690.032	335.26
690.477	353.76
690.921	362.56
691.366	393.86
691.811	416.06
692.255	437.66
692.7	478.86
693.145	521.46
693.589	742.86
694.034	1194.06
694.478	1601.76
694.923	1773.66
695.367	2291.86
695.812	1227.66
696.256	514.46
696.701	379.26
697.145	355.76
697.59	337.96
698.034	333.46
698.478	344.46
698.922	343.86
699.367	333.46
699.811	349.96
700.255	356.96
700.699	400.36
701.143	437.36
701.588	486.26
702.032	525.16
702.476	522.46
702.92	498.56
703.364	507.66
703.808	678.76
704.252	1098.76
704.696	1528.16
705.14	1704.06
705.584	2157.86
706.027	1084.26
706.471	540.36
706.915	408.96
707.359	360.96
707.803	329.36
708.246	312.26
708.69	325.26
709.134	321.46
709.577	325.46
710.021	330.06
710.465	313.96
710.908	306.66
711.352	316.16
711.795	324.36
712.239	366.56
712.682	402.56
713.126	425.46
713.569	472.16
714.012	373.16
714.456	327.36
714.899	295.06
715.342	281.86
715.786	274.16
716.229	264.16
716.672	261.56
717.115	251.56
717.558	255.06
718.002	260.06
718.445	279.66
718.888	296.36
719.331	300.66
719.774	322.16
720.217	313.06
720.66	301.36
721.103	272.56
721.546	261.96
721.989	256.66
722.432	241.36
722.874	239.66
723.317	231.76
723.76	246.96
724.203	270.06
724.645	340.06
725.088	470.16
725.531	596.46
725.974	651.26
726.416	560.66
726.859	314.26
727.301	255.66
727.744	244.66
728.187	241.86
728.629	247.66
729.071	256.16
729.514	268.86
729.956	285.76
730.399	294.36
730.841	291.06
731.283	277.46
731.726	274.76
732.168	270.76
732.61	274.16
733.053	298.16
733.495	328.96
733.937	367.06
734.379	409.16
734.821	455.26
735.263	585.06
735.705	893.86
736.148	1695.96
736.59	2700.76
737.032	3086.66
737.474	2519.06
737.916	836.26
738.357	443.76
738.799	331.96
739.241	309.46
739.683	295.06
740.125	291.16
740.567	307.06
741.008	320.76
741.45	323.16
741.892	318.86
742.334	360.26
742.775	373.76
743.217	351.26
743.658	273.86
744.1	263.26
744.542	270.76
744.983	324.66
745.425	354.86
745.866	353.36
746.307	291.26
746.749	293.56
747.19	344.16
747.632	487.36
748.073	970.46
748.514	2003.26
748.956	2933.06
749.397	3719.16
749.838	3061.76
750.279	3012.86
750.72	1524.56
751.162	565.76
751.603	336.66
752.044	266.06
752.485	220.26
752.926	204.86
753.367	212.66
753.808	199.26
754.249	196.46
754.69	194.16
755.131	191.96
755.572	188.46
756.013	190.46
756.453	192.36
756.894	189.26
757.335	199.96
757.776	193.86
758.216	208.36
758.657	198.26
759.098	210.46
759.538	235.16
759.979	278.56
760.42	397.86
760.86	767.36
761.301	2022.16
761.741	4690.86
762.182	6478.26
762.622	4575.76
763.063	1357.66
763.503	559.06
763.943	351.26
764.384	336.36
764.824	378.16
765.264	380.46
765.705	281.96
766.145	212.76
766.585	188.76
767.025	184.86
767.465	191.46
767.906	233.56
768.346	288.36
768.786	309.96
769.226	262.16
769.666	331.76
770.106	682.66
770.546	1678.86
770.986	2698.36
771.426	2388.66
771.866	816.86
772.306	345.66
772.745	215.46
773.185	180.16
773.625	171.06
774.065	167.26
774.505	191.46
774.944	289.16
775.384	593.76
775.824	1009.46
776.263	952.66
776.703	437.76
777.142	210.96
777.582	156.96
778.021	134.26
778.461	136.56
778.9	140.26
779.34	133.46
779.779	121.56
780.219	120.46
780.658	116.96
781.097	111.66
781.537	109.16
781.976	113.96
782.415	108.06
782.855	108.56
783.294	106.76
783.733	115.26
784.172	119.86
784.611	105.36
785.05	114.06
785.489	112.96
785.928	126.36
786.367	125.36
786.806	126.06
787.245	134.26
787.684	138.16
788.123	152.46
788.562	137.26
789.001	128.66
789.44	125.26
789.879	124.06
790.317	119.46
790.756	134.96
791.195	134.86
791.634	151.16
792.072	216.86
792.511	399.76
792.95	1093.06
793.388	2194.26
793.827	1936.36
794.265	694.46
794.704	293.96
795.142	185.76
795.581	154.66
796.019	143.66
796.458	126.16
796.896	130.06
797.334	139.86
797.773	164.46
798.211	228.06
798.649	485.36
799.087	1073.26
799.526	1677.56
799.964	2099.26
800.402	2028.66
800.84	774.16
801.278	318.06
801.716	205.06
802.154	155.56
802.592	148.96
803.03	143.36
803.468	133.46
803.906	146.56
804.344	147.66
804.782	149.16
805.22	138.36
805.658	139.26
806.096	153.46
806.533	162.06
806.971	176.56
807.409	227.26
807.847	336.96
808.284	726.96
808.722	1992.96
809.16	3397.16
809.597	3327.86
810.035	5671.36
810.472	5791.26
810.91	2127.96
811.347	825.96
811.785	419.06
812.222	259.76
812.66	196.66
813.097	163.96
813.535	148.16
813.972	133.16
814.409	124.56
814.846	113.06
815.284	110.36
815.721	104.86
816.158	100.26
816.595	124.26
817.032	169.56
817.47	190.26
817.907	147.16
818.344	137.16
818.781	113.06
819.218	95.76
819.655	127.16
820.092	197.16
820.529	217.36
820.966	172.66
821.403	139.16
821.839	104.96
822.276	107.66
822.713	124.66
823.15	143.66
823.587	116.96
824.023	150.76
824.46	329.26
824.897	957.96
825.333	1369.36
825.77	586.66
826.206	242.06
826.643	136.06
827.08	95.76
827.516	88.76
827.953	74.26
828.389	82.06
828.825	67.26
829.262	75.16
829.698	60.66
830.135	71.16
830.571	64.06
831.007	62.96
831.443	67.36
831.88	68.96
832.316	64.86
832.752	67.76
833.188	67.66
833.624	65.56
834.06	69.66
834.497	66.96
834.933	79.76
835.369	76.66
835.805	67.06
836.241	81.36
836.677	85.86
837.112	98.26
837.548	106.66
837.984	137.26
838.42	211.76
838.856	550.56
839.292	1603.36
839.727	2329.46
840.163	1100.56
840.599	995.46
841.034	2133.86
841.47	2123.26
841.906	797.66
842.341	340.96
842.777	229.96
843.212	278.96
843.648	266.26
844.083	138.86
844.519	92.36
844.954	78.56
845.39	61.16
845.825	63.86
846.261	62.96
846.696	62.96
847.131	52.86
847.566	58.56
848.002	58.36
848.437	54.96
848.872	66.96
849.307	67.16
849.742	98.76
850.177	197.36
850.613	588.26
851.048	892.06
851.483	390.86
851.918	163.36
852.353	93.26
852.788	64.16
853.223	52.76
853.657	58.36
854.092	45.96
854.527	43.86
854.962	35.46
855.397	50.56
855.832	55.46
856.266	41.16
856.701	40.86
857.136	43.66
857.57	40.36
858.005	49.56
858.44	64.36
858.874	45.06
859.309	46.76
859.743	41.16
860.178	48.56
860.612	45.56
861.047	56.56
861.481	66.46
861.915	69.46
862.35	50.16
862.784	34.76
863.218	42.66
863.653	30.76
864.087	47.96
864.521	59.06
864.955	69.26
865.39	160.86
865.824	173.36
866.258	119.46
866.692	169.16
867.126	179.86
867.56	108.56
867.994	54.36
868.428	40.86
868.862	51.66
869.296	59.36
869.73	64.06
870.164	54.06
870.598	47.06
871.031	39.66
871.465	32.46
871.899	36.36
872.333	26.26
872.766	27.36
873.2	28.76
873.634	28.26
874.067	23.16
874.501	24.66
874.935	33.16
875.368	30.06
875.802	26.96
876.235	22.66
876.669	18.86
877.102	24.86
877.535	33.56
877.969	24.66
878.402	25.66
878.836	17.46
879.269	27.06
879.702	21.76
880.135	24.96
880.569	24.66
881.002	33.16
881.435	21.46
881.868	23.56
882.301	19.56
882.734	21.26
883.167	25.26
883.601	17.86
884.034	26.76
884.467	14.36
884.899	19.56
885.332	21.76
885.765	19.66
886.198	18.96
886.631	23.76
887.064	15.96
887.497	21.46
887.929	25.86
888.362	15.26
888.795	16.76
889.228	20.86
889.66	25.26
890.093	17.86
890.526	14.36
890.958	20.06
891.391	19.26
891.823	24.96
892.256	19.76
892.688	14.56
893.121	15.56
893.553	18.06
893.985	22.16
894.418	22.06
894.85	13.36
895.282	13.96
895.715	14.26
896.147	15.96
896.579	18.66
897.011	14.56
897.444	21.26
897.876	10.86
898.308	20.86
898.74	15.56
899.172	15.76
899.604	26.26
900.036	18.36
900.468	20.56
900.9	18.06
901.332	20.06
901.764	8.26
902.196	18.46
902.628	21.06
903.06	19.56
903.491	34.26
903.923	29.36
904.355	27.06
904.787	24.56
905.218	23.36
905.65	20.06
906.082	13.16
906.513	14.66
906.945	22.46
907.376	14.36
907.808	29.26
908.239	30.66
908.671	19.56
909.102	26.06
909.534	22.96
909.965	53.76
910.397	105.56
910.828	326.96
911.259	483.16
911.691	223.36
912.122	117.46
912.553	46.46
912.984	34.96
913.415	28.26
913.847	22.66
914.278	16.76
914.709	19.36
915.14	18.76
915.571	24.06
916.002	17.36
916.433	19.86
916.864	15.96
917.295	13.06
917.726	24.26
918.157	21.36
918.587	28.96
919.018	23.36
919.449	29.56
919.88	25.16
920.311	32.66
920.741	50.26
921.172	177.56
921.603	152.06
922.033	82.96
922.464	45.66
922.895	23.96
923.325	22.76
923.756	19.66
924.186	11.76
924.617	28.96
925.047	35.96
925.478	43.56
925.908	35.76
926.338	20.86
926.769	16.66
927.199	22.46
927.629	15.26
928.06	21.86
928.49	19.16
928.92	14.96
929.35	10.46
929.78	11.46
930.21	8.56
930.641	11.46
931.071	10.26
931.501	9.16
931.931	8.66
932.361	7.36
932.791	0.76
933.221	11.06
933.651	0.06
934.08	22.46
934.51	33.26
934.94	10.36
935.37	15.36
935.8	10.96
936.229	10.96
936.659	8.76
937.089	4.16
937.519	14.76
937.948	24.46
938.378	15.86
938.807	9.06
939.237	8.76
939.666	3.76
940.096	4.96
940.525	5.16
940.955	0.66
941.384	6.06
941.814	-6.34
942.243	-5.64
942.672	1.66
943.102	0.26
943.531	1.26
943.96	5.76
944.39	4.76
944.819	-0.24
945.248	0.36
945.677	4.06
946.106	7.56
946.535	7.46
946.964	-2.34
947.393	4.06
947.822	3.56
948.251	-3.54
948.68	5.96
949.109	9.16
949.538	7.86
949.967	1.46
950.396	-1.64
950.825	3.36
951.254	7.46
951.682	-3.64
952.111	2.26
952.54	2.56
952.969	-7.74
953.397	-7.74
953.826	4.16
954.254	-2.94
954.683	1.76
955.112	-3.04
955.54	7.76
955.969	0.46
956.397	2.16
956.826	-1.94
957.254	6.16
957.682	1.76
958.111	9.86
958.539	0.76
958.967	3.36
959.396	-0.34
959.824	0.76
960.252	-1.14
960.68	-6.14
961.109	-2.64
961.537	0.06
961.965	-0.74
962.393	-0.54
962.821	-2.24
963.249	3.46
963.677	4.06
964.105	3.86
964.533	45.76
964.961	41.56
965.389	22.56
965.817	16.86
966.245	1.86
966.672	3.96
967.1	-2.84
967.528	0.26
967.956	0.46
968.383	-0.34
968.811	-3.14
969.239	-0.04
969.666	-5.14
970.094	4.46
970.522	3.56
970.949	-3.44
971.377	1.76
971.804	1.66
972.232	2.46
972.659	3.26
973.087	2.56
973.514	-0.74
973.941	-5.14
974.369	3.26
974.796	2.76
975.223	-2.04
975.651	2.46
976.078	1.46
976.505	0.86
976.932	0.06
977.359	19.56
977.786	14.76
978.214	3.26
978.641	-5.84
979.068	-0.34
979.495	-6.94
979.922	-3.34
980.349	3.76
980.776	1.56
981.202	0.66
981.629	5.76
982.056	2.86
982.483	-5.04
982.91	1.26
983.337	-5.84
983.763	3.16
984.19	1.06
984.617	-4.74
985.043	-6.04
985.47	0.86
985.897	-2.24
986.323	-7.14
986.75	3.16
987.176	4.36
987.603	0.16
988.029	4.46
988.456	-4.74
988.882	4.36
989.308	-8.94
989.735	-4.24
990.161	2.86
990.587	-5.94
991.014	0.96
991.44	7.96
991.866	-6.14
992.292	-7.54
992.719	-0.14
993.145	3.96
993.571	-9.94
993.997	-1.64
994.423	-1.24
994.849	-4.14
995.275	3.26
995.701	-6.64
996.127	-0.84
996.553	6.56
996.979	-1.04
997.405	-4.54
997.83	-5.64
998.256	-4.34
998.682	-2.64
999.108	-6.84
999.534	2.66
999.959	-5.04
1000.385	3.06
1000.811	-2.24
1001.236	-4.34
1001.662	-2.04
1002.087	-7.74
1002.513	2.26
1002.938	0.56
1003.364	0.16
1003.789	-1.34
1004.215	6.06
1004.64	-3.34
1005.066	2.36
1005.491	-2.24
1005.916	0.26
1006.342	1.96
1006.767	-8.44
1007.192	1.26
1007.617	-6.34
1008.042	-2.24
1008.468	-4.64
1008.893	-1.44
1009.318	1.96
1009.743	-3.64
1010.168	1.76
1010.593	-2.04
1011.018	-5.84
1011.443	-0.64
1011.868	4.46
1012.293	-1.04
1012.718	-0.54
1013.143	-1.24
1013.567	-0.14
1013.992	-2.54
1014.417	-12.34
1014.842	2.56
1015.267	-1.14
1015.691	2.06
1016.116	0.56
1016.541	0.26
1016.965	7.66
1017.39	6.86
1017.814	2.66
1018.239	-2.74
1018.663	-5.04
1019.088	-10.44
1019.512	-0.54
1019.937	2.16
1020.361	-2.44
1020.785	-6.64
1021.21	-5.74
1021.634	-1.24
1022.058	0.96
1022.483	6.16
1022.907	-2.64
1023.331	-2.54
1023.755	-5.24
1024.179	-3.64
1024.604	-6.64
1025.028	-4.44
1025.452	-4.04
1025.876	-3.14
1026.3	7.76
1026.724	-9.04
1027.148	-6.44
1027.572	-8.54
1027.996	-5.54
1028.42	0.86
1028.843	-3.54
1029.267	-5.44
1029.691	-1.54
1030.115	-8.34
1030.539	-6.54
1030.962	-8.74
1031.386	-8.64
1031.81	2.96
1032.233	-2.84
1032.657	-1.44
1033.08	0.56
1033.504	-1.84
1033.927	-0.34
1034.351	-3.34
1034.774	-3.84
1035.198	0.96
1035.621	-5.04
1036.045	-8.84
1036.468	0.66
1036.891	-6.14
1037.315	-8.94
1037.738	-9.64
1038.161	2.16
1038.584	-4.14
1039.008	-9.34
1039.431	-2.24
1039.854	-3.54
1040.277	-10.64
1040.7	-6.74
1041.123	-2.04
1041.546	-4.04
1041.969	4.26
1042.392	-4.94
1042.815	-4.44
1043.238	1.16
1043.661	-0.94
1044.084	-3.64
1044.507	-2.14
1044.93	-12.54
1045.352	-7.04
1045.775	1.16
1046.198	-1.34
1046.621	-3.34
1047.043	0.96
1047.466	1.46
1047.889	-5.24
1048.311	-2.44
1048.734	-4.24
1049.156	-4.34
1049.579	-7.34
1050.001	-0.74
1050.424	-5.14
1050.846	-6.04
1051.269	-9.44
1051.691	-4.94
1052.113	-2.44
1052.536	-0.84
1052.958	0.86
1053.38	0.26
1053.802	-7.14
1054.225	2.36
1054.647	-4.54
1055.069	-5.94
1055.491	2.06
1055.913	-3.24
1056.335	-4.24
1056.757	1.06
1057.179	-7.34
1057.601	-3.44
1058.023	0.46
1058.445	-4.54
1058.867	-6.34
1059.289	-3.74
1059.711	-6.64
1060.133	-4.54
1060.555	-3.04
1060.976	-6.34
1061.398	-2.14
1061.82	-13.14
1062.241	-2.54
1062.663	-5.24
1063.085	-5.94
1063.506	-2.64
1063.928	-5.04
1064.35	2.76
1064.771	-11.94
1065.193	0.56
1065.614	-14.74
1066.035	-1.44
1066.457	-9.54
1066.878	-1.04
1067.3	1.16
1067.721	-4.64
1068.142	-3.74
1068.564	-5.14
1068.985	-7.64
1069.406	-5.44
1069.827	-7.24
1070.248	-4.64
1070.67	-2.44
1071.091	-5.84
1071.512	-6.64
1071.933	-7.64
1072.354	-8.94
1072.775	-5.24
1073.196	-6.54
1073.617	2.66
1074.038	-2.84
1074.459	-2.84
1074.88	-13.14
1075.3	0.56
1075.721	-8.14
1076.142	-1.94
1076.563	-1.94
1076.983	-6.84
1077.404	-7.44
1077.825	-4.84
1078.246	-8.04
1078.666	-9.94
1079.087	-6.64
1079.507	-8.04
1079.928	-0.94
1080.348	5.86
1080.769	-7.54
1081.189	3.56
1081.61	-1.64
1082.03	-0.34
1082.451	-4.94
1082.871	-0.44
1083.291	-0.54
1083.711	-11.54
1084.132	-6.74
1084.552	-8.54
1084.972	5.36
1085.392	-11.64
1085.813	-10.14
1086.233	-7.74
1086.653	-3.44
1087.073	-2.74
1087.493	-5.44
1087.913	-4.84
1088.333	-5.44
1088.753	-1.34
1089.173	-1.04
1089.593	-4.64
1090.013	-1.74
1090.433	-2.04
1090.852	-4.04
1091.272	-2.64
1091.692	4.56
1092.112	-4.04
1092.531	-11.24
1092.951	-16.04
1093.371	-0.74
1093.79	5.16
1094.21	-6.94
1094.63	-6.34
1095.049	-9.54
1095.469	-2.34
1095.888	-4.44
1096.308	0.26
1096.727	6.56
1097.146	-2.44
1097.566	-1.84
1097.985	-7.54
1098.405	-0.94
1098.824	-7.44
1099.243	-2.64
1099.662	-8.24
1100.082	-1.54
1100.501	-5.34
1100.92	3.86
1101.339	-6.44
1101.758	-11.14
