Data from 20171114-ORNL-Ar_H_NY_Subt18_08-06-46-940.txt Node
Date: Tue Nov 14 08:06:46 EST 2017
User: Ender
Spectrometer: HR+D1039
Trigger mode: 0
Integration Time (sec): 2.730000E-2
Scans to average: 10
Electric dark correction enabled: true
Nonlinearity correction enabled: false
Boxcar width: 0
XAxis mode: Wavelengths
Number of Pixels in Spectrum: 2048
>>>>>Begin Spectral Data<<<<<
187.836	-1.69
188.309	-1.69
188.782	-1.69
189.255	1.81
189.728	-2.39
190.201	6.91
190.674	7.91
191.147	3.21
191.619	-4.49
192.092	-1.09
192.565	6.51
193.038	-2.59
193.511	-1.39
193.984	-0.29
194.456	-1.39
194.929	-1.89
195.402	-4.39
195.874	-4.79
196.347	-1.69
196.82	-3.59
197.292	10.11
197.765	-2.69
198.237	-9.09
198.71	-2.99
199.182	0.51
199.655	4.51
200.127	5.11
200.6	-4.69
201.072	-1.89
201.544	-6.09
202.017	-7.39
202.489	5.31
202.961	-5.49
203.433	-3.19
203.906	-5.29
204.378	-5.29
204.85	-4.59
205.322	-12.39
205.794	1.41
206.266	-2.69
206.739	-3.49
207.211	0.61
207.683	-6.09
208.155	-4.39
208.627	-7.69
209.099	-4.09
209.57	-6.19
210.042	-7.89
210.514	-5.69
210.986	-6.49
211.458	-9.09
211.93	2.71
212.402	4.51
212.873	-5.49
213.345	-10.29
213.817	-15.29
214.288	-3.99
214.76	-13.49
215.232	-1.69
215.703	-7.79
216.175	-7.69
216.646	-6.09
217.118	-8.19
217.589	-2.69
218.061	-6.09
218.532	-4.99
219.004	-2.49
219.475	-0.89
219.946	-6.29
220.418	-0.99
220.889	1.21
221.36	-3.39
221.832	-4.89
222.303	-7.29
222.774	-2.89
223.245	-6.69
223.717	-1.99
224.188	-5.99
224.659	-6.69
225.13	-7.49
225.601	-3.49
226.072	-0.79
226.543	-5.89
227.014	-3.19
227.485	-6.99
227.956	-5.79
228.427	-4.69
228.898	0.81
229.369	3.61
229.839	-7.19
230.31	-10.99
230.781	2.61
231.252	-0.59
231.722	-10.89
232.193	-4.49
232.664	-1.79
233.135	-1.39
233.605	-0.39
234.076	-5.09
234.546	-0.99
235.017	0.21
235.487	-1.09
235.958	-2.99
236.428	-2.89
236.899	-2.89
237.369	-3.69
237.84	-10.79
238.31	-2.29
238.78	-6.09
239.251	-8.29
239.721	-2.39
240.191	-6.49
240.662	-1.19
241.132	-1.59
241.602	-1.89
242.072	4.31
242.542	7.21
243.013	-4.09
243.483	1.11
243.953	-1.79
244.423	-6.39
244.893	-4.79
245.363	0.31
245.833	1.61
246.303	1.71
246.773	1.01
247.243	-1.19
247.712	1.51
248.182	3.61
248.652	5.91
249.122	-8.89
249.592	1.41
250.061	2.61
250.531	5.31
251.001	-3.89
251.471	10.81
251.94	10.91
252.41	1.31
252.879	-2.59
253.349	10.01
253.818	9.81
254.288	3.51
254.757	1.51
255.227	-8.29
255.696	2.21
256.166	-1.29
256.635	7.21
257.105	0.81
257.574	-0.99
258.043	-0.69
258.513	-2.09
258.982	-2.19
259.451	-5.39
259.92	-3.49
260.389	-1.59
260.859	6.01
261.328	4.71
261.797	6.71
262.266	3.31
262.735	5.61
263.204	6.81
263.673	2.01
264.142	0.41
264.611	-0.39
265.08	-4.19
265.549	0.71
266.018	6.71
266.487	-0.99
266.955	0.41
267.424	0.01
267.893	4.21
268.362	4.21
268.83	0.91
269.299	4.21
269.768	3.91
270.236	2.91
270.705	-1.09
271.174	4.51
271.642	0.71
272.111	2.91
272.579	4.51
273.048	4.41
273.516	4.91
273.985	8.01
274.453	3.21
274.922	10.61
275.39	13.31
275.858	-1.19
276.327	7.21
276.795	14.71
277.263	7.31
277.731	10.21
278.2	8.01
278.668	7.01
279.136	10.91
279.604	2.81
280.072	12.31
280.54	9.81
281.008	5.71
281.477	10.41
281.945	5.01
282.413	10.21
282.881	8.61
283.348	0.91
283.816	14.11
284.284	14.21
284.752	18.01
285.22	10.31
285.688	17.71
286.156	11.51
286.623	17.61
287.091	11.51
287.559	12.81
288.026	15.61
288.494	13.01
288.962	0.51
289.429	10.41
289.897	22.31
290.364	10.51
290.832	16.31
291.3	17.01
291.767	15.81
292.234	12.51
292.702	13.01
293.169	17.61
293.637	20.81
294.104	18.11
294.571	2.71
295.039	9.31
295.506	9.61
295.973	11.91
296.44	21.21
296.908	14.91
297.375	12.01
297.842	13.31
298.309	18.61
298.776	7.51
299.243	19.21
299.71	14.71
300.177	21.21
300.644	20.11
301.111	13.61
301.578	22.91
302.045	11.81
302.512	21.11
302.979	19.81
303.446	21.61
303.913	15.61
304.379	17.61
304.846	24.11
305.313	23.91
305.78	26.51
306.246	22.51
306.713	26.21
307.18	18.91
307.646	24.01
308.113	16.61
308.579	17.91
309.046	24.31
309.512	27.01
309.979	15.61
310.445	21.71
310.912	29.61
311.378	29.11
311.845	29.11
312.311	29.41
312.777	34.91
313.244	27.61
313.71	29.01
314.176	30.41
314.642	22.81
315.109	30.51
315.575	34.41
316.041	38.01
316.507	26.71
316.973	31.51
317.439	30.61
317.905	33.31
318.371	30.21
318.837	27.01
319.303	27.71
319.769	34.21
320.235	31.41
320.701	30.01
321.167	37.01
321.633	28.81
322.099	36.91
322.564	45.11
323.03	37.01
323.496	32.41
323.962	37.61
324.427	34.81
324.893	39.41
325.359	37.11
325.824	35.71
326.29	32.31
326.755	38.51
327.221	39.91
327.686	36.01
328.152	40.81
328.617	42.51
329.083	42.41
329.548	46.31
330.014	44.91
330.479	39.71
330.944	45.21
331.41	43.01
331.875	42.91
332.34	40.81
332.805	38.81
333.271	43.31
333.736	37.51
334.201	46.01
334.666	48.31
335.131	51.91
335.596	45.51
336.061	44.61
336.526	41.31
336.991	44.11
337.456	53.31
337.921	50.11
338.386	38.41
338.851	43.71
339.316	51.31
339.781	43.51
340.246	55.51
340.711	47.31
341.175	47.31
341.64	42.31
342.105	51.31
342.569	54.51
343.034	56.21
343.499	50.31
343.963	52.21
344.428	61.01
344.893	64.41
345.357	63.21
345.822	57.31
346.286	65.81
346.751	68.81
347.215	68.31
347.679	70.81
348.144	84.91
348.608	80.11
349.073	63.81
349.537	73.51
350.001	81.81
350.465	80.21
350.93	74.81
351.394	85.71
351.858	78.11
352.322	85.61
352.786	81.61
353.25	98.71
353.715	111.21
354.179	96.21
354.643	119.01
355.107	118.21
355.571	97.01
356.035	94.11
356.498	102.01
356.962	113.11
357.426	119.91
357.89	109.21
358.354	84.61
358.818	80.81
359.281	74.41
359.745	78.21
360.209	80.61
360.673	77.41
361.136	82.31
361.6	79.81
362.064	77.91
362.527	83.61
362.991	98.91
363.454	76.71
363.918	78.41
364.381	83.91
364.845	84.91
365.308	87.01
365.772	88.81
366.235	82.31
366.698	84.01
367.162	82.01
367.625	81.41
368.088	90.61
368.552	85.31
369.015	91.41
369.478	94.11
369.941	101.71
370.404	95.01
370.867	97.71
371.331	112.01
371.794	109.81
372.257	101.41
372.72	108.91
373.183	98.11
373.646	91.81
374.109	93.31
374.572	97.91
375.035	96.91
375.497	104.51
375.96	109.31
376.423	105.71
376.886	107.61
377.349	110.71
377.811	106.71
378.274	107.81
378.737	102.61
379.199	102.21
379.662	106.41
380.125	110.41
380.587	103.01
381.05	110.71
381.512	115.11
381.975	120.41
382.437	119.41
382.9	124.31
383.362	122.41
383.825	137.81
384.287	125.11
384.75	116.41
385.212	128.01
385.674	129.71
386.136	136.61
386.599	129.21
387.061	126.41
387.523	128.31
387.985	125.71
388.447	130.51
388.91	123.61
389.372	124.11
389.834	136.81
390.296	133.41
390.758	132.91
391.22	137.21
391.682	150.01
392.144	161.01
392.606	145.41
393.068	146.91
393.529	155.71
393.991	139.81
394.453	130.91
394.915	138.11
395.377	140.01
395.838	141.01
396.3	138.51
396.762	143.21
397.224	139.11
397.685	128.71
398.147	138.71
398.608	137.41
399.07	135.41
399.531	136.91
399.993	145.01
400.454	157.41
400.916	157.21
401.377	146.21
401.839	152.41
402.3	159.31
402.762	167.21
403.223	181.71
403.684	174.41
404.145	164.21
404.607	158.21
405.068	168.61
405.529	177.21
405.99	184.81
406.451	180.21
406.913	175.71
407.374	171.81
407.835	161.31
408.296	173.21
408.757	179.81
409.218	183.71
409.679	180.71
410.14	177.01
410.601	180.61
411.062	184.71
411.522	185.91
411.983	183.71
412.444	181.81
412.905	181.51
413.366	187.81
413.826	202.91
414.287	230.31
414.748	274.71
415.208	268.11
415.669	228.61
416.13	224.41
416.59	214.71
417.051	227.31
417.511	230.41
417.972	253.51
418.432	258.31
418.893	300.21
419.353	271.51
419.814	211.21
420.274	194.41
420.734	187.61
421.195	209.61
421.655	205.41
422.115	208.31
422.576	205.51
423.036	217.61
423.496	215.41
423.956	222.71
424.416	243.41
424.876	280.61
425.336	278.01
425.797	277.71
426.257	269.61
426.717	249.71
427.177	247.71
427.637	236.91
428.097	243.41
428.556	249.11
429.016	276.81
429.476	268.21
429.936	271.71
430.396	283.61
430.856	300.61
431.315	318.51
431.775	356.51
432.235	390.31
432.694	360.01
433.154	364.11
433.614	404.21
434.073	349.41
434.533	288.41
434.993	283.51
435.452	290.01
435.912	303.51
436.371	302.21
436.83	288.21
437.29	268.81
437.749	256.71
438.209	258.41
438.668	288.71
439.127	296.01
439.587	275.31
440.046	257.71
440.505	272.71
440.964	280.61
441.424	341.81
441.883	324.41
442.342	269.21
442.801	239.81
443.26	242.31
443.719	237.81
444.178	232.41
444.637	227.01
445.096	233.61
445.555	244.01
446.014	243.91
446.473	253.51
446.932	248.11
447.391	237.51
447.849	244.51
448.308	241.41
448.767	247.71
449.226	249.51
449.685	254.01
450.143	266.51
450.602	248.41
451.061	247.41
451.519	249.71
451.978	248.81
452.436	249.31
452.895	253.61
453.353	269.81
453.812	268.31
454.27	260.41
454.729	251.71
455.187	257.61
455.646	263.21
456.104	266.51
456.562	279.01
457.021	279.01
457.479	277.41
457.937	289.11
458.395	276.91
458.854	268.81
459.312	274.71
459.77	292.71
460.228	275.21
460.686	256.51
461.144	262.01
461.602	267.01
462.06	263.31
462.518	276.31
462.976	272.71
463.434	279.61
463.892	280.51
464.35	291.21
464.808	315.11
465.266	288.71
465.724	288.11
466.181	293.11
466.639	290.01
467.097	314.21
467.555	319.41
468.012	322.91
468.47	339.11
468.928	356.81
469.385	371.71
469.843	370.31
470.3	381.21
470.758	387.31
471.215	403.51
471.673	427.01
472.13	441.01
472.588	442.61
473.045	392.51
473.503	403.71
473.96	414.31
474.417	429.41
474.875	459.01
475.332	502.81
475.789	488.41
476.246	496.91
476.704	515.11
477.161	531.61
477.618	547.91
478.075	585.31
478.532	646.01
478.989	712.61
479.446	825.71
479.903	787.01
480.36	807.81
480.817	868.91
481.274	969.21
481.731	1055.31
482.188	1135.71
482.645	1259.61
483.102	1364.71
483.558	1484.41
484.015	1520.61
484.472	1492.91
484.929	1463.81
485.385	1430.91
485.842	1394.51
486.299	1337.91
486.755	1300.51
487.212	1108.81
487.668	942.41
488.125	865.01
488.582	801.11
489.038	775.71
489.494	732.21
489.951	711.81
490.407	687.21
490.864	684.51
491.32	674.91
491.776	671.51
492.233	681.61
492.689	644.11
493.145	635.11
493.602	633.31
494.058	649.71
494.514	645.61
494.97	665.91
495.426	678.71
495.882	657.51
496.338	640.61
496.794	657.71
497.251	655.51
497.707	669.41
498.163	671.11
498.618	664.71
499.074	680.61
499.53	703.41
499.986	716.01
500.442	678.81
500.898	655.51
501.354	652.61
501.809	663.21
502.265	665.11
502.721	664.01
503.177	676.81
503.632	685.61
504.088	687.71
504.543	715.11
504.999	730.31
505.455	693.11
505.91	675.21
506.366	675.11
506.821	682.91
507.277	669.71
507.732	672.81
508.187	677.41
508.643	685.31
509.098	681.91
509.553	710.31
510.009	705.51
510.464	717.01
510.919	736.11
511.375	737.01
511.83	755.81
512.285	782.61
512.74	803.51
513.195	827.21
513.65	824.01
514.105	816.71
514.56	813.21
515.015	837.91
515.47	845.91
515.925	823.31
516.38	839.31
516.835	845.21
517.29	822.81
517.745	820.11
518.2	807.81
518.655	798.31
519.109	796.91
519.564	793.81
520.019	783.21
520.474	778.71
520.928	775.61
521.383	761.01
521.838	760.31
522.292	761.11
522.747	766.11
523.201	752.31
523.656	747.91
524.11	737.11
524.565	749.81
525.019	736.61
525.474	742.91
525.928	747.61
526.382	743.61
526.837	744.11
527.291	741.31
527.745	739.91
528.2	738.71
528.654	738.21
529.108	728.51
529.562	730.41
530.016	734.61
530.47	735.41
530.925	736.11
531.379	732.71
531.833	742.81
532.287	739.71
532.741	740.21
533.195	742.41
533.649	764.91
534.103	768.91
534.556	752.31
535.01	760.61
535.464	754.51
535.918	759.71
536.372	760.71
536.826	756.81
537.279	747.41
537.733	758.51
538.187	752.51
538.64	761.71
539.094	773.41
539.548	771.61
540.001	767.61
540.455	764.11
540.908	778.81
541.362	785.01
541.815	794.61
542.269	802.61
542.722	799.31
543.175	819.11
543.629	821.51
544.082	837.31
544.536	841.01
544.989	833.91
545.442	841.41
545.895	841.31
546.349	853.31
546.802	848.21
547.255	857.31
547.708	861.51
548.161	865.71
548.614	868.01
549.067	880.51
549.52	868.91
549.973	868.91
550.426	859.71
550.879	856.41
551.332	857.41
551.785	873.51
552.238	869.51
552.691	870.21
553.144	888.11
553.596	907.01
554.049	922.01
554.502	963.11
554.955	973.61
555.407	962.11
555.86	950.11
556.313	963.01
556.765	930.91
557.218	942.71
557.67	935.81
558.123	930.11
558.576	938.91
559.028	924.71
559.48	937.21
559.933	929.01
560.385	902.71
560.838	865.91
561.29	827.71
561.742	836.41
562.195	814.21
562.647	821.31
563.099	833.91
563.551	819.31
564.004	833.31
564.456	808.81
564.908	804.01
565.36	798.11
565.812	766.41
566.264	773.61
566.716	751.71
567.168	746.01
567.62	749.01
568.072	742.11
568.524	737.41
568.976	724.71
569.428	717.31
569.88	719.91
570.332	736.81
570.784	731.31
571.235	735.61
571.687	739.91
572.139	747.41
572.59	755.51
573.042	751.21
573.494	762.31
573.945	747.11
574.397	725.11
574.849	731.31
575.3	740.61
575.752	722.31
576.203	716.01
576.655	726.71
577.106	712.11
577.557	705.71
578.009	706.51
578.46	709.81
578.912	698.51
579.363	709.71
579.814	709.81
580.265	710.11
580.717	713.71
581.168	712.61
581.619	730.51
582.07	723.71
582.521	709.71
582.972	713.31
583.423	729.51
583.875	715.61
584.326	717.21
584.777	738.01
585.227	765.11
585.678	780.31
586.129	795.31
586.58	822.01
587.031	842.51
587.482	874.21
587.933	921.61
588.384	883.81
588.834	841.11
589.285	819.81
589.736	808.41
590.186	807.01
590.637	801.61
591.088	782.61
591.538	774.91
591.989	763.71
592.439	758.81
592.89	755.81
593.34	752.41
593.791	744.61
594.241	728.71
594.692	742.21
595.142	731.51
595.593	736.81
596.043	737.51
596.493	750.11
596.943	738.51
597.394	760.61
597.844	759.81
598.294	766.11
598.744	792.01
599.195	823.41
599.645	871.11
600.095	902.71
600.545	961.81
600.995	1016.61
601.445	1078.71
601.895	1143.01
602.345	1189.51
602.795	1177.81
603.245	1127.71
603.695	1073.31
604.145	1010.71
604.594	962.81
605.044	908.41
605.494	845.21
605.944	795.01
606.393	793.91
606.843	764.21
607.293	767.61
607.743	770.61
608.192	784.21
608.642	782.71
609.091	796.21
609.541	804.51
609.99	800.41
610.44	808.11
610.889	756.81
611.339	736.51
611.788	719.91
612.238	731.71
612.687	733.51
613.136	725.81
613.586	739.21
614.035	724.71
614.484	749.61
614.933	745.41
615.383	733.21
615.832	743.51
616.281	729.81
616.73	698.31
617.179	681.71
617.628	669.21
618.077	661.01
618.526	646.11
618.975	647.51
619.424	644.91
619.873	649.01
620.322	644.31
620.771	633.41
621.22	620.81
621.669	623.81
622.118	611.81
622.567	604.51
623.015	598.31
623.464	588.81
623.913	583.71
624.361	582.61
624.81	587.61
625.259	573.81
625.707	585.41
626.156	590.91
626.604	598.71
627.053	590.91
627.501	584.41
627.95	598.71
628.398	620.21
628.847	599.01
629.295	596.01
629.744	599.71
630.192	590.91
630.64	592.81
631.089	569.61
631.537	557.61
631.985	552.01
632.433	547.21
632.881	562.71
633.33	551.01
633.778	553.91
634.226	553.01
634.674	557.81
635.122	568.61
635.57	579.31
636.018	588.51
636.466	593.61
636.914	596.21
637.362	607.01
637.81	601.41
638.258	609.51
638.705	607.71
639.153	639.21
639.601	640.01
640.049	669.11
640.497	710.01
640.944	723.71
641.392	665.91
641.84	642.21
642.287	612.21
642.735	588.41
643.182	584.51
643.63	591.91
644.078	586.81
644.525	598.01
644.973	613.81
645.42	620.91
645.867	637.11
646.315	661.61
646.762	669.61
647.21	698.91
647.657	722.51
648.104	753.91
648.551	789.61
648.999	847.61
649.446	922.71
649.893	995.51
650.34	1141.01
650.787	1358.71
651.234	1671.81
651.682	2148.81
652.129	2909.51
652.576	4132.51
653.023	6009.51
653.47	8116.31
653.917	10142.11
654.363	11700.51
654.81	12941.51
655.257	12257.41
655.704	8096.81
656.151	4888.91
656.598	3209.91
657.044	2294.51
657.491	1789.01
657.938	1450.11
658.385	1223.91
658.831	1073.41
659.278	959.51
659.724	862.21
660.171	795.61
660.618	730.91
661.064	694.51
661.511	687.01
661.957	668.01
662.404	664.71
662.85	671.81
663.296	645.21
663.743	585.81
664.189	561.91
664.635	557.91
665.082	550.91
665.528	542.31
665.974	533.71
666.42	524.01
666.867	519.41
667.313	510.41
667.759	486.81
668.205	469.21
668.651	470.31
669.097	472.41
669.543	460.71
669.989	464.91
670.435	460.61
670.881	464.41
671.327	470.11
671.773	488.41
672.219	512.81
672.665	563.21
673.11	612.81
673.556	654.51
674.002	700.61
674.448	691.51
674.893	569.21
675.339	498.01
675.785	464.91
676.23	435.81
676.676	409.71
677.122	400.71
677.567	391.61
678.013	391.81
678.458	373.21
678.904	372.01
679.349	359.81
679.794	379.51
680.24	365.91
680.685	358.11
681.131	357.11
681.576	368.21
682.021	368.31
682.466	356.71
682.912	367.51
683.357	364.11
683.802	402.81
684.247	435.11
684.692	476.81
685.137	521.91
685.583	561.11
686.028	584.31
686.473	537.01
686.918	467.91
687.363	437.51
687.807	413.61
688.252	383.61
688.697	377.61
689.142	361.51
689.587	347.31
690.032	344.41
690.477	353.91
690.921	367.31
691.366	401.11
691.811	421.41
692.255	447.31
692.7	485.21
693.145	532.71
693.589	729.81
694.034	1199.51
694.478	1624.81
694.923	1826.91
695.367	2369.01
695.812	1261.51
696.256	522.71
696.701	389.51
697.145	362.31
697.59	347.81
698.034	340.31
698.478	337.91
698.922	333.21
699.367	332.61
699.811	349.51
700.255	359.71
700.699	408.41
701.143	430.51
701.588	490.51
702.032	535.21
702.476	537.81
702.92	515.71
703.364	516.41
703.808	671.31
704.252	1083.81
704.696	1528.61
705.14	1740.41
705.584	2239.31
706.027	1119.21
706.471	544.61
706.915	417.21
707.359	370.51
707.803	335.71
708.246	318.71
708.69	329.11
709.134	321.81
709.577	324.91
710.021	328.31
710.465	318.51
710.908	312.41
711.352	310.11
711.795	334.11
712.239	367.91
712.682	403.61
713.126	439.21
713.569	476.01
714.012	381.21
714.456	320.21
714.899	301.81
715.342	286.91
715.786	276.41
716.229	272.11
716.672	271.01
717.115	266.51
717.558	264.61
718.002	266.71
718.445	279.71
718.888	289.81
719.331	292.91
719.774	323.71
720.217	319.31
720.66	299.61
721.103	277.11
721.546	269.91
721.989	258.41
722.432	241.91
722.874	245.81
723.317	246.31
723.76	242.61
724.203	269.81
724.645	333.41
725.088	467.11
725.531	599.31
725.974	664.51
726.416	563.61
726.859	315.31
727.301	250.71
727.744	252.31
728.187	245.71
728.629	250.61
729.071	247.81
729.514	267.61
729.956	281.41
730.399	294.41
730.841	298.81
731.283	287.01
731.726	281.31
732.168	273.61
732.61	275.41
733.053	300.71
733.495	329.81
733.937	368.71
734.379	415.41
734.821	455.81
735.263	572.31
735.705	872.21
736.148	1672.11
736.59	2728.91
737.032	3219.81
737.474	2623.81
737.916	847.01
738.357	455.21
738.799	339.31
739.241	317.51
739.683	291.11
740.125	305.11
740.567	311.21
741.008	329.31
741.45	328.51
741.892	334.91
742.334	365.61
742.775	377.11
743.217	359.11
743.658	284.81
744.1	271.81
744.542	279.81
744.983	330.41
745.425	370.31
745.866	369.91
746.307	295.61
746.749	290.01
747.19	328.71
747.632	473.91
748.073	932.31
748.514	1965.71
748.956	2994.41
749.397	3764.91
749.838	3129.61
750.279	3113.41
750.72	1582.11
751.162	576.21
751.603	345.01
752.044	265.71
752.485	226.11
752.926	223.31
753.367	215.91
753.808	209.01
754.249	203.51
754.69	198.51
755.131	192.71
755.572	189.81
756.013	192.11
756.453	191.61
756.894	192.11
757.335	202.01
757.776	197.51
758.216	207.21
758.657	207.51
759.098	209.41
759.538	239.81
759.979	288.81
760.42	387.61
760.86	751.21
761.301	1935.41
761.741	4672.01
762.182	6771.31
762.622	4783.71
763.063	1393.11
763.503	568.61
763.943	343.91
764.384	283.71
764.824	265.81
765.264	256.81
765.705	225.91
766.145	190.51
766.585	186.81
767.025	176.31
767.465	165.31
767.906	192.31
768.346	211.61
768.786	222.31
769.226	221.81
769.666	324.21
770.106	650.41
770.546	1637.31
770.986	2761.01
771.426	2488.01
771.866	833.21
772.306	338.91
772.745	212.71
773.185	175.71
773.625	165.81
774.065	160.51
774.505	166.51
774.944	221.01
775.384	380.81
775.824	627.41
776.263	623.31
776.703	298.11
777.142	166.71
777.582	135.71
778.021	124.71
778.461	124.21
778.9	129.01
779.34	127.61
779.779	117.71
780.219	111.31
780.658	117.61
781.097	121.01
781.537	114.71
781.976	113.71
782.415	109.31
782.855	111.11
783.294	106.31
783.733	113.21
784.172	114.91
784.611	106.01
785.05	114.91
785.489	109.61
785.928	120.11
786.367	128.81
786.806	116.51
787.245	131.71
787.684	134.81
788.123	156.91
788.562	136.41
789.001	135.61
789.44	129.31
789.879	124.01
790.317	123.91
790.756	137.61
791.195	132.51
791.634	157.71
792.072	215.41
792.511	383.81
792.95	1051.01
793.388	2216.81
793.827	2001.21
794.265	705.61
794.704	295.21
795.142	181.51
795.581	152.31
796.019	145.51
796.458	141.01
796.896	129.21
797.334	136.41
797.773	167.21
798.211	229.11
798.649	465.61
799.087	1063.71
799.526	1673.91
799.964	2115.31
800.402	2098.71
800.84	798.71
801.278	317.01
801.716	191.61
802.154	155.31
802.592	147.31
803.03	146.81
803.468	141.11
803.906	153.51
804.344	160.01
804.782	147.11
805.22	140.71
805.658	140.21
806.096	155.41
806.533	169.81
806.971	187.41
807.409	232.41
807.847	338.81
808.284	702.61
808.722	1974.71
809.16	3469.31
809.597	3307.71
810.035	5695.41
810.472	6087.61
810.91	2208.71
811.347	837.21
811.785	420.81
812.222	267.51
812.66	207.61
813.097	173.61
813.535	150.51
813.972	132.81
814.409	133.61
814.846	115.81
815.284	120.01
815.721	106.71
816.158	108.51
816.595	115.21
817.032	166.11
817.47	192.01
817.907	145.11
818.344	113.01
818.781	104.01
819.218	93.91
819.655	127.51
820.092	202.11
820.529	221.41
820.966	176.01
821.403	135.81
821.839	106.91
822.276	100.71
822.713	126.71
823.15	145.01
823.587	122.61
824.023	153.51
824.46	320.41
824.897	931.41
825.333	1419.81
825.77	608.11
826.206	241.61
826.643	139.91
827.08	108.31
827.516	90.01
827.953	87.01
828.389	81.21
828.825	70.51
829.262	77.21
829.698	64.21
830.135	66.81
830.571	65.51
831.007	69.21
831.443	64.31
831.88	67.61
832.316	59.41
832.752	64.51
833.188	69.51
833.624	60.21
834.06	71.21
834.497	69.91
834.933	76.01
835.369	78.21
835.805	75.71
836.241	79.41
836.677	85.61
837.112	93.71
837.548	107.21
837.984	147.51
838.42	212.91
838.856	521.81
839.292	1577.31
839.727	2413.11
840.163	1136.01
840.599	982.81
841.034	2122.41
841.47	2230.01
841.906	820.81
842.341	341.61
842.777	207.41
843.212	209.31
843.648	200.31
844.083	118.81
844.519	85.61
844.954	77.41
845.39	60.01
845.825	63.01
846.261	53.31
846.696	61.41
847.131	53.51
847.566	63.31
848.002	54.71
848.437	53.01
848.872	62.01
849.307	63.11
849.742	86.21
850.177	187.21
850.613	585.61
851.048	915.91
851.483	402.61
851.918	160.61
852.353	94.91
852.788	55.31
853.223	54.61
853.657	51.91
854.092	41.41
854.527	40.61
854.962	41.91
855.397	43.51
855.832	53.51
856.266	45.71
856.701	42.31
857.136	38.71
857.57	43.01
858.005	51.61
858.44	60.81
858.874	43.01
859.309	54.21
859.743	42.81
860.178	46.71
860.612	47.41
861.047	55.41
861.481	73.31
861.915	79.31
862.35	61.41
862.784	35.71
863.218	43.01
863.653	38.21
864.087	48.91
864.521	59.21
864.955	67.81
865.39	171.11
865.824	183.81
866.258	124.61
866.692	170.61
867.126	201.11
867.56	113.61
867.994	61.61
868.428	43.01
868.862	50.31
869.296	61.31
869.73	60.51
870.164	53.21
870.598	52.91
871.031	37.51
871.465	36.51
871.899	34.51
872.333	28.51
872.766	26.81
873.2	24.01
873.634	33.51
874.067	28.41
874.501	24.61
874.935	35.91
875.368	31.11
875.802	32.41
876.235	26.41
876.669	29.71
877.102	27.11
877.535	32.81
877.969	29.21
878.402	22.01
878.836	16.91
879.269	21.61
879.702	24.31
880.135	24.11
880.569	19.01
881.002	26.21
881.435	20.91
881.868	25.61
882.301	24.41
882.734	17.71
883.167	23.41
883.601	22.51
884.034	25.01
884.467	11.31
884.899	18.71
885.332	15.41
885.765	15.81
886.198	20.61
886.631	24.51
887.064	15.11
887.497	17.61
887.929	22.61
888.362	20.61
888.795	16.61
889.228	17.51
889.66	19.41
890.093	17.91
890.526	16.81
890.958	17.01
891.391	16.01
891.823	21.71
892.256	16.61
892.688	16.31
893.121	17.81
893.553	11.31
893.985	27.11
894.418	26.41
894.85	12.61
895.282	20.61
895.715	21.11
896.147	19.61
896.579	20.21
897.011	16.21
897.444	20.01
897.876	20.61
898.308	16.81
898.74	13.31
899.172	16.41
899.604	23.61
900.036	27.81
900.468	16.01
900.9	15.91
901.332	22.71
901.764	17.61
902.196	24.11
902.628	21.41
903.06	19.41
903.491	30.91
903.923	22.81
904.355	20.91
904.787	21.81
905.218	22.61
905.65	14.81
906.082	14.31
906.513	7.71
906.945	18.81
907.376	15.21
907.808	18.91
908.239	24.51
908.671	16.51
909.102	26.51
909.534	23.11
909.965	50.41
910.397	93.71
910.828	322.71
911.259	487.91
911.691	225.01
912.122	112.91
912.553	54.11
912.984	36.41
913.415	24.41
913.847	30.91
914.278	16.31
914.709	15.51
915.14	16.91
915.571	21.01
916.002	14.31
916.433	12.21
916.864	17.61
917.295	12.11
917.726	22.31
918.157	13.71
918.587	24.21
919.018	27.21
919.449	23.51
919.88	25.11
920.311	34.31
920.741	47.41
921.172	170.41
921.603	161.21
922.033	70.61
922.464	46.31
922.895	23.31
923.325	16.51
923.756	11.61
924.186	10.01
924.617	13.71
925.047	22.21
925.478	29.81
925.908	25.61
926.338	17.91
926.769	13.31
927.199	24.31
927.629	11.41
928.06	17.81
928.49	18.41
928.92	14.91
929.35	7.61
929.78	9.91
930.21	9.01
930.641	6.01
931.071	6.11
931.501	8.91
931.931	14.81
932.361	11.01
932.791	12.91
933.221	3.51
933.651	5.01
934.08	20.81
934.51	27.51
934.94	7.61
935.37	10.11
935.8	5.21
936.229	12.21
936.659	12.11
937.089	11.01
937.519	6.21
937.948	24.61
938.378	17.71
938.807	9.81
939.237	3.21
939.666	6.11
940.096	-6.29
940.525	2.31
940.955	8.61
941.384	4.41
941.814	-4.19
942.243	0.31
942.672	3.71
943.102	-5.99
943.531	3.61
943.96	5.91
944.39	1.71
944.819	7.11
945.248	4.31
945.677	3.11
946.106	2.31
946.535	8.61
946.964	4.01
947.393	1.91
947.822	3.61
948.251	-3.69
948.68	6.91
949.109	4.81
949.538	6.41
949.967	3.91
950.396	4.41
950.825	-0.79
951.254	5.61
951.682	-1.39
952.111	7.61
952.54	10.81
952.969	-1.99
953.397	-5.09
953.826	3.31
954.254	-6.19
954.683	4.71
955.112	0.71
955.54	3.71
955.969	-1.99
956.397	1.01
956.826	0.61
957.254	7.31
957.682	1.91
958.111	5.11
958.539	-1.29
958.967	3.11
959.396	5.71
959.824	-2.29
960.252	-0.39
960.68	-2.89
961.109	-0.19
961.537	4.21
961.965	2.51
962.393	0.51
962.821	2.91
963.249	0.11
963.677	1.51
964.105	4.61
964.533	47.41
964.961	45.71
965.389	16.61
965.817	7.81
966.245	6.81
966.672	4.71
967.1	-9.39
967.528	3.91
967.956	-3.19
968.383	-0.39
968.811	-2.39
969.239	-3.39
969.666	1.01
970.094	-0.09
970.522	-1.29
970.949	-1.19
971.377	-0.49
971.804	2.01
972.232	-2.49
972.659	-5.89
973.087	-3.99
973.514	-4.59
973.941	-6.49
974.369	4.41
974.796	-1.69
975.223	-3.39
975.651	0.41
976.078	1.71
976.505	-1.09
976.932	2.01
977.359	15.91
977.786	10.21
978.214	3.21
978.641	-8.99
979.068	-3.09
979.495	-0.09
979.922	0.41
980.349	-5.69
980.776	6.61
981.202	-1.59
981.629	4.81
982.056	9.71
982.483	-6.09
982.91	3.31
983.337	-4.39
983.763	3.51
984.19	-4.79
984.617	-9.19
985.043	-5.89
985.47	0.81
985.897	-5.99
986.323	-10.59
986.75	6.31
987.176	-3.99
987.603	-2.99
988.029	-3.59
988.456	-1.29
988.882	0.71
989.308	-2.39
989.735	-3.59
990.161	1.01
990.587	-1.49
991.014	-3.09
991.44	3.91
991.866	-1.29
992.292	-2.19
992.719	-1.89
993.145	6.41
993.571	-8.29
993.997	-6.49
994.423	-5.99
994.849	-4.39
995.275	-1.69
995.701	-3.39
996.127	-3.09
996.553	0.31
996.979	-1.89
997.405	-1.79
997.83	-8.49
998.256	-4.69
998.682	-3.79
999.108	-6.49
999.534	3.41
999.959	3.91
1000.385	-6.99
1000.811	-3.89
1001.236	-8.79
1001.662	-8.29
1002.087	-7.49
1002.513	-1.09
1002.938	3.81
1003.364	-0.29
1003.789	3.21
1004.215	6.61
1004.64	0.31
1005.066	2.91
1005.491	-0.19
1005.916	-0.69
1006.342	-0.69
1006.767	-9.09
1007.192	5.31
1007.617	-8.49
1008.042	0.61
1008.468	-4.99
1008.893	2.71
1009.318	-4.29
1009.743	-2.19
1010.168	-2.09
1010.593	1.81
1011.018	-11.29
1011.443	-1.29
1011.868	9.71
1012.293	-8.49
1012.718	-5.29
1013.143	-12.59
1013.567	2.51
1013.992	3.71
1014.417	-5.59
1014.842	2.61
1015.267	0.51
1015.691	-1.99
1016.116	4.31
1016.541	2.81
1016.965	3.71
1017.39	-1.59
1017.814	-4.29
1018.239	-2.19
1018.663	-4.89
1019.088	-12.59
1019.512	-2.79
1019.937	0.01
1020.361	-6.89
1020.785	-12.09
1021.21	-0.09
1021.634	-11.39
1022.058	-0.69
1022.483	4.31
1022.907	-8.29
1023.331	-5.79
1023.755	-1.99
1024.179	-0.19
1024.604	-9.49
1025.028	-7.19
1025.452	-4.89
1025.876	-2.69
1026.3	-2.29
1026.724	-8.59
1027.148	-1.79
1027.572	-8.19
1027.996	-8.49
1028.42	-4.19
1028.843	-2.29
1029.267	-6.89
1029.691	1.91
1030.115	-10.99
1030.539	-3.99
1030.962	-8.29
1031.386	-14.19
1031.81	-0.69
1032.233	0.31
1032.657	2.61
1033.08	-10.69
1033.504	-2.09
1033.927	-10.59
1034.351	-2.29
1034.774	-0.99
1035.198	-3.39
1035.621	-7.19
1036.045	-7.89
1036.468	6.61
1036.891	-5.29
1037.315	-9.29
1037.738	-14.19
1038.161	1.91
1038.584	-4.89
1039.008	-3.59
1039.431	-3.49
1039.854	-3.79
1040.277	-8.29
1040.7	-10.19
1041.123	6.31
1041.546	-5.99
1041.969	-2.49
1042.392	-3.99
1042.815	-4.29
1043.238	0.21
1043.661	3.41
1044.084	-7.39
1044.507	-3.49
1044.93	-1.29
1045.352	-12.09
1045.775	-3.29
1046.198	0.91
1046.621	1.21
1047.043	-4.09
1047.466	1.11
1047.889	0.21
1048.311	-4.59
1048.734	-3.69
1049.156	-7.19
1049.579	-3.49
1050.001	-4.89
1050.424	-0.69
1050.846	-1.29
1051.269	-2.29
1051.691	-2.79
1052.113	-7.89
1052.536	-4.59
1052.958	-6.29
1053.38	-3.99
1053.802	-4.79
1054.225	2.71
1054.647	-9.99
1055.069	-6.89
1055.491	-0.89
1055.913	-2.39
1056.335	-0.89
1056.757	-1.79
1057.179	-5.49
1057.601	-5.39
1058.023	-10.69
1058.445	-4.99
1058.867	-0.39
1059.289	-5.39
1059.711	-6.59
1060.133	-3.59
1060.555	-5.59
1060.976	-7.09
1061.398	-5.99
1061.82	-4.79
1062.241	-3.49
1062.663	-7.19
1063.085	-4.59
1063.506	0.71
1063.928	-0.09
1064.35	-2.79
1064.771	-8.99
1065.193	-5.19
1065.614	-3.29
1066.035	-2.79
1066.457	-1.69
1066.878	1.91
1067.3	-11.19
1067.721	-3.99
1068.142	-6.89
1068.564	0.71
1068.985	-7.09
1069.406	-0.99
1069.827	-6.19
1070.248	-3.19
1070.67	-3.59
1071.091	-5.39
1071.512	-4.19
1071.933	-4.59
1072.354	-11.69
1072.775	-6.59
1073.196	-4.09
1073.617	-7.19
1074.038	-5.09
1074.459	-3.89
1074.88	-12.49
1075.3	-0.69
1075.721	-9.09
1076.142	-2.49
1076.563	-2.09
1076.983	-10.49
1077.404	-6.69
1077.825	-13.09
1078.246	-2.39
1078.666	-8.79
1079.087	-3.69
1079.507	-6.09
1079.928	-0.29
1080.348	-3.49
1080.769	-7.79
1081.189	-4.99
1081.61	-6.99
1082.03	-4.59
1082.451	-4.99
1082.871	-5.99
1083.291	-5.29
1083.711	-10.49
1084.132	-9.59
1084.552	-3.99
1084.972	-3.99
1085.392	-9.39
1085.813	-8.09
1086.233	-9.79
1086.653	-10.19
1087.073	-2.99
1087.493	-8.49
1087.913	-6.59
1088.333	-6.39
1088.753	-3.49
1089.173	3.11
1089.593	-4.49
1090.013	-3.19
1090.433	3.81
1090.852	-2.39
1091.272	1.51
1091.692	5.31
1092.112	0.81
1092.531	-10.09
1092.951	-13.49
1093.371	-3.89
1093.79	-0.49
1094.21	-4.09
1094.63	-7.29
1095.049	-7.09
1095.469	-0.19
1095.888	0.91
1096.308	3.31
1096.727	3.51
1097.146	-9.49
1097.566	-4.49
1097.985	-4.29
1098.405	-1.39
1098.824	-8.19
1099.243	-9.49
1099.662	-5.89
1100.082	-8.29
1100.501	2.11
1100.92	-9.19
1101.339	-10.19
1101.758	-6.29
