Data from 20171114-ORNL-Ar_H_NY_Subt18_08-05-58-623.txt Node
Date: Tue Nov 14 08:05:58 EST 2017
User: Ender
Spectrometer: HR+D1039
Trigger mode: 0
Integration Time (sec): 2.730000E-2
Scans to average: 10
Electric dark correction enabled: true
Nonlinearity correction enabled: false
Boxcar width: 0
XAxis mode: Wavelengths
Number of Pixels in Spectrum: 2048
>>>>>Begin Spectral Data<<<<<
187.836	-4.94
188.309	-4.94
188.782	-4.94
189.255	-3.14
189.728	-2.54
190.201	4.56
190.674	1.96
191.147	0.56
191.619	-9.64
192.092	7.56
192.565	5.96
193.038	-0.14
193.511	-0.54
193.984	2.26
194.456	-1.14
194.929	-1.14
195.402	0.26
195.874	0.06
196.347	-1.24
196.82	-12.04
197.292	3.76
197.765	-3.24
198.237	-5.64
198.71	2.36
199.182	-4.54
199.655	0.66
200.127	5.06
200.6	-6.94
201.072	1.56
201.544	-2.14
202.017	-5.04
202.489	2.06
202.961	-3.44
203.433	-5.24
203.906	-6.24
204.378	-3.04
204.85	-2.44
205.322	-5.74
205.794	-0.14
206.266	-2.74
206.739	-5.94
207.211	2.86
207.683	-7.64
208.155	-1.34
208.627	-6.24
209.099	-2.84
209.57	-8.44
210.042	-1.74
210.514	-3.84
210.986	-1.54
211.458	-13.04
211.93	-8.74
212.402	0.36
212.873	-5.04
213.345	-10.14
213.817	-10.64
214.288	-5.44
214.76	-12.44
215.232	-5.54
215.703	-3.84
216.175	-4.94
216.646	-4.24
217.118	-10.54
217.589	-2.44
218.061	-2.64
218.532	-11.14
219.004	-5.84
219.475	-6.74
219.946	-4.54
220.418	-3.54
220.889	-0.84
221.36	-2.94
221.832	-7.24
222.303	-13.34
222.774	-2.14
223.245	-10.44
223.717	-4.04
224.188	-2.94
224.659	-9.34
225.13	-4.84
225.601	-5.14
226.072	-0.44
226.543	-1.94
227.014	1.76
227.485	-0.74
227.956	-8.74
228.427	-1.84
228.898	-3.94
229.369	-1.84
229.839	-6.04
230.31	-7.24
230.781	1.36
231.252	-3.14
231.722	1.36
232.193	-2.74
232.664	3.66
233.135	-3.44
233.605	4.36
234.076	-1.84
234.546	-3.74
235.017	4.26
235.487	-2.44
235.958	-2.34
236.428	-3.14
236.899	6.66
237.369	0.46
237.84	-1.24
238.31	3.66
238.78	1.76
239.251	-0.24
239.721	5.56
240.191	1.96
240.662	-1.64
241.132	-0.34
241.602	-0.94
242.072	1.46
242.542	4.86
243.013	-3.74
243.483	2.46
243.953	4.16
244.423	-0.64
244.893	-2.04
245.363	3.46
245.833	0.56
246.303	-3.14
246.773	-3.14
247.243	7.76
247.712	3.46
248.182	7.96
248.652	12.86
249.122	-1.64
249.592	10.16
250.061	22.56
250.531	32.06
251.001	14.76
251.471	18.36
251.94	20.96
252.41	11.36
252.879	-0.24
253.349	12.26
253.818	9.16
254.288	10.36
254.757	5.76
255.227	3.16
255.696	3.16
256.166	7.06
256.635	11.86
257.105	8.06
257.574	10.76
258.043	13.46
258.513	9.76
258.982	14.16
259.451	6.16
259.92	13.56
260.389	6.16
260.859	13.66
261.328	8.86
261.797	18.76
262.266	10.06
262.735	16.56
263.204	7.26
263.673	-0.14
264.142	10.46
264.611	-4.24
265.08	3.66
265.549	-2.14
266.018	4.36
266.487	1.26
266.955	-4.44
267.424	2.66
267.893	-1.54
268.362	0.46
268.83	4.36
269.299	13.26
269.768	6.46
270.236	4.16
270.705	0.66
271.174	10.36
271.642	13.36
272.111	9.66
272.579	18.66
273.048	22.76
273.516	27.46
273.985	27.06
274.453	23.86
274.922	19.86
275.39	15.26
275.858	2.86
276.327	11.56
276.795	20.86
277.263	16.06
277.731	27.76
278.2	58.36
278.668	54.16
279.136	49.86
279.604	18.16
280.072	16.86
280.54	9.66
281.008	8.36
281.477	10.66
281.945	12.96
282.413	11.56
282.881	14.76
283.348	7.56
283.816	17.66
284.284	13.76
284.752	17.76
285.22	10.96
285.688	19.96
286.156	18.86
286.623	41.46
287.091	55.36
287.559	27.46
288.026	22.66
288.494	14.16
288.962	11.56
289.429	6.46
289.897	14.76
290.364	11.26
290.832	20.26
291.3	12.86
291.767	14.66
292.234	16.46
292.702	12.86
293.169	16.66
293.637	23.66
294.104	19.26
294.571	12.86
295.039	14.96
295.506	16.26
295.973	18.36
296.44	18.66
296.908	19.66
297.375	17.36
297.842	20.76
298.309	22.16
298.776	15.86
299.243	14.26
299.71	12.96
300.177	26.26
300.644	25.36
301.111	19.36
301.578	22.06
302.045	19.16
302.512	29.36
302.979	21.36
303.446	23.06
303.913	18.36
304.379	18.76
304.846	27.26
305.313	19.26
305.78	20.66
306.246	31.86
306.713	29.96
307.18	32.26
307.646	29.16
308.113	32.36
308.579	26.16
309.046	31.46
309.512	30.16
309.979	21.06
310.445	25.76
310.912	24.86
311.378	29.36
311.845	28.46
312.311	25.46
312.777	35.36
313.244	34.56
313.71	40.06
314.176	28.26
314.642	26.96
315.109	29.86
315.575	35.06
316.041	40.46
316.507	34.56
316.973	42.16
317.439	35.46
317.905	35.16
318.371	44.26
318.837	36.46
319.303	30.96
319.769	36.46
320.235	40.56
320.701	39.56
321.167	37.66
321.633	39.06
322.099	36.26
322.564	45.46
323.03	42.16
323.496	42.06
323.962	46.26
324.427	36.86
324.893	41.06
325.359	34.56
325.824	39.46
326.29	34.66
326.755	37.36
327.221	33.56
327.686	39.36
328.152	50.56
328.617	45.26
329.083	48.06
329.548	49.36
330.014	48.76
330.479	41.76
330.944	41.26
331.41	37.56
331.875	46.06
332.34	45.66
332.805	42.96
333.271	48.86
333.736	48.26
334.201	49.46
334.666	53.26
335.131	55.76
335.596	48.46
336.061	43.96
336.526	47.86
336.991	53.36
337.456	53.96
337.921	49.26
338.386	51.26
338.851	37.86
339.316	44.06
339.781	42.26
340.246	51.06
340.711	46.56
341.175	50.96
341.64	45.16
342.105	50.26
342.569	50.96
343.034	59.16
343.499	55.16
343.963	50.96
344.428	63.86
344.893	65.06
345.357	63.66
345.822	62.56
346.286	68.06
346.751	72.86
347.215	65.56
347.679	76.66
348.144	98.06
348.608	80.16
349.073	66.86
349.537	77.06
350.001	78.96
350.465	91.06
350.93	82.66
351.394	85.36
351.858	78.26
352.322	91.36
352.786	86.46
353.25	102.86
353.715	114.96
354.179	105.66
354.643	128.16
355.107	125.26
355.571	104.16
356.035	106.46
356.498	124.76
356.962	126.96
357.426	132.96
357.89	117.36
358.354	91.16
358.818	80.66
359.281	79.66
359.745	71.26
360.209	78.96
360.673	77.36
361.136	78.56
361.6	83.86
362.064	90.36
362.527	86.06
362.991	89.46
363.454	91.26
363.918	80.16
364.381	83.66
364.845	85.86
365.308	88.16
365.772	92.46
366.235	83.06
366.698	79.56
367.162	89.56
367.625	96.46
368.088	86.66
368.552	87.06
369.015	92.06
369.478	98.66
369.941	101.06
370.404	96.36
370.867	108.46
371.331	108.56
371.794	119.16
372.257	114.66
372.72	116.26
373.183	115.06
373.646	110.36
374.109	99.76
374.572	108.26
375.035	107.46
375.497	109.76
375.96	104.36
376.423	101.06
376.886	117.46
377.349	112.96
377.811	110.56
378.274	109.46
378.737	108.46
379.199	112.56
379.662	115.86
380.125	118.16
380.587	122.46
381.05	128.26
381.512	132.86
381.975	141.76
382.437	128.96
382.9	128.96
383.362	125.76
383.825	143.26
384.287	148.46
384.75	144.96
385.212	142.56
385.674	137.26
386.136	134.76
386.599	131.16
387.061	135.06
387.523	129.76
387.985	136.96
388.447	144.26
388.91	143.26
389.372	163.56
389.834	152.66
390.296	144.66
390.758	153.86
391.22	170.46
391.682	208.46
392.144	300.26
392.606	232.56
393.068	170.06
393.529	166.86
393.991	152.06
394.453	149.46
394.915	153.76
395.377	194.16
395.838	218.46
396.3	155.46
396.762	145.56
397.224	138.16
397.685	133.76
398.147	135.56
398.608	131.36
399.07	124.56
399.531	140.16
399.993	147.56
400.454	152.06
400.916	153.06
401.377	143.86
401.839	150.06
402.3	157.96
402.762	168.46
403.223	182.76
403.684	174.86
404.145	165.16
404.607	161.86
405.068	172.66
405.529	169.46
405.99	190.46
406.451	185.16
406.913	178.46
407.374	174.56
407.835	163.36
408.296	175.76
408.757	172.46
409.218	190.96
409.679	183.96
410.14	176.46
410.601	181.36
411.062	187.16
411.522	196.66
411.983	197.76
412.444	176.66
412.905	181.86
413.366	182.16
413.826	196.46
414.287	214.86
414.748	264.06
415.208	249.46
415.669	216.46
416.13	206.66
416.59	210.56
417.051	218.16
417.511	213.56
417.972	237.66
418.432	248.56
418.893	288.66
419.353	254.16
419.814	195.96
420.274	190.96
420.734	184.86
421.195	200.06
421.655	196.16
422.115	197.36
422.576	195.66
423.036	190.06
423.496	206.46
423.956	222.36
424.416	235.26
424.876	274.36
425.336	269.76
425.797	271.96
426.257	263.46
426.717	242.66
427.177	234.16
427.637	221.36
428.097	237.16
428.556	252.26
429.016	268.06
429.476	267.36
429.936	284.06
430.396	292.26
430.856	296.26
431.315	320.36
431.775	353.36
432.235	396.36
432.694	351.26
433.154	366.36
433.614	399.66
434.073	347.26
434.533	287.46
434.993	276.86
435.452	293.76
435.912	303.76
436.371	298.36
436.83	288.06
437.29	276.76
437.749	252.66
438.209	246.36
438.668	280.36
439.127	296.46
439.587	275.16
440.046	250.56
440.505	267.06
440.964	285.26
441.424	330.86
441.883	327.46
442.342	269.46
442.801	233.06
443.26	220.36
443.719	232.06
444.178	215.26
444.637	217.16
445.096	220.46
445.555	222.06
446.014	224.96
446.473	230.16
446.932	233.66
447.391	229.26
447.849	228.36
448.308	223.46
448.767	221.86
449.226	235.36
449.685	237.56
450.143	254.46
450.602	241.96
451.061	236.26
451.519	235.86
451.978	232.76
452.436	230.06
452.895	247.26
453.353	260.66
453.812	241.86
454.27	246.76
454.729	240.86
455.187	239.46
455.646	253.86
456.104	253.36
456.562	268.26
457.021	277.66
457.479	262.76
457.937	281.26
458.395	261.16
458.854	248.66
459.312	264.06
459.77	279.76
460.228	261.06
460.686	251.36
461.144	253.36
461.602	250.36
462.06	248.86
462.518	257.96
462.976	261.66
463.434	262.46
463.892	272.96
464.35	273.86
464.808	297.06
465.266	273.66
465.724	274.26
466.181	277.86
466.639	278.16
467.097	291.66
467.555	309.76
468.012	307.96
468.47	324.26
468.928	337.06
469.385	347.96
469.843	353.66
470.3	361.26
470.758	368.16
471.215	398.86
471.673	415.56
472.13	411.16
472.588	426.66
473.045	375.26
473.503	383.76
473.96	400.06
474.417	406.96
474.875	447.16
475.332	483.06
475.789	470.16
476.246	472.36
476.704	489.26
477.161	519.16
477.618	534.66
478.075	579.26
478.532	631.16
478.989	706.56
479.446	819.96
479.903	795.76
480.36	825.56
480.817	879.66
481.274	986.46
481.731	1095.56
482.188	1189.86
482.645	1341.96
483.102	1436.86
483.558	1580.96
484.015	1636.06
484.472	1608.76
484.929	1571.96
485.385	1504.56
485.842	1474.36
486.299	1407.66
486.755	1335.56
487.212	1117.16
487.668	946.36
488.125	874.86
488.582	787.96
489.038	759.26
489.494	722.06
489.951	694.56
490.407	685.46
490.864	666.66
491.32	655.66
491.776	647.26
492.233	659.56
492.689	619.96
493.145	620.46
493.602	615.26
494.058	634.96
494.514	622.56
494.97	658.56
495.426	670.86
495.882	628.96
496.338	626.16
496.794	639.96
497.251	630.16
497.707	641.86
498.163	652.06
498.618	648.06
499.074	653.76
499.53	688.56
499.986	687.56
500.442	670.86
500.898	643.66
501.354	633.06
501.809	646.26
502.265	651.96
502.721	668.16
503.177	685.26
503.632	675.76
504.088	681.16
504.543	724.86
504.999	716.76
505.455	672.66
505.91	635.76
506.366	637.96
506.821	636.46
507.277	625.26
507.732	632.46
508.187	632.16
508.643	648.26
509.098	649.96
509.553	661.16
510.009	676.56
510.464	675.36
510.919	701.16
511.375	693.36
511.83	725.16
512.285	732.66
512.74	777.56
513.195	784.36
513.65	784.46
514.105	778.16
514.56	782.96
515.015	797.36
515.47	806.76
515.925	803.26
516.38	798.06
516.835	806.46
517.29	786.76
517.745	794.76
518.2	773.56
518.655	749.06
519.109	751.86
519.564	752.96
520.019	741.66
520.474	737.66
520.928	737.06
521.383	727.76
521.838	727.36
522.292	717.36
522.747	722.76
523.201	719.86
523.656	697.66
524.11	703.46
524.565	701.86
525.019	695.76
525.474	716.26
525.928	724.16
526.382	706.66
526.837	701.26
527.291	713.06
527.745	701.26
528.2	706.36
528.654	697.56
529.108	697.06
529.562	705.66
530.016	697.26
530.47	712.26
530.925	694.06
531.379	699.86
531.833	713.86
532.287	717.86
532.741	703.26
533.195	713.56
533.649	724.06
534.103	728.16
534.556	715.76
535.01	724.86
535.464	709.86
535.918	723.26
536.372	727.46
536.826	728.76
537.279	719.06
537.733	720.06
538.187	732.86
538.64	722.36
539.094	728.36
539.548	735.06
540.001	736.76
540.455	734.86
540.908	735.96
541.362	750.86
541.815	750.46
542.269	760.96
542.722	767.46
543.175	772.36
543.629	775.06
544.082	803.06
544.536	790.46
544.989	786.96
545.442	798.06
545.895	792.46
546.349	799.46
546.802	805.86
547.255	796.06
547.708	820.26
548.161	827.26
548.614	825.76
549.067	833.56
549.52	827.06
549.973	820.36
550.426	816.76
550.879	798.36
551.332	797.36
551.785	807.16
552.238	807.96
552.691	825.16
553.144	825.86
553.596	852.56
554.049	875.76
554.502	891.36
554.955	922.66
555.407	920.46
555.86	913.86
556.313	905.36
556.765	890.26
557.218	888.66
557.67	886.96
558.123	881.26
558.576	868.56
559.028	885.06
559.48	883.06
559.933	869.66
560.385	841.86
560.838	821.76
561.29	795.36
561.742	785.46
562.195	766.26
562.647	773.06
563.099	776.26
563.551	768.56
564.004	783.56
564.456	773.36
564.908	769.26
565.36	756.06
565.812	737.66
566.264	721.56
566.716	732.16
567.168	712.56
567.62	724.46
568.072	715.46
568.524	698.06
568.976	688.26
569.428	668.86
569.88	681.96
570.332	686.96
570.784	692.96
571.235	692.06
571.687	694.46
572.139	701.56
572.59	718.36
573.042	709.46
573.494	712.06
573.945	713.46
574.397	687.26
574.849	692.26
575.3	697.16
575.752	690.86
576.203	685.56
576.655	690.16
577.106	679.96
577.557	670.26
578.009	670.96
578.46	659.06
578.912	667.56
579.363	677.96
579.814	665.86
580.265	660.96
580.717	667.66
581.168	666.76
581.619	689.36
582.07	682.66
582.521	680.96
582.972	669.26
583.423	674.46
583.875	687.16
584.326	704.66
584.777	740.86
585.227	819.86
585.678	908.76
586.129	1000.66
586.58	1068.16
587.031	1152.96
587.482	1309.86
587.933	1499.46
588.384	1306.66
588.834	976.06
589.285	811.76
589.736	787.16
590.186	783.96
590.637	765.76
591.088	748.86
591.538	739.26
591.989	735.16
592.439	734.76
592.89	723.86
593.34	711.46
593.791	715.06
594.241	696.96
594.692	710.36
595.142	701.86
595.593	691.16
596.043	699.76
596.493	716.26
596.943	720.06
597.394	711.66
597.844	704.06
598.294	736.16
598.744	746.06
599.195	772.16
599.645	818.56
600.095	863.96
600.545	909.56
600.995	962.86
601.445	1018.16
601.895	1067.36
602.345	1123.96
602.795	1117.36
603.245	1050.06
603.695	1008.96
604.145	948.66
604.594	899.46
605.044	856.26
605.494	790.36
605.944	759.36
606.393	736.16
606.843	721.56
607.293	730.56
607.743	729.76
608.192	747.16
608.642	757.76
609.091	767.66
609.541	761.96
609.99	766.16
610.44	767.26
610.889	709.96
611.339	691.16
611.788	670.06
612.238	693.36
612.687	715.56
613.136	719.46
613.586	733.66
614.035	737.96
614.484	744.16
614.933	760.76
615.383	747.46
615.832	746.46
616.281	718.96
616.73	678.36
617.179	666.66
617.628	651.76
618.077	632.06
618.526	624.76
618.975	619.06
619.424	607.46
619.873	601.16
620.322	609.96
620.771	605.06
621.22	604.76
621.669	588.76
622.118	585.36
622.567	573.96
623.015	564.96
623.464	568.96
623.913	557.96
624.361	558.76
624.81	546.26
625.259	552.16
625.707	548.16
626.156	554.16
626.604	565.06
627.053	558.16
627.501	560.26
627.95	566.56
628.398	578.96
628.847	557.36
629.295	553.46
629.744	565.96
630.192	559.46
630.64	567.76
631.089	554.36
631.537	572.26
631.985	587.06
632.433	587.16
632.881	597.86
633.33	649.66
633.778	627.46
634.226	559.06
634.674	559.76
635.122	570.76
635.57	598.56
636.018	625.96
636.466	576.06
636.914	555.36
637.362	567.56
637.81	567.06
638.258	569.86
638.705	575.56
639.153	610.56
639.601	606.66
640.049	632.26
640.497	656.66
640.944	689.36
641.392	636.76
641.84	609.66
642.287	575.36
642.735	564.26
643.182	576.66
643.63	566.16
644.078	569.26
644.525	586.16
644.973	592.16
645.42	597.96
645.867	612.26
646.315	628.66
646.762	652.46
647.21	685.36
647.657	704.86
648.104	750.26
648.551	761.36
648.999	824.56
649.446	911.26
649.893	1001.66
650.34	1151.66
650.787	1379.06
651.234	1713.66
651.682	2225.06
652.129	3065.86
652.576	4408.56
653.023	6499.86
653.47	8946.26
653.917	11193.36
654.363	12994.76
654.81	14408.36
655.257	13717.76
655.704	8953.56
656.151	5276.06
656.598	3419.26
657.044	2434.36
657.491	1866.96
657.938	1494.96
658.385	1240.36
658.831	1076.46
659.278	959.76
659.724	854.96
660.171	777.36
660.618	717.46
661.064	675.06
661.511	665.36
661.957	644.06
662.404	633.66
662.85	641.56
663.296	613.16
663.743	554.36
664.189	534.36
664.635	534.56
665.082	525.06
665.528	526.06
665.974	516.06
666.42	506.16
666.867	499.46
667.313	482.46
667.759	476.86
668.205	474.26
668.651	484.26
669.097	477.76
669.543	495.46
669.989	456.06
670.435	440.66
670.881	437.16
671.327	437.26
671.773	455.36
672.219	481.36
672.665	534.06
673.11	567.46
673.556	612.16
674.002	645.96
674.448	641.76
674.893	538.16
675.339	466.96
675.785	420.56
676.23	413.06
676.676	388.16
677.122	376.46
677.567	365.26
678.013	359.96
678.458	351.36
678.904	352.16
679.349	343.76
679.794	343.06
680.24	334.96
680.685	342.36
681.131	337.06
681.576	345.86
682.021	347.76
682.466	342.16
682.912	342.66
683.357	338.96
683.802	370.86
684.247	398.66
684.692	441.66
685.137	484.56
685.583	530.96
686.028	544.66
686.473	502.46
686.918	437.36
687.363	403.96
687.807	383.36
688.252	362.16
688.697	347.36
689.142	336.46
689.587	319.96
690.032	317.46
690.477	335.86
690.921	339.26
691.366	369.86
691.811	397.16
692.255	419.76
692.7	440.66
693.145	487.26
693.589	670.36
694.034	1085.86
694.478	1488.16
694.923	1700.86
695.367	2219.06
695.812	1170.16
696.256	487.76
696.701	371.06
697.145	339.26
697.59	319.16
698.034	308.86
698.478	323.26
698.922	317.96
699.367	323.76
699.811	330.26
700.255	335.76
700.699	374.06
701.143	411.46
701.588	465.06
702.032	495.86
702.476	507.26
702.92	482.06
703.364	475.36
703.808	614.06
704.252	998.36
704.696	1398.86
705.14	1630.96
705.584	2078.46
706.027	1041.86
706.471	502.16
706.915	392.26
707.359	338.56
707.803	316.26
708.246	297.06
708.69	300.46
709.134	307.66
709.577	298.56
710.021	310.86
710.465	296.26
710.908	291.56
711.352	290.66
711.795	297.96
712.239	339.76
712.682	372.06
713.126	404.66
713.569	454.56
714.012	362.36
714.456	313.56
714.899	294.26
715.342	270.96
715.786	248.66
716.229	247.66
716.672	250.96
717.115	240.56
717.558	241.36
718.002	240.56
718.445	255.86
718.888	281.16
719.331	283.56
719.774	298.46
720.217	293.76
720.66	277.26
721.103	261.76
721.546	250.36
721.989	248.96
722.432	227.16
722.874	234.16
723.317	217.66
723.76	222.56
724.203	249.96
724.645	314.16
725.088	424.96
725.531	555.16
725.974	629.86
726.416	529.86
726.859	304.26
727.301	242.96
727.744	232.56
728.187	222.16
728.629	234.06
729.071	233.76
729.514	250.16
729.956	261.86
730.399	279.96
730.841	283.96
731.283	267.66
731.726	255.06
732.168	255.06
732.61	256.66
733.053	278.46
733.495	301.56
733.937	345.96
734.379	394.06
734.821	425.26
735.263	524.26
735.705	805.66
736.148	1512.36
736.59	2485.46
737.032	2975.26
737.474	2433.56
737.916	786.06
738.357	415.96
738.799	318.66
739.241	294.46
739.683	276.36
740.125	283.06
740.567	283.76
741.008	306.56
741.45	302.16
741.892	306.96
742.334	333.16
742.775	348.96
743.217	328.16
743.658	263.96
744.1	235.06
744.542	254.26
744.983	304.06
745.425	326.36
745.866	334.16
746.307	276.46
746.749	277.16
747.19	314.56
747.632	441.36
748.073	841.06
748.514	1776.66
748.956	2776.96
749.397	3461.46
749.838	2874.46
750.279	2880.86
750.72	1451.96
751.162	527.96
751.603	306.46
752.044	246.16
752.485	207.76
752.926	201.86
753.367	192.26
753.808	186.76
754.249	189.06
754.69	176.86
755.131	177.36
755.572	176.76
756.013	174.06
756.453	178.86
756.894	185.76
757.335	180.06
757.776	189.36
758.216	184.66
758.657	194.66
759.098	198.96
759.538	214.56
759.979	262.76
760.42	355.76
760.86	666.86
761.301	1727.36
761.741	4224.16
762.182	6290.06
762.622	4435.56
763.063	1280.06
763.503	525.26
763.943	339.56
764.384	325.16
764.824	389.26
765.264	431.86
765.705	295.36
766.145	198.56
766.585	176.86
767.025	177.16
767.465	176.76
767.906	231.76
768.346	308.46
768.786	329.16
769.226	252.56
769.666	305.96
770.106	585.46
770.546	1472.96
770.986	2559.86
771.426	2304.06
771.866	765.96
772.306	315.86
772.745	199.66
773.185	165.86
773.625	166.46
774.065	162.06
774.505	194.26
774.944	300.26
775.384	665.36
775.824	1218.46
776.263	1193.06
776.703	503.66
777.142	211.16
777.582	157.66
778.021	129.36
778.461	137.36
778.9	136.56
779.34	125.76
779.779	109.76
780.219	111.36
780.658	102.66
781.097	105.66
781.537	106.46
781.976	100.76
782.415	103.86
782.855	105.66
783.294	105.16
783.733	104.96
784.172	107.66
784.611	104.86
785.05	107.36
785.489	112.66
785.928	110.96
786.367	117.36
786.806	113.26
787.245	126.76
787.684	134.46
788.123	140.76
788.562	137.76
789.001	122.66
789.44	117.66
789.879	113.86
790.317	113.46
790.756	124.76
791.195	127.56
791.634	140.56
792.072	194.96
792.511	350.76
792.95	949.36
793.388	2071.56
793.827	1898.76
794.265	654.36
794.704	273.76
795.142	183.06
795.581	147.96
796.019	128.96
796.458	125.06
796.896	120.66
797.334	123.86
797.773	150.26
798.211	210.66
798.649	413.46
799.087	971.76
799.526	1526.06
799.964	1936.46
800.402	1965.06
800.84	733.76
801.278	297.76
801.716	172.46
802.154	149.46
802.592	138.76
803.03	136.06
803.468	125.96
803.906	134.66
804.344	142.56
804.782	147.96
805.22	126.86
805.658	120.96
806.096	142.96
806.533	150.06
806.971	161.16
807.409	213.36
807.847	302.66
808.284	631.76
808.722	1778.56
809.16	3188.76
809.597	2975.46
810.035	5211.86
810.472	5636.96
810.91	2030.86
811.347	768.06
811.785	387.16
812.222	242.86
812.66	184.56
813.097	158.16
813.535	131.26
813.972	123.16
814.409	114.76
814.846	103.66
815.284	109.06
815.721	94.76
816.158	105.06
816.595	119.26
817.032	169.96
817.47	189.46
817.907	161.16
818.344	139.06
818.781	121.56
819.218	98.26
819.655	114.06
820.092	177.06
820.529	206.96
820.966	159.26
821.403	127.36
821.839	98.86
822.276	98.46
822.713	116.16
823.15	130.66
823.587	111.96
824.023	141.06
824.46	289.26
824.897	850.76
825.333	1314.06
825.77	563.36
826.206	215.86
826.643	128.96
827.08	98.76
827.516	86.56
827.953	72.96
828.389	77.96
828.825	72.96
829.262	66.76
829.698	58.56
830.135	58.86
830.571	58.16
831.007	61.16
831.443	65.46
831.88	59.76
832.316	63.46
832.752	61.76
833.188	58.66
833.624	65.86
834.06	63.86
834.497	69.26
834.933	69.16
835.369	71.36
835.805	62.56
836.241	75.66
836.677	74.46
837.112	89.16
837.548	100.26
837.984	123.96
838.42	190.96
838.856	471.56
839.292	1431.06
839.727	2237.36
840.163	1032.46
840.599	868.86
841.034	1940.86
841.47	2053.86
841.906	750.16
842.341	326.26
842.777	221.46
843.212	304.16
843.648	305.46
844.083	146.96
844.519	93.26
844.954	74.26
845.39	54.86
845.825	57.76
846.261	57.16
846.696	45.96
847.131	49.56
847.566	58.66
848.002	52.06
848.437	48.86
848.872	59.76
849.307	59.36
849.742	79.56
850.177	170.66
850.613	523.36
851.048	855.06
851.483	367.46
851.918	142.56
852.353	80.56
852.788	53.16
853.223	55.76
853.657	53.36
854.092	43.66
854.527	36.66
854.962	39.76
855.397	42.96
855.832	46.46
856.266	38.46
856.701	35.56
857.136	39.26
857.57	42.66
858.005	42.66
858.44	59.56
858.874	44.26
859.309	52.86
859.743	43.26
860.178	46.76
860.612	37.66
861.047	51.06
861.481	61.86
861.915	66.36
862.35	45.66
862.784	31.76
863.218	34.66
863.653	30.56
864.087	46.96
864.521	55.26
864.955	69.36
865.39	146.96
865.824	171.66
866.258	113.36
866.692	155.06
867.126	172.06
867.56	94.26
867.994	50.36
868.428	28.76
868.862	43.16
869.296	49.66
869.73	49.86
870.164	51.26
870.598	47.36
871.031	35.06
871.465	28.56
871.899	24.76
872.333	25.36
872.766	21.66
873.2	15.36
873.634	32.76
874.067	25.96
874.501	22.36
874.935	32.96
875.368	27.76
875.802	26.26
876.235	16.46
876.669	23.26
877.102	18.06
877.535	16.86
877.969	21.46
878.402	21.06
878.836	15.46
879.269	25.06
879.702	18.76
880.135	15.26
880.569	19.56
881.002	26.16
881.435	30.16
881.868	12.06
882.301	21.96
882.734	18.56
883.167	15.66
883.601	17.46
884.034	23.46
884.467	13.86
884.899	12.76
885.332	12.16
885.765	16.96
886.198	14.66
886.631	15.66
887.064	17.06
887.497	14.46
887.929	18.66
888.362	13.66
888.795	11.76
889.228	14.96
889.66	25.36
890.093	9.96
890.526	13.06
890.958	22.36
891.391	18.26
891.823	19.16
892.256	17.86
892.688	9.76
893.121	11.96
893.553	16.96
893.985	17.46
894.418	21.56
894.85	15.96
895.282	18.06
895.715	16.56
896.147	20.86
896.579	14.16
897.011	16.06
897.444	12.36
897.876	11.86
898.308	13.76
898.74	8.16
899.172	11.66
899.604	19.16
900.036	12.56
900.468	10.56
900.9	15.56
901.332	17.76
901.764	13.66
902.196	13.76
902.628	16.86
903.06	13.46
903.491	29.76
903.923	19.86
904.355	21.46
904.787	25.06
905.218	21.26
905.65	17.86
906.082	10.26
906.513	14.96
906.945	12.66
907.376	12.76
907.808	18.76
908.239	17.76
908.671	22.26
909.102	23.56
909.534	25.86
909.965	46.26
910.397	89.66
910.828	295.36
911.259	462.06
911.691	211.66
912.122	100.56
912.553	44.46
912.984	32.36
913.415	24.06
913.847	20.76
914.278	13.96
914.709	17.46
915.14	21.76
915.571	18.06
916.002	16.46
916.433	17.16
916.864	15.26
917.295	11.86
917.726	18.36
918.157	18.76
918.587	24.76
919.018	21.46
919.449	20.66
919.88	20.86
920.311	35.96
920.741	44.66
921.172	164.96
921.603	147.16
922.033	64.56
922.464	43.26
922.895	27.26
923.325	19.16
923.756	14.16
924.186	9.96
924.617	23.66
925.047	36.46
925.478	54.06
925.908	45.56
926.338	29.06
926.769	16.06
927.199	20.16
927.629	7.86
928.06	11.86
928.49	11.66
928.92	13.26
929.35	13.76
929.78	14.36
930.21	7.66
930.641	7.96
931.071	6.76
931.501	-2.84
931.931	6.46
932.361	10.16
932.791	3.06
933.221	4.26
933.651	7.36
934.08	15.06
934.51	24.26
934.94	7.96
935.37	11.26
935.8	8.76
936.229	10.66
936.659	10.76
937.089	-1.14
937.519	14.86
937.948	25.96
938.378	10.86
938.807	2.56
939.237	0.86
939.666	9.06
940.096	-4.64
940.525	0.36
940.955	3.26
941.384	0.56
941.814	-11.24
942.243	-2.74
942.672	7.56
943.102	-4.84
943.531	0.66
943.96	5.86
944.39	-1.74
944.819	4.76
945.248	-3.44
945.677	4.76
946.106	4.76
946.535	1.96
946.964	-1.24
947.393	2.36
947.822	4.46
948.251	-6.94
948.68	8.76
949.109	6.86
949.538	3.66
949.967	3.46
950.396	0.56
950.825	-1.74
951.254	2.56
951.682	-2.84
952.111	2.76
952.54	8.66
952.969	-2.34
953.397	-2.14
953.826	0.76
954.254	-3.34
954.683	3.46
955.112	-3.74
955.54	-4.34
955.969	-2.94
956.397	1.56
956.826	-2.24
957.254	4.76
957.682	6.46
958.111	-4.34
958.539	-2.24
958.967	1.96
959.396	-2.44
959.824	-1.04
960.252	-3.24
960.68	-5.84
961.109	-7.24
961.537	-5.44
961.965	-2.94
962.393	-3.84
962.821	-4.14
963.249	-1.84
963.677	0.46
964.105	1.66
964.533	40.96
964.961	39.16
965.389	16.56
965.817	11.56
966.245	5.26
966.672	3.46
967.1	-8.84
967.528	4.36
967.956	-5.54
968.383	-2.24
968.811	-2.64
969.239	-5.64
969.666	-1.94
970.094	1.96
970.522	-1.44
970.949	-2.44
971.377	-3.24
971.804	-5.04
972.232	-7.34
972.659	-6.44
973.087	-2.34
973.514	-5.14
973.941	-7.54
974.369	1.56
974.796	2.46
975.223	2.06
975.651	-0.94
976.078	-0.64
976.505	-3.14
976.932	4.56
977.359	17.26
977.786	10.36
978.214	-1.24
978.641	-5.74
979.068	-5.54
979.495	-7.14
979.922	2.06
980.349	-5.24
980.776	1.36
981.202	0.06
981.629	3.66
982.056	3.56
982.483	-5.34
982.91	5.66
983.337	-6.64
983.763	5.66
984.19	-5.14
984.617	-3.54
985.043	-0.34
985.47	2.16
985.897	-6.24
986.323	-7.44
986.75	-0.54
987.176	-2.74
987.603	3.86
988.029	-1.14
988.456	2.66
988.882	4.06
989.308	-3.34
989.735	-1.94
990.161	5.76
990.587	-8.54
991.014	-1.64
991.44	6.66
991.866	1.26
992.292	-7.94
992.719	-6.74
993.145	1.66
993.571	-9.44
993.997	-5.84
994.423	-0.24
994.849	-5.24
995.275	2.06
995.701	-1.04
996.127	-1.44
996.553	-3.64
996.979	-4.54
997.405	-4.14
997.83	-2.54
998.256	-11.54
998.682	-4.44
999.108	-9.94
999.534	-4.04
999.959	-1.54
1000.385	-5.44
1000.811	-5.34
1001.236	-9.44
1001.662	-12.64
1002.087	-12.04
1002.513	-0.74
1002.938	0.56
1003.364	-1.34
1003.789	-3.54
1004.215	3.26
1004.64	-1.64
1005.066	2.66
1005.491	-2.44
1005.916	-2.64
1006.342	-3.74
1006.767	-6.34
1007.192	5.16
1007.617	-0.64
1008.042	-5.84
1008.468	-4.84
1008.893	-4.54
1009.318	-5.34
1009.743	-4.24
1010.168	4.66
1010.593	-0.14
1011.018	-5.64
1011.443	-0.74
1011.868	-3.34
1012.293	-9.14
1012.718	-7.24
1013.143	-2.24
1013.567	-0.94
1013.992	-3.14
1014.417	-16.34
1014.842	0.76
1015.267	-4.84
1015.691	-5.34
1016.116	5.26
1016.541	-1.14
1016.965	4.16
1017.39	3.06
1017.814	-1.54
1018.239	-0.14
1018.663	-5.54
1019.088	-15.34
1019.512	-5.04
1019.937	-6.54
1020.361	-7.44
1020.785	-17.04
1021.21	-1.84
1021.634	-5.14
1022.058	-3.74
1022.483	1.26
1022.907	-4.64
1023.331	-3.84
1023.755	-7.64
1024.179	-4.14
1024.604	-6.14
1025.028	-4.74
1025.452	-7.54
1025.876	-6.64
1026.3	-3.44
1026.724	-11.64
1027.148	-6.74
1027.572	-7.24
1027.996	-1.84
1028.42	-2.44
1028.843	-6.44
1029.267	-4.44
1029.691	1.66
1030.115	-7.74
1030.539	-10.94
1030.962	-10.74
1031.386	-12.74
1031.81	3.26
1032.233	-0.24
1032.657	-7.44
1033.08	-7.24
1033.504	-9.44
1033.927	-2.34
1034.351	-1.14
1034.774	-1.94
1035.198	-6.44
1035.621	-9.24
1036.045	-12.44
1036.468	4.66
1036.891	-13.84
1037.315	-7.54
1037.738	-13.74
1038.161	3.66
1038.584	-6.84
1039.008	-4.44
1039.431	-5.54
1039.854	-2.14
1040.277	-7.74
1040.7	-10.24
1041.123	-5.54
1041.546	-5.74
1041.969	-8.34
1042.392	-7.84
1042.815	-4.14
1043.238	-0.04
1043.661	-1.24
1044.084	-9.64
1044.507	-4.94
1044.93	-6.54
1045.352	-5.94
1045.775	-1.24
1046.198	-3.44
1046.621	-4.34
1047.043	-2.14
1047.466	9.26
1047.889	-5.04
1048.311	-4.74
1048.734	-5.04
1049.156	-2.04
1049.579	-1.34
1050.001	-6.14
1050.424	-5.84
1050.846	-8.54
1051.269	-2.64
1051.691	-6.04
1052.113	-12.14
1052.536	-3.64
1052.958	-6.84
1053.38	1.86
1053.802	-9.64
1054.225	-3.04
1054.647	-13.94
1055.069	-6.44
1055.491	-0.74
1055.913	-10.84
1056.335	1.56
1056.757	-10.44
1057.179	-4.94
1057.601	-7.14
1058.023	-4.14
1058.445	-9.24
1058.867	-4.64
1059.289	-2.34
1059.711	-12.64
1060.133	-3.54
1060.555	-4.34
1060.976	-11.34
1061.398	-6.14
1061.82	-9.24
1062.241	-8.04
1062.663	-6.54
1063.085	-7.24
1063.506	0.56
1063.928	-3.54
1064.35	-2.04
1064.771	-10.64
1065.193	-4.94
1065.614	-9.64
1066.035	-0.84
1066.457	-3.94
1066.878	0.26
1067.3	-6.24
1067.721	-3.14
1068.142	-8.64
1068.564	-2.64
1068.985	-9.74
1069.406	-6.84
1069.827	-1.44
1070.248	-2.74
1070.67	-15.44
1071.091	-4.34
1071.512	-3.94
1071.933	-6.44
1072.354	-13.64
1072.775	-2.94
1073.196	-5.14
1073.617	-0.74
1074.038	-10.34
1074.459	-3.34
1074.88	-8.64
1075.3	-4.14
1075.721	-9.44
1076.142	-0.24
1076.563	1.56
1076.983	-11.84
1077.404	-7.64
1077.825	-8.84
1078.246	-5.44
1078.666	-12.24
1079.087	-2.44
1079.507	-5.04
1079.928	1.16
1080.348	-1.04
1080.769	-6.04
1081.189	-1.24
1081.61	-0.74
1082.03	-6.84
1082.451	-12.64
1082.871	-8.14
1083.291	-6.14
1083.711	-2.84
1084.132	-4.64
1084.552	-5.74
1084.972	2.16
1085.392	-8.94
1085.813	-11.74
1086.233	-5.34
1086.653	-8.84
1087.073	-2.84
1087.493	-8.14
1087.913	-8.04
1088.333	-10.54
1088.753	-6.74
1089.173	-0.14
1089.593	0.36
1090.013	4.66
1090.433	1.46
1090.852	0.36
1091.272	-2.14
1091.692	0.06
1092.112	-7.04
1092.531	-10.44
1092.951	-10.34
1093.371	-11.84
1093.79	-5.24
1094.21	-2.14
1094.63	-3.14
1095.049	-4.44
1095.469	-3.24
1095.888	-5.34
1096.308	-1.14
1096.727	6.76
1097.146	-11.14
1097.566	0.06
1097.985	-1.74
1098.405	-2.84
1098.824	-6.14
1099.243	-4.34
1099.662	-7.84
1100.082	-1.04
1100.501	-2.14
1100.92	-7.34
1101.339	1.16
1101.758	-4.54
