Data from 20171114-ORNL-Ar_H_NY_Subt18_08-09-13-587.txt Node
Date: Tue Nov 14 08:09:13 EST 2017
User: Ender
Spectrometer: HR+D1039
Trigger mode: 0
Integration Time (sec): 2.730000E-2
Scans to average: 10
Electric dark correction enabled: true
Nonlinearity correction enabled: false
Boxcar width: 0
XAxis mode: Wavelengths
Number of Pixels in Spectrum: 2048
>>>>>Begin Spectral Data<<<<<
187.836	-0.22
188.309	-0.22
188.782	-0.22
189.255	-1.23
189.728	-7.02
190.201	7.48
190.674	-2.82
191.147	4.48
191.619	-3.32
192.092	-1.02
192.565	6.77
193.038	4.98
193.511	-3.22
193.984	0.18
194.456	-2.92
194.929	0.68
195.402	-1.42
195.874	-1.32
196.347	-8.52
196.82	-9.52
197.292	5.28
197.765	-2.92
198.237	-10.62
198.71	2.38
199.182	-1.52
199.655	-3.72
200.127	-2.12
200.6	2.38
201.072	-3.62
201.544	-9.02
202.017	-3.42
202.489	3.58
202.961	-5.92
203.433	-12.22
203.906	-1.52
204.378	-3.52
204.85	-3.02
205.322	-10.92
205.794	-2.12
206.266	-4.22
206.739	-12.72
207.211	4.58
207.683	-10.92
208.155	-5.92
208.627	-3.62
209.099	-2.62
209.57	-8.62
210.042	-11.02
210.514	-11.82
210.986	-5.12
211.458	-9.42
211.93	-4.82
212.402	-0.12
212.873	-6.32
213.345	-9.22
213.817	-15.32
214.288	-5.92
214.76	-8.82
215.232	-5.12
215.703	-4.42
216.175	-5.32
216.646	-2.62
217.118	-10.82
217.589	-4.02
218.061	-0.73
218.532	-6.72
219.004	-5.62
219.475	-4.52
219.946	-3.62
220.418	-10.32
220.889	4.48
221.36	-4.82
221.832	-8.52
222.303	-5.52
222.774	-2.62
223.245	-10.22
223.717	-0.12
224.188	-2.82
224.659	-12.32
225.13	-6.52
225.601	-1.92
226.072	-3.22
226.543	-4.73
227.014	-3.22
227.485	-5.12
227.956	-9.52
228.427	-6.42
228.898	-1.72
229.369	-1.32
229.839	-5.82
230.31	-9.32
230.781	-0.62
231.252	-9.02
231.722	-8.82
232.193	-4.92
232.664	-5.62
233.135	-1.22
233.605	-6.72
234.076	-12.42
234.546	0.27
235.017	-7.82
235.487	-5.72
235.958	-5.22
236.428	-8.82
236.899	0.38
237.369	3.28
237.84	-6.92
238.31	-5.52
238.78	-3.72
239.251	-3.92
239.721	-0.52
240.191	-8.32
240.662	-8.02
241.132	-4.52
241.602	-6.62
242.072	-0.02
242.542	-1.32
243.013	-3.52
243.483	-1.52
243.953	-6.32
244.423	-3.12
244.893	-1.82
245.363	-1.32
245.833	4.88
246.303	-4.62
246.773	0.28
247.243	0.58
247.712	-3.42
248.182	-0.62
248.652	-1.12
249.122	-12.92
249.592	-0.72
250.061	3.78
250.531	6.48
251.001	-4.92
251.471	5.68
251.94	2.58
252.41	1.08
252.879	-3.12
253.349	4.48
253.818	1.68
254.288	-0.12
254.757	-1.02
255.227	-4.72
255.696	-5.02
256.166	-2.92
256.635	2.88
257.105	3.78
257.574	-3.23
258.043	-2.82
258.513	-6.62
258.982	4.38
259.451	-4.32
259.92	-2.82
260.389	-2.22
260.859	3.68
261.328	-0.42
261.797	1.28
262.266	-5.42
262.735	1.08
263.204	4.38
263.673	-0.52
264.142	-2.02
264.611	-11.62
265.08	-4.62
265.549	-7.92
266.018	-1.22
266.487	-8.92
266.955	-4.42
267.424	-2.72
267.893	2.88
268.362	-2.62
268.83	-4.02
269.299	1.68
269.768	2.28
270.236	-5.22
270.705	-4.72
271.174	-5.92
271.642	-5.62
272.111	-4.32
272.579	-2.12
273.048	-0.42
273.516	2.38
273.985	4.48
274.453	-0.22
274.922	2.28
275.39	-4.42
275.858	-5.12
276.327	5.48
276.795	11.08
277.263	-1.12
277.731	7.58
278.2	7.58
278.668	5.98
279.136	6.88
279.604	4.58
280.072	2.68
280.54	3.28
281.008	9.18
281.477	2.28
281.945	5.38
282.413	5.48
282.881	6.18
283.348	-3.92
283.816	5.48
284.284	12.98
284.752	11.48
285.22	3.08
285.688	4.18
286.156	1.08
286.623	9.18
287.091	6.28
287.559	8.78
288.026	7.58
288.494	6.98
288.962	0.68
289.429	2.48
289.897	10.58
290.364	2.58
290.832	3.38
291.3	5.78
291.767	7.88
292.234	8.18
292.702	4.08
293.169	7.38
293.637	8.08
294.104	9.28
294.571	-4.12
295.039	1.28
295.506	2.88
295.973	8.68
296.44	3.48
296.908	9.48
297.375	5.98
297.842	13.68
298.309	6.78
298.776	2.38
299.243	10.18
299.71	1.98
300.177	5.58
300.644	7.98
301.111	10.48
301.578	14.48
302.045	8.88
302.512	10.48
302.979	13.88
303.446	14.38
303.913	14.08
304.379	9.58
304.846	24.18
305.313	16.18
305.78	13.88
306.246	12.88
306.713	9.38
307.18	14.78
307.646	12.38
308.113	12.48
308.579	14.48
309.046	18.98
309.512	23.48
309.979	12.68
310.445	14.78
310.912	12.18
311.378	24.28
311.845	15.18
312.311	16.48
312.777	21.88
313.244	18.08
313.71	29.48
314.176	17.08
314.642	16.88
315.109	17.88
315.575	24.48
316.041	23.38
316.507	15.38
316.973	16.68
317.439	19.78
317.905	25.08
318.371	24.78
318.837	21.68
319.303	18.08
319.769	22.38
320.235	19.48
320.701	28.18
321.167	29.68
321.633	22.78
322.099	26.48
322.564	29.88
323.03	24.28
323.496	19.28
323.962	30.68
324.427	20.18
324.893	27.98
325.359	25.77
325.824	27.98
326.29	23.98
326.755	26.68
327.221	32.18
327.686	23.18
328.152	38.98
328.617	30.68
329.083	36.88
329.548	37.28
330.014	38.98
330.479	24.68
330.944	25.38
331.41	35.58
331.875	29.68
332.34	27.88
332.805	30.38
333.271	35.38
333.736	29.68
334.201	35.78
334.666	33.27
335.131	43.58
335.596	48.98
336.061	35.88
336.526	26.88
336.991	31.08
337.456	45.78
337.921	35.98
338.386	36.48
338.851	35.27
339.316	33.78
339.781	35.88
340.246	30.28
340.711	33.38
341.175	37.08
341.64	29.38
342.105	37.98
342.569	42.27
343.034	47.98
343.499	42.38
343.963	41.88
344.428	52.58
344.893	53.68
345.357	42.18
345.822	45.68
346.286	50.48
346.751	54.68
347.215	49.68
347.679	46.78
348.144	73.58
348.608	62.58
349.073	53.78
349.537	59.08
350.001	60.78
350.465	71.08
350.93	60.48
351.394	68.88
351.858	52.18
352.322	68.48
352.786	59.38
353.25	73.08
353.715	79.98
354.179	78.77
354.643	97.18
355.107	90.48
355.571	77.98
356.035	84.18
356.498	79.28
356.962	87.27
357.426	95.38
357.89	86.88
358.354	71.68
358.818	65.78
359.281	64.78
359.745	63.28
360.209	57.18
360.673	59.68
361.136	64.68
361.6	64.77
362.064	65.38
362.527	73.88
362.991	79.38
363.454	64.78
363.918	57.58
364.381	61.48
364.845	63.58
365.308	74.08
365.772	72.48
366.235	75.78
366.698	72.28
367.162	64.58
367.625	73.18
368.088	67.18
368.552	73.58
369.015	76.58
369.478	78.98
369.941	81.68
370.404	69.58
370.867	87.78
371.331	78.88
371.794	85.77
372.257	74.48
372.72	87.58
373.183	81.18
373.646	83.48
374.109	80.58
374.572	81.08
375.035	86.68
375.497	88.18
375.96	91.58
376.423	90.18
376.886	96.58
377.349	91.78
377.811	84.78
378.274	86.48
378.737	90.18
379.199	92.68
379.662	93.28
380.125	94.68
380.587	91.58
381.05	90.78
381.512	101.58
381.975	105.48
382.437	102.98
382.9	101.08
383.362	114.68
383.825	112.88
384.287	106.58
384.75	104.88
385.212	116.58
385.674	115.98
386.136	108.68
386.599	106.58
387.061	108.78
387.523	106.98
387.985	114.18
388.447	122.98
388.91	111.08
389.372	115.18
389.834	114.27
390.296	111.68
390.758	125.38
391.22	126.58
391.682	137.98
392.144	144.18
392.606	138.08
393.068	123.08
393.529	140.38
393.991	124.18
394.453	115.68
394.915	118.88
395.377	126.28
395.838	129.88
396.3	124.68
396.762	130.48
397.224	120.88
397.685	122.98
398.147	126.18
398.608	118.68
399.07	117.28
399.531	119.98
399.993	130.58
400.454	144.18
400.916	139.08
401.377	133.98
401.839	136.18
402.3	135.68
402.762	148.48
403.223	162.18
403.684	156.27
404.145	146.88
404.607	143.18
405.068	150.28
405.529	154.58
405.99	169.48
406.451	161.88
406.913	157.58
407.374	151.28
407.835	146.38
408.296	151.28
408.757	157.18
409.218	176.38
409.679	163.38
410.14	166.58
410.601	161.18
411.062	166.38
411.522	167.48
411.983	171.98
412.444	165.08
412.905	170.18
413.366	174.88
413.826	185.58
414.287	214.58
414.748	260.28
415.208	236.18
415.669	205.77
416.13	195.18
416.59	193.48
417.051	208.38
417.511	214.77
417.972	230.38
418.432	240.68
418.893	278.78
419.353	239.78
419.814	196.48
420.274	172.48
420.734	177.38
421.195	191.18
421.655	183.38
422.115	184.68
422.576	178.38
423.036	190.08
423.496	202.18
423.956	206.98
424.416	221.88
424.876	256.98
425.336	249.98
425.797	249.98
426.257	242.18
426.717	230.08
427.177	223.58
427.637	219.18
428.097	223.57
428.556	232.68
429.016	260.58
429.476	245.18
429.936	257.48
430.396	259.08
430.856	271.57
431.315	294.38
431.775	330.27
432.235	354.28
432.694	331.77
433.154	335.28
433.614	370.88
434.073	325.88
434.533	267.58
434.993	256.88
435.452	267.58
435.912	275.88
436.371	271.68
436.83	261.18
437.29	251.18
437.749	235.08
438.209	236.48
438.668	258.88
439.127	275.88
439.587	252.88
440.046	238.08
440.505	250.48
440.964	260.48
441.424	308.88
441.883	294.98
442.342	251.08
442.801	220.08
443.26	222.17
443.719	221.98
444.178	219.08
444.637	207.78
445.096	219.77
445.555	220.58
446.014	225.27
446.473	228.48
446.932	230.77
447.391	224.78
447.849	228.08
448.308	217.08
448.767	221.98
449.226	234.48
449.685	237.28
450.143	245.98
450.602	240.27
451.061	230.17
451.519	235.38
451.978	231.58
452.436	230.08
452.895	236.28
453.353	252.27
453.812	236.38
454.27	241.67
454.729	240.78
455.187	231.88
455.646	241.38
456.104	242.68
456.562	254.38
457.021	266.08
457.479	260.58
457.937	272.48
458.395	255.27
458.854	247.28
459.312	250.08
459.77	265.08
460.228	269.57
460.686	245.67
461.144	250.28
461.602	244.68
462.06	244.38
462.518	247.27
462.976	254.07
463.434	255.08
463.892	265.98
464.35	273.57
464.808	290.98
465.266	266.58
465.724	273.18
466.181	268.68
466.639	271.98
467.097	288.48
467.555	297.98
468.012	305.08
468.47	308.38
468.928	329.27
469.385	341.78
469.843	352.08
470.3	347.38
470.758	353.78
471.215	383.38
471.673	393.88
472.13	400.38
472.588	408.58
473.045	372.58
473.503	377.88
473.96	402.98
474.417	405.38
474.875	427.57
475.332	463.28
475.789	450.68
476.246	457.98
476.704	481.77
477.161	497.28
477.618	514.88
478.075	550.38
478.532	602.08
478.989	673.68
479.446	767.38
479.903	739.88
480.36	771.98
480.817	828.68
481.274	917.08
481.731	1001.08
482.188	1074.97
482.645	1194.78
483.102	1276.18
483.558	1394.68
484.015	1431.18
484.472	1397.68
484.929	1377.78
485.385	1322.88
485.842	1287.97
486.299	1251.78
486.755	1217.88
487.212	1043.38
487.668	879.77
488.125	813.58
488.582	744.78
489.038	724.67
489.494	703.58
489.951	674.68
490.407	658.98
490.864	633.27
491.32	633.88
491.776	625.28
492.233	636.18
492.689	613.28
493.145	607.68
493.602	597.48
494.058	617.17
494.514	615.68
494.97	625.48
495.426	642.48
495.882	619.68
496.338	612.68
496.794	621.18
497.251	616.48
497.707	630.98
498.163	632.98
498.618	643.57
499.074	630.68
499.53	657.48
499.986	666.88
500.442	634.98
500.898	619.77
501.354	610.98
501.809	629.88
502.265	622.78
502.721	635.77
503.177	644.98
503.632	648.88
504.088	650.98
504.543	665.77
504.999	689.58
505.455	657.07
505.91	633.88
506.366	640.48
506.821	625.68
507.277	633.48
507.732	632.57
508.187	633.28
508.643	639.38
509.098	642.48
509.553	672.77
510.009	678.88
510.464	689.17
510.919	696.48
511.375	698.58
511.83	712.98
512.285	728.88
512.74	760.18
513.195	785.18
513.65	765.58
514.105	753.88
514.56	776.38
515.015	785.78
515.47	808.08
515.925	790.78
516.38	784.48
516.835	797.88
517.29	784.58
517.745	790.88
518.2	765.38
518.655	764.27
519.109	752.78
519.564	747.48
520.019	735.58
520.474	724.18
520.928	731.98
521.383	730.07
521.838	712.88
522.292	720.68
522.747	716.58
523.201	711.48
523.656	705.08
524.11	705.78
524.565	704.68
525.019	703.77
525.474	700.78
525.928	705.68
526.382	707.48
526.837	706.08
527.291	718.98
527.745	705.68
528.2	710.58
528.654	701.98
529.108	697.58
529.562	699.88
530.016	698.28
530.47	697.38
530.925	697.67
531.379	692.58
531.833	703.08
532.287	701.68
532.741	707.88
533.195	706.58
533.649	723.17
534.103	722.98
534.556	718.68
535.01	714.58
535.464	713.48
535.918	725.58
536.372	727.77
536.826	726.68
537.279	712.68
537.733	722.28
538.187	717.48
538.64	715.27
539.094	724.48
539.548	739.27
540.001	730.77
540.455	731.88
540.908	740.08
541.362	751.68
541.815	758.18
542.269	772.88
542.722	775.08
543.175	781.17
543.629	777.27
544.082	801.78
544.536	798.98
544.989	806.18
545.442	806.38
545.895	808.48
546.349	805.48
546.802	808.88
547.255	818.08
547.708	817.88
548.161	830.48
548.614	847.77
549.067	836.28
549.52	831.28
549.973	832.98
550.426	827.48
550.879	814.78
551.332	821.18
551.785	826.67
552.238	824.88
552.691	841.28
553.144	847.07
553.596	868.88
554.049	880.08
554.502	906.58
554.955	930.38
555.407	934.48
555.86	918.88
556.313	902.68
556.765	902.58
557.218	897.88
557.67	900.27
558.123	893.57
558.576	898.17
559.028	897.58
559.48	906.18
559.933	887.58
560.385	852.77
560.838	827.48
561.29	804.48
561.742	799.68
562.195	793.48
562.647	791.68
563.099	801.48
563.551	789.98
564.004	804.48
564.456	788.77
564.908	773.98
565.36	751.28
565.812	741.88
566.264	744.68
566.716	731.48
567.168	719.18
567.62	729.27
568.072	707.68
568.524	716.08
568.976	710.57
569.428	690.98
569.88	689.17
570.332	703.58
570.784	701.07
571.235	697.58
571.687	716.48
572.139	723.38
572.59	731.27
573.042	726.68
573.494	729.18
573.945	731.98
574.397	711.28
574.849	708.98
575.3	703.48
575.752	695.17
576.203	690.48
576.655	700.77
577.106	691.78
577.557	697.98
578.009	696.08
578.46	686.18
578.912	693.48
579.363	687.98
579.814	689.68
580.265	682.08
580.717	690.17
581.168	682.08
581.619	699.98
582.07	700.08
582.521	691.68
582.972	687.48
583.423	691.68
583.875	690.48
584.326	704.68
584.777	722.08
585.227	748.17
585.678	757.88
586.129	786.98
586.58	813.18
587.031	832.48
587.482	874.77
587.933	913.28
588.384	886.08
588.834	814.78
589.285	800.48
589.736	802.78
590.186	785.38
590.637	782.98
591.088	767.68
591.538	756.98
591.989	740.88
592.439	746.27
592.89	731.27
593.34	735.28
593.791	729.77
594.241	713.77
594.692	725.28
595.142	715.58
595.593	715.68
596.043	724.58
596.493	727.48
596.943	733.28
597.394	738.98
597.844	730.88
598.294	757.58
598.744	777.88
599.195	813.28
599.645	851.68
600.095	880.68
600.545	948.38
600.995	1001.18
601.445	1058.08
601.895	1129.88
602.345	1171.38
602.795	1160.18
603.245	1099.68
603.695	1051.97
604.145	993.57
604.594	945.38
605.044	889.48
605.494	819.68
605.944	770.88
606.393	768.27
606.843	741.88
607.293	754.58
607.743	759.58
608.192	758.98
608.642	775.88
609.091	776.88
609.541	789.28
609.99	782.68
610.44	774.58
610.889	728.48
611.339	711.77
611.788	705.78
612.238	711.58
612.687	725.68
613.136	716.48
613.586	724.38
614.035	723.18
614.484	725.17
614.933	724.28
615.383	725.18
615.832	725.78
616.281	717.18
616.73	689.58
617.179	666.18
617.628	664.38
618.077	654.88
618.526	642.18
618.975	632.38
619.424	634.57
619.873	631.48
620.322	633.08
620.771	632.18
621.22	622.07
621.669	619.08
622.118	600.38
622.567	598.68
623.015	585.67
623.464	584.38
623.913	574.27
624.361	563.88
624.81	570.08
625.259	566.58
625.707	572.98
626.156	576.38
626.604	587.68
627.053	575.07
627.501	591.38
627.95	590.68
628.398	601.07
628.847	584.48
629.295	592.08
629.744	595.08
630.192	591.88
630.64	584.77
631.089	567.27
631.537	555.48
631.985	546.58
632.433	553.08
632.881	543.98
633.33	548.98
633.778	551.58
634.226	537.88
634.674	548.68
635.122	554.58
635.57	567.38
636.018	583.88
636.466	574.58
636.914	581.08
637.362	595.28
637.81	588.27
638.258	591.38
638.705	607.98
639.153	632.48
639.601	652.28
640.049	669.88
640.497	698.98
640.944	713.77
641.392	665.88
641.84	634.68
642.287	603.08
642.735	579.48
643.182	582.78
643.63	586.88
644.078	574.18
644.525	592.57
644.973	601.28
645.42	600.77
645.867	634.48
646.315	656.58
646.762	674.18
647.21	697.38
647.657	720.18
648.104	761.88
648.551	774.28
648.999	836.38
649.446	910.18
649.893	997.18
650.34	1144.78
650.787	1357.38
651.234	1684.78
651.682	2175.28
652.129	2960.68
652.576	4207.07
653.023	6142.88
653.47	8267.38
653.917	10219.88
654.363	11679.48
654.81	12792.88
655.257	12127.98
655.704	8041.48
656.151	4803.57
656.598	3158.28
657.044	2261.88
657.491	1778.08
657.938	1434.58
658.385	1202.78
658.831	1055.78
659.278	942.38
659.724	848.08
660.171	782.98
660.618	727.78
661.064	691.78
661.511	668.78
661.957	654.48
662.404	650.88
662.85	659.68
663.296	629.38
663.743	576.18
664.189	557.48
664.635	550.67
665.082	535.08
665.528	543.98
665.974	533.67
666.42	523.58
666.867	516.28
667.313	498.48
667.759	477.98
668.205	471.77
668.651	468.18
669.097	460.68
669.543	456.88
669.989	461.98
670.435	466.68
670.881	466.98
671.327	467.78
671.773	490.27
672.219	520.57
672.665	571.68
673.11	615.07
673.556	652.17
674.002	702.38
674.448	680.68
674.893	573.58
675.339	497.48
675.785	465.68
676.23	434.48
676.676	416.48
677.122	408.58
677.567	389.48
678.013	380.58
678.458	378.28
678.904	381.68
679.349	365.88
679.794	365.78
680.24	364.18
680.685	365.17
681.131	366.17
681.576	371.27
682.021	379.38
682.466	363.68
682.912	364.68
683.357	368.38
683.802	402.88
684.247	433.18
684.692	478.98
685.137	520.78
685.583	563.98
686.028	587.18
686.473	537.68
686.918	472.07
687.363	441.77
687.807	413.48
688.252	377.27
688.697	361.58
689.142	356.17
689.587	354.18
690.032	340.07
690.477	355.88
690.921	367.68
691.366	403.58
691.811	430.08
692.255	454.18
692.7	491.58
693.145	545.58
693.589	768.98
694.034	1240.58
694.478	1650.38
694.923	1820.38
695.367	2363.28
695.812	1273.08
696.256	530.07
696.701	386.18
697.145	359.98
697.59	345.27
698.034	336.98
698.478	334.88
698.922	340.28
699.367	336.68
699.811	347.08
700.255	368.78
700.699	399.48
701.143	452.88
701.588	491.58
702.032	552.88
702.476	536.88
702.92	524.78
703.364	525.48
703.808	704.88
704.252	1137.78
704.696	1571.38
705.14	1761.97
705.584	2245.38
706.027	1132.27
706.471	558.38
706.915	422.27
707.359	380.17
707.803	346.68
708.246	327.68
708.69	330.08
709.134	328.48
709.577	328.18
710.021	335.08
710.465	320.27
710.908	317.98
711.352	308.18
711.795	330.68
712.239	373.58
712.682	415.88
713.126	432.38
713.569	477.67
714.012	370.88
714.456	311.48
714.899	297.58
715.342	283.38
715.786	273.68
716.229	266.98
716.672	261.17
717.115	263.68
717.558	262.98
718.002	266.27
718.445	281.98
718.888	306.08
719.331	299.68
719.774	322.78
720.217	318.28
720.66	297.38
721.103	277.58
721.546	271.48
721.989	264.07
722.432	240.18
722.874	247.18
723.317	248.98
723.76	248.98
724.203	272.27
724.645	339.78
725.088	480.48
725.531	608.98
725.974	678.27
726.416	577.88
726.859	321.68
727.301	251.98
727.744	250.08
728.187	241.08
728.629	246.18
729.071	251.68
729.514	277.08
729.956	278.98
730.399	290.78
730.841	306.08
731.283	288.48
731.726	282.18
732.168	275.88
732.61	283.98
733.053	310.48
733.495	331.48
733.937	375.18
734.379	427.57
734.821	466.58
735.263	593.68
735.705	932.08
736.148	1768.68
736.59	2812.78
737.032	3193.68
737.474	2615.68
737.916	866.48
738.357	450.28
738.799	353.38
739.241	316.78
739.683	297.77
740.125	313.17
740.567	316.28
741.008	336.38
741.45	322.88
741.892	343.28
742.334	373.98
742.775	382.77
743.217	354.77
743.658	288.58
744.1	267.68
744.542	278.48
744.983	337.88
745.425	362.08
745.866	358.58
746.307	298.58
746.749	301.38
747.19	349.08
747.632	510.08
748.073	997.78
748.514	2078.98
748.956	3056.28
749.397	3873.57
749.838	3214.28
750.279	3090.88
750.72	1578.08
751.162	578.78
751.603	344.88
752.044	273.27
752.485	229.38
752.926	222.27
753.367	214.57
753.808	203.57
754.249	199.28
754.69	199.68
755.131	193.58
755.572	194.28
756.013	191.88
756.453	191.48
756.894	196.88
757.335	196.38
757.776	203.18
758.216	213.27
758.657	214.38
759.098	212.78
759.538	240.58
759.979	290.68
760.42	417.08
760.86	804.98
761.301	2111.08
761.741	4915.97
762.182	6739.38
762.622	4765.57
763.063	1409.98
763.503	579.08
763.943	340.68
764.384	288.18
764.824	277.38
765.264	255.28
765.705	219.98
766.145	195.98
766.585	186.88
767.025	177.77
767.465	181.48
767.906	195.98
768.346	215.68
768.786	224.38
769.226	238.28
769.666	339.27
770.106	705.07
770.546	1746.28
770.986	2803.48
771.426	2477.57
771.866	851.08
772.306	334.28
772.745	217.08
773.185	182.98
773.625	167.28
774.065	151.68
774.505	168.08
774.944	219.08
775.384	400.58
775.824	632.98
776.263	606.48
776.703	294.68
777.142	168.28
777.582	140.38
778.021	126.58
778.461	131.18
778.9	130.18
779.34	131.38
779.779	113.98
780.219	108.88
780.658	111.88
781.097	111.48
781.537	119.38
781.976	111.98
782.415	110.58
782.855	110.68
783.294	105.88
783.733	109.28
784.172	115.28
784.611	107.48
785.05	112.58
785.489	112.68
785.928	121.08
786.367	126.98
786.806	127.98
787.245	139.68
787.684	142.08
788.123	149.98
788.562	138.38
789.001	132.78
789.44	127.58
789.879	120.68
790.317	121.48
790.756	134.48
791.195	141.48
791.634	155.48
792.072	222.18
792.511	413.48
792.95	1118.78
793.388	2259.47
793.827	1989.48
794.265	714.38
794.704	306.78
795.142	189.58
795.581	162.28
796.019	140.88
796.458	132.48
796.896	133.88
797.334	141.18
797.773	168.68
798.211	246.28
798.649	497.77
799.087	1118.48
799.526	1725.68
799.964	2178.48
800.402	2102.18
800.84	801.88
801.278	328.48
801.716	195.38
802.154	167.58
802.592	153.08
803.03	141.78
803.468	144.08
803.906	155.68
804.344	160.18
804.782	148.98
805.22	142.77
805.658	139.88
806.096	160.68
806.533	165.88
806.971	186.27
807.409	236.48
807.847	349.18
808.284	744.38
808.722	2089.28
809.16	3518.18
809.597	3489.27
810.035	5907.18
810.472	6023.68
810.91	2231.28
811.347	865.88
811.785	437.98
812.222	278.57
812.66	203.78
813.097	177.38
813.535	155.88
813.972	143.38
814.409	129.18
814.846	117.48
815.284	112.28
815.721	105.38
816.158	115.48
816.595	112.58
817.032	161.68
817.47	190.48
817.907	129.98
818.344	104.18
818.781	102.18
819.218	95.48
819.655	128.98
820.092	205.98
820.529	225.88
820.966	173.48
821.403	132.98
821.839	104.78
822.276	96.68
822.713	124.68
823.15	139.18
823.587	126.88
824.023	161.08
824.46	333.78
824.897	994.68
825.333	1412.88
825.77	616.07
826.206	246.18
826.643	151.08
827.08	109.68
827.516	91.68
827.953	87.38
828.389	81.88
828.825	71.38
829.262	73.38
829.698	66.68
830.135	66.28
830.571	66.48
831.007	64.68
831.443	70.08
831.88	64.38
832.316	64.18
832.752	63.18
833.188	66.88
833.624	65.58
834.06	62.38
834.497	73.28
834.933	65.68
835.369	75.48
835.805	66.68
836.241	80.38
836.677	87.58
837.112	97.88
837.548	115.58
837.984	146.58
838.42	226.28
838.856	565.38
839.292	1682.38
839.727	2429.98
840.163	1146.18
840.599	1048.28
841.034	2225.68
841.47	2214.48
841.906	820.68
842.341	355.98
842.777	217.78
843.212	215.27
843.648	197.18
844.083	119.68
844.519	83.18
844.954	77.78
845.39	52.58
845.825	54.78
846.261	61.78
846.696	60.48
847.131	57.48
847.566	55.08
848.002	56.38
848.437	56.98
848.872	62.08
849.307	64.58
849.742	90.98
850.177	206.48
850.613	608.18
851.048	930.38
851.483	394.68
851.918	167.18
852.353	89.38
852.788	53.78
853.223	51.58
853.657	55.18
854.092	46.08
854.527	34.38
854.962	41.48
855.397	41.28
855.832	45.18
856.266	43.08
856.701	34.98
857.136	35.48
857.57	36.58
858.005	57.78
858.44	62.38
858.874	48.78
859.309	56.88
859.743	47.98
860.178	49.88
860.612	46.98
861.047	55.18
861.481	68.68
861.915	74.68
862.35	51.88
862.784	32.68
863.218	38.28
863.653	35.08
864.087	46.58
864.521	57.58
864.955	76.48
865.39	171.88
865.824	183.58
866.258	124.88
866.692	174.98
867.126	192.98
867.56	111.48
867.994	58.88
868.428	37.68
868.862	44.58
869.296	49.48
869.73	55.27
870.164	57.98
870.598	52.48
871.031	40.88
871.465	29.38
871.899	30.38
872.333	27.68
872.766	28.88
873.2	20.78
873.634	36.68
874.067	27.18
874.501	34.88
874.935	35.68
875.368	36.48
875.802	25.88
876.235	27.08
876.669	25.08
877.102	21.48
877.535	23.98
877.969	21.08
878.402	29.38
878.836	23.48
879.269	20.58
879.702	23.88
880.135	21.98
880.569	15.48
881.002	19.18
881.435	21.18
881.868	20.38
882.301	26.58
882.734	17.68
883.167	22.78
883.601	20.88
884.034	21.88
884.467	14.08
884.899	21.28
885.332	14.18
885.765	15.28
886.198	22.58
886.631	18.68
887.064	21.98
887.497	25.38
887.929	22.08
888.362	6.98
888.795	12.28
889.228	18.08
889.66	23.68
890.093	10.98
890.526	11.98
890.958	13.18
891.391	14.78
891.823	25.28
892.256	16.78
892.688	12.98
893.121	12.48
893.553	10.18
893.985	24.58
894.418	17.77
894.85	12.78
895.282	14.88
895.715	17.48
896.147	17.88
896.579	18.58
897.011	13.58
897.444	15.78
897.876	18.98
898.308	16.18
898.74	12.58
899.172	13.48
899.604	19.98
900.036	14.48
900.468	14.68
900.9	16.98
901.332	16.98
901.764	17.08
902.196	13.48
902.628	24.18
903.06	17.08
903.491	27.88
903.923	21.68
904.355	22.18
904.787	23.78
905.218	16.08
905.65	18.68
906.082	12.48
906.513	13.58
906.945	14.38
907.376	16.18
907.808	21.18
908.239	19.28
908.671	15.28
909.102	21.38
909.534	32.58
909.965	53.88
910.397	105.08
910.828	332.17
911.259	506.78
911.691	228.28
912.122	115.88
912.553	50.98
912.984	32.08
913.415	31.68
913.847	24.28
914.278	11.38
914.709	6.38
915.14	16.08
915.571	15.88
916.002	14.18
916.433	18.88
916.864	13.38
917.295	15.08
917.726	17.08
918.157	17.27
918.587	20.38
919.018	25.08
919.449	24.88
919.88	27.88
920.311	28.88
920.741	53.38
921.172	179.08
921.603	158.98
922.033	73.18
922.464	45.08
922.895	23.38
923.325	19.48
923.756	12.08
924.186	9.78
924.617	17.88
925.047	21.08
925.478	20.08
925.908	20.98
926.338	12.78
926.769	12.38
927.199	15.38
927.629	7.28
928.06	14.58
928.49	14.48
928.92	14.48
929.35	10.18
929.78	14.48
930.21	0.38
930.641	4.98
931.071	7.08
931.501	5.28
931.931	9.38
932.361	5.08
932.791	1.08
933.221	1.98
933.651	7.58
934.08	21.18
934.51	32.18
934.94	5.38
935.37	7.38
935.8	11.28
936.229	2.48
936.659	10.58
937.089	3.08
937.519	17.68
937.948	17.08
938.378	12.18
938.807	7.48
939.237	2.78
939.666	8.28
940.096	-7.42
940.525	2.98
940.955	-3.82
941.384	4.38
941.814	-10.02
942.243	-0.82
942.672	-0.22
943.102	0.68
943.531	-0.62
943.96	-0.42
944.39	-1.23
944.819	-3.23
945.248	5.18
945.677	-1.02
946.106	6.48
946.535	8.38
946.964	-3.52
947.393	2.48
947.822	1.18
948.251	-0.62
948.68	1.18
949.109	1.38
949.538	6.58
949.967	0.68
950.396	-0.42
950.825	0.27
951.254	-7.42
951.682	-4.72
952.111	0.08
952.54	5.18
952.969	-7.12
953.397	-5.92
953.826	0.58
954.254	-2.92
954.683	-1.32
955.112	-3.02
955.54	-0.82
955.969	0.98
956.397	-0.52
956.826	-6.32
957.254	-3.02
957.682	-6.52
958.111	4.48
958.539	-4.52
958.967	0.18
959.396	-2.02
959.824	-1.52
960.252	1.78
960.68	-4.32
961.109	-5.62
961.537	-6.82
961.965	-5.12
962.393	0.08
962.821	-14.82
963.249	-1.82
963.677	3.08
964.105	2.18
964.533	44.68
964.961	43.08
965.389	20.68
965.817	10.48
966.245	1.48
966.672	-2.42
967.1	-11.42
967.528	-3.52
967.956	-9.82
968.383	-1.42
968.811	-3.62
969.239	-0.42
969.666	-8.52
970.094	-0.12
970.522	0.28
970.949	-3.23
971.377	0.28
971.804	-4.42
972.232	-2.42
972.659	-4.12
973.087	-6.42
973.514	-8.52
973.941	-4.12
974.369	1.78
974.796	-1.82
975.223	-3.92
975.651	-6.42
976.078	2.78
976.505	-3.42
976.932	-1.62
977.359	13.28
977.786	15.48
978.214	-3.72
978.641	-4.52
979.068	-6.92
979.495	-11.62
979.922	-4.52
980.349	-5.02
980.776	3.38
981.202	0.58
981.629	1.48
982.056	7.58
982.483	-2.92
982.91	4.88
983.337	-7.12
983.763	1.08
984.19	-8.32
984.617	-3.72
985.043	-5.42
985.47	-2.22
985.897	-4.52
986.323	-5.02
986.75	4.68
987.176	1.38
987.603	-2.82
988.029	5.98
988.456	-3.42
988.882	-1.22
989.308	-7.02
989.735	-7.82
990.161	-0.52
990.587	-5.62
991.014	-5.92
991.44	9.18
991.866	-2.02
992.292	-3.42
992.719	-2.22
993.145	1.18
993.571	-7.62
993.997	-6.22
994.423	-3.82
994.849	-7.52
995.275	-0.82
995.701	-3.52
996.127	-5.73
996.553	-0.62
996.979	-4.62
997.405	-4.42
997.83	-8.52
998.256	-6.23
998.682	-8.32
999.108	-12.52
999.534	-6.23
999.959	-4.52
1000.385	-5.22
1000.811	-1.32
1001.236	-8.52
1001.662	-10.42
1002.087	-9.02
1002.513	-2.52
1002.938	-0.32
1003.364	-3.82
1003.789	2.78
1004.215	3.68
1004.64	-2.52
1005.066	-1.02
1005.491	-2.42
1005.916	-6.32
1006.342	-4.82
1006.767	-12.22
1007.192	0.18
1007.617	-5.52
1008.042	-12.02
1008.468	-2.52
1008.893	-2.52
1009.318	-6.92
1009.743	-2.32
1010.168	3.58
1010.593	0.98
1011.018	-8.12
1011.443	0.68
1011.868	2.98
1012.293	-1.02
1012.718	-7.72
1013.143	-1.62
1013.567	-5.12
1013.992	-7.82
1014.417	-12.12
1014.842	-1.12
1015.267	-5.92
1015.691	-6.32
1016.116	2.58
1016.541	-4.62
1016.965	-4.92
1017.39	0.48
1017.814	-1.72
1018.239	-2.02
1018.663	-5.02
1019.088	-6.62
1019.512	-8.52
1019.937	-4.42
1020.361	-7.92
1020.785	-14.52
1021.21	-2.12
1021.634	-4.82
1022.058	0.18
1022.483	-1.32
1022.907	-5.92
1023.331	-9.22
1023.755	-2.22
1024.179	-5.82
1024.604	-7.32
1025.028	-9.73
1025.452	-8.92
1025.876	0.98
1026.3	-6.12
1026.724	-6.62
1027.148	-6.42
1027.572	-10.42
1027.996	-2.42
1028.42	-6.12
1028.843	-7.42
1029.267	-8.02
1029.691	-1.42
1030.115	-8.42
1030.539	-7.52
1030.962	-8.32
1031.386	-12.02
1031.81	-0.02
1032.233	0.18
1032.657	-3.42
1033.08	-3.22
1033.504	-8.02
1033.927	-4.22
1034.351	-1.52
1034.774	-9.72
1035.198	-1.72
1035.621	-5.42
1036.045	-11.52
1036.468	-3.12
1036.891	-11.02
1037.315	-8.73
1037.738	-11.92
1038.161	2.27
1038.584	-9.42
1039.008	-7.12
1039.431	-5.92
1039.854	2.18
1040.277	-11.02
1040.7	-15.72
1041.123	-6.32
1041.546	-6.52
1041.969	-8.32
1042.392	-9.72
1042.815	-0.73
1043.238	-5.22
1043.661	2.28
1044.084	-11.02
1044.507	-9.32
1044.93	-7.22
1045.352	-5.42
1045.775	-5.82
1046.198	-2.72
1046.621	-5.82
1047.043	-4.32
1047.466	-0.12
1047.889	-0.22
1048.311	-6.42
1048.734	-4.92
1049.156	-6.32
1049.579	0.08
1050.001	-12.12
1050.424	-1.62
1050.846	-0.92
1051.269	-2.52
1051.691	-7.82
1052.113	-5.52
1052.536	-2.32
1052.958	0.08
1053.38	-5.22
1053.802	-11.92
1054.225	-0.72
1054.647	-12.32
1055.069	-4.52
1055.491	-3.12
1055.913	-15.12
1056.335	-5.72
1056.757	-8.42
1057.179	-5.72
1057.601	-15.22
1058.023	-8.22
1058.445	-10.32
1058.867	-5.72
1059.289	-5.02
1059.711	-7.72
1060.133	-1.12
1060.555	-10.02
1060.976	-11.52
1061.398	-9.92
1061.82	-3.42
1062.241	-8.23
1062.663	-8.42
1063.085	-7.62
1063.506	-6.12
1063.928	-5.42
1064.35	-9.82
1064.771	-10.73
1065.193	-6.23
1065.614	-7.32
1066.035	-6.12
1066.457	-7.22
1066.878	-1.12
1067.3	-11.02
1067.721	-4.32
1068.142	-8.42
1068.564	-4.02
1068.985	-3.82
1069.406	-5.82
1069.827	-8.32
1070.248	-1.62
1070.67	-6.42
1071.091	-6.72
1071.512	-10.92
1071.933	-12.52
1072.354	-8.82
1072.775	-9.12
1073.196	-15.12
1073.617	-9.12
1074.038	-6.02
1074.459	-3.02
1074.88	-7.72
1075.3	4.18
1075.721	-10.52
1076.142	2.38
1076.563	-8.73
1076.983	-10.82
1077.404	-7.72
1077.825	-16.82
1078.246	-5.12
1078.666	-8.02
1079.087	-6.12
1079.507	-8.62
1079.928	-0.92
1080.348	0.88
1080.769	-7.72
1081.189	-4.92
1081.61	-1.12
1082.03	-9.62
1082.451	-6.72
1082.871	-9.62
1083.291	-9.92
1083.711	-8.02
1084.132	-10.22
1084.552	-3.62
1084.972	-3.22
1085.392	-5.92
1085.813	-16.22
1086.233	-11.32
1086.653	-2.12
1087.073	-8.62
1087.493	-2.42
1087.913	-2.12
1088.333	-8.72
1088.753	-14.42
1089.173	-1.42
1089.593	-5.52
1090.013	-6.62
1090.433	-1.72
1090.852	-5.92
1091.272	-4.32
1091.692	-2.62
1092.112	-0.62
1092.531	-10.22
1092.951	-11.62
1093.371	-6.32
1093.79	0.98
1094.21	-2.82
1094.63	-8.82
1095.049	-9.32
1095.469	0.38
1095.888	-10.32
1096.308	4.78
1096.727	2.78
1097.146	-7.82
1097.566	-9.52
1097.985	-11.32
1098.405	-4.92
1098.824	-9.02
1099.243	-5.82
1099.662	-9.12
1100.082	-6.02
1100.501	-0.02
1100.92	-5.42
1101.339	-6.12
1101.758	-3.22
