Data from 20171114-ORNL-Ar_H_NY_Subt18_08-06-38-204.txt Node
Date: Tue Nov 14 08:06:38 EST 2017
User: Ender
Spectrometer: HR+D1039
Trigger mode: 0
Integration Time (sec): 2.730000E-2
Scans to average: 10
Electric dark correction enabled: true
Nonlinearity correction enabled: false
Boxcar width: 0
XAxis mode: Wavelengths
Number of Pixels in Spectrum: 2048
>>>>>Begin Spectral Data<<<<<
187.836	-2.34
188.309	-2.34
188.782	-2.34
189.255	4.26
189.728	-1.84
190.201	6.16
190.674	-0.84
191.147	7.16
191.619	-1.04
192.092	5.96
192.565	3.46
193.038	-2.54
193.511	-2.74
193.984	-1.54
194.456	-6.24
194.929	-1.44
195.402	-3.04
195.874	-3.44
196.347	3.46
196.82	-5.44
197.292	9.66
197.765	-3.44
198.237	-10.04
198.71	1.76
199.182	-2.84
199.655	-3.04
200.127	-0.74
200.6	-1.94
201.072	2.06
201.544	-6.44
202.017	-3.44
202.489	0.46
202.961	-2.24
203.433	-1.44
203.906	-6.64
204.378	-7.34
204.85	-7.04
205.322	-3.84
205.794	-0.94
206.266	-1.34
206.739	-5.94
207.211	0.06
207.683	-10.74
208.155	-7.34
208.627	-8.64
209.099	-5.24
209.57	-3.14
210.042	-5.24
210.514	-5.84
210.986	1.66
211.458	-5.14
211.93	-8.04
212.402	6.06
212.873	-9.14
213.345	-10.74
213.817	-13.74
214.288	-4.14
214.76	-13.64
215.232	-5.54
215.703	-7.04
216.175	-7.84
216.646	-8.04
217.118	-8.74
217.589	-8.44
218.061	-6.54
218.532	-3.64
219.004	-2.34
219.475	-3.14
219.946	-0.74
220.418	-2.04
220.889	4.66
221.36	2.46
221.832	-10.94
222.303	-15.04
222.774	-5.64
223.245	-13.14
223.717	-8.74
224.188	-7.64
224.659	-6.34
225.13	-5.14
225.601	-1.44
226.072	4.66
226.543	-3.24
227.014	0.66
227.485	-6.34
227.956	-7.64
228.427	-1.84
228.898	1.76
229.369	1.66
229.839	-3.04
230.31	-6.34
230.781	3.76
231.252	-2.64
231.722	-4.24
232.193	-2.74
232.664	-2.54
233.135	-1.64
233.605	-4.34
234.076	-3.44
234.546	1.26
235.017	-2.54
235.487	2.56
235.958	0.16
236.428	-6.74
236.899	0.76
237.369	3.36
237.84	-3.74
238.31	6.36
238.78	-4.14
239.251	-5.84
239.721	-0.54
240.191	-6.74
240.662	-4.34
241.132	-8.14
241.602	-5.34
242.072	2.26
242.542	2.16
243.013	0.46
243.483	-8.64
243.953	4.66
244.423	-2.54
244.893	-3.94
245.363	0.16
245.833	1.06
246.303	-3.04
246.773	4.66
247.243	-3.04
247.712	1.36
248.182	2.56
248.652	0.26
249.122	-10.24
249.592	5.96
250.061	8.26
250.531	9.76
251.001	1.56
251.471	10.56
251.94	12.86
252.41	2.26
252.879	-0.54
253.349	10.26
253.818	6.56
254.288	5.66
254.757	-3.04
255.227	-2.74
255.696	-4.24
256.166	3.46
256.635	3.06
257.105	7.96
257.574	2.06
258.043	0.96
258.513	-0.64
258.982	4.96
259.451	-2.24
259.92	3.26
260.389	2.56
260.859	6.16
261.328	3.76
261.797	8.86
262.266	-2.44
262.735	16.06
263.204	-2.34
263.673	-1.04
264.142	1.06
264.611	-6.44
265.08	-4.14
265.549	-1.34
266.018	5.26
266.487	-0.84
266.955	2.56
267.424	0.36
267.893	4.66
268.362	-0.14
268.83	5.96
269.299	7.56
269.768	3.66
270.236	2.66
270.705	-0.04
271.174	8.76
271.642	3.96
272.111	7.56
272.579	1.06
273.048	8.16
273.516	2.96
273.985	8.26
274.453	12.86
274.922	11.06
275.39	8.96
275.858	3.16
276.327	10.56
276.795	16.26
277.263	3.86
277.731	13.66
278.2	18.86
278.668	11.66
279.136	17.86
279.604	8.26
280.072	9.66
280.54	10.86
281.008	12.56
281.477	18.56
281.945	14.56
282.413	12.46
282.881	12.46
283.348	4.46
283.816	16.56
284.284	9.86
284.752	20.06
285.22	13.96
285.688	12.06
286.156	14.46
286.623	24.46
287.091	15.66
287.559	14.86
288.026	17.46
288.494	9.46
288.962	6.76
289.429	10.96
289.897	18.86
290.364	14.56
290.832	15.86
291.3	14.46
291.767	17.86
292.234	17.96
292.702	7.26
293.169	23.56
293.637	21.76
294.104	20.36
294.571	9.06
295.039	6.56
295.506	18.26
295.973	19.16
296.44	15.86
296.908	19.26
297.375	21.66
297.842	18.06
298.309	17.16
298.776	9.86
299.243	19.76
299.71	13.26
300.177	21.26
300.644	25.16
301.111	19.66
301.578	23.96
302.045	17.06
302.512	24.66
302.979	29.76
303.446	22.46
303.913	21.46
304.379	18.06
304.846	28.66
305.313	24.36
305.78	22.06
306.246	23.16
306.713	23.16
307.18	25.76
307.646	21.36
308.113	32.46
308.579	22.16
309.046	24.86
309.512	23.46
309.979	21.66
310.445	31.16
310.912	34.56
311.378	36.66
311.845	31.86
312.311	30.36
312.777	36.76
313.244	30.96
313.71	36.66
314.176	31.26
314.642	32.56
315.109	28.56
315.575	40.26
316.041	41.06
316.507	31.66
316.973	35.26
317.439	29.36
317.905	34.76
318.371	36.76
318.837	37.06
319.303	33.26
319.769	33.36
320.235	29.56
320.701	40.86
321.167	39.56
321.633	33.66
322.099	36.46
322.564	41.26
323.03	34.26
323.496	36.26
323.962	37.36
324.427	36.66
324.893	42.36
325.359	35.06
325.824	34.16
326.29	38.66
326.755	36.46
327.221	38.46
327.686	46.96
328.152	50.66
328.617	46.26
329.083	51.86
329.548	48.16
330.014	46.46
330.479	44.46
330.944	44.76
331.41	48.06
331.875	44.16
332.34	44.46
332.805	48.26
333.271	47.26
333.736	38.96
334.201	51.76
334.666	48.36
335.131	58.76
335.596	53.16
336.061	50.66
336.526	43.06
336.991	48.66
337.456	54.46
337.921	52.96
338.386	43.16
338.851	48.96
339.316	47.86
339.781	49.56
340.246	58.36
340.711	56.36
341.175	50.76
341.64	47.86
342.105	56.66
342.569	57.56
343.034	60.76
343.499	63.96
343.963	56.86
344.428	69.86
344.893	60.06
345.357	69.16
345.822	68.36
346.286	66.16
346.751	78.86
347.215	72.46
347.679	80.26
348.144	96.66
348.608	88.26
349.073	75.46
349.537	75.26
350.001	87.46
350.465	92.66
350.93	79.86
351.394	87.66
351.858	75.46
352.322	89.16
352.786	88.56
353.25	100.96
353.715	114.66
354.179	104.96
354.643	125.36
355.107	129.16
355.571	102.96
356.035	106.96
356.498	115.76
356.962	118.76
357.426	129.06
357.89	123.36
358.354	93.66
358.818	83.26
359.281	86.86
359.745	78.66
360.209	82.06
360.673	73.06
361.136	83.66
361.6	81.66
362.064	95.16
362.527	93.76
362.991	96.46
363.454	84.96
363.918	79.76
364.381	81.86
364.845	86.86
365.308	91.36
365.772	92.76
366.235	93.26
366.698	87.06
367.162	90.26
367.625	91.96
368.088	89.96
368.552	92.56
369.015	97.76
369.478	97.76
369.941	99.76
370.404	95.76
370.867	101.46
371.331	108.46
371.794	116.86
372.257	104.16
372.72	111.36
373.183	105.46
373.646	95.96
374.109	103.06
374.572	106.66
375.035	108.96
375.497	110.66
375.96	115.46
376.423	108.16
376.886	115.66
377.349	108.56
377.811	113.66
378.274	111.56
378.737	111.86
379.199	116.36
379.662	114.06
380.125	112.56
380.587	118.26
381.05	110.26
381.512	121.36
381.975	129.86
382.437	127.56
382.9	121.36
383.362	136.26
383.825	138.96
384.287	135.76
384.75	124.86
385.212	130.16
385.674	141.56
386.136	141.26
386.599	129.16
387.061	127.06
387.523	131.96
387.985	128.46
388.447	135.16
388.91	134.26
389.372	139.26
389.834	133.16
390.296	131.76
390.758	144.26
391.22	137.06
391.682	164.46
392.144	176.46
392.606	154.36
393.068	154.36
393.529	158.76
393.991	147.86
394.453	140.86
394.915	140.66
395.377	152.86
395.838	153.46
396.3	148.56
396.762	148.56
397.224	141.26
397.685	139.16
398.147	149.56
398.608	139.46
399.07	146.06
399.531	148.96
399.993	157.56
400.454	168.16
400.916	157.16
401.377	155.56
401.839	158.66
402.3	162.96
402.762	179.36
403.223	185.76
403.684	177.96
404.145	168.26
404.607	176.06
405.068	172.86
405.529	183.76
405.99	200.66
406.451	180.16
406.913	184.76
407.374	170.56
407.835	176.06
408.296	172.56
408.757	189.76
409.218	194.16
409.679	190.96
410.14	189.96
410.601	189.36
411.062	188.96
411.522	192.26
411.983	186.96
412.444	183.36
412.905	193.86
413.366	199.96
413.826	219.06
414.287	240.66
414.748	285.06
415.208	270.66
415.669	234.46
416.13	222.66
416.59	217.46
417.051	236.66
417.511	231.96
417.972	259.86
418.432	271.96
418.893	312.36
419.353	271.96
419.814	222.36
420.274	205.96
420.734	190.76
421.195	210.96
421.655	203.76
422.115	208.66
422.576	210.96
423.036	215.86
423.496	222.46
423.956	230.16
424.416	249.36
424.876	277.56
425.336	277.06
425.797	282.06
426.257	271.36
426.717	261.16
427.177	249.66
427.637	241.16
428.097	248.06
428.556	262.36
429.016	290.66
429.476	277.86
429.936	282.96
430.396	298.16
430.856	305.26
431.315	335.86
431.775	364.16
432.235	398.46
432.694	368.46
433.154	373.46
433.614	407.36
434.073	354.16
434.533	302.76
434.993	281.96
435.452	297.46
435.912	315.56
436.371	297.46
436.83	296.56
437.29	287.46
437.749	269.86
438.209	267.66
438.668	296.66
439.127	310.96
439.587	289.36
440.046	265.16
440.505	283.76
440.964	304.76
441.424	348.26
441.883	337.26
442.342	277.66
442.801	249.56
443.26	241.16
443.719	252.46
444.178	246.46
444.637	235.16
445.096	240.76
445.555	252.26
446.014	246.16
446.473	241.56
446.932	253.26
447.391	247.66
447.849	254.26
448.308	230.46
448.767	243.06
449.226	253.96
449.685	256.86
450.143	268.66
450.602	253.96
451.061	246.36
451.519	256.06
451.978	260.26
452.436	258.16
452.895	262.06
453.353	273.66
453.812	265.56
454.27	260.96
454.729	258.86
455.187	260.56
455.646	268.76
456.104	269.36
456.562	282.96
457.021	292.06
457.479	286.86
457.937	297.26
458.395	285.06
458.854	266.16
459.312	285.46
459.77	300.76
460.228	281.26
460.686	271.36
461.144	277.46
461.602	265.16
462.06	267.46
462.518	282.16
462.976	279.16
463.434	284.86
463.892	284.76
464.35	301.66
464.808	319.66
465.266	298.86
465.724	299.36
466.181	301.56
466.639	300.66
467.097	312.06
467.555	333.36
468.012	333.56
468.47	341.96
468.928	356.16
469.385	369.36
469.843	383.16
470.3	374.16
470.758	398.96
471.215	413.06
471.673	444.66
472.13	451.76
472.588	455.96
473.045	408.16
473.503	414.26
473.96	430.96
474.417	439.46
474.875	472.66
475.332	516.06
475.789	497.96
476.246	501.46
476.704	529.66
477.161	549.96
477.618	567.36
478.075	602.66
478.532	670.26
478.989	740.96
479.446	852.66
479.903	817.76
480.36	841.26
480.817	897.56
481.274	992.86
481.731	1084.56
482.188	1168.26
482.645	1306.46
483.102	1391.56
483.558	1512.46
484.015	1570.16
484.472	1540.96
484.929	1510.46
485.385	1458.46
485.842	1415.56
486.299	1378.56
486.755	1340.96
487.212	1123.36
487.668	969.56
488.125	898.86
488.582	827.26
489.038	794.26
489.494	753.76
489.951	734.16
490.407	714.16
490.864	701.36
491.32	694.16
491.776	699.56
492.233	695.96
492.689	659.36
493.145	653.16
493.602	652.16
494.058	667.26
494.514	656.46
494.97	688.96
495.426	707.76
495.882	676.26
496.338	674.06
496.794	678.26
497.251	661.06
497.707	682.36
498.163	686.66
498.618	696.16
499.074	701.96
499.53	734.36
499.986	739.16
500.442	707.76
500.898	682.36
501.354	677.76
501.809	675.26
502.265	678.86
502.721	691.96
503.177	702.16
503.632	698.16
504.088	709.96
504.543	729.76
504.999	752.26
505.455	709.86
505.91	697.26
506.366	696.66
506.821	691.76
507.277	689.06
507.732	685.66
508.187	695.16
508.643	695.76
509.098	688.86
509.553	717.56
510.009	728.66
510.464	738.16
510.919	758.96
511.375	757.36
511.83	774.46
512.285	775.36
512.74	823.26
513.195	847.16
513.65	838.06
514.105	829.16
514.56	841.76
515.015	853.86
515.47	876.66
515.925	849.06
516.38	860.16
516.835	872.16
517.29	840.56
517.745	851.76
518.2	831.16
518.655	820.86
519.109	808.36
519.564	812.26
520.019	794.66
520.474	802.46
520.928	791.66
521.383	780.76
521.838	770.46
522.292	766.56
522.747	767.56
523.201	761.16
523.656	763.06
524.11	763.16
524.565	757.36
525.019	755.96
525.474	750.56
525.928	764.66
526.382	755.46
526.837	767.46
527.291	761.36
527.745	760.06
528.2	765.26
528.654	751.36
529.108	751.76
529.562	759.66
530.016	751.36
530.47	747.56
530.925	755.06
531.379	759.46
531.833	768.26
532.287	760.96
532.741	756.56
533.195	769.46
533.649	771.46
534.103	780.16
534.556	770.66
535.01	774.96
535.464	766.06
535.918	789.46
536.372	786.76
536.826	779.36
537.279	773.46
537.733	770.96
538.187	778.66
538.64	783.56
539.094	784.96
539.548	793.26
540.001	788.56
540.455	780.86
540.908	792.36
541.362	795.26
541.815	816.76
542.269	824.36
542.722	828.06
543.175	837.16
543.629	831.26
544.082	863.86
544.536	861.76
544.989	847.46
545.442	856.56
545.895	858.36
546.349	855.76
546.802	860.56
547.255	864.36
547.708	874.26
548.161	893.56
548.614	894.16
549.067	890.76
549.52	895.16
549.973	894.86
550.426	873.36
550.879	870.26
551.332	869.66
551.785	881.26
552.238	888.86
552.691	905.36
553.144	914.16
553.596	919.36
554.049	943.86
554.502	974.96
554.955	991.56
555.407	998.36
555.86	982.76
556.313	974.16
556.765	968.46
557.218	955.66
557.67	964.26
558.123	964.06
558.576	955.46
559.028	956.46
559.48	963.86
559.933	949.76
560.385	918.26
560.838	885.76
561.29	854.46
561.742	849.56
562.195	849.96
562.647	829.66
563.099	844.56
563.551	844.66
564.004	850.16
564.456	835.66
564.908	826.66
565.36	805.26
565.812	795.56
566.264	782.36
566.716	779.06
567.168	767.36
567.62	777.56
568.072	767.96
568.524	755.26
568.976	749.46
569.428	736.56
569.88	728.66
570.332	736.26
570.784	745.26
571.235	744.06
571.687	757.56
572.139	760.76
572.59	780.76
573.042	778.86
573.494	774.36
573.945	766.26
574.397	751.86
574.849	755.56
575.3	756.56
575.752	742.66
576.203	743.06
576.655	745.46
577.106	730.36
577.557	731.56
578.009	723.66
578.46	734.16
578.912	716.96
579.363	727.66
579.814	727.16
580.265	721.36
580.717	720.46
581.168	726.26
581.619	728.76
582.07	736.76
582.521	726.96
582.972	716.06
583.423	726.46
583.875	729.96
584.326	737.26
584.777	764.56
585.227	787.76
585.678	816.76
586.129	836.16
586.58	854.66
587.031	890.16
587.482	948.16
587.933	985.16
588.384	947.96
588.834	869.96
589.285	836.96
589.736	831.06
590.186	828.56
590.637	823.96
591.088	806.16
591.538	793.86
591.989	788.96
592.439	788.26
592.89	769.36
593.34	757.76
593.791	756.46
594.241	747.46
594.692	755.96
595.142	750.46
595.593	741.46
596.043	745.86
596.493	759.26
596.943	764.16
597.394	765.66
597.844	767.46
598.294	780.26
598.744	826.86
599.195	838.56
599.645	879.16
600.095	925.16
600.545	986.66
600.995	1039.16
601.445	1106.46
601.895	1171.66
602.345	1223.66
602.795	1203.16
603.245	1155.06
603.695	1096.16
604.145	1017.26
604.594	979.66
605.044	933.36
605.494	865.76
605.944	811.26
606.393	803.86
606.843	787.36
607.293	787.46
607.743	783.96
608.192	808.16
608.642	818.66
609.091	815.26
609.541	826.16
609.99	821.76
610.44	817.36
610.889	770.46
611.339	739.46
611.788	740.46
612.238	744.86
612.687	755.66
613.136	749.96
613.586	764.16
614.035	743.66
614.484	767.56
614.933	756.66
615.383	754.96
615.832	767.36
616.281	753.86
616.73	716.86
617.179	699.46
617.628	681.06
618.077	677.46
618.526	666.56
618.975	659.26
619.424	662.96
619.873	659.26
620.322	662.06
620.771	648.36
621.22	643.96
621.669	637.16
622.118	634.36
622.567	619.96
623.015	608.96
623.464	613.56
623.913	607.86
624.361	597.46
624.81	592.46
625.259	592.26
625.707	596.96
626.156	594.66
626.604	607.76
627.053	602.96
627.501	609.06
627.95	612.46
628.398	625.96
628.847	616.36
629.295	607.46
629.744	617.86
630.192	609.46
630.64	607.26
631.089	585.86
631.537	576.06
631.985	582.96
632.433	577.16
632.881	573.46
633.33	589.46
633.778	567.66
634.226	562.96
634.674	570.76
635.122	591.56
635.57	590.46
636.018	605.76
636.466	599.56
636.914	588.56
637.362	604.06
637.81	616.76
638.258	619.06
638.705	623.16
639.153	659.36
639.601	664.06
640.049	685.06
640.497	708.46
640.944	748.06
641.392	689.86
641.84	660.36
642.287	626.06
642.735	607.96
643.182	608.86
643.63	606.66
644.078	601.36
644.525	610.16
644.973	618.26
645.42	626.06
645.867	651.76
646.315	668.26
646.762	690.06
647.21	723.06
647.657	745.96
648.104	779.76
648.551	804.16
648.999	864.26
649.446	941.96
649.893	1023.66
650.34	1180.36
650.787	1397.86
651.234	1705.06
651.682	2224.96
652.129	2998.26
652.576	4260.56
653.023	6189.86
653.47	8368.56
653.917	10449.46
654.363	12014.96
654.81	13285.26
655.257	12580.36
655.704	8338.36
656.151	5027.66
656.598	3306.36
657.044	2375.86
657.491	1845.26
657.938	1495.26
658.385	1261.96
658.831	1084.66
659.278	987.06
659.724	876.86
660.171	820.76
660.618	756.26
661.064	720.36
661.511	692.56
661.957	692.06
662.404	676.86
662.85	684.96
663.296	662.36
663.743	595.26
664.189	574.86
664.635	565.26
665.082	555.56
665.528	562.76
665.974	554.96
666.42	539.26
666.867	525.16
667.313	512.46
667.759	499.66
668.205	482.36
668.651	481.96
669.097	483.66
669.543	476.66
669.989	466.86
670.435	468.76
670.881	479.26
671.327	483.66
671.773	495.56
672.219	524.06
672.665	583.86
673.11	621.66
673.556	668.46
674.002	710.46
674.448	699.56
674.893	594.46
675.339	509.86
675.785	472.06
676.23	457.76
676.676	429.86
677.122	410.96
677.567	400.96
678.013	401.16
678.458	382.06
678.904	394.26
679.349	376.76
679.794	375.26
680.24	381.46
680.685	372.66
681.131	372.96
681.576	381.36
682.021	382.26
682.466	375.56
682.912	380.16
683.357	375.86
683.802	407.76
684.247	445.26
684.692	485.76
685.137	533.46
685.583	572.16
686.028	597.86
686.473	549.66
686.918	476.46
687.363	450.86
687.807	432.46
688.252	401.66
688.697	381.36
689.142	362.36
689.587	358.56
690.032	347.26
690.477	369.46
690.921	381.06
691.366	406.66
691.811	432.76
692.255	468.06
692.7	490.36
693.145	545.16
693.589	755.16
694.034	1201.86
694.478	1662.36
694.923	1872.86
695.367	2443.76
695.812	1274.96
696.256	537.66
696.701	399.06
697.145	369.06
697.59	349.56
698.034	338.66
698.478	345.96
698.922	349.96
699.367	344.16
699.811	363.16
700.255	378.46
700.699	404.46
701.143	450.56
701.588	499.66
702.032	550.06
702.476	529.36
702.92	515.16
703.364	537.86
703.808	683.46
704.252	1115.36
704.696	1571.66
705.14	1794.66
705.584	2279.86
706.027	1150.56
706.471	556.26
706.915	428.36
707.359	377.66
707.803	347.56
708.246	329.86
708.69	333.06
709.134	330.36
709.577	325.46
710.021	334.26
710.465	328.86
710.908	321.16
711.352	320.56
711.795	333.86
712.239	375.26
712.682	412.66
713.126	448.96
713.569	487.86
714.012	387.06
714.456	320.86
714.899	303.46
715.342	297.16
715.786	283.86
716.229	273.56
716.672	284.06
717.115	261.86
717.558	271.66
718.002	270.96
718.445	279.76
718.888	298.06
719.331	311.66
719.774	325.96
720.217	329.26
720.66	298.36
721.103	282.96
721.546	267.36
721.989	264.96
722.432	245.96
722.874	252.56
723.317	242.26
723.76	250.16
724.203	268.36
724.645	341.86
725.088	471.46
725.531	605.06
725.974	685.66
726.416	599.36
726.859	316.36
727.301	256.56
727.744	253.66
728.187	250.46
728.629	256.86
729.071	265.06
729.514	276.86
729.956	293.06
730.399	308.76
730.841	303.06
731.283	287.16
731.726	286.96
732.168	281.96
732.61	291.16
733.053	304.16
733.495	334.26
733.937	377.86
734.379	421.76
734.821	473.36
735.263	584.16
735.705	897.46
736.148	1689.46
736.59	2772.66
737.032	3284.36
737.474	2671.06
737.916	872.36
738.357	458.36
738.799	359.56
739.241	315.56
739.683	300.96
740.125	310.96
740.567	321.46
741.008	334.36
741.45	339.76
741.892	332.86
742.334	367.66
742.775	380.96
743.217	369.26
743.658	289.46
744.1	278.76
744.542	283.76
744.983	341.76
745.425	370.86
745.866	371.46
746.307	302.56
746.749	293.56
747.19	344.16
747.632	495.96
748.073	954.16
748.514	1995.96
748.956	3056.16
749.397	3838.16
749.838	3194.16
750.279	3186.06
750.72	1618.86
751.162	592.96
751.603	348.66
752.044	268.96
752.485	233.46
752.926	220.76
753.367	217.96
753.808	208.56
754.249	204.06
754.69	201.16
755.131	193.16
755.572	194.86
756.013	184.16
756.453	196.66
756.894	200.26
757.335	208.06
757.776	212.96
758.216	209.56
758.657	213.46
759.098	210.66
759.538	236.46
759.979	288.46
760.42	401.26
760.86	751.76
761.301	1955.66
761.741	4743.86
762.182	6891.16
762.622	4855.76
763.063	1411.56
763.503	586.66
763.943	349.46
764.384	303.96
764.824	289.96
765.264	284.76
765.705	236.86
766.145	200.26
766.585	184.86
767.025	178.96
767.465	179.26
767.906	196.26
768.346	231.66
768.786	240.06
769.226	240.96
769.666	324.46
770.106	663.16
770.546	1675.26
770.986	2832.56
771.426	2522.56
771.866	850.26
772.306	344.76
772.745	210.06
773.185	182.16
773.625	174.06
774.065	167.66
774.505	179.36
774.944	226.46
775.384	410.96
775.824	681.16
776.263	664.26
776.703	308.06
777.142	175.16
777.582	138.66
778.021	129.56
778.461	128.66
778.9	127.86
779.34	130.36
779.779	114.86
780.219	116.56
780.658	112.66
781.097	114.66
781.537	119.56
781.976	116.66
782.415	110.26
782.855	106.76
783.294	116.16
783.733	108.86
784.172	117.56
784.611	110.46
785.05	116.96
785.489	115.56
785.928	128.06
786.367	135.96
786.806	132.96
787.245	137.96
787.684	143.56
788.123	159.46
788.562	151.06
789.001	139.06
789.44	131.96
789.879	123.36
790.317	126.66
790.756	136.26
791.195	140.76
791.634	153.76
792.072	215.06
792.511	388.86
792.95	1067.06
793.388	2262.56
793.827	2051.76
794.265	706.46
794.704	300.46
795.142	197.56
795.581	160.26
796.019	144.36
796.458	143.06
796.896	129.06
797.334	142.06
797.773	170.66
798.211	233.66
798.649	462.36
799.087	1081.86
799.526	1697.36
799.964	2153.06
800.402	2149.46
800.84	806.36
801.278	328.76
801.716	195.66
802.154	167.56
802.592	154.36
803.03	147.66
803.468	146.96
803.906	155.86
804.344	164.46
804.782	152.46
805.22	140.36
805.658	138.56
806.096	154.46
806.533	170.86
806.971	188.96
807.409	235.26
807.847	341.46
808.284	701.76
808.722	1976.06
809.16	3513.86
809.597	3362.06
810.035	5787.56
810.472	6190.96
810.91	2242.86
811.347	854.56
811.785	432.96
812.222	274.76
812.66	211.16
813.097	171.86
813.535	153.56
813.972	136.86
814.409	129.26
814.846	117.76
815.284	113.76
815.721	104.56
816.158	110.16
816.595	118.56
817.032	159.66
817.47	194.76
817.907	152.56
818.344	112.16
818.781	105.76
819.218	105.26
819.655	133.46
820.092	196.36
820.529	231.46
820.966	180.46
821.403	131.76
821.839	109.16
822.276	108.26
822.713	131.06
823.15	149.26
823.587	122.36
824.023	159.76
824.46	317.76
824.897	950.46
825.333	1443.86
825.77	623.26
826.206	253.16
826.643	146.96
827.08	110.46
827.516	93.36
827.953	87.26
828.389	80.76
828.825	75.26
829.262	74.36
829.698	66.96
830.135	63.86
830.571	66.46
831.007	70.66
831.443	64.56
831.88	66.56
832.316	63.46
832.752	66.46
833.188	74.26
833.624	66.96
834.06	81.66
834.497	75.86
834.933	79.46
835.369	81.46
835.805	66.86
836.241	83.16
836.677	86.26
837.112	95.26
837.548	110.36
837.984	138.06
838.42	214.86
838.856	530.96
839.292	1606.56
839.727	2466.36
840.163	1154.76
840.599	992.66
841.034	2146.56
841.47	2259.56
841.906	826.96
842.341	356.06
842.777	212.96
843.212	225.76
843.648	202.86
844.083	120.36
844.519	84.56
844.954	75.96
845.39	61.96
845.825	61.36
846.261	60.86
846.696	61.86
847.131	60.76
847.566	61.36
848.002	52.06
848.437	57.16
848.872	62.76
849.307	64.76
849.742	89.56
850.177	197.76
850.613	601.06
851.048	935.66
851.483	413.26
851.918	162.76
852.353	94.96
852.788	62.16
853.223	48.26
853.657	56.56
854.092	48.66
854.527	40.66
854.962	43.56
855.397	48.76
855.832	53.96
856.266	45.56
856.701	42.06
857.136	33.26
857.57	45.86
858.005	55.06
858.44	57.26
858.874	44.96
859.309	49.96
859.743	34.26
860.178	45.46
860.612	47.56
861.047	52.66
861.481	76.46
861.915	79.36
862.35	54.16
862.784	40.56
863.218	38.96
863.653	34.36
864.087	49.06
864.521	54.06
864.955	76.16
865.39	165.06
865.824	188.66
866.258	125.66
866.692	178.06
867.126	195.56
867.56	113.46
867.994	58.86
868.428	41.06
868.862	45.26
869.296	54.26
869.73	59.96
870.164	49.46
870.598	48.46
871.031	39.46
871.465	36.36
871.899	33.56
872.333	27.86
872.766	25.16
873.2	26.76
873.634	29.46
874.067	21.96
874.501	31.66
874.935	37.86
875.368	33.26
875.802	32.46
876.235	27.46
876.669	27.76
877.102	27.06
877.535	29.26
877.969	20.86
878.402	22.46
878.836	19.86
879.269	28.56
879.702	24.46
880.135	26.96
880.569	18.96
881.002	25.96
881.435	22.56
881.868	17.16
882.301	24.06
882.734	13.76
883.167	24.26
883.601	18.86
884.034	19.76
884.467	20.56
884.899	25.56
885.332	16.86
885.765	14.36
886.198	17.16
886.631	22.06
887.064	13.46
887.497	22.06
887.929	24.06
888.362	16.26
888.795	16.36
889.228	20.06
889.66	20.36
890.093	22.46
890.526	20.06
890.958	13.46
891.391	18.26
891.823	22.56
892.256	15.06
892.688	16.76
893.121	14.86
893.553	17.26
893.985	27.86
894.418	20.26
894.85	8.56
895.282	15.96
895.715	20.56
896.147	17.76
896.579	14.46
897.011	13.36
897.444	14.66
897.876	10.36
898.308	18.26
898.74	16.16
899.172	16.86
899.604	23.46
900.036	22.76
900.468	19.16
900.9	15.06
901.332	14.66
901.764	9.76
902.196	15.86
902.628	21.56
903.06	22.96
903.491	28.76
903.923	22.36
904.355	25.96
904.787	25.16
905.218	22.36
905.65	23.76
906.082	14.86
906.513	12.66
906.945	14.96
907.376	14.46
907.808	24.36
908.239	23.46
908.671	22.86
909.102	31.96
909.534	25.76
909.965	53.76
910.397	98.76
910.828	332.36
911.259	504.56
911.691	234.26
912.122	112.56
912.553	56.06
912.984	36.26
913.415	21.26
913.847	30.06
914.278	15.56
914.709	14.56
915.14	19.36
915.571	21.46
916.002	12.56
916.433	18.36
916.864	15.36
917.295	14.26
917.726	28.96
918.157	16.16
918.587	29.36
919.018	21.56
919.449	21.66
919.88	24.36
920.311	28.06
920.741	52.06
921.172	173.96
921.603	167.16
922.033	73.66
922.464	50.16
922.895	24.16
923.325	20.26
923.756	15.46
924.186	13.66
924.617	19.16
925.047	25.36
925.478	27.26
925.908	24.86
926.338	19.56
926.769	10.76
927.199	12.96
927.629	8.06
928.06	16.06
928.49	12.26
928.92	12.56
929.35	14.86
929.78	8.46
930.21	10.06
930.641	3.76
931.071	8.26
931.501	2.66
931.931	11.16
932.361	9.16
932.791	5.56
933.221	10.96
933.651	6.76
934.08	15.36
934.51	29.16
934.94	12.96
935.37	14.76
935.8	10.96
936.229	9.26
936.659	14.36
937.089	3.26
937.519	9.76
937.948	30.06
938.378	21.06
938.807	7.86
939.237	2.46
939.666	8.76
940.096	-2.84
940.525	-0.44
940.955	7.96
941.384	3.76
941.814	-5.94
942.243	-6.74
942.672	3.96
943.102	-2.64
943.531	-1.44
943.96	7.56
944.39	1.06
944.819	4.06
945.248	1.06
945.677	-1.44
946.106	0.16
946.535	3.66
946.964	0.66
947.393	5.06
947.822	6.16
948.251	-2.54
948.68	4.66
949.109	3.46
949.538	-0.14
949.967	5.16
950.396	-1.54
950.825	2.36
951.254	1.26
951.682	-4.54
952.111	2.56
952.54	10.36
952.969	-3.44
953.397	-4.64
953.826	0.26
954.254	-7.94
954.683	2.36
955.112	-1.34
955.54	3.46
955.969	5.86
956.397	-0.04
956.826	2.46
957.254	9.56
957.682	-0.74
958.111	5.56
958.539	-2.04
958.967	4.16
959.396	1.36
959.824	3.26
960.252	3.16
960.68	-1.04
961.109	-2.44
961.537	-6.04
961.965	2.16
962.393	0.56
962.821	-6.94
963.249	1.66
963.677	3.06
964.105	4.36
964.533	46.26
964.961	39.76
965.389	21.06
965.817	13.06
966.245	2.46
966.672	4.96
967.1	-7.04
967.528	1.76
967.956	-2.64
968.383	-6.44
968.811	0.26
969.239	-2.04
969.666	-4.44
970.094	0.46
970.522	0.46
970.949	-4.04
971.377	-5.84
971.804	-2.54
972.232	-0.54
972.659	-4.74
973.087	-5.34
973.514	-6.74
973.941	-4.44
974.369	5.26
974.796	3.36
975.223	7.46
975.651	-0.54
976.078	7.66
976.505	0.46
976.932	2.96
977.359	17.26
977.786	13.06
978.214	1.76
978.641	-4.74
979.068	5.26
979.495	4.46
979.922	-1.94
980.349	-0.64
980.776	1.76
981.202	1.96
981.629	10.86
982.056	5.46
982.483	-5.84
982.91	-1.34
983.337	-10.04
983.763	7.56
984.19	-2.94
984.617	-4.84
985.043	-6.64
985.47	-5.74
985.897	3.06
986.323	-5.94
986.75	5.86
987.176	-0.34
987.603	-1.34
988.029	1.26
988.456	-6.24
988.882	2.56
989.308	-3.84
989.735	-4.94
990.161	1.86
990.587	-3.84
991.014	3.56
991.44	5.96
991.866	-4.74
992.292	-2.74
992.719	-8.34
993.145	-2.14
993.571	-11.44
993.997	-1.64
994.423	3.96
994.849	-0.84
995.275	-0.44
995.701	-1.54
996.127	0.36
996.553	1.76
996.979	-8.14
997.405	-5.24
997.83	-9.84
998.256	-9.74
998.682	-6.74
999.108	-7.44
999.534	-4.44
999.959	-3.34
1000.385	0.96
1000.811	-2.84
1001.236	-2.54
1001.662	-13.64
1002.087	-6.74
1002.513	-0.84
1002.938	-2.54
1003.364	0.96
1003.789	-1.34
1004.215	0.96
1004.64	-3.04
1005.066	-1.04
1005.491	-3.74
1005.916	-0.04
1006.342	1.16
1006.767	-8.54
1007.192	5.66
1007.617	-5.84
1008.042	-1.74
1008.468	-12.24
1008.893	1.96
1009.318	-5.74
1009.743	-3.84
1010.168	3.86
1010.593	5.56
1011.018	-9.04
1011.443	-3.84
1011.868	4.46
1012.293	-3.74
1012.718	-6.14
1013.143	0.26
1013.567	0.36
1013.992	-7.24
1014.417	-11.94
1014.842	1.26
1015.267	-6.14
1015.691	-3.74
1016.116	1.46
1016.541	-2.34
1016.965	-2.74
1017.39	-0.24
1017.814	-3.64
1018.239	-0.44
1018.663	-6.74
1019.088	-11.04
1019.512	-4.74
1019.937	-3.94
1020.361	-1.74
1020.785	-14.04
1021.21	-5.34
1021.634	-3.64
1022.058	-2.44
1022.483	0.86
1022.907	-5.24
1023.331	-6.04
1023.755	-4.24
1024.179	-7.54
1024.604	-11.64
1025.028	-8.64
1025.452	-3.64
1025.876	-3.44
1026.3	-0.14
1026.724	-9.94
1027.148	-7.04
1027.572	-8.24
1027.996	-2.14
1028.42	-0.04
1028.843	1.76
1029.267	-5.34
1029.691	-1.04
1030.115	-5.14
1030.539	-9.94
1030.962	-3.14
1031.386	-11.74
1031.81	-1.14
1032.233	1.86
1032.657	-4.84
1033.08	-3.14
1033.504	-7.14
1033.927	-3.14
1034.351	-0.24
1034.774	-6.64
1035.198	1.76
1035.621	-6.84
1036.045	-8.34
1036.468	-1.94
1036.891	-4.84
1037.315	-12.64
1037.738	-11.04
1038.161	1.56
1038.584	-0.64
1039.008	-3.64
1039.431	-8.34
1039.854	-4.94
1040.277	-11.04
1040.7	-7.14
1041.123	0.16
1041.546	-3.54
1041.969	-10.64
1042.392	-3.54
1042.815	-0.34
1043.238	-0.54
1043.661	0.26
1044.084	-6.44
1044.507	-6.04
1044.93	-6.94
1045.352	-11.04
1045.775	-1.24
1046.198	-1.24
1046.621	-0.14
1047.043	-1.24
1047.466	10.96
1047.889	-7.94
1048.311	-5.04
1048.734	-3.04
1049.156	-1.84
1049.579	-2.14
1050.001	-2.94
1050.424	1.56
1050.846	-7.04
1051.269	-8.14
1051.691	-11.64
1052.113	-7.44
1052.536	0.86
1052.958	-2.24
1053.38	-1.44
1053.802	-11.44
1054.225	0.16
1054.647	-13.14
1055.069	-10.24
1055.491	2.16
1055.913	-9.74
1056.335	1.56
1056.757	-9.34
1057.179	-7.24
1057.601	-10.44
1058.023	0.76
1058.445	-5.74
1058.867	-2.14
1059.289	-5.24
1059.711	-8.94
1060.133	-7.94
1060.555	-10.64
1060.976	-10.84
1061.398	-9.84
1061.82	-5.64
1062.241	-8.74
1062.663	-7.24
1063.085	-7.74
1063.506	-6.94
1063.928	-0.44
1064.35	-5.54
1064.771	-15.44
1065.193	-5.74
1065.614	-9.94
1066.035	3.06
1066.457	-1.14
1066.878	-1.74
1067.3	-6.44
1067.721	-2.04
1068.142	-4.84
1068.564	-4.94
1068.985	-2.44
1069.406	-4.04
1069.827	-6.34
1070.248	-0.14
1070.67	-6.24
1071.091	-4.94
1071.512	-4.64
1071.933	-8.04
1072.354	-9.34
1072.775	-8.94
1073.196	-5.64
1073.617	-6.64
1074.038	-10.34
1074.459	-5.24
1074.88	-11.44
1075.3	-3.54
1075.721	-9.94
1076.142	0.36
1076.563	-4.14
1076.983	-8.34
1077.404	-11.74
1077.825	-13.04
1078.246	-3.84
1078.666	-11.84
1079.087	-5.04
1079.507	-7.94
1079.928	-0.04
1080.348	-3.94
1080.769	-3.54
1081.189	-3.84
1081.61	-7.74
1082.03	-7.24
1082.451	-11.44
1082.871	-3.94
1083.291	-10.14
1083.711	-8.34
1084.132	-7.54
1084.552	-3.34
1084.972	1.36
1085.392	-10.14
1085.813	-4.94
1086.233	-1.64
1086.653	-8.54
1087.073	-3.84
1087.493	-8.84
1087.913	-11.14
1088.333	-6.84
1088.753	1.36
1089.173	-2.84
1089.593	-1.44
1090.013	-1.24
1090.433	-1.14
1090.852	-8.34
1091.272	1.16
1091.692	-7.84
1092.112	-4.34
1092.531	-10.94
1092.951	-13.24
1093.371	-7.14
1093.79	-0.24
1094.21	-3.34
1094.63	-6.64
1095.049	-2.64
1095.469	-0.64
1095.888	-0.64
1096.308	-2.14
1096.727	4.86
1097.146	-3.74
1097.566	-0.94
1097.985	-3.34
1098.405	-7.44
1098.824	-2.44
1099.243	-6.94
1099.662	-7.34
1100.082	-2.94
1100.501	-5.34
1100.92	-5.54
1101.339	-4.34
1101.758	-9.74
