Data from 20171114-ORNL-Ar_H_NY_Subt18_08-07-30-070.txt Node
Date: Tue Nov 14 08:07:30 EST 2017
User: Ender
Spectrometer: HR+D1039
Trigger mode: 0
Integration Time (sec): 2.730000E-2
Scans to average: 10
Electric dark correction enabled: true
Nonlinearity correction enabled: false
Boxcar width: 0
XAxis mode: Wavelengths
Number of Pixels in Spectrum: 2048
>>>>>Begin Spectral Data<<<<<
187.836	-2.43
188.309	-2.43
188.782	-2.43
189.255	0.77
189.728	-3.13
190.201	8.67
190.674	-2.03
191.147	4.57
191.619	-3.23
192.092	-2.73
192.565	2.77
193.038	-2.73
193.511	0.87
193.984	-2.83
194.456	-0.33
194.929	-0.23
195.402	-0.33
195.874	2.37
196.347	2.07
196.82	-8.23
197.292	1.57
197.765	-3.53
198.237	-12.03
198.71	-1.73
199.182	0.17
199.655	3.87
200.127	2.07
200.6	-2.23
201.072	0.57
201.544	-2.23
202.017	-7.23
202.489	3.77
202.961	-6.93
203.433	-0.63
203.906	-6.83
204.378	-11.13
204.85	-4.33
205.322	-7.93
205.794	-0.93
206.266	-10.53
206.739	-8.03
207.211	4.97
207.683	-7.43
208.155	-6.33
208.627	-9.63
209.099	-4.43
209.57	-7.03
210.042	-2.93
210.514	-3.83
210.986	-2.13
211.458	-8.33
211.93	-2.53
212.402	0.57
212.873	-8.33
213.345	-12.23
213.817	-14.43
214.288	-8.03
214.76	-14.33
215.232	-1.13
215.703	-6.83
216.175	-4.13
216.646	-2.23
217.118	-6.43
217.589	-9.73
218.061	-5.73
218.532	-6.43
219.004	-2.83
219.475	-4.43
219.946	-5.53
220.418	-10.03
220.889	-3.93
221.36	2.97
221.832	-3.53
222.303	-8.23
222.774	-3.83
223.245	-5.93
223.717	-12.53
224.188	-5.83
224.659	-8.03
225.13	-10.03
225.601	-6.73
226.072	2.27
226.543	-3.53
227.014	1.37
227.485	-3.73
227.956	-10.13
228.427	-2.43
228.898	-1.53
229.369	0.97
229.839	-1.43
230.31	-10.33
230.781	5.77
231.252	-5.73
231.722	0.37
232.193	-2.93
232.664	-3.03
233.135	-0.53
233.605	1.57
234.076	-8.63
234.546	-0.83
235.017	-1.23
235.487	-4.13
235.958	-4.73
236.428	-0.03
236.899	-2.33
237.369	-0.83
237.84	-3.23
238.31	7.57
238.78	0.77
239.251	-2.13
239.721	0.17
240.191	-3.73
240.662	-0.53
241.132	-0.83
241.602	-4.83
242.072	-0.43
242.542	3.57
243.013	-5.13
243.483	0.37
243.953	2.97
244.423	-2.13
244.893	-7.03
245.363	1.17
245.833	1.77
246.303	-1.33
246.773	1.37
247.243	1.77
247.712	-1.23
248.182	7.37
248.652	4.57
249.122	-9.63
249.592	0.97
250.061	19.17
250.531	22.67
251.001	12.97
251.471	13.07
251.94	12.37
252.41	1.97
252.879	-8.93
253.349	5.37
253.818	2.77
254.288	4.07
254.757	-5.63
255.227	0.77
255.696	-2.63
256.166	4.17
256.635	2.97
257.105	5.47
257.574	2.77
258.043	5.97
258.513	10.27
258.982	13.97
259.451	-5.43
259.92	8.27
260.389	7.87
260.859	8.37
261.328	11.27
261.797	8.67
262.266	6.37
262.735	10.77
263.204	5.47
263.673	-7.13
264.142	-0.63
264.611	-0.83
265.08	-2.13
265.549	-0.03
266.018	0.77
266.487	-5.23
266.955	-8.93
267.424	-4.83
267.893	1.77
268.362	-4.53
268.83	-0.03
269.299	5.37
269.768	-0.93
270.236	2.17
270.705	0.77
271.174	-4.53
271.642	3.27
272.111	2.87
272.579	12.77
273.048	19.17
273.516	17.27
273.985	18.57
274.453	17.57
274.922	14.47
275.39	4.27
275.858	-5.23
276.327	10.57
276.795	12.77
277.263	5.27
277.731	26.27
278.2	36.87
278.668	42.47
279.136	31.87
279.604	12.27
280.072	10.97
280.54	9.87
281.008	1.97
281.477	12.97
281.945	2.97
282.413	9.37
282.881	17.17
283.348	1.67
283.816	10.17
284.284	7.47
284.752	13.47
285.22	7.47
285.688	13.57
286.156	18.17
286.623	36.87
287.091	41.17
287.559	24.17
288.026	9.77
288.494	10.07
288.962	0.37
289.429	8.27
289.897	14.17
290.364	6.77
290.832	11.77
291.3	10.27
291.767	13.57
292.234	12.17
292.702	7.27
293.169	11.37
293.637	19.07
294.104	13.57
294.571	3.77
295.039	3.47
295.506	7.57
295.973	16.37
296.44	9.17
296.908	18.57
297.375	12.07
297.842	14.67
298.309	9.77
298.776	5.57
299.243	14.77
299.71	10.67
300.177	21.57
300.644	14.87
301.111	15.17
301.578	13.87
302.045	15.87
302.512	14.37
302.979	22.27
303.446	17.27
303.913	11.37
304.379	5.97
304.846	26.17
305.313	16.67
305.78	18.97
306.246	29.67
306.713	21.67
307.18	20.37
307.646	24.27
308.113	21.87
308.579	14.67
309.046	12.97
309.512	19.37
309.979	11.37
310.445	17.37
310.912	20.87
311.378	25.37
311.845	17.57
312.311	20.87
312.777	21.87
313.244	23.07
313.71	29.47
314.176	23.97
314.642	20.47
315.109	20.77
315.575	28.47
316.041	26.87
316.507	23.97
316.973	30.37
317.439	29.37
317.905	27.87
318.371	28.27
318.837	25.17
319.303	22.27
319.769	25.57
320.235	24.07
320.701	24.97
321.167	28.27
321.633	27.57
322.099	27.67
322.564	34.47
323.03	32.17
323.496	26.87
323.962	28.87
324.427	27.97
324.893	32.87
325.359	25.97
325.824	30.67
326.29	23.97
326.755	25.27
327.221	29.97
327.686	32.87
328.152	34.27
328.617	35.67
329.083	39.27
329.548	39.97
330.014	31.47
330.479	28.57
330.944	28.67
331.41	36.17
331.875	33.67
332.34	38.27
332.805	37.87
333.271	42.07
333.736	39.07
334.201	41.07
334.666	38.47
335.131	43.27
335.596	42.17
336.061	38.77
336.526	34.27
336.991	37.37
337.456	46.07
337.921	36.97
338.386	34.77
338.851	37.87
339.316	36.57
339.781	41.07
340.246	39.97
340.711	37.87
341.175	42.67
341.64	35.77
342.105	44.17
342.569	48.17
343.034	45.47
343.499	49.17
343.963	42.17
344.428	54.27
344.893	53.17
345.357	50.07
345.822	49.57
346.286	54.77
346.751	58.07
347.215	48.37
347.679	53.57
348.144	73.77
348.608	67.17
349.073	50.17
349.537	56.47
350.001	59.27
350.465	70.37
350.93	63.77
351.394	61.27
351.858	53.47
352.322	70.37
352.786	65.37
353.25	82.87
353.715	81.87
354.179	81.07
354.643	96.17
355.107	99.77
355.571	88.47
356.035	82.27
356.498	92.77
356.962	93.97
357.426	104.27
357.89	92.67
358.354	69.27
358.818	62.67
359.281	64.17
359.745	69.87
360.209	65.77
360.673	62.97
361.136	66.57
361.6	73.97
362.064	76.47
362.527	65.77
362.991	74.57
363.454	68.77
363.918	62.77
364.381	66.07
364.845	69.77
365.308	73.17
365.772	73.07
366.235	69.27
366.698	66.17
367.162	71.57
367.625	70.97
368.088	79.57
368.552	67.07
369.015	75.97
369.478	84.87
369.941	86.17
370.404	81.87
370.867	87.77
371.331	91.07
371.794	94.07
372.257	98.07
372.72	97.47
373.183	93.17
373.646	87.97
374.109	89.57
374.572	97.77
375.035	95.97
375.497	87.87
375.96	95.07
376.423	86.87
376.886	92.17
377.349	93.97
377.811	89.77
378.274	87.87
378.737	94.07
379.199	102.07
379.662	97.97
380.125	102.57
380.587	100.47
381.05	106.87
381.512	121.17
381.975	118.67
382.437	115.87
382.9	107.87
383.362	115.27
383.825	124.07
384.287	135.47
384.75	124.37
385.212	122.17
385.674	123.27
386.136	121.77
386.599	110.87
387.061	113.37
387.523	116.77
387.985	114.97
388.447	139.57
388.91	128.77
389.372	147.87
389.834	142.37
390.296	130.67
390.758	137.17
391.22	153.77
391.682	195.77
392.144	268.37
392.606	209.47
393.068	147.67
393.529	149.07
393.991	135.87
394.453	133.77
394.915	140.27
395.377	171.07
395.838	194.27
396.3	138.47
396.762	127.77
397.224	123.87
397.685	113.27
398.147	121.47
398.608	118.87
399.07	119.37
399.531	124.27
399.993	126.97
400.454	136.77
400.916	129.67
401.377	123.07
401.839	138.07
402.3	131.07
402.762	144.67
403.223	159.97
403.684	156.97
404.145	147.77
404.607	141.17
405.068	151.37
405.529	156.17
405.99	172.37
406.451	162.57
406.913	159.37
407.374	155.87
407.835	144.27
408.296	148.07
408.757	154.57
409.218	171.87
409.679	165.07
410.14	156.47
410.601	165.27
411.062	170.77
411.522	179.07
411.983	175.47
412.444	159.97
412.905	177.47
413.366	165.37
413.826	185.67
414.287	202.77
414.748	235.17
415.208	229.07
415.669	191.77
416.13	189.97
416.59	188.87
417.051	204.17
417.511	201.37
417.972	217.07
418.432	228.27
418.893	258.97
419.353	230.77
419.814	186.77
420.274	174.57
420.734	171.27
421.195	187.07
421.655	183.37
422.115	180.87
422.576	183.27
423.036	191.67
423.496	193.07
423.956	197.47
424.416	210.67
424.876	251.77
425.336	236.77
425.797	254.57
426.257	240.97
426.717	226.37
427.177	217.67
427.637	211.77
428.097	224.97
428.556	230.77
429.016	254.47
429.476	250.17
429.936	254.27
430.396	252.17
430.856	277.67
431.315	299.77
431.775	323.47
432.235	359.17
432.694	332.87
433.154	340.57
433.614	366.47
434.073	316.87
434.533	263.57
434.993	251.77
435.452	273.87
435.912	274.57
436.371	263.77
436.83	267.17
437.29	251.77
437.749	234.27
438.209	230.17
438.668	256.47
439.127	261.07
439.587	236.97
440.046	227.17
440.505	242.67
440.964	258.97
441.424	300.17
441.883	291.27
442.342	244.27
442.801	220.77
443.26	210.97
443.719	207.07
444.178	205.87
444.637	200.27
445.096	209.67
445.555	211.17
446.014	213.77
446.473	211.27
446.932	220.07
447.391	208.97
447.849	215.77
448.308	204.67
448.767	212.07
449.226	233.27
449.685	218.47
450.143	234.77
450.602	221.67
451.061	221.17
451.519	218.37
451.978	217.87
452.436	220.67
452.895	225.27
453.353	232.87
453.812	222.97
454.27	225.37
454.729	228.97
455.187	225.77
455.646	226.57
456.104	231.57
456.562	249.77
457.021	256.87
457.479	245.97
457.937	263.47
458.395	247.97
458.854	243.37
459.312	242.97
459.77	254.17
460.228	239.67
460.686	224.97
461.144	235.87
461.602	230.77
462.06	230.17
462.518	244.57
462.976	239.87
463.434	247.57
463.892	250.77
464.35	251.17
464.808	272.97
465.266	248.57
465.724	256.37
466.181	261.37
466.639	257.77
467.097	264.37
467.555	279.37
468.012	285.37
468.47	296.17
468.928	313.97
469.385	326.97
469.843	322.87
470.3	324.97
470.758	345.37
471.215	360.87
471.673	389.87
472.13	386.87
472.588	399.47
473.045	357.77
473.503	357.47
473.96	376.37
474.417	394.57
474.875	422.07
475.332	447.77
475.789	440.57
476.246	444.17
476.704	466.07
477.161	490.27
477.618	504.07
478.075	548.87
478.532	589.97
478.989	662.17
479.446	766.47
479.903	737.97
480.36	779.97
480.817	834.47
481.274	933.07
481.731	1037.67
482.188	1116.17
482.645	1250.07
483.102	1344.17
483.558	1480.17
484.015	1522.17
484.472	1508.47
484.929	1455.17
485.385	1423.07
485.842	1365.17
486.299	1307.67
486.755	1238.07
487.212	1041.67
487.668	878.07
488.125	822.57
488.582	749.47
489.038	719.97
489.494	679.57
489.951	666.27
490.407	645.07
490.864	608.87
491.32	608.97
491.776	613.27
492.233	619.97
492.689	588.07
493.145	580.27
493.602	580.47
494.058	588.17
494.514	588.17
494.97	610.97
495.426	628.47
495.882	594.47
496.338	586.27
496.794	599.47
497.251	589.87
497.707	611.17
498.163	619.57
498.618	613.47
499.074	618.27
499.53	645.17
499.986	649.77
500.442	623.37
500.898	611.07
501.354	603.57
501.809	613.67
502.265	611.07
502.721	647.37
503.177	650.67
503.632	640.27
504.088	647.77
504.543	691.07
504.999	681.67
505.455	634.37
505.91	607.27
506.366	600.97
506.821	602.57
507.277	603.37
507.732	603.97
508.187	606.97
508.643	618.57
509.098	609.07
509.553	636.87
510.009	633.67
510.464	644.17
510.919	671.87
511.375	674.97
511.83	682.47
512.285	695.47
512.74	729.27
513.195	759.97
513.65	747.87
514.105	752.27
514.56	750.57
515.015	761.17
515.47	781.37
515.925	766.97
516.38	765.07
516.835	765.27
517.29	766.17
517.745	744.97
518.2	741.57
518.655	721.87
519.109	725.27
519.564	709.47
520.019	716.97
520.474	703.87
520.928	692.87
521.383	699.47
521.838	687.17
522.292	694.37
522.747	684.47
523.201	695.97
523.656	676.97
524.11	673.27
524.565	666.07
525.019	666.77
525.474	682.07
525.928	688.17
526.382	677.97
526.837	678.47
527.291	676.87
527.745	677.97
528.2	675.57
528.654	669.17
529.108	667.87
529.562	666.77
530.016	674.67
530.47	670.47
530.925	672.97
531.379	674.27
531.833	688.57
532.287	684.07
532.741	686.97
533.195	682.57
533.649	679.77
534.103	697.67
534.556	688.47
535.01	701.57
535.464	690.87
535.918	697.77
536.372	704.27
536.826	693.57
537.279	684.37
537.733	688.87
538.187	694.57
538.64	694.27
539.094	706.77
539.548	718.47
540.001	703.87
540.455	701.07
540.908	709.17
541.362	718.47
541.815	723.77
542.269	740.57
542.722	735.17
543.175	751.07
543.629	748.37
544.082	764.97
544.536	774.07
544.989	759.17
545.442	777.57
545.895	769.17
546.349	765.07
546.802	768.47
547.255	778.97
547.708	786.37
548.161	790.77
548.614	801.37
549.067	811.67
549.52	791.97
549.973	787.87
550.426	788.17
550.879	780.27
551.332	776.37
551.785	781.07
552.238	775.17
552.691	796.07
553.144	807.57
553.596	817.17
554.049	832.27
554.502	866.37
554.955	884.37
555.407	885.67
555.86	879.97
556.313	876.57
556.765	861.07
557.218	863.07
557.67	864.17
558.123	860.67
558.576	849.07
559.028	848.97
559.48	871.57
559.933	852.87
560.385	823.37
560.838	789.17
561.29	769.17
561.742	766.57
562.195	748.67
562.647	754.97
563.099	762.87
563.551	749.47
564.004	769.27
564.456	751.27
564.908	738.77
565.36	724.57
565.812	731.77
566.264	701.57
566.716	709.37
567.168	700.07
567.62	710.07
568.072	688.07
568.524	685.97
568.976	678.37
569.428	657.17
569.88	657.97
570.332	676.17
570.784	672.57
571.235	663.67
571.687	681.47
572.139	684.07
572.59	690.37
573.042	693.67
573.494	685.07
573.945	685.97
574.397	670.97
574.849	673.37
575.3	679.77
575.752	668.07
576.203	667.47
576.655	672.37
577.106	659.27
577.557	656.17
578.009	661.07
578.46	648.77
578.912	642.07
579.363	651.57
579.814	646.67
580.265	650.37
580.717	651.97
581.168	664.17
581.619	668.67
582.07	670.87
582.521	668.57
582.972	654.67
583.423	664.17
583.875	669.07
584.326	696.67
584.777	735.27
585.227	814.87
585.678	904.57
586.129	990.47
586.58	1061.07
587.031	1143.17
587.482	1289.57
587.933	1471.67
588.384	1276.67
588.834	951.97
589.285	790.27
589.736	775.87
590.186	762.67
590.637	754.47
591.088	728.37
591.538	719.57
591.989	725.97
592.439	711.37
592.89	701.17
593.34	701.97
593.791	698.67
594.241	691.17
594.692	698.27
595.142	693.77
595.593	683.77
596.043	692.47
596.493	701.27
596.943	704.47
597.394	716.67
597.844	704.57
598.294	713.17
598.744	738.57
599.195	771.07
599.645	808.57
600.095	849.57
600.545	907.87
600.995	946.17
601.445	1006.97
601.895	1081.07
602.345	1116.67
602.795	1096.57
603.245	1043.27
603.695	996.77
604.145	943.77
604.594	901.07
605.044	841.87
605.494	792.07
605.944	754.17
606.393	729.77
606.843	714.87
607.293	724.97
607.743	717.37
608.192	735.77
608.642	740.07
609.091	750.57
609.541	763.57
609.99	761.87
610.44	751.47
610.889	714.37
611.339	697.07
611.788	679.87
612.238	695.37
612.687	706.67
613.136	716.97
613.586	731.97
614.035	729.87
614.484	746.27
614.933	743.77
615.383	746.77
615.832	737.37
616.281	713.97
616.73	678.07
617.179	650.47
617.628	642.57
618.077	626.67
618.526	620.17
618.975	603.17
619.424	601.07
619.873	602.27
620.322	601.27
620.771	606.47
621.22	599.87
621.669	588.97
622.118	574.37
622.567	572.97
623.015	553.57
623.464	560.57
623.913	544.77
624.361	545.87
624.81	540.47
625.259	543.77
625.707	545.97
626.156	538.67
626.604	558.17
627.053	555.87
627.501	554.07
627.95	560.87
628.398	573.87
628.847	563.77
629.295	561.67
629.744	554.77
630.192	557.17
630.64	560.37
631.089	555.57
631.537	565.97
631.985	579.47
632.433	598.67
632.881	597.97
633.33	652.17
633.778	624.97
634.226	554.67
634.674	564.07
635.122	566.77
635.57	593.27
636.018	616.17
636.466	576.27
636.914	550.17
637.362	566.07
637.81	560.57
638.258	574.97
638.705	575.37
639.153	602.57
639.601	611.27
640.049	628.27
640.497	666.97
640.944	688.17
641.392	625.67
641.84	599.87
642.287	576.37
642.735	561.87
643.182	561.17
643.63	560.77
644.078	566.57
644.525	578.87
644.973	582.57
645.42	601.47
645.867	615.07
646.315	630.47
646.762	656.47
647.21	686.07
647.657	705.27
648.104	746.77
648.551	756.47
648.999	835.67
649.446	901.37
649.893	995.57
650.34	1152.47
650.787	1374.17
651.234	1719.47
651.682	2257.97
652.129	3112.77
652.576	4461.87
653.023	6578.27
653.47	9013.07
653.917	11182.67
654.363	12873.37
654.81	14223.47
655.257	13461.87
655.704	8822.57
656.151	5203.77
656.598	3371.77
657.044	2388.97
657.491	1831.97
657.938	1475.07
658.385	1232.67
658.831	1077.37
659.278	957.57
659.724	842.47
660.171	778.17
660.618	715.67
661.064	679.87
661.511	660.67
661.957	652.17
662.404	634.07
662.85	651.97
663.296	614.97
663.743	553.37
664.189	537.77
664.635	532.47
665.082	521.07
665.528	514.87
665.974	505.57
666.42	505.97
666.867	488.47
667.313	481.57
667.759	474.47
668.205	469.07
668.651	467.37
669.097	469.97
669.543	493.67
669.989	459.17
670.435	447.97
670.881	439.57
671.327	444.67
671.773	460.97
672.219	487.27
672.665	545.07
673.11	575.37
673.556	624.97
674.002	655.87
674.448	655.97
674.893	542.37
675.339	470.87
675.785	430.87
676.23	410.87
676.676	382.37
677.122	378.67
677.567	363.77
678.013	364.77
678.458	347.87
678.904	354.57
679.349	343.47
679.794	348.57
680.24	347.37
680.685	343.07
681.131	344.17
681.576	351.97
682.021	343.67
682.466	348.97
682.912	342.37
683.357	342.07
683.802	385.77
684.247	395.57
684.692	453.47
685.137	495.37
685.583	529.27
686.028	548.67
686.473	508.87
686.918	432.37
687.363	406.57
687.807	384.57
688.252	358.97
688.697	344.57
689.142	334.67
689.587	330.27
690.032	328.87
690.477	331.37
690.921	340.97
691.366	371.07
691.811	392.07
692.255	421.47
692.7	451.47
693.145	496.87
693.589	699.77
694.034	1116.07
694.478	1527.87
694.923	1693.97
695.367	2232.17
695.812	1167.67
696.256	488.07
696.701	370.37
697.145	335.57
697.59	328.07
698.034	317.77
698.478	333.87
698.922	323.67
699.367	318.07
699.811	334.77
700.255	354.77
700.699	382.27
701.143	416.17
701.588	472.67
702.032	510.17
702.476	506.97
702.92	489.77
703.364	491.87
703.808	639.67
704.252	1025.17
704.696	1433.07
705.14	1661.17
705.584	2097.67
706.027	1046.87
706.471	512.87
706.915	383.97
707.359	341.97
707.803	311.07
708.246	300.67
708.69	315.67
709.134	301.47
709.577	306.87
710.021	318.77
710.465	305.67
710.908	292.97
711.352	290.37
711.795	305.77
712.239	342.57
712.682	380.87
713.126	416.67
713.569	461.77
714.012	363.67
714.456	317.77
714.899	290.87
715.342	279.37
715.786	258.57
716.229	250.77
716.672	252.57
717.115	240.87
717.558	246.07
718.002	246.97
718.445	261.37
718.888	282.57
719.331	295.07
719.774	305.77
720.217	294.97
720.66	270.07
721.103	267.67
721.546	255.37
721.989	248.77
722.432	229.07
722.874	231.57
723.317	224.57
723.76	235.27
724.203	259.47
724.645	319.97
725.088	450.17
725.531	560.17
725.974	616.97
726.416	533.07
726.859	306.37
727.301	236.37
727.744	235.57
728.187	225.57
728.629	233.67
729.071	235.47
729.514	255.47
729.956	263.57
730.399	285.97
730.841	285.67
731.283	271.27
731.726	263.07
732.168	256.57
732.61	258.27
733.053	289.67
733.495	308.07
733.937	347.67
734.379	394.47
734.821	437.27
735.263	545.57
735.705	842.77
736.148	1583.07
736.59	2572.97
737.032	2998.07
737.474	2432.67
737.916	794.97
738.357	422.67
738.799	317.97
739.241	300.67
739.683	281.77
740.125	284.47
740.567	297.17
741.008	304.17
741.45	310.17
741.892	315.87
742.334	342.97
742.775	349.07
743.217	338.47
743.658	263.57
744.1	253.97
744.542	257.37
744.983	306.07
745.425	330.87
745.866	328.77
746.307	285.47
746.749	283.07
747.19	322.67
747.632	451.77
748.073	894.37
748.514	1870.77
748.956	2818.37
749.397	3517.27
749.838	2933.57
750.279	2906.67
750.72	1474.97
751.162	536.87
751.603	318.77
752.044	252.97
752.485	217.67
752.926	204.97
753.367	195.17
753.808	194.77
754.249	191.17
754.69	183.27
755.131	178.97
755.572	186.07
756.013	178.47
756.453	181.47
756.894	184.87
757.335	183.27
757.776	190.07
758.216	191.47
758.657	198.47
759.098	203.27
759.538	227.37
759.979	261.97
760.42	373.47
760.86	709.27
761.301	1852.27
761.741	4390.27
762.182	6299.77
762.622	4434.27
763.063	1278.17
763.503	534.97
763.943	348.47
764.384	330.87
764.824	392.47
765.264	425.47
765.705	297.97
766.145	208.97
766.585	178.17
767.025	173.87
767.465	182.67
767.906	238.27
768.346	312.47
768.786	329.37
769.226	258.77
769.666	316.47
770.106	633.77
770.546	1574.17
770.986	2601.57
771.426	2309.97
771.866	779.57
772.306	324.87
772.745	202.37
773.185	172.17
773.625	169.37
774.065	162.07
774.505	199.77
774.944	313.47
775.384	676.17
775.824	1203.37
776.263	1154.67
776.703	489.57
777.142	217.27
777.582	155.57
778.021	136.97
778.461	130.47
778.9	144.07
779.34	134.57
779.779	120.57
780.219	103.57
780.658	115.17
781.097	110.97
781.537	118.47
781.976	109.67
782.415	109.77
782.855	104.97
783.294	101.17
783.733	101.97
784.172	107.17
784.611	103.27
785.05	104.17
785.489	103.27
785.928	112.77
786.367	118.47
786.806	116.77
787.245	129.77
787.684	145.57
788.123	151.17
788.562	132.67
789.001	124.17
789.44	119.27
789.879	117.77
790.317	118.67
790.756	127.87
791.195	125.77
791.634	150.77
792.072	202.57
792.511	371.97
792.95	1013.87
793.388	2120.87
793.827	1889.27
794.265	669.57
794.704	272.37
795.142	178.27
795.581	150.17
796.019	136.07
796.458	131.07
796.896	125.27
797.334	133.67
797.773	154.87
798.211	218.27
798.649	445.27
799.087	1017.57
799.526	1577.17
799.964	2007.77
800.402	1960.07
800.84	740.47
801.278	302.97
801.716	183.87
802.154	151.37
802.592	144.17
803.03	141.17
803.468	131.57
803.906	141.77
804.344	147.17
804.782	139.37
805.22	128.37
805.658	129.47
806.096	149.07
806.533	153.27
806.971	167.07
807.409	216.77
807.847	308.87
808.284	665.37
808.722	1867.67
809.16	3233.97
809.597	3123.67
810.035	5394.07
810.472	5609.17
810.91	2045.07
811.347	782.37
811.785	398.77
812.222	248.47
812.66	194.27
813.097	162.17
813.535	143.17
813.972	130.17
814.409	120.27
814.846	107.07
815.284	108.87
815.721	102.07
816.158	105.37
816.595	118.27
817.032	177.47
817.47	191.67
817.907	158.07
818.344	145.67
818.781	121.47
819.218	102.37
819.655	117.77
820.092	185.57
820.529	200.77
820.966	173.57
821.403	131.87
821.839	109.57
822.276	98.27
822.713	124.07
823.15	131.87
823.587	118.57
824.023	142.17
824.46	300.47
824.897	902.37
825.333	1312.07
825.77	561.07
826.206	219.37
826.643	128.67
827.08	99.57
827.516	79.07
827.953	73.17
828.389	77.77
828.825	67.27
829.262	63.47
829.698	65.77
830.135	60.27
830.571	61.77
831.007	63.27
831.443	63.17
831.88	63.37
832.316	56.77
832.752	63.47
833.188	59.57
833.624	60.87
834.06	62.07
834.497	70.47
834.933	76.77
835.369	74.57
835.805	68.37
836.241	78.07
836.677	83.97
837.112	84.87
837.548	98.97
837.984	128.27
838.42	197.27
838.856	497.87
839.292	1503.97
839.727	2254.67
840.163	1049.67
840.599	929.67
841.034	2019.77
841.47	2093.17
841.906	764.47
842.341	333.47
842.777	225.97
843.212	312.37
843.648	300.27
844.083	147.97
844.519	100.27
844.954	75.57
845.39	58.67
845.825	52.57
846.261	57.17
846.696	54.47
847.131	52.47
847.566	60.67
848.002	52.57
848.437	53.67
848.872	57.17
849.307	61.07
849.742	91.07
850.177	183.27
850.613	556.17
851.048	860.97
851.483	379.87
851.918	156.57
852.353	88.67
852.788	58.87
853.223	50.27
853.657	51.77
854.092	42.27
854.527	48.17
854.962	44.07
855.397	49.67
855.832	48.37
856.266	35.17
856.701	38.47
857.136	32.17
857.57	39.97
858.005	50.17
858.44	54.67
858.874	43.47
859.309	52.67
859.743	33.17
860.178	48.37
860.612	37.47
861.047	46.77
861.481	60.17
861.915	70.77
862.35	47.37
862.784	33.37
863.218	34.77
863.653	37.67
864.087	45.37
864.521	50.27
864.955	68.17
865.39	147.07
865.824	168.07
866.258	109.67
866.692	157.37
867.126	164.87
867.56	107.17
867.994	50.87
868.428	34.67
868.862	42.37
869.296	49.87
869.73	58.27
870.164	50.07
870.598	46.47
871.031	36.17
871.465	32.67
871.899	24.57
872.333	21.27
872.766	24.17
873.2	24.67
873.634	31.17
874.067	24.37
874.501	23.87
874.935	32.47
875.368	37.97
875.802	28.17
876.235	20.77
876.669	23.87
877.102	24.47
877.535	32.87
877.969	20.97
878.402	24.27
878.836	17.67
879.269	20.97
879.702	20.97
880.135	20.37
880.569	24.57
881.002	27.07
881.435	18.57
881.868	19.27
882.301	20.07
882.734	17.47
883.167	22.37
883.601	21.17
884.034	21.77
884.467	17.77
884.899	14.87
885.332	14.87
885.765	17.57
886.198	12.97
886.631	17.47
887.064	16.77
887.497	18.37
887.929	24.57
888.362	14.27
888.795	15.27
889.228	15.87
889.66	17.67
890.093	20.17
890.526	12.97
890.958	15.07
891.391	18.57
891.823	23.57
892.256	15.47
892.688	15.87
893.121	20.87
893.553	11.87
893.985	22.87
894.418	20.97
894.85	8.87
895.282	11.97
895.715	12.57
896.147	17.37
896.579	20.07
897.011	18.77
897.444	14.47
897.876	12.97
898.308	19.17
898.74	22.47
899.172	12.07
899.604	22.27
900.036	20.77
900.468	15.47
900.9	19.57
901.332	17.27
901.764	9.27
902.196	11.47
902.628	12.57
903.06	17.57
903.491	24.87
903.923	23.27
904.355	18.27
904.787	28.67
905.218	23.37
905.65	17.57
906.082	15.97
906.513	7.37
906.945	15.47
907.376	9.97
907.808	19.37
908.239	20.57
908.671	19.77
909.102	20.17
909.534	31.47
909.965	43.37
910.397	89.67
910.828	313.37
911.259	464.87
911.691	207.37
912.122	103.17
912.553	53.17
912.984	37.37
913.415	27.07
913.847	24.97
914.278	13.97
914.709	15.57
915.14	16.37
915.571	16.27
916.002	15.17
916.433	17.27
916.864	15.37
917.295	14.67
917.726	16.67
918.157	12.17
918.587	24.27
919.018	22.67
919.449	18.87
919.88	19.17
920.311	23.27
920.741	45.07
921.172	167.97
921.603	150.67
922.033	67.27
922.464	43.87
922.895	23.07
923.325	19.87
923.756	15.07
924.186	19.47
924.617	27.57
925.047	43.27
925.478	56.47
925.908	49.17
926.338	25.37
926.769	16.97
927.199	24.17
927.629	7.27
928.06	12.17
928.49	14.67
928.92	13.17
929.35	9.67
929.78	15.37
930.21	9.47
930.641	5.17
931.071	10.37
931.501	3.17
931.931	6.67
932.361	6.57
932.791	7.57
933.221	0.87
933.651	0.97
934.08	15.37
934.51	27.97
934.94	9.87
935.37	11.97
935.8	12.17
936.229	6.87
936.659	13.67
937.089	9.27
937.519	12.97
937.948	17.37
938.378	9.87
938.807	1.27
939.237	1.97
939.666	5.27
940.096	-4.13
940.525	3.17
940.955	1.77
941.384	0.87
941.814	-4.13
942.243	6.07
942.672	3.87
943.102	0.17
943.531	3.47
943.96	7.27
944.39	1.27
944.819	0.17
945.248	4.77
945.677	0.97
946.106	1.07
946.535	1.77
946.964	-3.53
947.393	8.67
947.822	1.87
948.251	-0.83
948.68	3.47
949.109	2.07
949.538	6.27
949.967	1.87
950.396	0.37
950.825	2.07
951.254	1.37
951.682	-2.03
952.111	0.57
952.54	3.87
952.969	-4.33
953.397	-3.23
953.826	-3.03
954.254	-5.73
954.683	3.07
955.112	-1.63
955.54	-0.53
955.969	0.57
956.397	1.77
956.826	-3.03
957.254	3.97
957.682	-3.83
958.111	6.67
958.539	-4.03
958.967	0.17
959.396	-4.93
959.824	-0.03
960.252	-0.73
960.68	-10.03
961.109	-3.13
961.537	-3.33
961.965	-4.73
962.393	-1.43
962.821	2.77
963.249	2.17
963.677	-0.83
964.105	1.57
964.533	44.97
964.961	39.27
965.389	22.07
965.817	6.17
966.245	2.97
966.672	-2.53
967.1	-4.33
967.528	-3.33
967.956	-5.53
968.383	0.77
968.811	-4.63
969.239	-2.23
969.666	-9.03
970.094	-0.43
970.522	5.97
970.949	0.17
971.377	-5.73
971.804	-3.13
972.232	0.57
972.659	-2.03
973.087	-3.53
973.514	-8.93
973.941	-7.73
974.369	6.77
974.796	-1.53
975.223	-0.63
975.651	-3.33
976.078	1.77
976.505	2.27
976.932	4.07
977.359	7.27
977.786	10.47
978.214	-3.13
978.641	-0.73
979.068	-0.13
979.495	-3.83
979.922	-7.93
980.349	-4.43
980.776	2.77
981.202	-5.23
981.629	1.37
982.056	0.37
982.483	-2.73
982.91	-0.83
983.337	-7.83
983.763	3.77
984.19	-7.43
984.617	-4.23
985.043	-6.73
985.47	-0.33
985.897	-6.13
986.323	-13.03
986.75	0.87
987.176	1.47
987.603	-0.93
988.029	-0.23
988.456	-6.73
988.882	3.67
989.308	-3.23
989.735	-0.53
990.161	1.37
990.587	-1.53
991.014	0.37
991.44	4.97
991.866	-0.73
992.292	-4.13
992.719	-1.73
993.145	5.17
993.571	-6.73
993.997	-0.23
994.423	2.47
994.849	-3.63
995.275	2.07
995.701	-1.03
996.127	-5.23
996.553	0.87
996.979	-6.53
997.405	0.37
997.83	-5.73
998.256	-6.03
998.682	-6.13
999.108	-9.73
999.534	3.27
999.959	-2.63
1000.385	-7.93
1000.811	2.77
1001.236	-6.43
1001.662	-2.83
1002.087	-1.43
1002.513	-5.93
1002.938	-0.33
1003.364	0.87
1003.789	-1.23
1004.215	-2.13
1004.64	-8.33
1005.066	1.17
1005.491	-1.53
1005.916	-3.03
1006.342	-1.63
1006.767	-5.73
1007.192	6.37
1007.617	-4.53
1008.042	-3.73
1008.468	-9.13
1008.893	1.37
1009.318	-8.23
1009.743	-3.13
1010.168	3.77
1010.593	-1.43
1011.018	-7.33
1011.443	-0.83
1011.868	-9.93
1012.293	-0.03
1012.718	-3.93
1013.143	-0.33
1013.567	3.57
1013.992	-3.93
1014.417	-12.43
1014.842	2.57
1015.267	-9.53
1015.691	-6.53
1016.116	4.27
1016.541	0.27
1016.965	-1.33
1017.39	2.07
1017.814	-1.43
1018.239	-2.53
1018.663	-7.73
1019.088	-11.03
1019.512	-0.83
1019.937	-1.63
1020.361	-3.13
1020.785	-7.33
1021.21	-4.73
1021.634	-2.03
1022.058	-3.33
1022.483	2.17
1022.907	-7.33
1023.331	-6.93
1023.755	-5.33
1024.179	-4.43
1024.604	-7.53
1025.028	-7.53
1025.452	-1.53
1025.876	1.17
1026.3	0.37
1026.724	-11.53
1027.148	-3.63
1027.572	-7.53
1027.996	-7.53
1028.42	-1.13
1028.843	-5.63
1029.267	-8.23
1029.691	-2.13
1030.115	-4.23
1030.539	-7.23
1030.962	-8.73
1031.386	-9.33
1031.81	2.67
1032.233	1.57
1032.657	-1.93
1033.08	4.57
1033.504	-3.33
1033.927	-2.83
1034.351	1.07
1034.774	0.67
1035.198	-0.93
1035.621	-5.03
1036.045	-4.63
1036.468	0.87
1036.891	-14.43
1037.315	-13.73
1037.738	-7.83
1038.161	-1.23
1038.584	-7.23
1039.008	-9.73
1039.431	-8.23
1039.854	-6.13
1040.277	-1.63
1040.7	-4.33
1041.123	6.67
1041.546	-11.33
1041.969	-8.73
1042.392	-4.73
1042.815	1.07
1043.238	-1.83
1043.661	4.27
1044.084	-3.13
1044.507	-6.23
1044.93	-6.83
1045.352	-2.73
1045.775	-7.53
1046.198	-0.23
1046.621	-2.13
1047.043	-1.63
1047.466	5.27
1047.889	-0.03
1048.311	-7.43
1048.734	-2.73
1049.156	-7.73
1049.579	-6.03
1050.001	-2.83
1050.424	-2.13
1050.846	-5.63
1051.269	-5.13
1051.691	-9.33
1052.113	-11.23
1052.536	-2.33
1052.958	-4.23
1053.38	-2.53
1053.802	-4.93
1054.225	-4.23
1054.647	-6.53
1055.069	-7.23
1055.491	4.17
1055.913	-4.33
1056.335	-1.13
1056.757	-5.03
1057.179	-6.43
1057.601	-1.13
1058.023	-8.13
1058.445	-10.03
1058.867	-7.93
1059.289	-7.13
1059.711	-9.53
1060.133	-5.23
1060.555	-9.33
1060.976	-9.33
1061.398	-9.13
1061.82	-7.53
1062.241	-10.73
1062.663	-6.63
1063.085	-2.93
1063.506	-6.73
1063.928	-11.03
1064.35	-3.63
1064.771	-9.53
1065.193	-0.63
1065.614	-2.83
1066.035	-4.63
1066.457	-0.83
1066.878	-7.63
1067.3	-4.83
1067.721	-8.23
1068.142	-2.83
1068.564	-5.43
1068.985	-4.53
1069.406	-2.23
1069.827	-8.33
1070.248	-5.03
1070.67	-8.03
1071.091	-4.23
1071.512	-3.63
1071.933	-4.33
1072.354	-8.83
1072.775	-2.23
1073.196	-10.83
1073.617	-8.43
1074.038	-6.33
1074.459	-2.83
1074.88	-8.83
1075.3	-6.83
1075.721	-7.03
1076.142	4.87
1076.563	-2.33
1076.983	-13.83
1077.404	-5.43
1077.825	-14.63
1078.246	-7.43
1078.666	-14.23
1079.087	-9.43
1079.507	-7.73
1079.928	-0.83
1080.348	-7.03
1080.769	-8.63
1081.189	-5.43
1081.61	-0.73
1082.03	-8.63
1082.451	-6.33
1082.871	-3.93
1083.291	-8.53
1083.711	-12.63
1084.132	-3.73
1084.552	-5.83
1084.972	2.97
1085.392	-9.23
1085.813	-9.83
1086.233	-5.93
1086.653	-10.13
1087.073	-2.33
1087.493	-7.43
1087.913	-4.13
1088.333	-3.23
1088.753	-2.33
1089.173	2.17
1089.593	-4.33
1090.013	-5.23
1090.433	-1.83
1090.852	-10.13
1091.272	-6.13
1091.692	-7.83
1092.112	0.67
1092.531	-8.53
1092.951	-13.33
1093.371	-2.33
1093.79	0.07
1094.21	-4.53
1094.63	-11.83
1095.049	-3.73
1095.469	-1.03
1095.888	-2.73
1096.308	2.57
1096.727	1.67
1097.146	-10.03
1097.566	1.87
1097.985	-0.63
1098.405	-5.83
1098.824	-7.93
1099.243	-13.53
1099.662	-8.73
1100.082	-3.43
1100.501	-1.93
1100.92	-9.73
1101.339	-4.93
1101.758	-7.33
