Data from 20171114-ORNL-Ar_H_NY_Subt18_08-05-03-209.txt Node
Date: Tue Nov 14 08:05:03 EST 2017
User: Ender
Spectrometer: HR+D1039
Trigger mode: 0
Integration Time (sec): 2.730000E-2
Scans to average: 10
Electric dark correction enabled: true
Nonlinearity correction enabled: false
Boxcar width: 0
XAxis mode: Wavelengths
Number of Pixels in Spectrum: 2048
>>>>>Begin Spectral Data<<<<<
187.836	-6.99
188.309	-6.99
188.782	-6.99
189.255	-1.79
189.728	1.11
190.201	9.51
190.674	4.71
191.147	3.41
191.619	-5.99
192.092	-4.49
192.565	1.01
193.038	-3.69
193.511	3.11
193.984	1.71
194.456	-6.09
194.929	-0.09
195.402	1.51
195.874	3.01
196.347	1.81
196.82	-8.89
197.292	5.61
197.765	0.11
198.237	-8.69
198.71	4.01
199.182	-1.59
199.655	5.51
200.127	-0.09
200.6	-2.19
201.072	1.21
201.544	-3.29
202.017	-0.09
202.489	5.61
202.961	5.91
203.433	-3.19
203.906	-3.09
204.378	-0.29
204.85	-5.09
205.322	-5.99
205.794	1.31
206.266	-7.59
206.739	-8.79
207.211	5.61
207.683	-3.09
208.155	-5.49
208.627	-2.39
209.099	-4.19
209.57	-11.09
210.042	-7.49
210.514	1.31
210.986	2.41
211.458	-8.19
211.93	-5.99
212.402	3.81
212.873	-6.69
213.345	-6.59
213.817	-8.09
214.288	-1.99
214.76	-1.89
215.232	-3.19
215.703	0.81
216.175	-2.29
216.646	1.01
217.118	-4.19
217.589	0.01
218.061	-1.59
218.532	-0.39
219.004	0.91
219.475	0.51
219.946	-0.69
220.418	-3.99
220.889	4.41
221.36	4.21
221.832	-5.39
222.303	-0.99
222.774	0.61
223.245	-7.89
223.717	-8.09
224.188	-0.69
224.659	-10.09
225.13	-2.49
225.601	-5.49
226.072	-1.99
226.543	-1.29
227.014	-2.59
227.485	2.01
227.956	-3.89
228.427	1.51
228.898	1.51
229.369	8.71
229.839	4.71
230.31	-1.99
230.781	2.91
231.252	-1.39
231.722	-2.69
232.193	-3.69
232.664	8.71
233.135	3.51
233.605	6.01
234.076	-6.69
234.546	2.31
235.017	8.21
235.487	1.81
235.958	1.71
236.428	-0.99
236.899	5.91
237.369	7.31
237.84	8.11
238.31	7.41
238.78	9.81
239.251	4.31
239.721	3.61
240.191	0.11
240.662	-0.49
241.132	7.71
241.602	-0.59
242.072	6.01
242.542	6.01
243.013	6.01
243.483	8.71
243.953	9.51
244.423	4.61
244.893	-2.49
245.363	8.31
245.833	5.61
246.303	5.61
246.773	9.61
247.243	9.11
247.712	5.31
248.182	9.51
248.652	12.01
249.122	-8.19
249.592	16.51
250.061	24.21
250.531	38.11
251.001	23.81
251.471	31.81
251.94	22.71
252.41	13.81
252.879	-0.59
253.349	16.91
253.818	9.51
254.288	2.21
254.757	9.61
255.227	3.31
255.696	1.61
256.166	9.51
256.635	7.31
257.105	10.21
257.574	6.91
258.043	16.91
258.513	18.61
258.982	21.01
259.451	12.61
259.92	17.21
260.389	16.51
260.859	19.81
261.328	13.31
261.797	20.81
262.266	14.01
262.735	11.91
263.204	7.41
263.673	0.81
264.142	11.41
264.611	-1.19
265.08	-0.59
265.549	2.61
266.018	5.51
266.487	7.61
266.955	-1.29
267.424	7.31
267.893	10.71
268.362	2.71
268.83	0.81
269.299	10.51
269.768	3.31
270.236	12.91
270.705	6.81
271.174	14.11
271.642	12.61
272.111	13.81
272.579	23.31
273.048	27.91
273.516	29.31
273.985	33.01
274.453	27.71
274.922	21.91
275.39	14.41
275.858	4.51
276.327	13.21
276.795	20.41
277.263	13.21
277.731	32.81
278.2	63.71
278.668	68.31
279.136	55.61
279.604	26.81
280.072	14.31
280.54	20.21
281.008	14.01
281.477	17.81
281.945	13.21
282.413	18.61
282.881	16.71
283.348	7.81
283.816	14.61
284.284	14.91
284.752	20.81
285.22	18.91
285.688	22.71
286.156	24.91
286.623	43.61
287.091	56.21
287.559	36.21
288.026	20.71
288.494	26.51
288.962	5.31
289.429	14.01
289.897	26.31
290.364	20.31
290.832	24.91
291.3	20.01
291.767	18.61
292.234	21.81
292.702	20.71
293.169	18.41
293.637	17.71
294.104	22.31
294.571	16.41
295.039	20.61
295.506	19.71
295.973	21.21
296.44	23.21
296.908	22.31
297.375	16.31
297.842	27.31
298.309	22.61
298.776	20.61
299.243	25.01
299.71	17.71
300.177	26.91
300.644	21.81
301.111	22.41
301.578	25.61
302.045	20.11
302.512	26.41
302.979	32.31
303.446	22.61
303.913	23.71
304.379	23.41
304.846	31.81
305.313	29.91
305.78	23.81
306.246	34.11
306.713	31.51
307.18	31.31
307.646	28.51
308.113	33.81
308.579	31.21
309.046	31.71
309.512	28.61
309.979	18.51
310.445	31.41
310.912	33.21
311.378	33.61
311.845	33.31
312.311	37.61
312.777	37.21
313.244	31.81
313.71	41.41
314.176	35.31
314.642	38.91
315.109	34.11
315.575	39.91
316.041	44.91
316.507	38.91
316.973	38.41
317.439	40.71
317.905	35.11
318.371	36.61
318.837	35.41
319.303	33.71
319.769	38.01
320.235	35.71
320.701	43.91
321.167	42.01
321.633	39.01
322.099	44.91
322.564	55.31
323.03	47.11
323.496	43.31
323.962	46.01
324.427	41.41
324.893	50.61
325.359	39.21
325.824	40.01
326.29	40.31
326.755	44.41
327.221	44.11
327.686	44.41
328.152	49.91
328.617	47.91
329.083	58.61
329.548	53.21
330.014	55.91
330.479	51.01
330.944	45.71
331.41	49.11
331.875	51.11
332.34	53.21
332.805	44.61
333.271	55.41
333.736	42.71
334.201	57.61
334.666	58.91
335.131	59.11
335.596	54.01
336.061	55.61
336.526	45.01
336.991	51.61
337.456	63.41
337.921	49.21
338.386	44.31
338.851	50.01
339.316	54.91
339.781	53.21
340.246	53.31
340.711	48.81
341.175	52.81
341.64	49.41
342.105	59.11
342.569	54.11
343.034	62.41
343.499	59.11
343.963	52.51
344.428	64.31
344.893	60.41
345.357	62.11
345.822	65.11
346.286	73.31
346.751	81.91
347.215	74.01
347.679	83.21
348.144	104.41
348.608	89.11
349.073	67.81
349.537	77.41
350.001	77.31
350.465	91.61
350.93	83.91
351.394	79.11
351.858	75.31
352.322	88.51
352.786	88.91
353.25	99.71
353.715	112.21
354.179	98.91
354.643	121.61
355.107	126.31
355.571	111.51
356.035	109.31
356.498	118.31
356.962	124.91
357.426	129.21
357.89	119.11
358.354	96.21
358.818	87.81
359.281	82.91
359.745	82.41
360.209	84.61
360.673	76.61
361.136	82.51
361.6	86.51
362.064	93.51
362.527	84.61
362.991	90.71
363.454	81.71
363.918	77.81
364.381	88.21
364.845	84.81
365.308	90.51
365.772	85.01
366.235	81.91
366.698	85.41
367.162	86.51
367.625	88.31
368.088	94.21
368.552	91.51
369.015	87.31
369.478	93.21
369.941	102.91
370.404	95.51
370.867	108.21
371.331	105.51
371.794	113.41
372.257	110.01
372.72	120.81
373.183	114.41
373.646	105.91
374.109	106.21
374.572	108.61
375.035	112.01
375.497	111.31
375.96	106.61
376.423	106.61
376.886	115.41
377.349	115.21
377.811	109.01
378.274	104.71
378.737	106.31
379.199	111.21
379.662	114.01
380.125	117.81
380.587	112.91
381.05	122.11
381.512	127.91
381.975	136.01
382.437	134.61
382.9	127.91
383.362	131.91
383.825	140.11
384.287	147.91
384.75	135.81
385.212	138.71
385.674	136.81
386.136	135.01
386.599	125.01
387.061	134.11
387.523	132.11
387.985	141.91
388.447	146.51
388.91	151.61
389.372	152.71
389.834	152.61
390.296	144.41
390.758	146.81
391.22	166.21
391.682	211.21
392.144	286.71
392.606	224.11
393.068	163.51
393.529	170.41
393.991	155.11
394.453	154.41
394.915	154.61
395.377	187.21
395.838	208.71
396.3	155.91
396.762	138.41
397.224	130.51
397.685	131.71
398.147	130.41
398.608	123.51
399.07	126.51
399.531	138.31
399.993	136.41
400.454	150.11
400.916	139.71
401.377	142.21
401.839	154.81
402.3	153.41
402.762	163.91
403.223	171.31
403.684	174.11
404.145	158.81
404.607	154.81
405.068	166.51
405.529	169.91
405.99	185.91
406.451	168.81
406.913	175.81
407.374	157.11
407.835	162.41
408.296	164.01
408.757	166.61
409.218	187.91
409.679	177.21
410.14	172.61
410.601	176.61
411.062	185.71
411.522	189.71
411.983	191.01
412.444	178.61
412.905	181.61
413.366	184.31
413.826	184.11
414.287	217.41
414.748	257.91
415.208	250.51
415.669	208.41
416.13	208.01
416.59	198.11
417.051	218.01
417.511	212.61
417.972	232.21
418.432	243.31
418.893	277.61
419.353	247.91
419.814	194.01
420.274	179.21
420.734	179.81
421.195	194.81
421.655	188.71
422.115	186.11
422.576	190.11
423.036	198.01
423.496	206.81
423.956	214.71
424.416	225.11
424.876	272.01
425.336	255.31
425.797	260.71
426.257	247.21
426.717	235.61
427.177	229.31
427.637	221.41
428.097	224.51
428.556	240.21
429.016	266.61
429.476	260.11
429.936	277.31
430.396	277.01
430.856	286.71
431.315	311.11
431.775	348.51
432.235	369.61
432.694	344.31
433.154	349.11
433.614	389.21
434.073	323.91
434.533	274.11
434.993	266.41
435.452	278.11
435.912	292.01
436.371	277.91
436.83	276.31
437.29	270.81
437.749	240.11
438.209	239.61
438.668	269.21
439.127	287.41
439.587	264.31
440.046	250.21
440.505	256.51
440.964	280.51
441.424	314.01
441.883	307.21
442.342	258.71
442.801	228.11
443.26	217.81
443.719	211.61
444.178	213.31
444.637	207.51
445.096	228.41
445.555	223.01
446.014	211.01
446.473	220.91
446.932	226.91
447.391	208.01
447.849	216.51
448.308	214.51
448.767	222.81
449.226	230.11
449.685	229.11
450.143	243.91
450.602	225.41
451.061	219.61
451.519	228.11
451.978	229.81
452.436	228.91
452.895	236.61
453.353	249.31
453.812	234.51
454.27	241.41
454.729	235.01
455.187	234.81
455.646	239.91
456.104	252.81
456.562	255.51
457.021	249.21
457.479	249.41
457.937	261.71
458.395	255.41
458.854	240.71
459.312	245.41
459.77	268.41
460.228	251.61
460.686	230.71
461.144	236.31
461.602	241.31
462.06	237.01
462.518	247.51
462.976	253.51
463.434	257.21
463.892	265.21
464.35	272.71
464.808	284.71
465.266	259.61
465.724	265.21
466.181	260.11
466.639	261.91
467.097	283.01
467.555	299.61
468.012	289.61
468.47	306.81
468.928	318.51
469.385	336.21
469.843	335.81
470.3	344.81
470.758	363.31
471.215	380.71
471.673	403.51
472.13	399.71
472.588	405.71
473.045	373.11
473.503	373.51
473.96	390.51
474.417	396.91
474.875	429.91
475.332	460.41
475.789	454.21
476.246	458.91
476.704	478.41
477.161	507.11
477.618	506.81
478.075	548.71
478.532	598.61
478.989	678.31
479.446	776.31
479.903	761.51
480.36	789.21
480.817	850.01
481.274	952.41
481.731	1061.91
482.188	1143.01
482.645	1278.71
483.102	1384.41
483.558	1517.31
484.015	1573.81
484.472	1554.01
484.929	1501.71
485.385	1461.01
485.842	1410.11
486.299	1353.41
486.755	1283.21
487.212	1073.01
487.668	909.21
488.125	839.01
488.582	765.41
489.038	739.41
489.494	709.61
489.951	689.41
490.407	652.21
490.864	636.71
491.32	639.91
491.776	628.61
492.233	634.51
492.689	596.71
493.145	592.61
493.602	585.71
494.058	601.71
494.514	605.31
494.97	621.21
495.426	637.61
495.882	625.21
496.338	607.51
496.794	612.61
497.251	607.91
497.707	616.81
498.163	633.81
498.618	636.91
499.074	637.41
499.53	664.01
499.986	673.81
500.442	644.81
500.898	630.41
501.354	622.51
501.809	622.71
502.265	636.41
502.721	648.91
503.177	658.81
503.632	658.41
504.088	669.61
504.543	703.31
504.999	702.31
505.455	641.11
505.91	627.71
506.366	621.01
506.821	622.31
507.277	604.31
507.732	623.71
508.187	614.21
508.643	616.61
509.098	627.01
509.553	638.81
510.009	645.91
510.464	660.71
510.919	678.21
511.375	678.51
511.83	701.91
512.285	718.01
512.74	754.71
513.195	770.51
513.65	760.31
514.105	749.01
514.56	775.41
515.015	790.81
515.47	807.11
515.925	772.41
516.38	771.81
516.835	786.51
517.29	776.51
517.745	767.01
518.2	746.01
518.655	743.21
519.109	728.91
519.564	723.81
520.019	717.81
520.474	713.71
520.928	721.61
521.383	707.51
521.838	689.61
522.292	700.01
522.747	698.21
523.201	691.61
523.656	683.61
524.11	677.01
524.565	668.41
525.019	665.91
525.474	695.11
525.928	687.41
526.382	683.81
526.837	682.41
527.291	677.51
527.745	685.71
528.2	678.11
528.654	680.01
529.108	671.71
529.562	680.11
530.016	674.11
530.47	680.61
530.925	680.31
531.379	688.91
531.833	691.91
532.287	686.41
532.741	693.51
533.195	695.61
533.649	696.91
534.103	707.31
534.556	698.81
535.01	701.61
535.464	699.41
535.918	707.11
536.372	717.11
536.826	704.11
537.279	701.51
537.733	702.01
538.187	702.61
538.64	695.41
539.094	712.41
539.548	718.61
540.001	698.21
540.455	714.41
540.908	715.31
541.362	713.91
541.815	722.11
542.269	734.61
542.722	737.41
543.175	753.41
543.629	749.41
544.082	758.01
544.536	767.11
544.989	764.41
545.442	766.51
545.895	763.91
546.349	769.81
546.802	765.31
547.255	772.01
547.708	783.11
548.161	795.71
548.614	801.81
549.067	811.81
549.52	796.81
549.973	796.21
550.426	786.71
550.879	771.81
551.332	773.81
551.785	777.01
552.238	785.81
552.691	810.31
553.144	818.51
553.596	818.61
554.049	841.11
554.502	877.81
554.955	890.61
555.407	884.21
555.86	874.81
556.313	864.31
556.765	860.71
557.218	862.61
557.67	865.31
558.123	852.71
558.576	853.01
559.028	849.61
559.48	862.51
559.933	849.11
560.385	819.51
560.838	786.51
561.29	766.31
561.742	758.61
562.195	748.81
562.647	733.11
563.099	736.71
563.551	745.71
564.004	769.71
564.456	744.81
564.908	739.51
565.36	729.01
565.812	708.81
566.264	704.51
566.716	705.81
567.168	695.81
567.62	696.11
568.072	674.51
568.524	676.51
568.976	664.91
569.428	653.21
569.88	645.31
570.332	655.61
570.784	656.81
571.235	657.81
571.687	658.71
572.139	674.51
572.59	691.31
573.042	681.81
573.494	687.61
573.945	684.01
574.397	663.21
574.849	663.21
575.3	668.11
575.752	656.91
576.203	661.81
576.655	662.01
577.106	643.51
577.557	641.81
578.009	640.41
578.46	636.41
578.912	636.11
579.363	640.41
579.814	636.71
580.265	628.61
580.717	636.61
581.168	651.81
581.619	649.21
582.07	661.11
582.521	645.71
582.972	642.51
583.423	649.31
583.875	644.51
584.326	670.11
584.777	715.91
585.227	787.81
585.678	864.41
586.129	964.61
586.58	1022.31
587.031	1113.71
587.482	1256.71
587.933	1459.31
588.384	1264.41
588.834	936.81
589.285	765.11
589.736	752.21
590.186	731.31
590.637	739.71
591.088	711.71
591.538	703.51
591.989	692.81
592.439	688.01
592.89	694.91
593.34	666.31
593.791	686.51
594.241	672.51
594.692	682.21
595.142	669.91
595.593	669.71
596.043	675.81
596.493	681.01
596.943	683.71
597.394	681.31
597.844	674.71
598.294	692.91
598.744	712.21
599.195	739.41
599.645	767.51
600.095	814.41
600.545	861.21
600.995	916.41
601.445	974.21
601.895	1035.31
602.345	1072.51
602.795	1053.41
603.245	1017.21
603.695	957.31
604.145	915.81
604.594	871.21
605.044	809.91
605.494	765.51
605.944	719.31
606.393	700.01
606.843	694.11
607.293	691.51
607.743	690.41
608.192	705.01
608.642	723.71
609.091	732.61
609.541	728.41
609.99	728.71
610.44	722.81
610.889	684.71
611.339	669.01
611.788	657.41
612.238	665.01
612.687	675.01
613.136	669.11
613.586	688.91
614.035	696.51
614.484	715.91
614.933	715.21
615.383	698.91
615.832	697.81
616.281	678.61
616.73	645.31
617.179	623.01
617.628	604.11
618.077	604.71
618.526	586.71
618.975	587.81
619.424	576.71
619.873	582.91
620.322	581.71
620.771	570.01
621.22	564.91
621.669	558.01
622.118	549.81
622.567	534.11
623.015	535.51
623.464	531.11
623.913	527.81
624.361	520.81
624.81	515.01
625.259	520.71
625.707	524.11
626.156	514.61
626.604	533.11
627.053	533.71
627.501	529.11
627.95	531.51
628.398	537.21
628.847	526.71
629.295	524.71
629.744	541.11
630.192	533.81
630.64	531.01
631.089	533.41
631.537	539.51
631.985	537.21
632.433	556.61
632.881	565.01
633.33	614.81
633.778	597.11
634.226	528.01
634.674	530.81
635.122	540.51
635.57	560.01
636.018	587.51
636.466	546.91
636.914	528.31
637.362	531.41
637.81	535.01
638.258	537.81
638.705	537.11
639.153	570.91
639.601	572.31
640.049	602.11
640.497	633.91
640.944	645.91
641.392	597.81
641.84	570.51
642.287	543.01
642.735	531.11
643.182	536.51
643.63	532.41
644.078	536.61
644.525	559.51
644.973	557.41
645.42	561.21
645.867	573.61
646.315	590.01
646.762	612.21
647.21	643.41
647.657	664.51
648.104	703.41
648.551	717.01
648.999	773.31
649.446	846.61
649.893	929.21
650.34	1064.61
650.787	1278.21
651.234	1577.41
651.682	2052.91
652.129	2818.81
652.576	4055.11
653.023	6019.41
653.47	8227.51
653.917	10426.91
654.363	12124.21
654.81	13564.41
655.257	12887.91
655.704	8378.71
656.151	4960.31
656.598	3206.11
657.044	2264.71
657.491	1743.81
657.938	1387.81
658.385	1157.51
658.831	1003.61
659.278	901.61
659.724	788.11
660.171	734.51
660.618	664.31
661.064	636.61
661.511	620.21
661.957	603.11
662.404	602.31
662.85	607.41
663.296	581.71
663.743	522.51
664.189	499.51
664.635	486.21
665.082	485.81
665.528	479.01
665.974	480.21
666.42	476.51
666.867	467.91
667.313	446.41
667.759	447.41
668.205	439.61
668.651	449.61
669.097	455.31
669.543	470.31
669.989	433.81
670.435	419.11
670.881	412.81
671.327	411.21
671.773	424.01
672.219	455.31
672.665	499.21
673.11	536.31
673.556	575.41
674.002	622.21
674.448	604.21
674.893	513.91
675.339	438.81
675.785	403.71
676.23	389.31
676.676	358.61
677.122	347.11
677.567	344.11
678.013	333.71
678.458	330.31
678.904	327.81
679.349	316.61
679.794	318.61
680.24	322.11
680.685	315.81
681.131	323.41
681.576	318.91
682.021	327.21
682.466	321.51
682.912	316.11
683.357	322.71
683.802	350.31
684.247	375.11
684.692	409.81
685.137	455.51
685.583	488.21
686.028	518.61
686.473	477.91
686.918	402.21
687.363	385.01
687.807	355.31
688.252	335.61
688.697	323.61
689.142	311.91
689.587	306.41
690.032	303.61
690.477	307.01
690.921	320.41
691.366	347.31
691.811	373.31
692.255	396.81
692.7	412.71
693.145	456.11
693.589	622.01
694.034	1009.31
694.478	1393.21
694.923	1603.21
695.367	2104.31
695.812	1101.71
696.256	457.01
696.701	339.01
697.145	322.81
697.59	301.01
698.034	297.61
698.478	303.71
698.922	296.51
699.367	298.31
699.811	300.91
700.255	327.31
700.699	351.51
701.143	390.51
701.588	437.81
702.032	477.21
702.476	469.61
702.92	446.21
703.364	436.01
703.808	564.01
704.252	913.21
704.696	1296.91
705.14	1528.31
705.584	1976.91
706.027	978.91
706.471	479.11
706.915	360.41
707.359	326.91
707.803	296.81
708.246	288.61
708.69	287.31
709.134	290.81
709.577	278.91
710.021	294.91
710.465	289.11
710.908	280.41
711.352	270.41
711.795	284.31
712.239	320.11
712.682	348.21
713.126	372.81
713.569	425.81
714.012	338.61
714.456	303.81
714.899	276.01
715.342	249.51
715.786	240.21
716.229	239.81
716.672	232.31
717.115	218.61
717.558	231.11
718.002	226.21
718.445	240.71
718.888	262.81
719.331	267.81
719.774	283.91
720.217	278.91
720.66	260.41
721.103	243.51
721.546	228.91
721.989	223.91
722.432	206.91
722.874	224.31
723.317	203.21
723.76	219.61
724.203	236.71
724.645	289.21
725.088	391.31
725.531	513.01
725.974	585.21
726.416	497.51
726.859	280.21
727.301	221.11
727.744	215.11
728.187	215.71
728.629	221.21
729.071	224.11
729.514	232.31
729.956	245.41
730.399	259.81
730.841	263.31
731.283	248.51
731.726	242.51
732.168	234.61
732.61	242.21
733.053	259.21
733.495	286.91
733.937	325.81
734.379	356.71
734.821	397.11
735.263	488.51
735.705	736.71
736.148	1397.41
736.59	2324.81
737.032	2813.01
737.474	2293.41
737.916	739.11
738.357	387.61
738.799	298.11
739.241	269.71
739.683	259.21
740.125	260.61
740.567	273.41
741.008	285.01
741.45	285.11
741.892	287.31
742.334	315.91
742.775	327.31
743.217	305.71
743.658	243.81
744.1	232.21
744.542	236.51
744.983	278.21
745.425	312.41
745.866	309.81
746.307	254.91
746.749	257.41
747.19	288.91
747.632	398.11
748.073	761.41
748.514	1650.31
748.956	2589.21
749.397	3234.01
749.838	2673.21
750.279	2727.81
750.72	1361.11
751.162	495.71
751.603	291.21
752.044	227.81
752.485	197.91
752.926	190.91
753.367	185.51
753.808	183.11
754.249	170.41
754.69	167.41
755.131	161.91
755.572	168.41
756.013	157.31
756.453	163.81
756.894	171.71
757.335	174.61
757.776	180.11
758.216	175.81
758.657	179.61
759.098	183.71
759.538	202.01
759.979	238.81
760.42	329.51
760.86	616.71
761.301	1583.61
761.741	3939.21
762.182	5947.21
762.622	4216.41
763.063	1198.51
763.503	485.51
763.943	312.21
764.384	311.41
764.824	372.81
765.264	414.41
765.705	281.61
766.145	190.11
766.585	166.71
767.025	161.91
767.465	161.71
767.906	220.51
768.346	296.11
768.786	312.51
769.226	242.11
769.666	282.81
770.106	542.71
770.546	1361.41
770.986	2422.11
771.426	2188.61
771.866	726.31
772.306	296.41
772.745	190.41
773.185	162.01
773.625	159.11
774.065	154.61
774.505	174.51
774.944	272.31
775.384	595.91
775.824	1099.71
776.263	1096.51
776.703	469.61
777.142	200.81
777.582	138.11
778.021	127.01
778.461	127.81
778.9	126.21
779.34	123.61
779.779	102.41
780.219	102.51
780.658	98.71
781.097	102.01
781.537	98.31
781.976	106.01
782.415	94.71
782.855	92.51
783.294	92.01
783.733	97.51
784.172	100.51
784.611	98.61
785.05	90.61
785.489	101.01
785.928	111.31
786.367	112.81
786.806	101.21
787.245	116.11
787.684	125.91
788.123	134.11
788.562	121.91
789.001	121.21
789.44	109.91
789.879	104.11
790.317	108.51
790.756	110.91
791.195	115.01
791.634	129.21
792.072	183.91
792.511	314.31
792.95	870.21
793.388	1934.71
793.827	1799.21
794.265	620.41
794.704	254.41
795.142	167.71
795.581	139.81
796.019	129.41
796.458	119.71
796.896	109.91
797.334	119.21
797.773	146.21
798.211	195.31
798.649	388.31
799.087	905.71
799.526	1431.91
799.964	1800.91
800.402	1858.81
800.84	686.71
801.278	275.71
801.716	169.31
802.154	142.01
802.592	130.71
803.03	124.31
803.468	123.91
803.906	125.31
804.344	132.01
804.782	121.01
805.22	114.21
805.658	113.71
806.096	132.11
806.533	145.61
806.971	160.21
807.409	188.91
807.847	278.71
808.284	572.71
808.722	1644.11
809.16	3004.51
809.597	2776.41
810.035	4876.61
810.472	5410.51
810.91	1932.91
811.347	727.71
811.785	370.81
812.222	230.81
812.66	175.41
813.097	147.61
813.535	129.61
813.972	117.21
814.409	106.71
814.846	103.41
815.284	105.91
815.721	96.41
816.158	99.71
816.595	110.81
817.032	157.61
817.47	183.61
817.907	149.71
818.344	137.41
818.781	108.51
819.218	90.81
819.655	109.91
820.092	171.01
820.529	199.51
820.966	161.41
821.403	127.21
821.839	98.81
822.276	95.01
822.713	114.21
823.15	124.21
823.587	100.91
824.023	131.81
824.46	267.91
824.897	784.21
825.333	1239.21
825.77	529.71
826.206	208.81
826.643	126.81
827.08	86.11
827.516	74.01
827.953	74.61
828.389	75.81
828.825	66.41
829.262	69.91
829.698	55.71
830.135	57.11
830.571	58.51
831.007	60.41
831.443	55.21
831.88	52.41
832.316	61.01
832.752	60.01
833.188	56.91
833.624	62.41
834.06	55.31
834.497	60.71
834.933	70.21
835.369	63.91
835.805	55.11
836.241	75.91
836.677	74.41
837.112	78.31
837.548	90.51
837.984	120.71
838.42	170.51
838.856	424.11
839.292	1360.71
839.727	2126.11
840.163	970.71
840.599	818.71
841.034	1827.61
841.47	1970.61
841.906	707.81
842.341	299.21
842.777	209.41
843.212	293.91
843.648	287.21
844.083	141.01
844.519	88.71
844.954	73.81
845.39	54.61
845.825	61.81
846.261	54.71
846.696	52.01
847.131	46.91
847.566	55.41
848.002	53.31
848.437	48.81
848.872	57.21
849.307	52.71
849.742	70.41
850.177	159.51
850.613	486.91
851.048	793.21
851.483	355.51
851.918	139.61
852.353	75.81
852.788	57.11
853.223	52.51
853.657	46.41
854.092	48.51
854.527	40.21
854.962	38.41
855.397	40.31
855.832	47.71
856.266	45.01
856.701	39.41
857.136	34.81
857.57	41.21
858.005	47.41
858.44	55.71
858.874	37.81
859.309	48.01
859.743	29.71
860.178	42.41
860.612	35.31
861.047	52.11
861.481	64.81
861.915	65.51
862.35	45.41
862.784	29.91
863.218	38.31
863.653	32.21
864.087	46.71
864.521	52.41
864.955	59.11
865.39	137.01
865.824	161.21
866.258	107.81
866.692	150.71
867.126	169.21
867.56	99.31
867.994	50.71
868.428	35.01
868.862	45.51
869.296	52.01
869.73	55.91
870.164	56.61
870.598	46.61
871.031	35.01
871.465	28.41
871.899	28.71
872.333	21.51
872.766	21.81
873.2	24.11
873.634	25.91
874.067	27.31
874.501	28.21
874.935	36.31
875.368	29.51
875.802	25.11
876.235	17.31
876.669	24.91
877.102	19.21
877.535	26.11
877.969	27.51
878.402	23.11
878.836	18.61
879.269	22.91
879.702	19.21
880.135	14.11
880.569	18.81
881.002	30.01
881.435	21.61
881.868	18.21
882.301	19.11
882.734	17.51
883.167	20.31
883.601	18.51
884.034	24.91
884.467	16.51
884.899	14.11
885.332	14.61
885.765	11.71
886.198	18.51
886.631	15.81
887.064	22.71
887.497	23.11
887.929	25.31
888.362	14.81
888.795	14.01
889.228	14.71
889.66	23.21
890.093	18.71
890.526	14.71
890.958	22.91
891.391	18.91
891.823	21.21
892.256	13.61
892.688	13.51
893.121	16.01
893.553	21.21
893.985	20.31
894.418	16.41
894.85	9.51
895.282	18.41
895.715	14.71
896.147	20.71
896.579	17.81
897.011	13.51
897.444	12.01
897.876	12.71
898.308	19.51
898.74	8.41
899.172	9.51
899.604	21.81
900.036	15.81
900.468	12.41
900.9	14.31
901.332	17.01
901.764	11.31
902.196	21.61
902.628	23.01
903.06	15.91
903.491	30.31
903.923	21.41
904.355	20.21
904.787	21.71
905.218	25.81
905.65	22.81
906.082	13.71
906.513	13.71
906.945	14.71
907.376	15.51
907.808	16.71
908.239	19.41
908.671	23.11
909.102	20.11
909.534	18.61
909.965	46.21
910.397	84.21
910.828	286.91
911.259	448.91
911.691	204.01
912.122	101.31
912.553	48.21
912.984	30.11
913.415	27.21
913.847	28.41
914.278	14.31
914.709	13.11
915.14	20.51
915.571	13.31
916.002	12.01
916.433	19.81
916.864	12.81
917.295	12.71
917.726	20.61
918.157	11.11
918.587	32.31
919.018	13.51
919.449	21.51
919.88	23.01
920.311	27.91
920.741	43.21
921.172	156.71
921.603	142.11
922.033	68.21
922.464	41.71
922.895	17.11
923.325	20.31
923.756	10.91
924.186	19.21
924.617	28.41
925.047	35.71
925.478	56.01
925.908	40.71
926.338	22.21
926.769	21.61
927.199	22.31
927.629	8.21
928.06	15.61
928.49	14.71
928.92	14.61
929.35	10.81
929.78	12.51
930.21	10.41
930.641	4.31
931.071	12.61
931.501	1.01
931.931	9.51
932.361	4.61
932.791	9.91
933.221	2.61
933.651	5.31
934.08	19.51
934.51	26.71
934.94	14.81
935.37	9.71
935.8	9.41
936.229	8.51
936.659	8.71
937.089	4.81
937.519	15.51
937.948	17.71
938.378	13.31
938.807	7.71
939.237	-0.59
939.666	11.21
940.096	1.81
940.525	5.81
940.955	3.31
941.384	4.71
941.814	-6.39
942.243	-3.09
942.672	9.71
943.102	2.01
943.531	0.11
943.96	3.51
944.39	7.61
944.819	1.81
945.248	6.41
945.677	2.01
946.106	1.01
946.535	3.61
946.964	-1.39
947.393	5.61
947.822	3.61
948.251	-4.59
948.68	11.61
949.109	2.11
949.538	7.61
949.967	-3.79
950.396	-1.09
950.825	-0.89
951.254	-1.99
951.682	-3.89
952.111	8.31
952.54	4.81
952.969	-3.79
953.397	-6.49
953.826	4.31
954.254	0.31
954.683	4.21
955.112	-1.89
955.54	-1.79
955.969	4.81
956.397	6.41
956.826	-0.09
957.254	8.71
957.682	5.71
958.111	7.91
958.539	-4.29
958.967	5.71
959.396	-4.89
959.824	0.91
960.252	1.11
960.68	-3.49
961.109	-0.69
961.537	-3.09
961.965	2.51
962.393	-3.59
962.821	-3.09
963.249	2.81
963.677	4.71
964.105	2.61
964.533	38.11
964.961	39.41
965.389	20.51
965.817	6.51
966.245	5.01
966.672	0.81
967.1	-3.99
967.528	4.21
967.956	-7.29
968.383	3.01
968.811	3.51
969.239	-0.19
969.666	-3.59
970.094	4.31
970.522	4.31
970.949	1.81
971.377	0.21
971.804	-9.29
972.232	3.81
972.659	-2.39
973.087	-6.49
973.514	-2.99
973.941	-9.49
974.369	14.71
974.796	3.11
975.223	0.41
975.651	0.81
976.078	3.51
976.505	-2.59
976.932	5.01
977.359	17.31
977.786	14.31
978.214	-1.89
978.641	-10.99
979.068	0.61
979.495	-7.09
979.922	0.31
980.349	-1.29
980.776	10.61
981.202	0.91
981.629	4.01
982.056	3.31
982.483	-1.29
982.91	0.71
983.337	-6.39
983.763	7.61
984.19	1.81
984.617	2.31
985.043	-1.69
985.47	-3.09
985.897	-3.99
986.323	-10.39
986.75	5.41
987.176	5.01
987.603	2.21
988.029	-1.59
988.456	-3.59
988.882	0.21
989.308	-3.59
989.735	-0.19
990.161	1.91
990.587	-2.99
991.014	1.91
991.44	8.41
991.866	0.51
992.292	-3.69
992.719	3.51
993.145	4.01
993.571	-6.19
993.997	1.21
994.423	4.41
994.849	-1.09
995.275	-0.19
995.701	6.01
996.127	-1.99
996.553	3.81
996.979	-1.89
997.405	-3.79
997.83	-2.99
998.256	-3.59
998.682	-4.09
999.108	-5.09
999.534	2.91
999.959	-0.19
1000.385	-7.59
1000.811	-1.29
1001.236	-5.69
1001.662	-3.59
1002.087	-8.69
1002.513	5.41
1002.938	6.71
1003.364	4.71
1003.789	9.91
1004.215	7.51
1004.64	-1.39
1005.066	3.61
1005.491	-7.89
1005.916	2.11
1006.342	-4.89
1006.767	-8.89
1007.192	1.01
1007.617	-6.49
1008.042	-6.99
1008.468	-2.59
1008.893	-2.39
1009.318	-3.79
1009.743	0.11
1010.168	0.21
1010.593	5.51
1011.018	-8.09
1011.443	-1.19
1011.868	2.11
1012.293	2.31
1012.718	-1.59
1013.143	-4.69
1013.567	7.41
1013.992	-6.29
1014.417	-6.39
1014.842	-0.39
1015.267	-4.69
1015.691	-4.69
1016.116	6.41
1016.541	-0.79
1016.965	2.71
1017.39	4.21
1017.814	-0.99
1018.239	-1.49
1018.663	-9.99
1019.088	-10.09
1019.512	-2.29
1019.937	0.01
1020.361	-2.29
1020.785	-9.09
1021.21	1.31
1021.634	-3.89
1022.058	0.81
1022.483	5.31
1022.907	-4.09
1023.331	-5.69
1023.755	0.41
1024.179	1.11
1024.604	-6.19
1025.028	-3.79
1025.452	-4.79
1025.876	-3.09
1026.3	-0.29
1026.724	-7.99
1027.148	-3.29
1027.572	-5.29
1027.996	-1.89
1028.42	4.71
1028.843	-4.59
1029.267	-3.19
1029.691	1.21
1030.115	-6.29
1030.539	-4.49
1030.962	-7.99
1031.386	-2.19
1031.81	-5.29
1032.233	-2.29
1032.657	-2.09
1033.08	-3.39
1033.504	-1.99
1033.927	-1.39
1034.351	5.31
1034.774	-7.99
1035.198	-1.09
1035.621	-6.09
1036.045	-7.29
1036.468	-0.49
1036.891	-8.49
1037.315	-9.49
1037.738	-8.59
1038.161	3.01
1038.584	-10.59
1039.008	-3.89
1039.431	-0.59
1039.854	-5.29
1040.277	-5.29
1040.7	-8.69
1041.123	0.31
1041.546	-7.29
1041.969	-3.39
1042.392	-8.89
1042.815	6.01
1043.238	-0.09
1043.661	4.11
1044.084	-4.69
1044.507	-5.79
1044.93	-1.09
1045.352	-1.49
1045.775	5.31
1046.198	-0.09
1046.621	-0.29
1047.043	-1.09
1047.466	10.71
1047.889	-7.19
1048.311	-5.99
1048.734	5.61
1049.156	10.01
1049.579	2.21
1050.001	0.01
1050.424	2.81
1050.846	-5.69
1051.269	2.11
1051.691	-6.49
1052.113	-4.49
1052.536	2.51
1052.958	-5.79
1053.38	-2.89
1053.802	-12.09
1054.225	4.61
1054.647	-4.39
1055.069	1.61
1055.491	11.61
1055.913	-2.59
1056.335	-0.69
1056.757	-4.39
1057.179	-7.29
1057.601	-5.89
1058.023	-0.99
1058.445	-2.29
1058.867	0.91
1059.289	-4.79
1059.711	-0.79
1060.133	-7.29
1060.555	1.61
1060.976	-4.89
1061.398	-7.99
1061.82	-6.39
1062.241	-7.49
1062.663	0.41
1063.085	-7.99
1063.506	-1.59
1063.928	-5.39
1064.35	-3.59
1064.771	-6.49
1065.193	-3.39
1065.614	-8.69
1066.035	1.81
1066.457	-2.39
1066.878	3.11
1067.3	-5.69
1067.721	-5.79
1068.142	-5.59
1068.564	-1.99
1068.985	1.61
1069.406	0.71
1069.827	-3.69
1070.248	0.81
1070.67	-2.19
1071.091	-1.09
1071.512	-4.19
1071.933	-1.49
1072.354	-1.99
1072.775	-1.79
1073.196	-3.99
1073.617	-5.19
1074.038	-2.89
1074.459	-3.09
1074.88	-5.59
1075.3	-2.99
1075.721	-6.29
1076.142	2.91
1076.563	0.71
1076.983	-7.19
1077.404	-7.29
1077.825	-7.59
1078.246	-10.79
1078.666	-6.69
1079.087	-6.89
1079.507	-9.09
1079.928	-1.79
1080.348	3.11
1080.769	-3.29
1081.189	-1.49
1081.61	-1.09
1082.03	-3.99
1082.451	-5.29
1082.871	-1.69
1083.291	-4.49
1083.711	-7.59
1084.132	-9.29
1084.552	-1.69
1084.972	-2.39
1085.392	-6.59
1085.813	-5.89
1086.233	-4.09
1086.653	-4.39
1087.073	1.81
1087.493	-4.99
1087.913	-4.99
1088.333	-3.29
1088.753	-6.99
1089.173	-2.59
1089.593	-4.49
1090.013	1.91
1090.433	3.61
1090.852	-2.39
1091.272	0.71
1091.692	-2.19
1092.112	0.21
1092.531	-5.19
1092.951	-8.09
1093.371	-1.39
1093.79	2.01
1094.21	-3.29
1094.63	-5.59
1095.049	-6.19
1095.469	-1.59
1095.888	1.11
1096.308	0.81
1096.727	3.31
1097.146	-7.29
1097.566	-0.19
1097.985	-7.99
1098.405	-0.59
1098.824	-6.89
1099.243	-5.59
1099.662	-11.09
1100.082	-4.29
1100.501	-4.59
1100.92	-2.29
1101.339	-7.09
1101.758	-5.09
