Data from 20171114-ORNL-Ar_H_NY_Subt18_08-05-15-493.txt Node
Date: Tue Nov 14 08:05:15 EST 2017
User: Ender
Spectrometer: HR+D1039
Trigger mode: 0
Integration Time (sec): 2.730000E-2
Scans to average: 10
Electric dark correction enabled: true
Nonlinearity correction enabled: false
Boxcar width: 0
XAxis mode: Wavelengths
Number of Pixels in Spectrum: 2048
>>>>>Begin Spectral Data<<<<<
187.836	-2.51
188.309	-2.51
188.782	-2.51
189.255	0.69
189.728	-0.21
190.201	7.89
190.674	1.99
191.147	5.79
191.619	-10.31
192.092	-2.31
192.565	6.49
193.038	-3.71
193.511	-2.31
193.984	-1.41
194.456	0.69
194.929	-3.61
195.402	0.99
195.874	1.79
196.347	-0.51
196.82	-4.91
197.292	3.69
197.765	2.39
198.237	-9.31
198.71	-3.01
199.182	-3.71
199.655	2.39
200.127	0.49
200.6	-0.01
201.072	-0.21
201.544	-5.51
202.017	-5.11
202.489	4.29
202.961	-1.21
203.433	-1.61
203.906	-7.41
204.378	-7.51
204.85	2.69
205.322	-10.51
205.794	4.99
206.266	-3.21
206.739	-7.61
207.211	-0.71
207.683	-6.31
208.155	-0.91
208.627	-4.11
209.099	-3.31
209.57	-5.51
210.042	-10.51
210.514	-6.11
210.986	-4.01
211.458	-10.91
211.93	-0.51
212.402	4.29
212.873	-4.41
213.345	-10.71
213.817	-8.61
214.288	-0.61
214.76	-6.81
215.232	2.19
215.703	-6.41
216.175	-0.51
216.646	-3.31
217.118	-5.21
217.589	-0.81
218.061	-3.31
218.532	-2.31
219.004	-1.11
219.475	-10.21
219.946	-1.31
220.418	-4.01
220.889	3.69
221.36	3.29
221.832	-4.01
222.303	-6.91
222.774	-0.51
223.245	-5.21
223.717	-7.31
224.188	-4.21
224.659	-3.71
225.13	-7.11
225.601	-0.61
226.072	6.79
226.543	1.89
227.014	-2.91
227.485	-1.41
227.956	-3.61
228.427	-4.91
228.898	1.69
229.369	3.99
229.839	-0.81
230.31	-5.21
230.781	2.89
231.252	-3.71
231.722	-9.21
232.193	-2.41
232.664	-0.91
233.135	1.19
233.605	1.89
234.076	-5.21
234.546	4.69
235.017	6.29
235.487	0.59
235.958	-3.91
236.428	1.39
236.899	5.79
237.369	2.59
237.84	1.79
238.31	7.19
238.78	6.69
239.251	4.09
239.721	0.29
240.191	2.89
240.662	-1.11
241.132	-1.21
241.602	-1.71
242.072	2.99
242.542	14.29
243.013	-2.51
243.483	1.29
243.953	7.39
244.423	0.89
244.893	1.69
245.363	-1.71
245.833	0.59
246.303	-1.81
246.773	9.99
247.243	7.59
247.712	2.09
248.182	8.19
248.652	5.19
249.122	-0.31
249.592	12.49
250.061	26.69
250.531	36.39
251.001	16.39
251.471	20.09
251.94	21.09
252.41	5.99
252.879	5.99
253.349	15.79
253.818	15.19
254.288	12.89
254.757	6.89
255.227	3.29
255.696	1.59
256.166	9.29
256.635	7.09
257.105	10.39
257.574	7.39
258.043	5.09
258.513	11.69
258.982	16.69
259.451	5.99
259.92	16.09
260.389	10.69
260.859	16.49
261.328	17.99
261.797	25.19
262.266	9.79
262.735	17.09
263.204	2.69
263.673	3.99
264.142	4.69
264.611	-5.21
265.08	-1.31
265.549	2.89
266.018	5.59
266.487	1.19
266.955	-3.81
267.424	0.69
267.893	7.89
268.362	5.09
268.83	5.39
269.299	17.79
269.768	5.79
270.236	8.99
270.705	5.69
271.174	7.49
271.642	12.89
272.111	13.89
272.579	17.59
273.048	26.29
273.516	29.89
273.985	27.59
274.453	23.69
274.922	23.09
275.39	10.19
275.858	6.89
276.327	13.29
276.795	23.59
277.263	17.79
277.731	35.49
278.2	58.99
278.668	63.09
279.136	49.79
279.604	18.79
280.072	16.59
280.54	10.69
281.008	12.49
281.477	16.79
281.945	14.59
282.413	18.29
282.881	17.59
283.348	12.49
283.816	14.39
284.284	17.89
284.752	23.69
285.22	13.79
285.688	19.99
286.156	25.79
286.623	51.29
287.091	53.89
287.559	33.29
288.026	19.09
288.494	19.79
288.962	7.69
289.429	10.09
289.897	20.69
290.364	15.09
290.832	19.59
291.3	17.69
291.767	24.49
292.234	18.29
292.702	10.09
293.169	23.19
293.637	29.79
294.104	28.39
294.571	12.89
295.039	7.39
295.506	12.99
295.973	23.69
296.44	13.99
296.908	21.09
297.375	20.29
297.842	23.79
298.309	18.59
298.776	15.19
299.243	26.79
299.71	20.29
300.177	26.59
300.644	26.79
301.111	23.89
301.578	19.69
302.045	23.99
302.512	23.99
302.979	24.39
303.446	20.99
303.913	22.79
304.379	22.59
304.846	31.29
305.313	26.09
305.78	24.49
306.246	26.89
306.713	31.59
307.18	33.69
307.646	35.19
308.113	30.39
308.579	33.59
309.046	31.19
309.512	30.49
309.979	20.49
310.445	33.79
310.912	30.59
311.378	33.09
311.845	33.49
312.311	36.59
312.777	39.59
313.244	31.99
313.71	41.19
314.176	38.19
314.642	39.39
315.109	38.49
315.575	42.09
316.041	38.79
316.507	32.59
316.973	38.99
317.439	31.89
317.905	41.29
318.371	38.89
318.837	40.69
319.303	33.89
319.769	43.29
320.235	42.29
320.701	41.49
321.167	44.29
321.633	36.99
322.099	44.49
322.564	51.79
323.03	51.89
323.496	44.19
323.962	39.19
324.427	39.79
324.893	48.99
325.359	41.19
325.824	44.19
326.29	46.99
326.755	45.49
327.221	48.69
327.686	46.39
328.152	50.69
328.617	47.69
329.083	45.49
329.548	53.49
330.014	49.39
330.479	45.39
330.944	49.09
331.41	46.89
331.875	48.39
332.34	48.39
332.805	44.49
333.271	51.09
333.736	51.49
334.201	48.19
334.666	57.49
335.131	52.59
335.596	58.89
336.061	53.49
336.526	47.59
336.991	48.69
337.456	59.09
337.921	52.39
338.386	42.59
338.851	51.89
339.316	47.49
339.781	48.39
340.246	57.09
340.711	44.39
341.175	50.69
341.64	51.39
342.105	48.29
342.569	62.59
343.034	59.89
343.499	55.99
343.963	59.89
344.428	65.49
344.893	59.69
345.357	65.89
345.822	59.79
346.286	63.99
346.751	79.79
347.215	67.29
347.679	81.99
348.144	101.79
348.608	84.99
349.073	73.49
349.537	73.59
350.001	84.79
350.465	90.09
350.93	75.89
351.394	87.59
351.858	74.59
352.322	94.39
352.786	88.49
353.25	104.59
353.715	114.09
354.179	100.89
354.643	121.09
355.107	129.49
355.571	108.29
356.035	102.19
356.498	121.69
356.962	125.69
357.426	137.49
357.89	124.89
358.354	94.79
358.818	83.69
359.281	81.99
359.745	79.69
360.209	73.29
360.673	84.39
361.136	88.19
361.6	80.39
362.064	86.29
362.527	85.69
362.991	95.99
363.454	82.89
363.918	78.19
364.381	81.59
364.845	85.09
365.308	89.29
365.772	84.99
366.235	87.09
366.698	80.89
367.162	92.69
367.625	91.99
368.088	84.09
368.552	93.39
369.015	90.69
369.478	93.89
369.941	101.59
370.404	99.89
370.867	103.79
371.331	103.89
371.794	117.69
372.257	113.39
372.72	117.99
373.183	107.69
373.646	109.39
374.109	103.99
374.572	106.69
375.035	115.59
375.497	104.49
375.96	112.69
376.423	113.79
376.886	116.09
377.349	109.09
377.811	104.69
378.274	106.19
378.737	110.49
379.199	107.69
379.662	118.79
380.125	115.29
380.587	117.89
381.05	122.99
381.512	126.39
381.975	131.59
382.437	127.59
382.9	128.99
383.362	135.59
383.825	137.79
384.287	141.99
384.75	139.99
385.212	136.59
385.674	145.69
386.136	136.09
386.599	130.09
387.061	125.69
387.523	129.89
387.985	134.29
388.447	142.19
388.91	146.79
389.372	160.89
389.834	150.59
390.296	139.29
390.758	157.09
391.22	166.29
391.682	203.99
392.144	292.49
392.606	231.49
393.068	170.49
393.529	166.99
393.991	151.89
394.453	150.39
394.915	154.99
395.377	195.39
395.838	205.69
396.3	158.69
396.762	142.39
397.224	131.99
397.685	134.69
398.147	125.89
398.608	133.69
399.07	123.39
399.531	139.19
399.993	140.89
400.454	152.99
400.916	145.59
401.377	148.19
401.839	152.39
402.3	150.99
402.762	176.19
403.223	174.99
403.684	170.19
404.145	158.59
404.607	158.69
405.068	162.49
405.529	163.49
405.99	188.29
406.451	172.69
406.913	172.59
407.374	166.99
407.835	154.29
408.296	160.39
408.757	175.99
409.218	188.59
409.679	177.89
410.14	173.39
410.601	178.39
411.062	184.99
411.522	188.89
411.983	190.49
412.444	174.39
412.905	175.69
413.366	188.09
413.826	195.69
414.287	218.29
414.748	260.29
415.208	242.29
415.669	211.99
416.13	197.69
416.59	193.19
417.051	203.89
417.511	218.39
417.972	231.09
418.432	243.99
418.893	282.89
419.353	250.99
419.814	201.09
420.274	182.09
420.734	181.49
421.195	192.89
421.655	192.89
422.115	187.89
422.576	186.99
423.036	193.19
423.496	199.39
423.956	206.69
424.416	226.99
424.876	263.89
425.336	249.49
425.797	248.19
426.257	253.39
426.717	232.59
427.177	232.79
427.637	221.39
428.097	236.39
428.556	240.79
429.016	264.39
429.476	263.99
429.936	273.49
430.396	282.29
430.856	289.89
431.315	306.89
431.775	347.69
432.235	375.39
432.694	349.49
433.154	368.59
433.614	384.09
434.073	335.09
434.533	284.89
434.993	274.69
435.452	281.29
435.912	303.99
436.371	287.79
436.83	284.19
437.29	266.79
437.749	243.69
438.209	243.49
438.668	267.59
439.127	286.69
439.587	268.29
440.046	250.79
440.505	266.39
440.964	273.49
441.424	315.39
441.883	304.39
442.342	255.09
442.801	212.39
443.26	219.69
443.719	215.29
444.178	212.79
444.637	211.09
445.096	220.49
445.555	217.39
446.014	219.29
446.473	223.59
446.932	233.19
447.391	225.69
447.849	228.69
448.308	218.29
448.767	216.29
449.226	230.59
449.685	237.09
450.143	245.89
450.602	234.49
451.061	229.49
451.519	230.69
451.978	222.59
452.436	229.09
452.895	238.59
453.353	246.19
453.812	238.99
454.27	236.79
454.729	239.09
455.187	238.39
455.646	248.79
456.104	241.59
456.562	259.49
457.021	262.79
457.479	263.49
457.937	271.09
458.395	259.89
458.854	247.29
459.312	253.59
459.77	272.19
460.228	251.79
460.686	241.59
461.144	242.49
461.602	242.19
462.06	240.09
462.518	251.79
462.976	256.59
463.434	253.19
463.892	266.49
464.35	270.39
464.808	289.79
465.266	265.69
465.724	265.29
466.181	274.29
466.639	258.69
467.097	284.19
467.555	303.39
468.012	304.79
468.47	311.79
468.928	326.69
469.385	341.69
469.843	348.59
470.3	343.29
470.758	358.99
471.215	379.19
471.673	401.79
472.13	397.89
472.588	411.89
473.045	369.49
473.503	378.89
473.96	389.59
474.417	400.19
474.875	434.79
475.332	471.09
475.789	457.79
476.246	468.29
476.704	488.09
477.161	509.09
477.618	517.49
478.075	566.79
478.532	614.59
478.989	693.19
479.446	801.99
479.903	772.79
480.36	805.69
480.817	861.49
481.274	968.29
481.731	1069.59
482.188	1160.69
482.645	1306.19
483.102	1418.29
483.558	1548.29
484.015	1597.79
484.472	1574.99
484.929	1524.29
485.385	1469.59
485.842	1448.69
486.299	1369.59
486.755	1288.39
487.212	1082.19
487.668	918.99
488.125	853.89
488.582	784.29
489.038	749.19
489.494	706.19
489.951	687.59
490.407	663.69
490.864	659.59
491.32	646.69
491.776	642.29
492.233	644.09
492.689	612.19
493.145	603.09
493.602	592.89
494.058	616.29
494.514	613.09
494.97	634.19
495.426	652.89
495.882	627.89
496.338	611.29
496.794	626.29
497.251	626.89
497.707	640.89
498.163	638.99
498.618	648.89
499.074	645.69
499.53	677.69
499.986	672.69
500.442	663.69
500.898	622.69
501.354	624.69
501.809	630.29
502.265	637.39
502.721	656.19
503.177	669.89
503.632	664.79
504.088	674.59
504.543	704.49
504.999	695.59
505.455	662.59
505.91	625.89
506.366	627.79
506.821	625.49
507.277	616.39
507.732	624.59
508.187	619.19
508.643	627.29
509.098	635.29
509.553	651.89
510.009	664.99
510.464	669.19
510.919	682.49
511.375	694.19
511.83	706.69
512.285	729.59
512.74	760.89
513.195	778.19
513.65	777.89
514.105	776.99
514.56	773.29
515.015	800.59
515.47	812.29
515.925	795.79
516.38	790.79
516.835	801.29
517.29	784.39
517.745	769.19
518.2	754.89
518.655	753.69
519.109	741.49
519.564	735.29
520.019	727.39
520.474	736.69
520.928	724.29
521.383	720.09
521.838	709.19
522.292	699.69
522.747	707.99
523.201	697.29
523.656	690.09
524.11	694.09
524.565	687.59
525.019	689.09
525.474	696.79
525.928	706.89
526.382	694.09
526.837	701.79
527.291	694.79
527.745	696.99
528.2	694.69
528.654	686.19
529.108	682.79
529.562	690.29
530.016	689.59
530.47	684.39
530.925	694.09
531.379	694.49
531.833	705.49
532.287	696.89
532.741	709.19
533.195	702.79
533.649	723.39
534.103	712.39
534.556	711.99
535.01	711.79
535.464	711.89
535.918	719.39
536.372	717.29
536.826	713.49
537.279	704.99
537.733	704.09
538.187	716.89
538.64	707.89
539.094	718.99
539.548	728.99
540.001	723.69
540.455	719.89
540.908	724.59
541.362	737.89
541.815	745.29
542.269	750.79
542.722	751.59
543.175	762.89
543.629	761.19
544.082	781.29
544.536	776.99
544.989	771.69
545.442	779.09
545.895	781.19
546.349	777.59
546.802	778.59
547.255	793.19
547.708	803.69
548.161	807.69
548.614	807.09
549.067	817.69
549.52	819.59
549.973	810.19
550.426	802.29
550.879	786.29
551.332	786.79
551.785	796.49
552.238	800.69
552.691	813.59
553.144	826.79
553.596	845.09
554.049	848.69
554.502	887.19
554.955	902.49
555.407	887.79
555.86	892.19
556.313	883.49
556.765	874.99
557.218	867.89
557.67	881.19
558.123	865.99
558.576	864.89
559.028	877.59
559.48	878.29
559.933	868.39
560.385	828.89
560.838	798.19
561.29	776.69
561.742	765.19
562.195	741.29
562.647	752.99
563.099	756.49
563.551	760.09
564.004	776.09
564.456	757.49
564.908	750.19
565.36	742.29
565.812	721.39
566.264	720.79
566.716	717.49
567.168	703.39
567.62	713.99
568.072	692.29
568.524	687.89
568.976	680.59
569.428	665.89
569.88	654.69
570.332	663.59
570.784	659.99
571.235	672.99
571.687	687.19
572.139	688.39
572.59	702.39
573.042	699.79
573.494	698.89
573.945	697.79
574.397	684.29
574.849	686.69
575.3	685.79
575.752	675.09
576.203	665.29
576.655	679.89
577.106	661.59
577.557	648.09
578.009	658.19
578.46	657.99
578.912	647.89
579.363	656.99
579.814	653.49
580.265	643.89
580.717	641.09
581.168	661.79
581.619	661.69
582.07	664.19
582.521	650.09
582.972	649.99
583.423	660.19
583.875	666.49
584.326	673.39
584.777	725.09
585.227	796.29
585.678	886.59
586.129	983.29
586.58	1042.49
587.031	1130.19
587.482	1287.29
587.933	1457.49
588.384	1262.19
588.834	944.29
589.285	781.99
589.736	772.59
590.186	763.69
590.637	746.09
591.088	728.49
591.538	718.39
591.989	702.09
592.439	711.39
592.89	696.29
593.34	698.29
593.791	694.29
594.241	689.29
594.692	696.29
595.142	686.19
595.593	673.09
596.043	687.69
596.493	693.99
596.943	695.89
597.394	702.59
597.844	697.29
598.294	714.09
598.744	728.89
599.195	758.39
599.645	786.19
600.095	833.69
600.545	873.19
600.995	930.09
601.445	992.29
601.895	1061.09
602.345	1105.89
602.795	1083.79
603.245	1039.69
603.695	981.19
604.145	933.19
604.594	885.59
605.044	834.89
605.494	764.79
605.944	736.29
606.393	719.69
606.843	696.29
607.293	701.59
607.743	710.29
608.192	723.89
608.642	729.89
609.091	747.99
609.541	740.99
609.99	746.99
610.44	735.59
610.889	702.19
611.339	684.39
611.788	667.79
612.238	680.99
612.687	697.69
613.136	707.09
613.586	710.89
614.035	704.39
614.484	728.59
614.933	727.59
615.383	719.79
615.832	727.39
616.281	699.29
616.73	671.19
617.179	655.99
617.628	627.79
618.077	609.49
618.526	597.89
618.975	596.39
619.424	588.49
619.873	599.39
620.322	594.49
620.771	582.39
621.22	583.49
621.669	571.59
622.118	567.29
622.567	559.39
623.015	558.09
623.464	548.69
623.913	546.39
624.361	528.09
624.81	533.39
625.259	540.09
625.707	532.69
626.156	536.89
626.604	541.39
627.053	545.29
627.501	536.69
627.95	546.29
628.398	548.69
628.847	544.39
629.295	544.69
629.744	551.89
630.192	547.59
630.64	534.39
631.089	533.99
631.537	558.59
631.985	565.09
632.433	564.89
632.881	572.19
633.33	632.09
633.778	605.19
634.226	538.29
634.674	539.09
635.122	545.39
635.57	569.49
636.018	588.29
636.466	560.29
636.914	526.89
637.362	537.99
637.81	550.59
638.258	551.49
638.705	552.69
639.153	584.99
639.601	575.79
640.049	603.29
640.497	634.29
640.944	669.19
641.392	604.99
641.84	580.49
642.287	557.69
642.735	547.79
643.182	548.09
643.63	545.69
644.078	563.09
644.525	561.99
644.973	566.79
645.42	576.69
645.867	587.99
646.315	609.89
646.762	632.29
647.21	656.79
647.657	681.79
648.104	715.79
648.551	731.69
648.999	784.59
649.446	878.19
649.893	947.79
650.34	1096.19
650.787	1312.99
651.234	1630.09
651.682	2102.09
652.129	2901.79
652.576	4158.19
653.023	6153.19
653.47	8461.89
653.917	10644.49
654.363	12395.39
654.81	13791.59
655.257	13152.99
655.704	8596.69
656.151	5056.99
656.598	3269.49
657.044	2313.39
657.491	1778.49
657.938	1416.79
658.385	1190.29
658.831	1027.99
659.278	923.99
659.724	814.29
660.171	759.79
660.618	687.89
661.064	645.29
661.511	626.29
661.957	615.79
662.404	614.09
662.85	617.19
663.296	579.59
663.743	531.09
664.189	521.99
664.635	510.49
665.082	496.39
665.528	505.39
665.974	493.99
666.42	485.89
666.867	478.89
667.313	464.49
667.759	455.39
668.205	454.99
668.651	463.89
669.097	461.19
669.543	473.59
669.989	448.59
670.435	430.39
670.881	412.99
671.327	416.99
671.773	448.49
672.219	462.99
672.665	513.79
673.11	553.29
673.556	592.49
674.002	637.69
674.448	616.79
674.893	517.79
675.339	452.79
675.785	420.89
676.23	398.99
676.676	366.89
677.122	355.69
677.567	359.59
678.013	346.79
678.458	339.79
678.904	336.39
679.349	325.99
679.794	337.89
680.24	327.59
680.685	319.09
681.131	324.89
681.576	326.09
682.021	330.49
682.466	326.99
682.912	324.59
683.357	325.19
683.802	354.29
684.247	381.89
684.692	429.49
685.137	468.69
685.583	505.79
686.028	522.39
686.473	485.09
686.918	411.89
687.363	391.59
687.807	362.29
688.252	347.79
688.697	328.69
689.142	317.39
689.587	308.39
690.032	295.39
690.477	314.29
690.921	326.49
691.366	366.99
691.811	381.49
692.255	401.89
692.7	428.99
693.145	462.79
693.589	632.29
694.034	1042.69
694.478	1439.29
694.923	1642.39
695.367	2137.29
695.812	1132.39
696.256	467.89
696.701	353.49
697.145	321.79
697.59	314.89
698.034	294.29
698.478	302.29
698.922	303.59
699.367	316.19
699.811	315.59
700.255	331.19
700.699	359.49
701.143	397.19
701.588	447.79
702.032	484.09
702.476	480.09
702.92	458.19
703.364	458.19
703.808	584.29
704.252	940.09
704.696	1342.79
705.14	1572.79
705.584	2011.59
706.027	1006.29
706.471	487.29
706.915	374.49
707.359	330.89
707.803	296.49
708.246	290.09
708.69	287.99
709.134	296.59
709.577	288.79
710.021	295.39
710.465	291.39
710.908	282.79
711.352	279.79
711.795	289.69
712.239	327.29
712.682	354.59
713.126	384.49
713.569	437.89
714.012	342.89
714.456	302.39
714.899	276.89
715.342	255.49
715.786	249.79
716.229	244.89
716.672	237.39
717.115	239.99
717.558	240.29
718.002	233.69
718.445	245.49
718.888	269.99
719.331	268.69
719.774	290.99
720.217	288.09
720.66	265.59
721.103	250.39
721.546	234.19
721.989	231.69
722.432	208.99
722.874	220.19
723.317	213.49
723.76	217.79
724.203	238.99
724.645	297.69
725.088	409.79
725.531	524.29
725.974	611.09
726.416	512.29
726.859	290.49
727.301	233.29
727.744	220.69
728.187	216.59
728.629	218.99
729.071	219.89
729.514	247.09
729.956	256.09
730.399	262.59
730.841	275.49
731.283	251.69
731.726	243.59
732.168	239.19
732.61	245.19
733.053	269.09
733.495	293.09
733.937	331.69
734.379	366.19
734.821	408.19
735.263	496.49
735.705	767.59
736.148	1425.89
736.59	2358.59
737.032	2866.99
737.474	2341.19
737.916	754.99
738.357	395.59
738.799	307.29
739.241	279.19
739.683	267.39
740.125	276.49
740.567	273.59
741.008	295.89
741.45	293.29
741.892	288.79
742.334	320.69
742.775	336.19
743.217	315.29
743.658	253.09
744.1	236.69
744.542	250.49
744.983	286.89
745.425	317.59
745.866	319.79
746.307	264.79
746.749	263.39
747.19	301.09
747.632	415.29
748.073	789.49
748.514	1695.39
748.956	2656.59
749.397	3294.09
749.838	2742.29
750.279	2786.99
750.72	1405.09
751.162	509.59
751.603	300.69
752.044	241.59
752.485	202.19
752.926	199.79
753.367	182.49
753.808	183.09
754.249	181.09
754.69	174.09
755.131	176.69
755.572	163.29
756.013	161.19
756.453	162.79
756.894	171.19
757.335	175.79
757.776	175.19
758.216	192.69
758.657	189.19
759.098	184.89
759.538	216.29
759.979	237.29
760.42	335.39
760.86	636.19
761.301	1638.29
761.741	4023.89
762.182	6060.49
762.622	4295.29
763.063	1222.79
763.503	504.59
763.943	318.09
764.384	314.09
764.824	377.39
765.264	408.69
765.705	286.79
766.145	197.59
766.585	179.59
767.025	167.09
767.465	171.09
767.906	214.59
768.346	289.79
768.786	325.59
769.226	240.89
769.666	289.69
770.106	553.99
770.546	1405.29
770.986	2463.39
771.426	2237.49
771.866	731.69
772.306	298.89
772.745	199.49
773.185	159.89
773.625	149.89
774.065	153.49
774.505	185.99
774.944	279.89
775.384	608.39
775.824	1131.19
776.263	1118.29
776.703	473.19
777.142	203.29
777.582	151.69
778.021	127.69
778.461	128.19
778.9	129.79
779.34	119.59
779.779	100.59
780.219	97.69
780.658	104.59
781.097	108.19
781.537	117.69
781.976	100.69
782.415	92.79
782.855	95.59
783.294	97.29
783.733	92.49
784.172	102.59
784.611	94.79
785.05	100.29
785.489	103.29
785.928	110.59
786.367	109.79
786.806	112.49
787.245	123.99
787.684	128.49
788.123	135.99
788.562	119.59
789.001	116.89
789.44	110.29
789.879	109.39
790.317	110.59
790.756	117.49
791.195	117.19
791.634	133.39
792.072	186.29
792.511	321.89
792.95	899.69
793.388	1978.89
793.827	1839.69
794.265	631.29
794.704	258.09
795.142	171.79
795.581	142.69
796.019	126.49
796.458	120.99
796.896	113.79
797.334	128.29
797.773	145.59
798.211	198.59
798.649	386.79
799.087	929.69
799.526	1458.09
799.964	1853.49
800.402	1912.89
800.84	708.89
801.278	273.39
801.716	177.19
802.154	145.09
802.592	133.09
803.03	126.89
803.468	122.99
803.906	129.09
804.344	136.99
804.782	121.69
805.22	120.69
805.658	126.69
806.096	134.79
806.533	145.89
806.971	161.59
807.409	199.39
807.847	293.49
808.284	591.09
808.722	1690.09
809.16	3074.69
809.597	2851.49
810.035	4991.99
810.472	5521.99
810.91	1961.79
811.347	735.59
811.785	377.19
812.222	238.69
812.66	184.09
813.097	158.89
813.535	135.49
813.972	120.49
814.409	112.79
814.846	99.89
815.284	99.79
815.721	95.09
816.158	97.39
816.595	107.99
817.032	160.89
817.47	188.79
817.907	147.69
818.344	138.99
818.781	113.79
819.218	91.89
819.655	114.79
820.092	170.69
820.529	205.29
820.966	164.99
821.403	127.59
821.839	100.89
822.276	96.39
822.713	112.29
823.15	117.79
823.587	104.29
824.023	138.69
824.46	269.99
824.897	815.99
825.333	1275.29
825.77	543.29
826.206	207.59
826.643	123.39
827.08	93.29
827.516	79.29
827.953	73.79
828.389	78.39
828.825	65.49
829.262	62.99
829.698	61.79
830.135	62.79
830.571	56.49
831.007	55.49
831.443	60.09
831.88	61.59
832.316	57.49
832.752	57.79
833.188	64.29
833.624	60.99
834.06	59.29
834.497	66.19
834.933	66.99
835.369	67.39
835.805	58.49
836.241	68.09
836.677	78.09
837.112	88.19
837.548	99.79
837.984	123.59
838.42	183.89
838.856	445.39
839.292	1354.99
839.727	2182.89
840.163	1009.99
840.599	842.19
841.034	1864.19
841.47	1995.29
841.906	725.39
842.341	298.39
842.777	211.29
843.212	286.99
843.648	299.19
844.083	148.49
844.519	94.49
844.954	73.39
845.39	53.19
845.825	55.59
846.261	54.79
846.696	52.29
847.131	48.69
847.566	51.59
848.002	44.19
848.437	52.99
848.872	60.79
849.307	62.39
849.742	76.09
850.177	153.99
850.613	508.39
851.048	822.39
851.483	351.19
851.918	143.69
852.353	77.99
852.788	54.59
853.223	55.49
853.657	52.99
854.092	42.09
854.527	37.09
854.962	39.09
855.397	34.29
855.832	44.79
856.266	41.19
856.701	33.69
857.136	31.49
857.57	31.99
858.005	43.59
858.44	51.89
858.874	41.19
859.309	50.19
859.743	39.49
860.178	44.29
860.612	39.99
861.047	49.59
861.481	59.79
861.915	61.19
862.35	49.19
862.784	25.99
863.218	31.19
863.653	38.29
864.087	41.59
864.521	53.99
864.955	62.89
865.39	145.29
865.824	158.19
866.258	114.19
866.692	155.69
867.126	167.49
867.56	98.39
867.994	50.79
868.428	36.49
868.862	43.39
869.296	50.09
869.73	52.39
870.164	49.89
870.598	42.69
871.031	37.79
871.465	28.49
871.899	31.59
872.333	24.89
872.766	26.79
873.2	21.89
873.634	25.69
874.067	20.29
874.501	24.69
874.935	28.19
875.368	29.99
875.802	21.29
876.235	27.69
876.669	23.39
877.102	27.29
877.535	21.19
877.969	20.09
878.402	23.59
878.836	17.19
879.269	26.19
879.702	22.09
880.135	16.59
880.569	24.19
881.002	28.79
881.435	18.49
881.868	17.19
882.301	23.19
882.734	16.59
883.167	22.79
883.601	15.39
884.034	25.59
884.467	11.89
884.899	22.19
885.332	21.39
885.765	18.09
886.198	19.59
886.631	22.89
887.064	18.09
887.497	17.99
887.929	29.59
888.362	23.19
888.795	14.79
889.228	13.89
889.66	17.09
890.093	17.89
890.526	15.69
890.958	11.09
891.391	15.09
891.823	21.49
892.256	12.99
892.688	13.89
893.121	15.49
893.553	18.79
893.985	22.49
894.418	21.19
894.85	12.19
895.282	15.59
895.715	16.79
896.147	10.29
896.579	16.69
897.011	8.89
897.444	19.79
897.876	8.39
898.308	16.69
898.74	12.49
899.172	10.29
899.604	20.49
900.036	13.09
900.468	8.89
900.9	10.49
901.332	15.29
901.764	10.19
902.196	20.69
902.628	17.19
903.06	15.69
903.491	31.89
903.923	21.09
904.355	21.59
904.787	19.79
905.218	23.79
905.65	21.49
906.082	15.69
906.513	15.29
906.945	14.09
907.376	13.79
907.808	19.19
908.239	26.29
908.671	20.49
909.102	17.49
909.534	29.09
909.965	49.29
910.397	82.29
910.828	286.49
911.259	453.19
911.691	202.09
912.122	94.59
912.553	49.29
912.984	35.09
913.415	26.89
913.847	21.79
914.278	17.99
914.709	15.89
915.14	18.89
915.571	18.69
916.002	14.29
916.433	17.09
916.864	15.29
917.295	12.19
917.726	20.69
918.157	15.59
918.587	28.89
919.018	17.79
919.449	21.59
919.88	23.39
920.311	28.19
920.741	46.79
921.172	154.79
921.603	142.69
922.033	67.79
922.464	42.49
922.895	19.09
923.325	15.09
923.756	11.49
924.186	9.29
924.617	28.09
925.047	36.89
925.478	49.99
925.908	41.79
926.338	26.99
926.769	14.29
927.199	17.89
927.629	10.79
928.06	14.69
928.49	15.59
928.92	16.49
929.35	10.59
929.78	16.59
930.21	9.79
930.641	9.39
931.071	8.09
931.501	9.39
931.931	8.79
932.361	8.39
932.791	2.79
933.221	7.29
933.651	6.89
934.08	12.89
934.51	29.29
934.94	7.59
935.37	8.19
935.8	13.39
936.229	13.49
936.659	5.89
937.089	5.19
937.519	15.09
937.948	26.09
938.378	15.59
938.807	11.09
939.237	1.19
939.666	7.29
940.096	-0.41
940.525	2.49
940.955	6.39
941.384	4.29
941.814	-6.01
942.243	-5.61
942.672	7.59
943.102	-1.81
943.531	2.69
943.96	2.99
944.39	-0.41
944.819	2.79
945.248	5.89
945.677	-0.51
946.106	3.99
946.535	7.89
946.964	-0.31
947.393	3.19
947.822	2.69
948.251	-5.11
948.68	6.39
949.109	3.89
949.538	8.39
949.967	7.09
950.396	3.19
950.825	-2.21
951.254	-5.31
951.682	-1.91
952.111	-6.11
952.54	3.29
952.969	-0.61
953.397	-5.31
953.826	0.39
954.254	-0.31
954.683	4.29
955.112	-1.21
955.54	0.69
955.969	-1.31
956.397	1.19
956.826	-0.41
957.254	5.69
957.682	2.09
958.111	4.59
958.539	-0.81
958.967	0.69
959.396	1.89
959.824	-1.41
960.252	3.59
960.68	-2.21
961.109	-2.21
961.537	-2.21
961.965	1.29
962.393	1.79
962.821	-2.21
963.249	-5.81
963.677	9.49
964.105	1.49
964.533	40.59
964.961	41.99
965.389	25.99
965.817	8.49
966.245	-0.41
966.672	1.99
967.1	-6.81
967.528	4.39
967.956	4.19
968.383	4.59
968.811	0.39
969.239	-5.51
969.666	-7.01
970.094	2.89
970.522	0.19
970.949	-1.51
971.377	-5.31
971.804	4.19
972.232	-1.31
972.659	2.99
973.087	5.39
973.514	-5.01
973.941	-2.31
974.369	3.59
974.796	2.79
975.223	1.29
975.651	1.19
976.078	2.59
976.505	-5.61
976.932	7.89
977.359	18.29
977.786	15.69
978.214	6.89
978.641	-3.61
979.068	-0.11
979.495	0.19
979.922	-3.01
980.349	-5.21
980.776	-0.11
981.202	-1.51
981.629	-3.91
982.056	6.19
982.483	-5.01
982.91	0.89
983.337	-0.21
983.763	3.69
984.19	-3.71
984.617	-3.31
985.043	-6.81
985.47	-5.61
985.897	-6.41
986.323	-9.51
986.75	0.99
987.176	4.89
987.603	1.29
988.029	3.99
988.456	-2.81
988.882	3.69
989.308	-7.81
989.735	1.79
990.161	2.29
990.587	-1.11
991.014	4.49
991.44	5.09
991.866	-4.51
992.292	-10.51
992.719	-0.01
993.145	2.39
993.571	-10.81
993.997	-1.41
994.423	2.29
994.849	-4.41
995.275	2.39
995.701	-0.81
996.127	-1.41
996.553	1.19
996.979	-6.91
997.405	-2.81
997.83	-1.61
998.256	-8.11
998.682	-3.01
999.108	-7.11
999.534	1.89
999.959	-0.91
1000.385	-0.81
1000.811	-3.91
1001.236	-3.61
1001.662	-7.71
1002.087	-6.61
1002.513	1.29
1002.938	0.89
1003.364	-1.01
1003.789	0.59
1004.215	4.09
1004.64	4.79
1005.066	1.89
1005.491	5.29
1005.916	-3.11
1006.342	-3.51
1006.767	-5.61
1007.192	0.69
1007.617	-7.91
1008.042	-2.41
1008.468	-6.41
1008.893	-6.11
1009.318	-4.31
1009.743	-0.31
1010.168	5.79
1010.593	6.49
1011.018	-3.21
1011.443	-0.91
1011.868	1.79
1012.293	-1.51
1012.718	-2.11
1013.143	3.89
1013.567	0.09
1013.992	-7.01
1014.417	-9.71
1014.842	3.29
1015.267	-3.71
1015.691	-4.31
1016.116	0.79
1016.541	-6.21
1016.965	5.29
1017.39	5.39
1017.814	1.79
1018.239	-2.01
1018.663	-8.41
1019.088	-11.11
1019.512	-2.71
1019.937	-1.71
1020.361	-0.41
1020.785	-9.21
1021.21	-0.81
1021.634	-3.91
1022.058	-0.61
1022.483	6.59
1022.907	-7.21
1023.331	-0.81
1023.755	-1.51
1024.179	-2.11
1024.604	-10.71
1025.028	-5.61
1025.452	-2.51
1025.876	1.79
1026.3	-3.91
1026.724	-15.61
1027.148	-1.71
1027.572	-7.51
1027.996	-8.81
1028.42	-1.61
1028.843	1.29
1029.267	-8.81
1029.691	-2.71
1030.115	-5.11
1030.539	-9.11
1030.962	-1.01
1031.386	-10.71
1031.81	-0.91
1032.233	0.29
1032.657	-3.51
1033.08	-3.11
1033.504	-2.41
1033.927	-7.91
1034.351	1.19
1034.774	-1.31
1035.198	-7.31
1035.621	-7.81
1036.045	-6.81
1036.468	3.49
1036.891	-8.01
1037.315	-7.71
1037.738	-11.31
1038.161	1.79
1038.584	-10.01
1039.008	-7.31
1039.431	0.39
1039.854	-4.21
1040.277	-5.41
1040.7	-12.01
1041.123	-0.31
1041.546	-7.31
1041.969	-1.01
1042.392	-3.81
1042.815	-5.41
1043.238	0.69
1043.661	0.59
1044.084	-6.11
1044.507	-5.21
1044.93	-5.81
1045.352	-0.01
1045.775	0.69
1046.198	-2.31
1046.621	-4.71
1047.043	1.99
1047.466	5.49
1047.889	-4.41
1048.311	-5.01
1048.734	-5.71
1049.156	1.69
1049.579	-1.91
1050.001	-9.41
1050.424	-1.31
1050.846	2.39
1051.269	-3.91
1051.691	-6.81
1052.113	-8.51
1052.536	-1.91
1052.958	-3.81
1053.38	-0.91
1053.802	-7.11
1054.225	-0.21
1054.647	-7.61
1055.069	-9.11
1055.491	3.99
1055.913	-2.81
1056.335	0.19
1056.757	-7.61
1057.179	-4.21
1057.601	-3.71
1058.023	-4.21
1058.445	-1.11
1058.867	-7.11
1059.289	-3.81
1059.711	-6.71
1060.133	0.69
1060.555	-5.21
1060.976	-6.51
1061.398	-1.11
1061.82	-7.51
1062.241	-4.01
1062.663	-0.71
1063.085	-0.61
1063.506	0.29
1063.928	-2.71
1064.35	-2.01
1064.771	-4.11
1065.193	4.19
1065.614	-7.11
1066.035	-2.21
1066.457	-6.01
1066.878	5.69
1067.3	-3.11
1067.721	-2.11
1068.142	-6.21
1068.564	-3.41
1068.985	-7.61
1069.406	-6.21
1069.827	-1.41
1070.248	-0.81
1070.67	-1.81
1071.091	-7.91
1071.512	-6.11
1071.933	-8.41
1072.354	-2.21
1072.775	-2.11
1073.196	-9.91
1073.617	-3.51
1074.038	-11.41
1074.459	-6.21
1074.88	-5.31
1075.3	0.39
1075.721	-2.71
1076.142	0.49
1076.563	-4.51
1076.983	-7.71
1077.404	-12.11
1077.825	-12.31
1078.246	-2.41
1078.666	-6.91
1079.087	-2.41
1079.507	-5.91
1079.928	1.59
1080.348	-1.11
1080.769	-2.11
1081.189	-1.31
1081.61	-3.31
1082.03	-9.31
1082.451	-3.71
1082.871	-5.11
1083.291	-3.71
1083.711	-6.21
1084.132	-1.61
1084.552	0.29
1084.972	-1.81
1085.392	-8.01
1085.813	-11.71
1086.233	-3.41
1086.653	-6.91
1087.073	-6.01
1087.493	-4.71
1087.913	-8.01
1088.333	-8.61
1088.753	-2.01
1089.173	4.49
1089.593	-2.81
1090.013	2.59
1090.433	0.29
1090.852	-1.21
1091.272	-2.31
1091.692	-4.91
1092.112	-8.51
1092.531	-3.81
1092.951	-10.71
1093.371	-1.71
1093.79	3.99
1094.21	-2.21
1094.63	-8.91
1095.049	-4.41
1095.469	-4.11
1095.888	-4.91
1096.308	1.69
1096.727	7.79
1097.146	-12.11
1097.566	-4.31
1097.985	-2.71
1098.405	-0.71
1098.824	-4.91
1099.243	-8.41
1099.662	-8.91
1100.082	-6.01
1100.501	0.29
1100.92	-5.61
1101.339	-5.91
1101.758	-9.71
