Data from 20171114-ORNL-Ar_H_NY_Subt18_08-04-34-000.txt Node
Date: Tue Nov 14 08:04:34 EST 2017
User: Ender
Spectrometer: HR+D1039
Trigger mode: 0
Integration Time (sec): 2.730000E-2
Scans to average: 10
Electric dark correction enabled: true
Nonlinearity correction enabled: false
Boxcar width: 0
XAxis mode: Wavelengths
Number of Pixels in Spectrum: 2048
>>>>>Begin Spectral Data<<<<<
187.836	-4.81
188.309	-4.81
188.782	-4.81
189.255	5.09
189.728	-2.41
190.201	7.49
190.674	-1.51
191.147	0.39
191.619	-8.51
192.092	3.49
192.565	7.09
193.038	-0.21
193.511	0.69
193.984	4.89
194.456	-4.11
194.929	-0.11
195.402	-8.61
195.874	1.09
196.347	2.09
196.82	-5.11
197.292	7.09
197.765	-0.31
198.237	-9.21
198.71	2.59
199.182	-0.41
199.655	1.89
200.127	5.69
200.6	-1.91
201.072	-1.11
201.544	-5.21
202.017	-1.81
202.489	2.49
202.961	-0.11
203.433	-4.91
203.906	-10.51
204.378	-8.61
204.85	-2.21
205.322	-4.71
205.794	-1.71
206.266	-1.41
206.739	-9.21
207.211	1.29
207.683	0.09
208.155	-2.51
208.627	-1.71
209.099	-6.21
209.57	-6.81
210.042	-0.21
210.514	-0.21
210.986	2.59
211.458	-4.31
211.93	0.39
212.402	3.99
212.873	-7.11
213.345	-5.91
213.817	-8.11
214.288	-1.11
214.76	-8.41
215.232	-0.81
215.703	-5.21
216.175	-0.01
216.646	-4.41
217.118	-6.81
217.589	-1.31
218.061	2.89
218.532	-4.61
219.004	0.79
219.475	-2.11
219.946	-1.71
220.418	-0.01
220.889	-1.21
221.36	-1.51
221.832	-7.81
222.303	-8.91
222.774	3.89
223.245	-6.11
223.717	-6.11
224.188	-5.71
224.659	-9.81
225.13	-10.51
225.601	-2.41
226.072	2.89
226.543	5.59
227.014	-3.31
227.485	2.99
227.956	1.29
228.427	-5.51
228.898	1.59
229.369	6.49
229.839	0.59
230.31	-6.31
230.781	3.39
231.252	2.59
231.722	-0.11
232.193	-1.21
232.664	2.29
233.135	2.99
233.605	-0.21
234.076	-0.11
234.546	4.49
235.017	8.49
235.487	6.69
235.958	1.59
236.428	0.09
236.899	4.89
237.369	4.19
237.84	-0.01
238.31	11.99
238.78	-4.91
239.251	-2.01
239.721	0.89
240.191	1.59
240.662	-5.01
241.132	0.49
241.602	2.69
242.072	4.09
242.542	9.59
243.013	-3.91
243.483	4.49
243.953	3.59
244.423	11.79
244.893	2.09
245.363	1.79
245.833	-1.21
246.303	-3.11
246.773	8.39
247.243	3.39
247.712	6.79
248.182	12.09
248.652	7.29
249.122	-2.21
249.592	15.89
250.061	26.79
250.531	31.19
251.001	20.69
251.471	23.79
251.94	22.09
252.41	8.79
252.879	4.19
253.349	17.29
253.818	12.19
254.288	14.19
254.757	8.69
255.227	-1.01
255.696	3.59
256.166	9.19
256.635	9.99
257.105	14.59
257.574	8.59
258.043	13.89
258.513	16.99
258.982	21.09
259.451	11.49
259.92	10.89
260.389	18.19
260.859	18.89
261.328	14.29
261.797	18.79
262.266	18.19
262.735	13.89
263.204	11.29
263.673	2.49
264.142	13.29
264.611	3.89
265.08	7.89
265.549	6.29
266.018	10.49
266.487	4.39
266.955	-1.51
267.424	3.59
267.893	8.89
268.362	6.99
268.83	9.69
269.299	16.99
269.768	15.59
270.236	9.49
270.705	7.19
271.174	10.19
271.642	9.59
272.111	8.09
272.579	22.69
273.048	23.89
273.516	33.49
273.985	33.19
274.453	26.59
274.922	23.49
275.39	14.29
275.858	2.59
276.327	12.89
276.795	20.09
277.263	11.69
277.731	36.29
278.2	59.99
278.668	61.79
279.136	49.09
279.604	22.89
280.072	19.59
280.54	17.59
281.008	12.89
281.477	14.09
281.945	16.19
282.413	17.99
282.881	20.79
283.348	9.39
283.816	17.49
284.284	14.39
284.752	16.19
285.22	17.49
285.688	17.49
286.156	21.39
286.623	42.29
287.091	53.99
287.559	32.79
288.026	15.69
288.494	27.49
288.962	5.09
289.429	14.29
289.897	25.49
290.364	16.29
290.832	19.59
291.3	12.39
291.767	21.79
292.234	22.09
292.702	19.09
293.169	21.99
293.637	25.29
294.104	27.69
294.571	9.59
295.039	10.69
295.506	13.89
295.973	20.39
296.44	19.79
296.908	16.89
297.375	20.89
297.842	15.79
298.309	18.39
298.776	12.29
299.243	19.19
299.71	15.19
300.177	15.49
300.644	19.59
301.111	21.69
301.578	21.39
302.045	23.49
302.512	25.69
302.979	26.79
303.446	25.89
303.913	21.79
304.379	21.79
304.846	27.89
305.313	30.09
305.78	22.79
306.246	28.79
306.713	25.79
307.18	26.79
307.646	29.89
308.113	29.29
308.579	25.39
309.046	23.29
309.512	29.69
309.979	18.29
310.445	30.39
310.912	30.19
311.378	32.59
311.845	28.89
312.311	30.09
312.777	36.09
313.244	35.39
313.71	43.39
314.176	35.59
314.642	33.89
315.109	29.29
315.575	38.39
316.041	42.79
316.507	28.39
316.973	44.99
317.439	32.09
317.905	35.59
318.371	36.49
318.837	36.39
319.303	34.59
319.769	37.19
320.235	32.59
320.701	38.29
321.167	38.49
321.633	39.59
322.099	38.89
322.564	40.89
323.03	40.69
323.496	35.39
323.962	44.69
324.427	41.39
324.893	46.29
325.359	41.19
325.824	41.69
326.29	39.89
326.755	40.39
327.221	39.39
327.686	40.19
328.152	47.99
328.617	39.69
329.083	48.09
329.548	55.99
330.014	48.09
330.479	42.79
330.944	46.49
331.41	46.59
331.875	47.29
332.34	44.19
332.805	41.49
333.271	49.89
333.736	47.29
334.201	54.79
334.666	55.19
335.131	54.09
335.596	54.99
336.061	53.19
336.526	37.89
336.991	42.39
337.456	55.79
337.921	47.19
338.386	46.09
338.851	49.39
339.316	47.39
339.781	49.39
340.246	49.79
340.711	51.49
341.175	50.19
341.64	52.19
342.105	51.79
342.569	56.79
343.034	51.99
343.499	53.29
343.963	55.79
344.428	60.79
344.893	68.29
345.357	59.29
345.822	61.39
346.286	64.79
346.751	68.39
347.215	66.39
347.679	71.39
348.144	99.79
348.608	79.59
349.073	69.89
349.537	72.59
350.001	74.69
350.465	85.09
350.93	69.59
351.394	77.59
351.858	72.79
352.322	88.49
352.786	85.79
353.25	97.79
353.715	106.99
354.179	95.59
354.643	113.89
355.107	122.99
355.571	103.39
356.035	107.39
356.498	117.79
356.962	120.89
357.426	122.79
357.89	115.49
358.354	94.29
358.818	80.99
359.281	72.89
359.745	72.19
360.209	73.89
360.673	70.29
361.136	72.99
361.6	89.69
362.064	82.09
362.527	87.79
362.991	92.59
363.454	74.69
363.918	75.39
364.381	82.09
364.845	78.59
365.308	84.39
365.772	81.09
366.235	84.59
366.698	85.99
367.162	84.69
367.625	82.09
368.088	88.99
368.552	84.49
369.015	85.39
369.478	89.39
369.941	90.19
370.404	88.29
370.867	105.49
371.331	101.59
371.794	110.89
372.257	104.59
372.72	110.29
373.183	97.09
373.646	98.89
374.109	103.49
374.572	98.09
375.035	103.59
375.497	105.59
375.96	105.09
376.423	98.19
376.886	102.69
377.349	104.19
377.811	98.39
378.274	104.49
378.737	104.49
379.199	104.29
379.662	106.79
380.125	110.19
380.587	114.39
381.05	115.49
381.512	121.99
381.975	127.99
382.437	125.59
382.9	111.79
383.362	121.29
383.825	130.19
384.287	140.09
384.75	131.09
385.212	138.09
385.674	133.79
386.136	133.69
386.599	115.39
387.061	119.19
387.523	124.89
387.985	124.99
388.447	137.19
388.91	133.79
389.372	152.29
389.834	141.69
390.296	131.49
390.758	141.69
391.22	157.29
391.682	197.79
392.144	276.99
392.606	211.39
393.068	163.09
393.529	167.69
393.991	149.19
394.453	140.89
394.915	147.99
395.377	176.49
395.838	201.99
396.3	152.29
396.762	139.39
397.224	124.39
397.685	119.89
398.147	116.89
398.608	115.49
399.07	123.69
399.531	126.49
399.993	132.69
400.454	144.79
400.916	135.79
401.377	137.89
401.839	143.09
402.3	147.99
402.762	161.29
403.223	168.59
403.684	170.79
404.145	146.49
404.607	154.69
405.068	154.39
405.529	153.09
405.99	172.99
406.451	168.99
406.913	157.29
407.374	151.29
407.835	155.89
408.296	155.79
408.757	164.39
409.218	172.79
409.679	167.89
410.14	166.09
410.601	162.89
411.062	172.49
411.522	174.49
411.983	170.89
412.444	162.69
412.905	168.59
413.366	172.49
413.826	180.19
414.287	205.89
414.748	247.29
415.208	229.09
415.669	196.29
416.13	191.89
416.59	192.69
417.051	203.29
417.511	204.69
417.972	223.69
418.432	224.39
418.893	267.29
419.353	235.69
419.814	184.09
420.274	173.29
420.734	172.39
421.195	186.59
421.655	183.69
422.115	176.39
422.576	179.09
423.036	184.69
423.496	191.09
423.956	200.09
424.416	217.69
424.876	243.79
425.336	242.59
425.797	244.39
426.257	237.49
426.717	219.19
427.177	213.49
427.637	209.39
428.097	225.79
428.556	230.89
429.016	258.99
429.476	249.09
429.936	259.29
430.396	260.79
430.856	270.89
431.315	288.99
431.775	322.39
432.235	348.49
432.694	323.29
433.154	330.79
433.614	361.59
434.073	315.09
434.533	264.09
434.993	255.19
435.452	264.09
435.912	272.39
436.371	258.09
436.83	266.89
437.29	256.79
437.749	226.49
438.209	224.29
438.668	253.19
439.127	256.99
439.587	244.79
440.046	230.99
440.505	231.79
440.964	256.89
441.424	293.09
441.883	282.69
442.342	244.19
442.801	210.39
443.26	207.19
443.719	205.29
444.178	202.09
444.637	190.39
445.096	202.19
445.555	205.89
446.014	205.29
446.473	210.79
446.932	208.59
447.391	208.69
447.849	209.69
448.308	199.89
448.767	206.79
449.226	213.89
449.685	217.89
450.143	226.79
450.602	219.19
451.061	211.49
451.519	216.29
451.978	213.19
452.436	217.09
452.895	220.59
453.353	228.99
453.812	221.69
454.27	224.69
454.729	229.69
455.187	212.79
455.646	231.09
456.104	222.29
456.562	233.49
457.021	240.49
457.479	237.59
457.937	247.39
458.395	243.69
458.854	226.59
459.312	239.09
459.77	249.09
460.228	233.89
460.686	227.69
461.144	228.59
461.602	226.39
462.06	223.59
462.518	234.19
462.976	235.09
463.434	238.19
463.892	236.19
464.35	252.99
464.808	263.59
465.266	244.99
465.724	248.59
466.181	248.89
466.639	252.59
467.097	269.19
467.555	277.69
468.012	281.89
468.47	286.79
468.928	303.99
469.385	315.19
469.843	324.79
470.3	319.89
470.758	331.49
471.215	362.79
471.673	378.59
472.13	368.09
472.588	374.99
473.045	336.29
473.503	341.39
473.96	359.89
474.417	367.39
474.875	397.79
475.332	435.69
475.789	425.59
476.246	428.79
476.704	449.09
477.161	469.69
477.618	487.39
478.075	523.19
478.532	564.19
478.989	633.19
479.446	729.89
479.903	706.19
480.36	759.99
480.817	807.79
481.274	894.99
481.731	996.59
482.188	1095.79
482.645	1216.09
483.102	1308.39
483.558	1450.19
484.015	1509.79
484.472	1477.39
484.929	1440.29
485.385	1386.69
485.842	1335.59
486.299	1273.19
486.755	1199.29
487.212	1013.59
487.668	857.09
488.125	793.99
488.582	731.89
489.038	694.79
489.494	667.99
489.951	633.89
490.407	614.79
490.864	592.19
491.32	592.09
491.776	589.59
492.233	594.89
492.689	558.59
493.145	557.19
493.602	554.39
494.058	556.69
494.514	560.29
494.97	588.79
495.426	603.39
495.882	581.29
496.338	568.69
496.794	582.69
497.251	579.99
497.707	599.49
498.163	589.49
498.618	596.89
499.074	602.09
499.53	624.09
499.986	636.39
500.442	599.99
500.898	583.59
501.354	577.39
501.809	589.49
502.265	594.39
502.721	611.89
503.177	612.49
503.632	601.19
504.088	630.39
504.543	657.79
504.999	653.49
505.455	602.19
505.91	579.79
506.366	585.19
506.821	574.69
507.277	571.99
507.732	571.69
508.187	569.59
508.643	578.79
509.098	585.59
509.553	600.09
510.009	608.59
510.464	608.89
510.919	644.39
511.375	628.99
511.83	644.69
512.285	674.69
512.74	702.79
513.195	719.79
513.65	718.19
514.105	704.19
514.56	717.19
515.015	740.89
515.47	746.19
515.925	730.89
516.38	733.39
516.835	736.29
517.29	726.99
517.745	710.19
518.2	699.69
518.655	689.89
519.109	683.69
519.564	679.69
520.019	679.49
520.474	669.69
520.928	672.59
521.383	657.79
521.838	653.89
522.292	655.09
522.747	651.99
523.201	645.79
523.656	644.09
524.11	636.29
524.565	644.89
525.019	636.29
525.474	637.49
525.928	643.09
526.382	643.19
526.837	643.89
527.291	642.59
527.745	641.99
528.2	637.79
528.654	630.79
529.108	638.99
529.562	631.39
530.016	634.39
530.47	638.09
530.925	629.49
531.379	638.29
531.833	640.29
532.287	641.49
532.741	647.59
533.195	651.99
533.649	664.49
534.103	657.69
534.556	653.59
535.01	647.39
535.464	659.59
535.918	661.09
536.372	654.89
536.826	658.59
537.279	645.29
537.733	645.89
538.187	661.59
538.64	652.29
539.094	664.99
539.548	669.79
540.001	658.89
540.455	658.09
540.908	675.59
541.362	675.39
541.815	679.09
542.269	687.99
542.722	682.19
543.175	701.49
543.629	700.09
544.082	717.79
544.536	711.89
544.989	715.59
545.442	725.09
545.895	715.89
546.349	716.79
546.802	712.69
547.255	726.39
547.708	730.09
548.161	738.19
548.614	741.59
549.067	753.49
549.52	754.69
549.973	731.69
550.426	734.09
550.879	705.19
551.332	723.39
551.785	739.99
552.238	723.39
552.691	744.49
553.144	757.19
553.596	765.19
554.049	779.09
554.502	813.69
554.955	831.49
555.407	814.19
555.86	806.29
556.313	804.69
556.765	789.29
557.218	801.99
557.67	808.89
558.123	796.09
558.576	785.19
559.028	786.39
559.48	801.99
559.933	783.79
560.385	757.99
560.838	733.59
561.29	709.89
561.742	701.49
562.195	679.89
562.647	690.29
563.099	700.39
563.551	702.19
564.004	711.29
564.456	687.09
564.908	686.09
565.36	676.99
565.812	658.49
566.264	655.99
566.716	649.89
567.168	636.29
567.62	652.49
568.072	639.29
568.524	624.79
568.976	624.09
569.428	603.49
569.88	605.59
570.332	602.39
570.784	603.49
571.235	611.49
571.687	626.69
572.139	623.39
572.59	638.99
573.042	642.69
573.494	631.59
573.945	624.09
574.397	609.39
574.849	618.79
575.3	618.89
575.752	606.19
576.203	600.29
576.655	617.99
577.106	594.19
577.557	596.29
578.009	601.29
578.46	590.99
578.912	583.89
579.363	586.19
579.814	592.29
580.265	590.99
580.717	595.69
581.168	596.39
581.619	597.29
582.07	607.99
582.521	607.49
582.972	603.19
583.423	602.79
583.875	598.99
584.326	618.79
584.777	662.49
585.227	734.19
585.678	815.79
586.129	908.49
586.58	968.29
587.031	1054.09
587.482	1207.49
587.933	1383.99
588.384	1187.99
588.834	881.29
589.285	710.89
589.736	698.89
590.186	674.59
590.637	676.29
591.088	660.19
591.538	653.19
591.989	651.39
592.439	635.39
592.89	645.19
593.34	633.39
593.791	629.19
594.241	616.79
594.692	630.69
595.142	619.99
595.593	609.09
596.043	623.99
596.493	631.09
596.943	626.29
597.394	632.99
597.844	628.39
598.294	648.39
598.744	660.89
599.195	676.89
599.645	714.49
600.095	754.39
600.545	804.79
600.995	855.59
601.445	899.99
601.895	949.69
602.345	997.99
602.795	988.69
603.245	943.79
603.695	890.79
604.145	840.09
604.594	805.99
605.044	758.29
605.494	705.29
605.944	671.89
606.393	657.79
606.843	637.09
607.293	631.49
607.743	637.09
608.192	648.99
608.642	667.89
609.091	674.69
609.541	667.79
609.99	669.39
610.44	667.79
610.889	634.79
611.339	607.59
611.788	595.79
612.238	611.59
612.687	623.39
613.136	626.39
613.586	644.29
614.035	632.49
614.484	656.99
614.933	669.09
615.383	655.29
615.832	636.29
616.281	633.39
616.73	603.39
617.179	575.29
617.628	561.99
618.077	552.99
618.526	535.39
618.975	535.39
619.424	528.49
619.873	532.39
620.322	539.39
620.771	522.39
621.22	520.49
621.669	516.09
622.118	516.69
622.567	499.89
623.015	491.29
623.464	486.39
623.913	489.49
624.361	473.19
624.81	476.69
625.259	482.59
625.707	475.99
626.156	473.09
626.604	477.59
627.053	477.89
627.501	487.79
627.95	492.59
628.398	497.19
628.847	500.59
629.295	486.79
629.744	488.89
630.192	488.19
630.64	483.69
631.089	485.49
631.537	499.39
631.985	509.79
632.433	515.49
632.881	517.29
633.33	561.59
633.778	547.59
634.226	480.39
634.674	484.79
635.122	497.99
635.57	509.99
636.018	540.39
636.466	494.99
636.914	482.19
637.362	488.09
637.81	490.79
638.258	496.69
638.705	492.59
639.153	522.79
639.601	526.19
640.049	543.79
640.497	572.39
640.944	599.49
641.392	554.59
641.84	530.19
642.287	494.89
642.735	479.79
643.182	488.49
643.63	493.39
644.078	490.99
644.525	499.19
644.973	519.39
645.42	507.19
645.867	523.49
646.315	548.09
646.762	556.89
647.21	591.19
647.657	606.99
648.104	646.09
648.551	661.09
648.999	717.19
649.446	783.59
649.893	855.29
650.34	983.89
650.787	1178.09
651.234	1456.09
651.682	1886.89
652.129	2609.69
652.576	3747.59
653.023	5575.49
653.47	7644.99
653.917	9716.09
654.363	11408.19
654.81	12778.79
655.257	12144.59
655.704	7865.99
656.151	4613.49
656.598	2960.39
657.044	2107.89
657.491	1600.79
657.938	1288.89
658.385	1069.09
658.831	933.09
659.278	826.39
659.724	730.69
660.171	670.39
660.618	615.89
661.064	582.09
661.511	559.29
661.957	555.99
662.404	531.99
662.85	552.79
663.296	520.89
663.743	476.39
664.189	460.29
664.635	446.29
665.082	448.49
665.528	441.99
665.974	440.89
666.42	428.29
666.867	430.79
667.313	410.79
667.759	411.99
668.205	410.09
668.651	413.79
669.097	412.89
669.543	431.79
669.989	404.49
670.435	375.79
670.881	375.59
671.327	376.49
671.773	392.49
672.219	414.49
672.665	447.29
673.11	494.99
673.556	526.89
674.002	568.69
674.448	553.69
674.893	467.19
675.339	403.79
675.785	363.29
676.23	358.59
676.676	327.89
677.122	324.89
677.567	314.29
678.013	303.89
678.458	304.69
678.904	304.09
679.349	290.89
679.794	297.09
680.24	295.59
680.685	290.29
681.131	290.89
681.576	289.99
682.021	295.09
682.466	290.39
682.912	295.39
683.357	297.29
683.802	313.09
684.247	337.79
684.692	372.29
685.137	407.99
685.583	452.99
686.028	483.19
686.473	439.39
686.918	370.09
687.363	349.59
687.807	333.29
688.252	307.89
688.697	296.89
689.142	283.59
689.587	266.59
690.032	276.89
690.477	283.29
690.921	288.69
691.366	318.59
691.811	331.19
692.255	366.39
692.7	385.29
693.145	418.99
693.589	560.69
694.034	918.59
694.478	1267.59
694.923	1476.99
695.367	1945.39
695.812	1006.29
696.256	424.49
696.701	317.39
697.145	285.29
697.59	278.49
698.034	271.39
698.478	273.39
698.922	273.29
699.367	268.39
699.811	285.59
700.255	299.59
700.699	314.39
701.143	354.69
701.588	393.79
702.032	432.89
702.476	428.09
702.92	414.59
703.364	396.69
703.808	512.29
704.252	833.99
704.696	1196.79
705.14	1415.79
705.584	1824.59
706.027	900.49
706.471	437.29
706.915	326.29
707.359	290.29
707.803	264.19
708.246	256.79
708.69	261.99
709.134	261.49
709.577	267.49
710.021	270.39
710.465	254.99
710.908	254.89
711.352	244.19
711.795	264.49
712.239	292.69
712.682	327.39
713.126	349.99
713.569	392.49
714.012	306.69
714.456	268.29
714.899	250.59
715.342	229.79
715.786	218.59
716.229	216.89
716.672	216.29
717.115	213.49
717.558	210.49
718.002	206.69
718.445	211.19
718.888	236.39
719.331	245.89
719.774	261.79
720.217	251.59
720.66	242.19
721.103	228.19
721.546	212.89
721.989	206.59
722.432	191.59
722.874	200.39
723.317	187.39
723.76	191.49
724.203	215.19
724.645	268.99
725.088	365.09
725.531	471.49
725.974	551.69
726.416	453.89
726.859	257.69
727.301	206.49
727.744	197.19
728.187	191.89
728.629	196.29
729.071	207.09
729.514	210.89
729.956	224.59
730.399	241.99
730.841	244.09
731.283	224.29
731.726	223.09
732.168	209.99
732.61	214.99
733.053	233.19
733.495	254.69
733.937	284.59
734.379	332.09
734.821	354.99
735.263	442.49
735.705	671.99
736.148	1271.79
736.59	2117.69
737.032	2600.99
737.474	2138.49
737.916	672.59
738.357	348.09
738.799	267.49
739.241	242.49
739.683	233.59
740.125	237.39
740.567	254.29
741.008	263.69
741.45	270.99
741.892	261.69
742.334	286.29
742.775	302.39
743.217	291.79
743.658	227.59
744.1	205.69
744.542	215.99
744.983	254.99
745.425	292.59
745.866	292.89
746.307	237.49
746.749	235.39
747.19	265.09
747.632	362.69
748.073	694.59
748.514	1499.29
748.956	2359.89
749.397	2948.19
749.838	2463.89
750.279	2526.59
750.72	1256.39
751.162	456.89
751.603	274.99
752.044	210.19
752.485	185.79
752.926	172.29
753.367	167.59
753.808	162.69
754.249	155.39
754.69	154.29
755.131	156.89
755.572	152.59
756.013	150.09
756.453	151.69
756.894	153.19
757.335	157.89
757.776	160.69
758.216	162.79
758.657	164.09
759.098	164.59
759.538	192.79
759.979	212.29
760.42	299.69
760.86	559.29
761.301	1438.79
761.741	3592.09
762.182	5528.39
762.622	3905.79
763.063	1109.39
763.503	447.29
763.943	282.09
764.384	284.79
764.824	344.19
765.264	378.39
765.705	264.99
766.145	176.29
766.585	159.39
767.025	146.09
767.465	155.69
767.906	199.19
768.346	269.99
768.786	294.29
769.226	221.29
769.666	254.59
770.106	495.09
770.546	1242.19
770.986	2229.39
771.426	2033.29
771.866	668.39
772.306	270.69
772.745	174.39
773.185	137.79
773.625	137.79
774.065	136.29
774.505	164.99
774.944	253.29
775.384	569.89
775.824	1080.49
776.263	1084.49
776.703	448.99
777.142	189.89
777.582	132.99
778.021	116.29
778.461	114.39
778.9	119.99
779.34	114.69
779.779	93.29
780.219	98.89
780.658	87.39
781.097	91.49
781.537	97.29
781.976	89.69
782.415	92.09
782.855	85.09
783.294	89.09
783.733	82.69
784.172	89.39
784.611	90.29
785.05	93.99
785.489	91.29
785.928	100.49
786.367	107.49
786.806	98.09
787.245	108.69
787.684	114.29
788.123	120.19
788.562	106.59
789.001	103.09
789.44	102.39
789.879	99.19
790.317	103.49
790.756	105.99
791.195	104.09
791.634	121.59
792.072	169.79
792.511	297.49
792.95	805.09
793.388	1802.59
793.827	1693.99
794.265	576.09
794.704	234.29
795.142	149.09
795.581	127.09
796.019	114.69
796.458	110.89
796.896	103.29
797.334	106.89
797.773	133.29
798.211	173.29
798.649	338.79
799.087	822.19
799.526	1321.19
799.964	1662.09
800.402	1724.39
800.84	634.19
801.278	245.99
801.716	154.99
802.154	127.39
802.592	127.19
803.03	113.69
803.468	108.59
803.906	119.19
804.344	121.69
804.782	117.79
805.22	113.29
805.658	106.69
806.096	114.49
806.533	132.39
806.971	145.69
807.409	179.69
807.847	251.99
808.284	521.69
808.722	1514.89
809.16	2789.29
809.597	2570.39
810.035	4508.99
810.472	5057.19
810.91	1782.39
811.347	670.89
811.785	337.79
812.222	215.49
812.66	165.89
813.097	141.59
813.535	117.89
813.972	106.69
814.409	100.49
814.846	86.39
815.284	92.29
815.721	82.59
816.158	87.89
816.595	104.29
817.032	145.99
817.47	169.79
817.907	154.49
818.344	125.79
818.781	99.59
819.218	91.79
819.655	100.49
820.092	156.89
820.529	192.19
820.966	147.79
821.403	115.49
821.839	90.99
822.276	84.49
822.713	105.49
823.15	117.39
823.587	99.19
824.023	113.49
824.46	242.79
824.897	719.09
825.333	1162.59
825.77	490.59
826.206	192.29
826.643	111.59
827.08	89.39
827.516	74.59
827.953	61.79
828.389	64.69
828.825	56.49
829.262	51.59
829.698	52.29
830.135	59.29
830.571	50.39
831.007	52.59
831.443	48.49
831.88	52.19
832.316	55.29
832.752	53.29
833.188	52.29
833.624	54.69
834.06	59.69
834.497	59.89
834.933	58.09
835.369	61.59
835.805	49.89
836.241	65.19
836.677	65.59
837.112	63.69
837.548	81.49
837.984	107.89
838.42	158.89
838.856	391.09
839.292	1240.39
839.727	1966.79
840.163	906.99
840.599	748.29
841.034	1701.99
841.47	1850.49
841.906	665.99
842.341	280.79
842.777	194.49
843.212	273.19
843.648	280.09
844.083	135.19
844.519	78.69
844.954	67.59
845.39	44.69
845.825	43.89
846.261	49.49
846.696	46.29
847.131	44.29
847.566	49.59
848.002	42.69
848.437	48.99
848.872	51.79
849.307	50.49
849.742	77.99
850.177	143.29
850.613	459.29
851.048	756.49
851.483	324.49
851.918	126.29
852.353	72.69
852.788	49.99
853.223	45.99
853.657	46.39
854.092	39.69
854.527	34.09
854.962	29.99
855.397	37.79
855.832	42.39
856.266	34.09
856.701	32.39
857.136	27.89
857.57	33.29
858.005	43.39
858.44	56.59
858.874	32.39
859.309	53.79
859.743	37.29
860.178	36.99
860.612	34.39
861.047	46.49
861.481	57.99
861.915	61.69
862.35	45.59
862.784	29.89
863.218	33.49
863.653	26.99
864.087	33.09
864.521	45.39
864.955	60.49
865.39	127.89
865.824	144.79
866.258	93.89
866.692	134.79
867.126	153.89
867.56	88.79
867.994	43.09
868.428	27.49
868.862	35.09
869.296	44.39
869.73	52.09
870.164	52.89
870.598	43.19
871.031	35.29
871.465	33.09
871.899	28.99
872.333	18.79
872.766	18.59
873.2	20.09
873.634	22.49
874.067	21.19
874.501	20.39
874.935	25.59
875.368	27.39
875.802	30.09
876.235	17.19
876.669	19.29
877.102	17.59
877.535	21.09
877.969	19.49
878.402	20.09
878.836	15.09
879.269	17.39
879.702	23.39
880.135	19.29
880.569	26.39
881.002	23.99
881.435	17.29
881.868	13.29
882.301	19.39
882.734	13.79
883.167	21.19
883.601	17.09
884.034	18.69
884.467	10.49
884.899	21.39
885.332	20.19
885.765	19.79
886.198	18.69
886.631	15.99
887.064	12.79
887.497	23.09
887.929	18.69
888.362	9.39
888.795	13.69
889.228	13.29
889.66	19.79
890.093	12.69
890.526	19.59
890.958	18.99
891.391	15.89
891.823	21.59
892.256	11.59
892.688	4.29
893.121	14.19
893.553	13.89
893.985	22.79
894.418	13.99
894.85	9.09
895.282	18.59
895.715	10.19
896.147	17.99
896.579	16.59
897.011	13.69
897.444	13.79
897.876	7.99
898.308	16.19
898.74	15.79
899.172	12.69
899.604	17.39
900.036	20.39
900.468	8.69
900.9	10.89
901.332	17.69
901.764	9.69
902.196	16.49
902.628	13.29
903.06	15.79
903.491	18.99
903.923	17.89
904.355	16.39
904.787	20.19
905.218	23.69
905.65	22.79
906.082	14.09
906.513	7.39
906.945	12.59
907.376	7.99
907.808	15.89
908.239	13.09
908.671	17.49
909.102	19.39
909.534	18.29
909.965	43.49
910.397	74.29
910.828	264.19
911.259	411.19
911.691	184.89
912.122	92.39
912.553	47.99
912.984	29.09
913.415	20.19
913.847	18.99
914.278	15.19
914.709	10.89
915.14	16.39
915.571	19.69
916.002	9.89
916.433	21.59
916.864	14.69
917.295	10.29
917.726	17.59
918.157	11.99
918.587	26.09
919.018	20.69
919.449	19.89
919.88	20.29
920.311	27.99
920.741	39.99
921.172	142.39
921.603	132.59
922.033	60.19
922.464	39.69
922.895	14.29
923.325	19.79
923.756	10.59
924.186	12.99
924.617	26.19
925.047	40.39
925.478	42.19
925.908	36.59
926.338	26.59
926.769	14.39
927.199	19.69
927.629	9.99
928.06	15.59
928.49	11.49
928.92	10.09
929.35	15.99
929.78	16.09
930.21	5.99
930.641	7.69
931.071	14.99
931.501	6.99
931.931	9.49
932.361	7.69
932.791	4.49
933.221	5.39
933.651	2.99
934.08	19.49
934.51	26.99
934.94	5.99
935.37	8.09
935.8	12.59
936.229	7.79
936.659	13.79
937.089	-1.51
937.519	11.89
937.948	21.49
938.378	9.39
938.807	1.79
939.237	3.69
939.666	9.09
940.096	-2.11
940.525	2.09
940.955	0.79
941.384	-0.61
941.814	-5.51
942.243	-3.01
942.672	8.39
943.102	1.39
943.531	4.19
943.96	7.29
944.39	7.09
944.819	5.19
945.248	0.19
945.677	3.69
946.106	6.49
946.535	7.89
946.964	-2.61
947.393	4.39
947.822	-1.01
948.251	-1.51
948.68	1.19
949.109	4.29
949.538	4.19
949.967	1.39
950.396	4.99
950.825	-3.71
951.254	4.09
951.682	-2.61
952.111	2.59
952.54	3.39
952.969	1.39
953.397	-4.61
953.826	8.39
954.254	-5.31
954.683	5.09
955.112	-5.21
955.54	-5.71
955.969	0.09
956.397	-5.71
956.826	-5.11
957.254	3.99
957.682	0.79
958.111	9.79
958.539	-0.51
958.967	-0.01
959.396	-0.81
959.824	6.49
960.252	-1.41
960.68	-0.91
961.109	-4.61
961.537	-2.71
961.965	-0.31
962.393	3.39
962.821	-1.21
963.249	-3.01
963.677	2.69
964.105	0.49
964.533	38.69
964.961	40.79
965.389	15.89
965.817	4.99
966.245	5.79
966.672	-1.81
967.1	-11.01
967.528	-8.41
967.956	-3.71
968.383	4.89
968.811	-2.01
969.239	1.29
969.666	-4.51
970.094	0.39
970.522	0.39
970.949	-4.41
971.377	0.09
971.804	-5.51
972.232	0.09
972.659	-1.91
973.087	-5.31
973.514	-3.71
973.941	-6.91
974.369	2.39
974.796	0.09
975.223	-0.91
975.651	-2.01
976.078	8.59
976.505	-5.91
976.932	3.39
977.359	12.69
977.786	10.49
978.214	-3.51
978.641	0.29
979.068	-3.81
979.495	-10.21
979.922	2.09
980.349	0.39
980.776	-1.11
981.202	-4.21
981.629	5.39
982.056	2.99
982.483	-0.51
982.91	3.79
983.337	-6.11
983.763	3.49
984.19	-5.61
984.617	-2.01
985.043	-3.81
985.47	-3.61
985.897	1.59
986.323	-3.91
986.75	-3.01
987.176	-3.91
987.603	-3.51
988.029	-0.71
988.456	0.99
988.882	-2.41
989.308	3.09
989.735	-6.91
990.161	2.99
990.587	-0.91
991.014	-4.41
991.44	10.89
991.866	-0.81
992.292	-6.11
992.719	-5.81
993.145	2.49
993.571	-9.71
993.997	-5.41
994.423	-1.51
994.849	-5.21
995.275	0.19
995.701	1.89
996.127	2.79
996.553	2.49
996.979	-0.11
997.405	0.89
997.83	-5.21
998.256	-6.31
998.682	-8.11
999.108	-1.61
999.534	-7.01
999.959	0.39
1000.385	-6.71
1000.811	-1.61
1001.236	-5.41
1001.662	-5.41
1002.087	-5.01
1002.513	-3.51
1002.938	1.99
1003.364	-3.41
1003.789	-3.11
1004.215	-0.31
1004.64	-6.31
1005.066	-0.41
1005.491	-2.71
1005.916	-2.21
1006.342	-6.01
1006.767	-3.61
1007.192	3.19
1007.617	-6.91
1008.042	-3.71
1008.468	-8.71
1008.893	-8.71
1009.318	1.19
1009.743	-2.01
1010.168	-2.91
1010.593	3.39
1011.018	-8.11
1011.443	0.29
1011.868	-2.51
1012.293	-4.61
1012.718	-11.51
1013.143	0.69
1013.567	4.49
1013.992	-1.61
1014.417	-7.31
1014.842	3.69
1015.267	-3.81
1015.691	-2.31
1016.116	4.99
1016.541	-1.31
1016.965	4.69
1017.39	0.19
1017.814	2.49
1018.239	-2.01
1018.663	-15.51
1019.088	-7.61
1019.512	-2.51
1019.937	0.59
1020.361	-3.21
1020.785	-11.61
1021.21	-6.81
1021.634	-3.11
1022.058	1.39
1022.483	-1.21
1022.907	-0.81
1023.331	-10.41
1023.755	-3.31
1024.179	-7.41
1024.604	-11.11
1025.028	-6.21
1025.452	-7.81
1025.876	-4.01
1026.3	4.49
1026.724	-10.61
1027.148	-6.91
1027.572	-6.41
1027.996	-3.61
1028.42	2.79
1028.843	-9.11
1029.267	-4.31
1029.691	-0.81
1030.115	-6.31
1030.539	-4.01
1030.962	-4.61
1031.386	-6.81
1031.81	-1.21
1032.233	-0.01
1032.657	-1.11
1033.08	1.59
1033.504	-4.71
1033.927	-2.91
1034.351	-1.81
1034.774	-6.31
1035.198	-4.21
1035.621	-10.61
1036.045	-6.21
1036.468	0.29
1036.891	-12.31
1037.315	-9.91
1037.738	-6.51
1038.161	-1.81
1038.584	-5.01
1039.008	-5.61
1039.431	-5.41
1039.854	0.89
1040.277	-11.31
1040.7	-8.31
1041.123	2.09
1041.546	-8.31
1041.969	-2.71
1042.392	-5.31
1042.815	-0.21
1043.238	-2.51
1043.661	4.89
1044.084	-7.61
1044.507	-6.61
1044.93	-8.41
1045.352	-5.51
1045.775	-2.21
1046.198	-5.71
1046.621	0.09
1047.043	-0.91
1047.466	7.19
1047.889	-2.81
1048.311	0.09
1048.734	-3.91
1049.156	4.39
1049.579	4.99
1050.001	-2.91
1050.424	2.49
1050.846	-6.71
1051.269	0.79
1051.691	-3.81
1052.113	-8.61
1052.536	-0.71
1052.958	-8.01
1053.38	-1.31
1053.802	-4.31
1054.225	-0.71
1054.647	-7.81
1055.069	-2.61
1055.491	-1.41
1055.913	-3.41
1056.335	1.79
1056.757	-3.51
1057.179	-2.31
1057.601	-4.01
1058.023	-2.81
1058.445	-5.91
1058.867	-2.31
1059.289	-3.41
1059.711	-11.31
1060.133	-5.21
1060.555	-0.61
1060.976	-3.61
1061.398	-10.21
1061.82	-5.81
1062.241	-6.11
1062.663	-5.61
1063.085	-4.81
1063.506	-0.31
1063.928	-4.11
1064.35	-1.11
1064.771	-4.81
1065.193	1.79
1065.614	-8.51
1066.035	2.29
1066.457	-1.91
1066.878	5.69
1067.3	-4.71
1067.721	-6.31
1068.142	-4.71
1068.564	0.09
1068.985	0.59
1069.406	-2.01
1069.827	-4.61
1070.248	1.49
1070.67	-3.41
1071.091	-0.41
1071.512	-7.61
1071.933	-1.41
1072.354	-12.81
1072.775	-1.91
1073.196	-6.01
1073.617	1.59
1074.038	-6.31
1074.459	-1.91
1074.88	-11.41
1075.3	5.49
1075.721	-13.01
1076.142	3.19
1076.563	-1.21
1076.983	-15.11
1077.404	-7.21
1077.825	-8.41
1078.246	-2.01
1078.666	-9.11
1079.087	-5.31
1079.507	-6.31
1079.928	-1.41
1080.348	-8.71
1080.769	-0.31
1081.189	4.59
1081.61	-4.21
1082.03	-1.21
1082.451	-6.51
1082.871	-4.91
1083.291	-5.01
1083.711	-8.61
1084.132	-6.41
1084.552	-2.51
1084.972	-1.41
1085.392	-10.11
1085.813	-10.11
1086.233	-11.71
1086.653	-6.51
1087.073	-2.31
1087.493	-7.31
1087.913	-6.81
1088.333	-12.01
1088.753	-2.21
1089.173	4.39
1089.593	-1.51
1090.013	3.89
1090.433	2.19
1090.852	-8.01
1091.272	-4.01
1091.692	1.89
1092.112	-4.01
1092.531	-9.51
1092.951	-8.61
1093.371	0.29
1093.79	0.99
1094.21	-8.71
1094.63	-10.21
1095.049	-1.21
1095.469	2.79
1095.888	-1.91
1096.308	0.59
1096.727	0.79
1097.146	0.29
1097.566	-6.01
1097.985	-5.01
1098.405	-0.01
1098.824	-5.71
1099.243	-1.51
1099.662	-6.61
1100.082	-4.41
1100.501	-2.81
1100.92	-5.21
1101.339	-7.91
1101.758	-3.61
