Data from 20171114-ORNL-Ar_H_NY_Subt18_08-06-22-099.txt Node
Date: Tue Nov 14 08:06:22 EST 2017
User: Ender
Spectrometer: HR+D1039
Trigger mode: 0
Integration Time (sec): 2.730000E-2
Scans to average: 10
Electric dark correction enabled: true
Nonlinearity correction enabled: false
Boxcar width: 0
XAxis mode: Wavelengths
Number of Pixels in Spectrum: 2048
>>>>>Begin Spectral Data<<<<<
187.836	-7.53
188.309	-7.53
188.782	-7.53
189.255	-0.03
189.728	-2.93
190.201	6.77
190.674	4.37
191.147	-2.43
191.619	-8.33
192.092	-1.13
192.565	2.77
193.038	-4.13
193.511	5.07
193.984	2.97
194.456	-0.43
194.929	-0.23
195.402	3.57
195.874	1.57
196.347	-0.23
196.82	-7.33
197.292	1.87
197.765	-0.23
198.237	-6.83
198.71	0.67
199.182	-4.33
199.655	1.57
200.127	-1.63
200.6	-2.03
201.072	-0.23
201.544	-4.53
202.017	0.57
202.489	-1.13
202.961	-0.83
203.433	-5.73
203.906	-4.83
204.378	-2.13
204.85	-1.93
205.322	-5.23
205.794	-3.63
206.266	-1.53
206.739	-9.43
207.211	3.77
207.683	-7.53
208.155	-5.63
208.627	-6.23
209.099	-1.13
209.57	-11.23
210.042	-8.33
210.514	-2.03
210.986	-3.43
211.458	-11.23
211.93	-1.83
212.402	0.17
212.873	-2.53
213.345	-7.23
213.817	-13.53
214.288	-2.13
214.76	-10.23
215.232	-0.03
215.703	-5.23
216.175	0.47
216.646	-6.33
217.118	-6.83
217.589	-1.43
218.061	-2.63
218.532	-7.43
219.004	0.27
219.475	-4.03
219.946	1.87
220.418	-8.93
220.889	5.17
221.36	-1.63
221.832	-1.33
222.303	-6.83
222.774	-0.83
223.245	-5.63
223.717	-7.43
224.188	-6.33
224.659	-8.43
225.13	-12.53
225.601	-6.63
226.072	-2.83
226.543	-2.53
227.014	-4.43
227.485	-0.83
227.956	-6.23
228.427	1.67
228.898	0.57
229.369	1.57
229.839	-7.43
230.31	-4.63
230.781	4.97
231.252	-5.53
231.722	-4.53
232.193	-0.63
232.664	6.37
233.135	0.37
233.605	-0.73
234.076	-7.03
234.546	0.67
235.017	-0.43
235.487	3.07
235.958	-7.73
236.428	-7.43
236.899	3.97
237.369	1.47
237.84	-0.63
238.31	1.37
238.78	1.47
239.251	0.67
239.721	-3.13
240.191	-1.43
240.662	-2.23
241.132	3.67
241.602	-4.23
242.072	0.97
242.542	-0.73
243.013	-1.83
243.483	2.57
243.953	-0.83
244.423	-3.03
244.893	-5.23
245.363	4.67
245.833	5.27
246.303	-3.63
246.773	2.27
247.243	1.17
247.712	-0.43
248.182	15.57
248.652	13.37
249.122	0.17
249.592	13.47
250.061	20.97
250.531	37.47
251.001	13.37
251.471	17.27
251.94	17.67
252.41	5.57
252.879	-3.53
253.349	11.17
253.818	8.37
254.288	8.37
254.757	3.17
255.227	-1.83
255.696	5.57
256.166	14.37
256.635	8.17
257.105	8.57
257.574	2.47
258.043	8.37
258.513	12.17
258.982	20.47
259.451	9.87
259.92	10.17
260.389	11.77
260.859	14.47
261.328	6.47
261.797	14.47
262.266	9.67
262.735	7.67
263.204	5.97
263.673	-1.23
264.142	4.87
264.611	-4.93
265.08	2.47
265.549	5.87
266.018	3.87
266.487	3.17
266.955	-3.13
267.424	8.57
267.893	1.07
268.362	8.97
268.83	6.27
269.299	13.37
269.768	-0.83
270.236	8.07
270.705	5.37
271.174	2.77
271.642	4.27
272.111	6.07
272.579	15.67
273.048	19.57
273.516	29.57
273.985	26.87
274.453	25.67
274.922	14.97
275.39	10.97
275.858	-1.63
276.327	14.17
276.795	19.97
277.263	7.57
277.731	29.87
278.2	52.67
278.668	57.77
279.136	51.57
279.604	17.17
280.072	22.17
280.54	9.27
281.008	13.07
281.477	12.67
281.945	14.17
282.413	15.97
282.881	22.57
283.348	7.97
283.816	17.37
284.284	11.37
284.752	19.97
285.22	8.27
285.688	14.37
286.156	15.37
286.623	48.07
287.091	57.27
287.559	31.87
288.026	12.07
288.494	23.17
288.962	5.37
289.429	13.27
289.897	17.17
290.364	15.97
290.832	13.97
291.3	18.57
291.767	21.27
292.234	13.57
292.702	18.87
293.169	16.87
293.637	24.27
294.104	14.07
294.571	10.97
295.039	17.97
295.506	18.17
295.973	20.67
296.44	18.67
296.908	16.47
297.375	15.97
297.842	22.77
298.309	16.37
298.776	13.07
299.243	25.57
299.71	8.07
300.177	20.57
300.644	20.27
301.111	19.47
301.578	22.87
302.045	16.17
302.512	22.17
302.979	23.97
303.446	21.57
303.913	14.37
304.379	20.47
304.846	26.37
305.313	26.07
305.78	23.57
306.246	23.27
306.713	26.37
307.18	24.67
307.646	28.07
308.113	23.77
308.579	23.37
309.046	27.87
309.512	25.87
309.979	16.77
310.445	34.37
310.912	34.67
311.378	32.27
311.845	30.17
312.311	24.97
312.777	30.97
313.244	33.17
313.71	35.57
314.176	27.77
314.642	28.97
315.109	32.67
315.575	38.07
316.041	39.57
316.507	33.47
316.973	36.87
317.439	25.07
317.905	41.97
318.371	32.17
318.837	37.57
319.303	31.77
319.769	36.17
320.235	28.87
320.701	37.87
321.167	38.27
321.633	34.77
322.099	35.57
322.564	42.77
323.03	42.97
323.496	33.47
323.962	36.07
324.427	33.17
324.893	41.27
325.359	34.47
325.824	32.87
326.29	36.67
326.755	39.17
327.221	42.17
327.686	37.97
328.152	47.97
328.617	40.37
329.083	50.27
329.548	52.67
330.014	50.87
330.479	40.27
330.944	41.37
331.41	47.07
331.875	46.97
332.34	45.67
332.805	44.47
333.271	48.97
333.736	41.57
334.201	53.97
334.666	50.47
335.131	61.27
335.596	52.97
336.061	47.27
336.526	42.77
336.991	45.67
337.456	52.47
337.921	51.87
338.386	46.77
338.851	45.37
339.316	48.97
339.781	51.17
340.246	52.07
340.711	51.97
341.175	50.87
341.64	43.17
342.105	55.47
342.569	60.57
343.034	59.77
343.499	61.27
343.963	53.47
344.428	53.57
344.893	68.47
345.357	63.57
345.822	61.47
346.286	70.47
346.751	76.27
347.215	66.47
347.679	79.07
348.144	97.87
348.608	81.87
349.073	72.07
349.537	77.37
350.001	79.87
350.465	88.47
350.93	78.77
351.394	78.67
351.858	76.77
352.322	87.27
352.786	83.57
353.25	102.67
353.715	112.27
354.179	101.77
354.643	127.07
355.107	132.37
355.571	107.07
356.035	107.67
356.498	124.57
356.962	126.47
357.426	133.57
357.89	113.97
358.354	92.57
358.818	81.87
359.281	71.87
359.745	82.17
360.209	76.07
360.673	77.57
361.136	81.27
361.6	90.77
362.064	82.97
362.527	98.07
362.991	93.07
363.454	82.87
363.918	76.67
364.381	85.47
364.845	81.67
365.308	82.27
365.772	89.77
366.235	88.37
366.698	79.77
367.162	90.47
367.625	88.47
368.088	90.77
368.552	91.87
369.015	95.97
369.478	101.17
369.941	108.47
370.404	102.17
370.867	104.07
371.331	105.97
371.794	117.87
372.257	109.27
372.72	116.97
373.183	116.87
373.646	103.77
374.109	104.67
374.572	111.07
375.035	115.27
375.497	107.47
375.96	106.27
376.423	104.87
376.886	111.67
377.349	119.27
377.811	106.17
378.274	111.87
378.737	112.87
379.199	112.97
379.662	112.87
380.125	130.37
380.587	120.57
381.05	121.07
381.512	135.17
381.975	139.57
382.437	132.97
382.9	126.77
383.362	131.17
383.825	143.57
384.287	150.77
384.75	144.07
385.212	147.97
385.674	139.87
386.136	139.37
386.599	122.47
387.061	132.17
387.523	134.87
387.985	134.97
388.447	154.57
388.91	151.27
389.372	161.87
389.834	156.67
390.296	147.07
390.758	158.97
391.22	176.47
391.682	222.07
392.144	322.37
392.606	238.27
393.068	167.77
393.529	170.57
393.991	157.17
394.453	152.97
394.915	158.57
395.377	197.67
395.838	224.27
396.3	152.97
396.762	141.97
397.224	137.57
397.685	128.97
398.147	138.17
398.608	136.37
399.07	134.87
399.531	141.47
399.993	151.77
400.454	154.17
400.916	152.87
401.377	145.27
401.839	157.27
402.3	155.57
402.762	165.47
403.223	183.57
403.684	171.57
404.145	162.87
404.607	158.87
405.068	171.17
405.529	171.67
405.99	200.27
406.451	183.67
406.913	178.47
407.374	171.87
407.835	169.37
408.296	169.27
408.757	176.67
409.218	186.67
409.679	185.57
410.14	178.47
410.601	180.27
411.062	188.97
411.522	190.27
411.983	204.07
412.444	184.17
412.905	180.87
413.366	185.67
413.826	201.47
414.287	228.27
414.748	266.67
415.208	252.77
415.669	219.37
416.13	214.57
416.59	208.67
417.051	215.47
417.511	220.57
417.972	240.37
418.432	259.27
418.893	294.97
419.353	261.17
419.814	202.67
420.274	187.87
420.734	189.97
421.195	197.57
421.655	203.67
422.115	200.57
422.576	194.97
423.036	202.57
423.496	204.77
423.956	213.17
424.416	243.57
424.876	267.17
425.336	268.47
425.797	268.37
426.257	255.57
426.717	242.27
427.177	240.17
427.637	225.57
428.097	239.37
428.556	247.67
429.016	278.17
429.476	271.07
429.936	283.07
430.396	286.37
430.856	298.17
431.315	328.27
431.775	356.07
432.235	387.17
432.694	361.47
433.154	379.47
433.614	406.77
434.073	352.87
434.533	292.87
434.993	276.07
435.452	286.37
435.912	301.47
436.371	301.97
436.83	290.57
437.29	274.67
437.749	255.07
438.209	257.37
438.668	283.37
439.127	289.77
439.587	267.27
440.046	253.27
440.505	270.07
440.964	282.67
441.424	334.47
441.883	320.47
442.342	266.97
442.801	228.17
443.26	228.47
443.719	227.57
444.178	233.07
444.637	221.97
445.096	222.27
445.555	226.87
446.014	232.77
446.473	234.47
446.932	242.97
447.391	232.27
447.849	229.97
448.308	228.67
448.767	225.87
449.226	237.07
449.685	240.77
450.143	256.57
450.602	243.47
451.061	231.27
451.519	239.17
451.978	229.47
452.436	248.67
452.895	246.17
453.353	265.27
453.812	244.97
454.27	249.87
454.729	242.37
455.187	246.77
455.646	247.57
456.104	250.17
456.562	264.37
457.021	279.67
457.479	265.57
457.937	277.67
458.395	269.37
458.854	258.77
459.312	268.77
459.77	282.07
460.228	258.47
460.686	251.37
461.144	247.87
461.602	252.57
462.06	247.77
462.518	263.97
462.976	258.47
463.434	264.97
463.892	263.17
464.35	274.67
464.808	301.97
465.266	270.77
465.724	278.27
466.181	279.27
466.639	275.67
467.097	292.57
467.555	315.27
468.012	316.57
468.47	316.67
468.928	328.47
469.385	351.77
469.843	363.87
470.3	354.87
470.758	367.87
471.215	389.47
471.673	427.57
472.13	417.97
472.588	427.37
473.045	380.67
473.503	392.37
473.96	407.17
474.417	420.17
474.875	443.17
475.332	489.87
475.789	477.67
476.246	479.77
476.704	499.57
477.161	521.97
477.618	537.77
478.075	568.77
478.532	625.67
478.989	717.37
479.446	832.97
479.903	797.47
480.36	836.57
480.817	887.17
481.274	1006.37
481.731	1104.97
482.188	1195.77
482.645	1322.07
483.102	1448.28
483.558	1598.67
484.015	1639.78
484.472	1612.28
484.929	1560.28
485.385	1516.97
485.842	1476.07
486.299	1424.08
486.755	1343.27
487.212	1132.07
487.668	958.07
488.125	885.17
488.582	794.07
489.038	769.57
489.494	734.27
489.951	710.97
490.407	692.07
490.864	664.17
491.32	659.27
491.776	656.67
492.233	660.97
492.689	628.37
493.145	616.37
493.602	610.57
494.058	623.77
494.514	639.57
494.97	658.87
495.426	671.97
495.882	641.07
496.338	630.97
496.794	648.77
497.251	639.57
497.707	658.17
498.163	656.17
498.618	667.37
499.074	666.87
499.53	686.97
499.986	702.27
500.442	667.67
500.898	652.57
501.354	632.87
501.809	655.57
502.265	655.97
502.721	673.77
503.177	684.77
503.632	681.07
504.088	694.17
504.543	721.67
504.999	725.37
505.455	674.37
505.91	647.07
506.366	645.37
506.821	649.87
507.277	643.57
507.732	640.67
508.187	635.67
508.643	648.47
509.098	655.47
509.553	667.57
510.009	683.37
510.464	694.97
510.919	701.77
511.375	705.27
511.83	729.37
512.285	746.67
512.74	774.07
513.195	807.47
513.65	788.67
514.105	779.97
514.56	797.27
515.015	814.87
515.47	830.47
515.925	810.07
516.38	807.87
516.835	814.57
517.29	793.77
517.745	784.67
518.2	780.67
518.655	770.07
519.109	758.57
519.564	757.57
520.019	756.17
520.474	734.87
520.928	742.47
521.383	738.27
521.838	726.27
522.292	723.07
522.747	720.27
523.201	719.37
523.656	717.27
524.11	714.97
524.565	703.97
525.019	719.17
525.474	724.47
525.928	716.47
526.382	721.87
526.837	716.97
527.291	716.17
527.745	706.47
528.2	717.27
528.654	710.07
529.108	695.27
529.562	692.47
530.016	706.07
530.47	706.77
530.925	713.17
531.379	708.27
531.833	719.57
532.287	721.07
532.741	721.07
533.195	730.67
533.649	727.17
534.103	744.47
534.556	722.17
535.01	724.17
535.464	727.67
535.918	737.17
536.372	741.67
536.826	728.27
537.279	728.27
537.733	729.17
538.187	725.67
538.64	735.27
539.094	736.87
539.548	752.97
540.001	734.77
540.455	737.07
540.908	749.37
541.362	760.67
541.815	753.07
542.269	775.67
542.722	785.47
543.175	791.67
543.629	782.27
544.082	800.37
544.536	800.97
544.989	799.97
545.442	819.27
545.895	797.57
546.349	803.17
546.802	805.87
547.255	804.87
547.708	820.57
548.161	830.67
548.614	829.87
549.067	842.17
549.52	842.27
549.973	827.97
550.426	831.27
550.879	816.47
551.332	823.17
551.785	824.17
552.238	823.07
552.691	831.97
553.144	840.07
553.596	860.67
554.049	883.17
554.502	921.87
554.955	922.87
555.407	926.57
555.86	909.47
556.313	908.27
556.765	898.37
557.218	897.57
557.67	893.47
558.123	893.87
558.576	903.57
559.028	897.67
559.48	900.07
559.933	887.37
560.385	857.07
560.838	833.47
561.29	798.87
561.742	809.87
562.195	780.57
562.647	791.47
563.099	795.07
563.551	797.07
564.004	800.07
564.456	787.57
564.908	779.27
565.36	765.67
565.812	752.97
566.264	739.47
566.716	747.27
567.168	723.37
567.62	735.27
568.072	719.77
568.524	716.37
568.976	700.07
569.428	684.47
569.88	693.47
570.332	696.67
570.784	698.77
571.235	704.27
571.687	706.17
572.139	717.77
572.59	723.67
573.042	723.37
573.494	728.77
573.945	721.47
574.397	691.07
574.849	706.07
575.3	707.27
575.752	705.97
576.203	689.57
576.655	702.27
577.106	693.87
577.557	686.37
578.009	685.57
578.46	680.17
578.912	682.87
579.363	677.37
579.814	675.67
580.265	669.47
580.717	683.87
581.168	677.07
581.619	689.47
582.07	705.77
582.521	688.47
582.972	689.37
583.423	699.87
583.875	706.97
584.326	722.67
584.777	760.07
585.227	841.27
585.678	936.97
586.129	1024.07
586.58	1090.08
587.031	1180.77
587.482	1334.17
587.933	1528.17
588.384	1326.57
588.834	977.77
589.285	813.17
589.736	787.97
590.186	784.77
590.637	785.87
591.088	762.07
591.538	753.17
591.989	738.07
592.439	739.47
592.89	732.37
593.34	714.47
593.791	726.27
594.241	720.67
594.692	722.57
595.142	713.97
595.593	717.87
596.043	724.07
596.493	730.87
596.943	730.37
597.394	730.37
597.844	723.97
598.294	742.27
598.744	765.67
599.195	792.97
599.645	835.37
600.095	865.57
600.545	926.07
600.995	986.97
601.445	1034.57
601.895	1109.67
602.345	1155.17
602.795	1130.67
603.245	1073.57
603.695	1021.17
604.145	968.57
604.594	925.07
605.044	876.27
605.494	808.67
605.944	760.37
606.393	739.77
606.843	740.87
607.293	742.77
607.743	748.67
608.192	765.37
608.642	771.07
609.091	786.07
609.541	778.17
609.99	787.67
610.44	781.57
610.889	736.97
611.339	711.47
611.788	701.47
612.238	717.47
612.687	729.87
613.136	729.97
613.586	753.77
614.035	747.07
614.484	766.57
614.933	768.37
615.383	771.37
615.832	746.07
616.281	741.37
616.73	707.97
617.179	684.57
617.628	664.87
618.077	648.47
618.526	632.47
618.975	616.47
619.424	619.27
619.873	616.67
620.322	638.37
620.771	615.37
621.22	619.97
621.669	607.77
622.118	594.77
622.567	585.27
623.015	574.37
623.464	575.47
623.913	562.77
624.361	563.17
624.81	554.47
625.259	571.47
625.707	568.87
626.156	563.47
626.604	576.17
627.053	563.77
627.501	571.57
627.95	568.87
628.398	595.47
628.847	575.67
629.295	578.57
629.744	572.47
630.192	581.57
630.64	585.87
631.089	573.27
631.537	580.37
631.985	596.37
632.433	609.67
632.881	611.37
633.33	673.17
633.778	649.27
634.226	574.57
634.674	584.17
635.122	589.37
635.57	599.07
636.018	633.47
636.466	591.37
636.914	569.17
637.362	582.87
637.81	577.57
638.258	588.97
638.705	582.47
639.153	620.67
639.601	618.57
640.049	651.07
640.497	681.97
640.944	702.07
641.392	663.07
641.84	612.27
642.287	594.87
642.735	581.67
643.182	581.07
643.63	574.07
644.078	573.17
644.525	593.87
644.973	602.07
645.42	606.97
645.867	635.47
646.315	651.17
646.762	668.27
647.21	700.87
647.657	723.77
648.104	761.97
648.551	777.17
648.999	857.77
649.446	928.27
649.893	1018.57
650.34	1194.47
650.787	1410.27
651.234	1748.88
651.682	2297.38
652.129	3142.57
652.576	4536.27
653.023	6701.68
653.47	9228.38
653.917	11501.77
654.363	13272.48
654.81	14682.68
655.257	13944.38
655.704	9158.47
656.151	5395.67
656.598	3478.68
657.044	2451.27
657.491	1888.47
657.938	1503.28
658.385	1271.77
658.831	1097.58
659.278	976.47
659.724	860.87
660.171	792.77
660.618	734.67
661.064	704.57
661.511	684.47
661.957	660.87
662.404	660.67
662.85	661.07
663.296	635.37
663.743	575.67
664.189	544.67
664.635	539.67
665.082	538.37
665.528	539.37
665.974	529.87
666.42	514.97
666.867	510.47
667.313	497.57
667.759	492.87
668.205	481.27
668.651	483.37
669.097	493.57
669.543	509.07
669.989	477.07
670.435	465.97
670.881	452.27
671.327	458.07
671.773	473.47
672.219	500.87
672.665	542.67
673.11	574.17
673.556	637.87
674.002	679.07
674.448	672.07
674.893	551.97
675.339	478.07
675.785	440.07
676.23	422.27
676.676	390.87
677.122	380.87
677.567	373.27
678.013	362.47
678.458	363.37
678.904	364.47
679.349	350.47
679.794	357.17
680.24	355.87
680.685	350.17
681.131	342.07
681.576	351.37
682.021	365.67
682.466	353.97
682.912	343.77
683.357	359.17
683.802	378.27
684.247	411.17
684.692	460.07
685.137	488.67
685.583	534.97
686.028	564.97
686.473	528.67
686.918	448.67
687.363	415.67
687.807	395.47
688.252	360.47
688.697	355.57
689.142	346.37
689.587	336.87
690.032	328.77
690.477	344.97
690.921	356.57
691.366	382.77
691.811	399.77
692.255	439.67
692.7	462.47
693.145	501.97
693.589	698.27
694.034	1131.28
694.478	1550.48
694.923	1745.28
695.367	2277.88
695.812	1192.67
696.256	500.77
696.701	375.57
697.145	345.27
697.59	334.67
698.034	322.27
698.478	339.27
698.922	326.97
699.367	332.07
699.811	336.97
700.255	353.57
700.699	382.97
701.143	426.07
701.588	478.47
702.032	528.37
702.476	511.07
702.92	487.07
703.364	493.07
703.808	638.87
704.252	1040.67
704.696	1452.08
705.14	1682.57
705.584	2142.07
706.027	1067.07
706.471	524.67
706.915	403.07
707.359	354.57
707.803	321.27
708.246	323.37
708.69	318.27
709.134	314.37
709.577	309.77
710.021	315.87
710.465	303.77
710.908	299.27
711.352	300.27
711.795	319.57
712.239	353.97
712.682	393.07
713.126	427.87
713.569	467.37
714.012	378.27
714.456	324.77
714.899	305.17
715.342	275.67
715.786	264.57
716.229	257.47
716.672	263.37
717.115	251.57
717.558	251.47
718.002	252.67
718.445	262.87
718.888	289.27
719.331	291.57
719.774	299.57
720.217	310.67
720.66	293.37
721.103	270.17
721.546	256.67
721.989	251.37
722.432	228.97
722.874	238.87
723.317	229.67
723.76	237.37
724.203	267.57
724.645	321.37
725.088	441.37
725.531	564.37
725.974	650.27
726.416	550.57
726.859	304.77
727.301	244.97
727.744	239.67
728.187	234.17
728.629	233.77
729.071	237.47
729.514	256.07
729.956	278.67
730.399	279.57
730.841	283.07
731.283	279.57
731.726	265.17
732.168	265.27
732.61	264.67
733.053	288.07
733.495	315.87
733.937	352.67
734.379	392.57
734.821	438.57
735.263	542.17
735.705	838.27
736.148	1564.47
736.59	2582.38
737.032	3086.38
737.474	2487.38
737.916	807.87
738.357	422.17
738.799	323.17
739.241	290.47
739.683	285.27
740.125	295.17
740.567	296.57
741.008	314.37
741.45	314.37
741.892	315.27
742.334	346.07
742.775	357.07
743.217	343.07
743.658	267.27
744.1	261.57
744.542	256.77
744.983	313.27
745.425	343.27
745.866	352.37
746.307	282.87
746.749	280.27
747.19	321.67
747.632	453.97
748.073	878.27
748.514	1865.58
748.956	2848.47
749.397	3575.08
749.838	2962.77
750.279	2967.78
750.72	1496.97
751.162	548.27
751.603	320.37
752.044	247.07
752.485	215.07
752.926	211.17
753.367	203.07
753.808	199.17
754.249	193.47
754.69	182.77
755.131	185.37
755.572	178.57
756.013	177.17
756.453	183.27
756.894	191.47
757.335	190.37
757.776	194.27
758.216	193.47
758.657	200.37
759.098	200.67
759.538	227.57
759.979	264.47
760.42	368.37
760.86	700.67
761.301	1795.77
761.741	4391.68
762.182	6418.17
762.622	4516.98
763.063	1300.78
763.503	545.17
763.943	344.07
764.384	349.47
764.824	399.27
765.264	445.47
765.705	303.37
766.145	210.17
766.585	191.47
767.025	182.87
767.465	187.07
767.906	235.17
768.346	325.17
768.786	341.77
769.226	267.17
769.666	317.57
770.106	614.37
770.546	1554.57
770.986	2644.27
771.426	2365.48
771.866	790.87
772.306	330.87
772.745	207.97
773.185	175.87
773.625	168.87
774.065	172.57
774.505	201.87
774.944	312.97
775.384	697.07
775.824	1253.37
776.263	1213.47
776.703	511.17
777.142	225.67
777.582	162.77
778.021	135.67
778.461	140.87
778.9	143.97
779.34	130.27
779.779	121.47
780.219	112.67
780.658	108.97
781.097	110.27
781.537	119.57
781.976	101.87
782.415	109.97
782.855	105.37
783.294	102.37
783.733	109.97
784.172	104.97
784.611	105.97
785.05	105.97
785.489	121.37
785.928	115.27
786.367	124.77
786.806	118.07
787.245	127.37
787.684	135.87
788.123	151.97
788.562	141.97
789.001	131.87
789.44	119.97
789.879	120.57
790.317	121.97
790.756	126.97
791.195	124.47
791.634	142.37
792.072	198.87
792.511	370.87
792.95	1001.97
793.388	2130.88
793.827	1944.97
794.265	686.97
794.704	282.57
795.142	187.17
795.581	148.67
796.019	135.07
796.458	129.67
796.896	127.27
797.334	132.87
797.773	150.17
798.211	216.67
798.649	431.27
799.087	1010.87
799.526	1581.07
799.964	2001.28
800.402	2011.18
800.84	749.97
801.278	301.17
801.716	181.77
802.154	149.07
802.592	144.97
803.03	141.27
803.468	133.27
803.906	142.07
804.344	147.97
804.782	145.47
805.22	137.77
805.658	127.67
806.096	151.37
806.533	154.47
806.971	169.67
807.409	213.07
807.847	315.87
808.284	661.47
808.722	1850.77
809.16	3289.57
809.597	3088.27
810.035	5392.48
810.472	5769.88
810.91	2079.68
811.347	779.07
811.785	402.97
812.222	258.87
812.66	193.37
813.097	171.47
813.535	142.77
813.972	132.07
814.409	109.77
814.846	102.77
815.284	111.17
815.721	97.87
816.158	108.17
816.595	119.07
817.032	176.37
817.47	198.37
817.907	172.57
818.344	148.47
818.781	121.77
819.218	107.07
819.655	125.07
820.092	183.57
820.529	210.17
820.966	176.57
821.403	134.97
821.839	109.97
822.276	101.87
822.713	121.07
823.15	129.17
823.587	119.07
824.023	145.37
824.46	292.87
824.897	900.37
825.333	1357.88
825.77	574.57
826.206	225.07
826.643	138.57
827.08	102.07
827.516	86.37
827.953	75.07
828.389	81.77
828.825	72.27
829.262	66.07
829.698	65.87
830.135	64.77
830.571	65.87
831.007	61.77
831.443	63.47
831.88	68.27
832.316	58.07
832.752	64.07
833.188	62.87
833.624	57.97
834.06	58.37
834.497	70.77
834.933	78.07
835.369	78.77
835.805	71.67
836.241	87.27
836.677	83.37
837.112	86.97
837.548	98.67
837.984	130.77
838.42	200.57
838.856	484.87
839.292	1494.38
839.727	2312.18
840.163	1074.38
840.599	914.67
841.034	2005.38
841.47	2107.47
841.906	775.27
842.341	336.37
842.777	231.37
843.212	311.47
843.648	314.97
844.083	161.47
844.519	98.37
844.954	75.17
845.39	59.87
845.825	60.87
846.261	56.27
846.696	55.37
847.131	48.57
847.566	56.07
848.002	51.87
848.437	53.67
848.872	56.17
849.307	63.77
849.742	85.77
850.177	172.37
850.613	550.87
851.048	877.17
851.483	383.57
851.918	156.17
852.353	92.77
852.788	56.17
853.223	56.47
853.657	53.27
854.092	48.57
854.527	39.17
854.962	45.77
855.397	47.07
855.832	46.77
856.266	37.97
856.701	37.97
857.136	39.07
857.57	42.47
858.005	52.57
858.44	57.97
858.874	46.37
859.309	48.87
859.743	42.37
860.178	50.47
860.612	44.77
861.047	47.37
861.481	71.77
861.915	70.17
862.35	40.57
862.784	30.57
863.218	33.97
863.653	37.17
864.087	40.67
864.521	52.07
864.955	70.57
865.39	152.67
865.824	180.17
866.258	116.47
866.692	162.87
867.126	174.97
867.56	101.67
867.994	53.37
868.428	38.57
868.862	46.97
869.296	53.67
869.73	57.87
870.164	54.17
870.598	44.57
871.031	34.77
871.465	30.57
871.899	23.47
872.333	23.27
872.766	24.17
873.2	25.07
873.634	25.07
874.067	20.67
874.501	27.77
874.935	39.87
875.368	30.07
875.802	30.47
876.235	25.47
876.669	25.77
877.102	19.97
877.535	30.37
877.969	26.17
878.402	21.27
878.836	18.57
879.269	23.97
879.702	24.97
880.135	21.57
880.569	22.57
881.002	27.67
881.435	21.87
881.868	17.57
882.301	21.97
882.734	13.27
883.167	22.87
883.601	17.87
884.034	27.67
884.467	17.67
884.899	23.87
885.332	12.17
885.765	16.87
886.198	18.77
886.631	21.97
887.064	18.97
887.497	20.97
887.929	25.27
888.362	17.07
888.795	13.07
889.228	11.97
889.66	22.07
890.093	21.57
890.526	13.97
890.958	14.27
891.391	15.77
891.823	21.57
892.256	4.97
892.688	16.17
893.121	14.17
893.553	11.67
893.985	22.77
894.418	24.87
894.85	17.17
895.282	14.37
895.715	17.37
896.147	15.57
896.579	20.57
897.011	10.77
897.444	18.47
897.876	15.17
898.308	13.17
898.74	19.27
899.172	17.57
899.604	23.57
900.036	13.87
900.468	9.77
900.9	11.67
901.332	21.97
901.764	16.07
902.196	20.67
902.628	12.17
903.06	12.87
903.491	31.47
903.923	22.57
904.355	20.27
904.787	17.87
905.218	19.77
905.65	17.77
906.082	19.27
906.513	13.07
906.945	14.17
907.376	15.77
907.808	22.87
908.239	21.77
908.671	18.57
909.102	20.47
909.534	23.17
909.965	45.57
910.397	92.87
910.828	313.17
911.259	475.17
911.691	212.07
912.122	106.47
912.553	52.97
912.984	38.47
913.415	30.67
913.847	22.57
914.278	14.37
914.709	19.77
915.14	17.97
915.571	15.47
916.002	14.57
916.433	19.07
916.864	16.57
917.295	13.67
917.726	18.57
918.157	16.07
918.587	24.37
919.018	22.67
919.449	20.87
919.88	23.47
920.311	28.47
920.741	53.37
921.172	166.67
921.603	153.27
922.033	72.07
922.464	40.97
922.895	20.37
923.325	14.17
923.756	20.27
924.186	15.37
924.617	28.07
925.047	44.17
925.478	53.27
925.908	47.37
926.338	26.07
926.769	22.37
927.199	18.47
927.629	9.07
928.06	14.07
928.49	18.67
928.92	21.07
929.35	16.97
929.78	10.77
930.21	6.97
930.641	6.17
931.071	3.87
931.501	2.07
931.931	4.67
932.361	10.07
932.791	2.87
933.221	9.17
933.651	3.87
934.08	14.07
934.51	27.67
934.94	8.77
935.37	7.97
935.8	0.77
936.229	3.17
936.659	10.67
937.089	4.97
937.519	9.87
937.948	23.57
938.378	13.77
938.807	4.77
939.237	2.47
939.666	11.37
940.096	-3.13
940.525	1.87
940.955	5.37
941.384	4.47
941.814	-6.63
942.243	-1.33
942.672	1.47
943.102	-5.03
943.531	-6.33
943.96	3.57
944.39	1.77
944.819	3.17
945.248	3.07
945.677	4.17
946.106	5.37
946.535	2.87
946.964	2.67
947.393	0.07
947.822	8.57
948.251	-2.03
948.68	6.47
949.109	0.57
949.538	3.67
949.967	0.57
950.396	-3.83
950.825	3.37
951.254	-3.53
951.682	-9.53
952.111	1.37
952.54	10.97
952.969	-6.93
953.397	-3.93
953.826	0.47
954.254	-2.23
954.683	2.97
955.112	-2.33
955.54	-3.03
955.969	0.47
956.397	1.07
956.826	-2.83
957.254	0.87
957.682	-0.33
958.111	7.97
958.539	-3.23
958.967	3.17
959.396	1.07
959.824	3.37
960.252	5.27
960.68	-5.63
961.109	-0.63
961.537	-9.23
961.965	-2.03
962.393	-2.43
962.821	-0.73
963.249	-3.13
963.677	3.27
964.105	8.37
964.533	37.27
964.961	36.27
965.389	17.17
965.817	4.37
966.245	-4.13
966.672	-5.43
967.1	-4.83
967.528	1.97
967.956	-4.53
968.383	0.47
968.811	-1.93
969.239	-2.53
969.666	-0.43
970.094	5.37
970.522	1.47
970.949	0.97
971.377	-4.73
971.804	-1.53
972.232	-6.53
972.659	-2.43
973.087	-5.43
973.514	-9.13
973.941	-6.83
974.369	2.77
974.796	-1.13
975.223	-2.53
975.651	-2.23
976.078	1.97
976.505	1.67
976.932	2.87
977.359	18.57
977.786	11.37
978.214	-7.23
978.641	-8.33
979.068	-9.43
979.495	-5.83
979.922	-2.23
980.349	-2.73
980.776	0.07
981.202	-7.03
981.629	7.97
982.056	-0.63
982.483	-3.13
982.91	2.27
983.337	-4.03
983.763	1.67
984.19	-7.83
984.617	-2.13
985.043	-1.23
985.47	0.97
985.897	-13.53
986.323	-6.33
986.75	-4.53
987.176	-1.33
987.603	-0.33
988.029	-2.93
988.456	-0.83
988.882	1.77
989.308	-3.13
989.735	-4.73
990.161	-0.13
990.587	-4.43
991.014	2.17
991.44	5.77
991.866	-2.53
992.292	-3.73
992.719	-0.93
993.145	4.57
993.571	-9.53
993.997	-5.63
994.423	-2.73
994.849	-1.73
995.275	-4.23
995.701	2.97
996.127	-0.53
996.553	3.77
996.979	-4.13
997.405	-10.53
997.83	-1.13
998.256	-9.83
998.682	-7.83
999.108	-13.53
999.534	-2.43
999.959	-5.63
1000.385	-4.53
1000.811	3.27
1001.236	-11.73
1001.662	-2.43
1002.087	-10.43
1002.513	3.47
1002.938	-1.43
1003.364	-2.13
1003.789	1.57
1004.215	6.97
1004.64	-7.23
1005.066	2.07
1005.491	0.67
1005.916	-3.63
1006.342	-1.83
1006.767	-11.23
1007.192	0.47
1007.617	-3.43
1008.042	3.97
1008.468	-7.63
1008.893	-8.03
1009.318	-7.63
1009.743	-3.93
1010.168	0.17
1010.593	-0.33
1011.018	-8.73
1011.443	-4.03
1011.868	-4.93
1012.293	-1.83
1012.718	-4.23
1013.143	-2.23
1013.567	5.07
1013.992	-2.63
1014.417	-12.13
1014.842	6.07
1015.267	-5.13
1015.691	-4.43
1016.116	0.47
1016.541	-3.83
1016.965	-1.93
1017.39	2.17
1017.814	-4.13
1018.239	-1.13
1018.663	-1.73
1019.088	-14.53
1019.512	-5.93
1019.937	-2.53
1020.361	-5.43
1020.785	-12.83
1021.21	-3.23
1021.634	-2.33
1022.058	2.87
1022.483	4.17
1022.907	-4.73
1023.331	-4.43
1023.755	-5.43
1024.179	-3.33
1024.604	-11.73
1025.028	-8.53
1025.452	-2.03
1025.876	-4.53
1026.3	-1.43
1026.724	-13.23
1027.148	-8.13
1027.572	-10.93
1027.996	-5.63
1028.42	3.97
1028.843	-2.53
1029.267	-3.13
1029.691	-4.83
1030.115	-9.13
1030.539	-11.93
1030.962	-0.73
1031.386	-12.93
1031.81	-1.43
1032.233	-4.53
1032.657	-10.53
1033.08	-3.13
1033.504	-8.03
1033.927	-2.43
1034.351	0.07
1034.774	-5.93
1035.198	-7.23
1035.621	-3.63
1036.045	-6.33
1036.468	2.47
1036.891	-14.53
1037.315	-12.13
1037.738	-8.63
1038.161	-2.93
1038.584	-8.13
1039.008	-3.93
1039.431	-2.33
1039.854	-3.63
1040.277	-12.93
1040.7	-10.23
1041.123	-1.13
1041.546	-5.93
1041.969	-8.33
1042.392	-5.43
1042.815	-3.83
1043.238	1.27
1043.661	-2.03
1044.084	-9.33
1044.507	-5.53
1044.93	-7.43
1045.352	-6.53
1045.775	-4.93
1046.198	5.37
1046.621	-5.43
1047.043	-2.13
1047.466	6.67
1047.889	-4.53
1048.311	-3.93
1048.734	-4.63
1049.156	-7.13
1049.579	1.07
1050.001	-4.23
1050.424	-2.33
1050.846	-6.53
1051.269	-2.93
1051.691	-1.33
1052.113	-7.53
1052.536	2.67
1052.958	0.27
1053.38	-5.03
1053.802	-10.63
1054.225	-4.63
1054.647	-15.03
1055.069	-11.13
1055.491	1.17
1055.913	-5.93
1056.335	-2.93
1056.757	0.47
1057.179	-9.93
1057.601	-1.33
1058.023	-3.93
1058.445	-2.53
1058.867	-5.83
1059.289	0.97
1059.711	-6.83
1060.133	-5.83
1060.555	-4.93
1060.976	-9.53
1061.398	-1.93
1061.82	-13.33
1062.241	-4.83
1062.663	-5.53
1063.085	-2.33
1063.506	-1.73
1063.928	-0.63
1064.35	-3.73
1064.771	-10.53
1065.193	-5.83
1065.614	-8.53
1066.035	-4.33
1066.457	-8.73
1066.878	-2.53
1067.3	-10.13
1067.721	0.87
1068.142	-5.53
1068.564	1.67
1068.985	-7.23
1069.406	-1.43
1069.827	-9.13
1070.248	-6.43
1070.67	-5.23
1071.091	-13.93
1071.512	-2.03
1071.933	-6.83
1072.354	-10.53
1072.775	-7.43
1073.196	-12.63
1073.617	-4.43
1074.038	-11.53
1074.459	-5.03
1074.88	-10.93
1075.3	0.97
1075.721	-7.23
1076.142	2.17
1076.563	-3.03
1076.983	-9.23
1077.404	-5.83
1077.825	-9.93
1078.246	-6.33
1078.666	-14.63
1079.087	-3.33
1079.507	-11.63
1079.928	-3.33
1080.348	-3.93
1080.769	-8.63
1081.189	-0.23
1081.61	-12.43
1082.03	-4.23
1082.451	-8.53
1082.871	0.77
1083.291	-9.23
1083.711	-11.73
1084.132	-4.33
1084.552	-5.03
1084.972	-2.13
1085.392	-10.33
1085.813	-12.43
1086.233	-14.53
1086.653	-2.43
1087.073	-5.33
1087.493	-7.33
1087.913	-6.53
1088.333	-8.93
1088.753	-5.63
1089.173	-0.63
1089.593	1.07
1090.013	0.07
1090.433	-4.03
1090.852	-0.73
1091.272	4.17
1091.692	-6.03
1092.112	-1.73
1092.531	-3.23
1092.951	-11.33
1093.371	-7.73
1093.79	-3.83
1094.21	-1.73
1094.63	-9.03
1095.049	-12.83
1095.469	-1.53
1095.888	-3.33
1096.308	0.17
1096.727	3.67
1097.146	-5.13
1097.566	-3.73
1097.985	-6.83
1098.405	-5.43
1098.824	-2.23
1099.243	-6.33
1099.662	-5.03
1100.082	-6.63
1100.501	-5.53
1100.92	-9.33
1101.339	-4.43
1101.758	-7.53
