Data from 20171114-ORNL-Ar_H_NY_Subt18_08-05-10-579.txt Node
Date: Tue Nov 14 08:05:10 EST 2017
User: Ender
Spectrometer: HR+D1039
Trigger mode: 0
Integration Time (sec): 2.730000E-2
Scans to average: 10
Electric dark correction enabled: true
Nonlinearity correction enabled: false
Boxcar width: 0
XAxis mode: Wavelengths
Number of Pixels in Spectrum: 2048
>>>>>Begin Spectral Data<<<<<
187.836	-3.08
188.309	-3.08
188.782	-3.08
189.255	2.42
189.728	-0.88
190.201	4.82
190.674	1.22
191.147	-2.88
191.619	-4.68
192.092	-1.08
192.565	10.82
193.038	-2.38
193.511	-2.28
193.984	1.42
194.456	-1.38
194.929	0.32
195.402	1.02
195.874	-3.38
196.347	-2.18
196.82	-4.78
197.292	3.72
197.765	-5.88
198.237	-11.38
198.71	-2.88
199.182	-2.58
199.655	2.02
200.127	4.82
200.6	-3.38
201.072	3.12
201.544	-7.88
202.017	-3.48
202.489	4.82
202.961	-3.48
203.433	-7.88
203.906	-4.58
204.378	-3.68
204.85	-4.38
205.322	-9.68
205.794	-5.68
206.266	-1.98
206.739	-5.88
207.211	-3.18
207.683	-6.58
208.155	-5.28
208.627	-7.98
209.099	1.82
209.57	-7.38
210.042	-3.18
210.514	-1.78
210.986	0.12
211.458	-3.78
211.93	-2.18
212.402	1.72
212.873	-4.98
213.345	-12.68
213.817	-11.08
214.288	-6.08
214.76	-2.98
215.232	-3.38
215.703	-8.58
216.175	-6.88
216.646	-2.38
217.118	-3.68
217.589	-5.48
218.061	0.02
218.532	-5.48
219.004	2.82
219.475	0.82
219.946	1.12
220.418	1.52
220.889	8.42
221.36	3.52
221.832	-6.88
222.303	-4.88
222.774	2.82
223.245	-9.88
223.717	-8.58
224.188	0.02
224.659	-6.98
225.13	-2.78
225.601	1.22
226.072	1.52
226.543	-2.78
227.014	0.52
227.485	-1.18
227.956	-9.18
228.427	-2.88
228.898	1.02
229.369	8.32
229.839	-5.98
230.31	-2.08
230.781	3.52
231.252	-5.68
231.722	-4.18
232.193	-2.98
232.664	0.22
233.135	2.22
233.605	-2.08
234.076	-0.98
234.546	-1.58
235.017	1.52
235.487	5.52
235.958	5.62
236.428	-6.78
236.899	3.72
237.369	6.62
237.84	-2.48
238.31	7.72
238.78	2.32
239.251	-3.38
239.721	2.92
240.191	4.72
240.662	0.52
241.132	3.62
241.602	-4.48
242.072	6.62
242.542	3.62
243.013	-1.68
243.483	0.92
243.953	-1.78
244.423	4.22
244.893	-1.68
245.363	-0.58
245.833	0.42
246.303	1.32
246.773	9.22
247.243	0.62
247.712	6.22
248.182	7.22
248.652	10.12
249.122	-0.08
249.592	11.42
250.061	24.42
250.531	26.32
251.001	14.22
251.471	22.72
251.94	28.12
252.41	4.72
252.879	3.12
253.349	11.92
253.818	11.62
254.288	6.72
254.757	8.32
255.227	5.12
255.696	6.32
256.166	7.82
256.635	6.52
257.105	8.02
257.574	1.82
258.043	14.82
258.513	11.42
258.982	16.22
259.451	9.12
259.92	15.82
260.389	8.12
260.859	19.72
261.328	16.82
261.797	15.62
262.266	13.92
262.735	11.22
263.204	4.12
263.673	-0.48
264.142	5.92
264.611	0.92
265.08	7.72
265.549	1.62
266.018	8.42
266.487	4.22
266.955	0.92
267.424	4.62
267.893	8.42
268.362	2.82
268.83	-0.58
269.299	12.12
269.768	12.52
270.236	10.12
270.705	4.32
271.174	10.32
271.642	11.92
272.111	8.62
272.579	21.12
273.048	25.22
273.516	29.22
273.985	33.82
274.453	36.42
274.922	18.22
275.39	16.52
275.858	12.22
276.327	17.82
276.795	19.12
277.263	11.42
277.731	31.62
278.2	58.62
278.668	64.32
279.136	50.92
279.604	21.52
280.072	13.32
280.54	12.82
281.008	15.72
281.477	14.82
281.945	13.42
282.413	16.02
282.881	17.82
283.348	12.42
283.816	16.32
284.284	18.12
284.752	16.22
285.22	14.22
285.688	19.02
286.156	22.02
286.623	49.32
287.091	54.42
287.559	33.42
288.026	21.12
288.494	17.82
288.962	8.22
289.429	12.82
289.897	18.52
290.364	17.42
290.832	20.22
291.3	16.42
291.767	20.52
292.234	23.32
292.702	20.02
293.169	19.62
293.637	21.02
294.104	21.32
294.571	17.52
295.039	12.72
295.506	11.02
295.973	20.22
296.44	13.12
296.908	18.72
297.375	21.52
297.842	17.92
298.309	23.12
298.776	16.62
299.243	23.62
299.71	15.22
300.177	29.72
300.644	20.22
301.111	26.72
301.578	28.92
302.045	23.62
302.512	20.22
302.979	30.22
303.446	25.82
303.913	20.02
304.379	20.52
304.846	26.32
305.313	32.72
305.78	18.62
306.246	25.22
306.713	26.52
307.18	25.62
307.646	28.62
308.113	31.62
308.579	32.22
309.046	30.52
309.512	34.72
309.979	17.72
310.445	30.92
310.912	25.12
311.378	34.32
311.845	35.02
312.311	35.72
312.777	28.52
313.244	30.42
313.71	38.42
314.176	36.42
314.642	28.72
315.109	38.22
315.575	36.42
316.041	45.32
316.507	37.62
316.973	41.42
317.439	31.92
317.905	38.52
318.371	39.32
318.837	41.42
319.303	35.52
319.769	37.22
320.235	36.82
320.701	35.92
321.167	36.62
321.633	35.12
322.099	43.32
322.564	49.12
323.03	43.52
323.496	41.22
323.962	45.02
324.427	41.62
324.893	43.02
325.359	44.42
325.824	44.32
326.29	38.82
326.755	38.72
327.221	46.12
327.686	39.42
328.152	53.82
328.617	40.02
329.083	46.62
329.548	53.52
330.014	54.42
330.479	45.22
330.944	48.02
331.41	52.02
331.875	46.12
332.34	49.12
332.805	43.42
333.271	49.22
333.736	47.52
334.201	57.92
334.666	56.42
335.131	54.72
335.596	56.82
336.061	57.12
336.526	46.92
336.991	54.22
337.456	58.42
337.921	50.62
338.386	50.32
338.851	50.12
339.316	50.32
339.781	46.02
340.246	57.52
340.711	50.42
341.175	55.72
341.64	50.52
342.105	55.42
342.569	51.12
343.034	66.62
343.499	58.42
343.963	55.72
344.428	66.52
344.893	60.52
345.357	70.32
345.822	65.72
346.286	67.02
346.751	76.62
347.215	72.22
347.679	80.72
348.144	102.32
348.608	84.02
349.073	71.12
349.537	73.92
350.001	86.02
350.465	91.92
350.93	84.82
351.394	87.02
351.858	78.42
352.322	93.42
352.786	86.22
353.25	101.12
353.715	115.32
354.179	108.02
354.643	130.12
355.107	133.52
355.571	114.42
356.035	106.42
356.498	122.12
356.962	129.12
357.426	137.32
357.89	120.82
358.354	93.52
358.818	86.72
359.281	82.62
359.745	83.62
360.209	78.42
360.673	77.12
361.136	80.82
361.6	83.82
362.064	80.42
362.527	86.32
362.991	99.82
363.454	79.32
363.918	78.92
364.381	79.52
364.845	87.12
365.308	85.92
365.772	86.52
366.235	82.32
366.698	91.22
367.162	82.42
367.625	86.82
368.088	90.72
368.552	92.72
369.015	91.62
369.478	102.12
369.941	104.22
370.404	94.82
370.867	110.22
371.331	107.12
371.794	114.62
372.257	111.72
372.72	119.82
373.183	112.62
373.646	105.12
374.109	104.22
374.572	103.52
375.035	108.92
375.497	111.12
375.96	112.22
376.423	102.72
376.886	115.82
377.349	112.72
377.811	106.42
378.274	110.02
378.737	109.22
379.199	108.12
379.662	118.12
380.125	116.92
380.587	120.02
381.05	124.42
381.512	133.22
381.975	133.22
382.437	125.82
382.9	126.32
383.362	143.92
383.825	145.22
384.287	147.12
384.75	148.12
385.212	143.92
385.674	144.62
386.136	135.72
386.599	134.72
387.061	131.02
387.523	137.92
387.985	138.92
388.447	151.82
388.91	148.22
389.372	159.82
389.834	150.02
390.296	148.12
390.758	159.62
391.22	162.52
391.682	210.52
392.144	290.32
392.606	229.02
393.068	168.52
393.529	169.42
393.991	157.52
394.453	162.62
394.915	153.82
395.377	193.82
395.838	223.52
396.3	153.62
396.762	146.82
397.224	133.92
397.685	127.82
398.147	129.22
398.608	133.12
399.07	126.02
399.531	132.42
399.993	140.72
400.454	155.12
400.916	148.22
401.377	149.72
401.839	154.82
402.3	153.72
402.762	162.02
403.223	175.52
403.684	176.82
404.145	159.42
404.607	156.62
405.068	166.82
405.529	181.92
405.99	195.02
406.451	171.62
406.913	179.22
407.374	161.12
407.835	161.82
408.296	162.52
408.757	168.82
409.218	189.72
409.679	183.72
410.14	176.62
410.601	178.52
411.062	189.42
411.522	191.62
411.983	182.72
412.444	174.12
412.905	180.02
413.366	184.42
413.826	194.32
414.287	215.42
414.748	266.32
415.208	253.62
415.669	216.62
416.13	202.32
416.59	198.82
417.051	209.42
417.511	218.22
417.972	236.42
418.432	252.02
418.893	285.82
419.353	248.32
419.814	192.72
420.274	180.02
420.734	182.92
421.195	198.62
421.655	193.92
422.115	193.32
422.576	194.92
423.036	209.72
423.496	215.32
423.956	214.52
424.416	229.72
424.876	261.62
425.336	262.72
425.797	269.52
426.257	256.72
426.717	250.82
427.177	237.42
427.637	219.52
428.097	231.12
428.556	255.62
429.016	268.82
429.476	266.12
429.936	279.12
430.396	276.12
430.856	287.72
431.315	317.22
431.775	347.22
432.235	383.62
432.694	346.02
433.154	368.12
433.614	387.02
434.073	333.82
434.533	286.22
434.993	276.82
435.452	285.92
435.912	292.82
436.371	291.32
436.83	291.22
437.29	277.72
437.749	245.52
438.209	244.42
438.668	274.52
439.127	291.92
439.587	260.92
440.046	250.32
440.505	260.22
440.964	276.12
441.424	326.32
441.883	317.72
442.342	261.42
442.801	223.02
443.26	215.22
443.719	224.42
444.178	221.52
444.637	213.52
445.096	221.22
445.555	222.72
446.014	223.22
446.473	222.92
446.932	234.72
447.391	228.82
447.849	229.92
448.308	223.42
448.767	229.12
449.226	238.22
449.685	229.82
450.143	256.42
450.602	241.12
451.061	232.02
451.519	241.52
451.978	232.62
452.436	237.32
452.895	242.72
453.353	254.62
453.812	237.02
454.27	244.52
454.729	240.12
455.187	235.82
455.646	242.12
456.104	247.52
456.562	261.42
457.021	269.92
457.479	263.02
457.937	271.52
458.395	263.72
458.854	252.92
459.312	253.92
459.77	280.52
460.228	258.12
460.686	240.82
461.144	251.92
461.602	238.92
462.06	236.92
462.518	251.02
462.976	255.52
463.434	264.72
463.892	268.22
464.35	278.32
464.808	293.32
465.266	268.92
465.724	273.52
466.181	275.02
466.639	272.32
467.097	288.62
467.555	307.42
468.012	299.52
468.47	315.72
468.928	325.82
469.385	344.62
469.843	359.62
470.3	353.82
470.758	367.92
471.215	378.82
471.673	416.22
472.13	407.72
472.588	419.72
473.045	373.92
473.503	378.02
473.96	396.32
474.417	408.82
474.875	435.32
475.332	466.02
475.789	475.32
476.246	473.52
476.704	488.72
477.161	506.92
477.618	524.72
478.075	561.72
478.532	621.22
478.989	695.12
479.446	807.92
479.903	774.02
480.36	802.92
480.817	867.22
481.274	971.42
481.731	1080.62
482.188	1175.52
482.645	1297.12
483.102	1402.42
483.558	1535.72
484.015	1619.62
484.472	1573.42
484.929	1525.42
485.385	1488.22
485.842	1431.12
486.299	1365.12
486.755	1294.52
487.212	1103.42
487.668	941.72
488.125	852.72
488.582	788.72
489.038	757.82
489.494	719.22
489.951	684.22
490.407	678.42
490.864	656.42
491.32	643.72
491.776	645.02
492.233	651.72
492.689	615.42
493.145	609.32
493.602	603.52
494.058	611.12
494.514	627.72
494.97	645.12
495.426	649.72
495.882	631.22
496.338	624.92
496.794	633.42
497.251	633.22
497.707	644.32
498.163	647.62
498.618	648.62
499.074	660.52
499.53	686.62
499.986	684.42
500.442	654.12
500.898	636.92
501.354	626.22
501.809	632.12
502.265	651.82
502.721	657.72
503.177	672.52
503.632	674.42
504.088	678.72
504.543	719.62
504.999	714.82
505.455	663.72
505.91	640.72
506.366	642.42
506.821	634.12
507.277	620.02
507.732	626.32
508.187	633.82
508.643	634.12
509.098	646.82
509.553	658.72
510.009	668.22
510.464	680.52
510.919	698.22
511.375	706.52
511.83	709.92
512.285	730.12
512.74	769.72
513.195	788.02
513.65	784.62
514.105	780.82
514.56	782.12
515.015	798.42
515.47	820.92
515.925	790.72
516.38	793.52
516.835	801.82
517.29	782.82
517.745	780.62
518.2	767.52
518.655	761.32
519.109	754.02
519.564	745.92
520.019	737.52
520.474	726.72
520.928	734.12
521.383	726.42
521.838	719.12
522.292	715.22
522.747	720.22
523.201	706.62
523.656	704.32
524.11	703.82
524.565	692.52
525.019	694.52
525.474	702.72
525.928	695.22
526.382	703.62
526.837	693.72
527.291	707.22
527.745	702.42
528.2	692.02
528.654	693.32
529.108	691.82
529.562	682.92
530.016	696.72
530.47	683.82
530.925	689.62
531.379	694.42
531.833	714.62
532.287	698.32
532.741	698.72
533.195	705.02
533.649	714.32
534.103	725.12
534.556	717.12
535.01	722.92
535.464	715.42
535.918	725.72
536.372	715.42
536.826	716.22
537.279	710.02
537.733	716.32
538.187	724.22
538.64	727.22
539.094	718.82
539.548	726.92
540.001	720.92
540.455	720.72
540.908	731.62
541.362	739.72
541.815	739.32
542.269	744.52
542.722	752.62
543.175	770.12
543.629	768.22
544.082	785.22
544.536	796.82
544.989	783.42
545.442	793.62
545.895	795.72
546.349	789.52
546.802	788.82
547.255	802.32
547.708	794.82
548.161	816.12
548.614	812.02
549.067	819.82
549.52	820.72
549.973	812.42
550.426	803.02
550.879	799.72
551.332	792.22
551.785	800.82
552.238	798.22
552.691	808.52
553.144	825.82
553.596	856.82
554.049	862.82
554.502	895.62
554.955	909.52
555.407	910.42
555.86	895.02
556.313	896.32
556.765	887.62
557.218	880.42
557.67	876.12
558.123	874.72
558.576	873.82
559.028	877.52
559.48	872.82
559.933	869.42
560.385	829.12
560.838	816.02
561.29	775.92
561.742	781.02
562.195	748.62
562.647	760.12
563.099	770.62
563.551	765.82
564.004	768.42
564.456	758.82
564.908	757.32
565.36	746.32
565.812	726.32
566.264	726.72
566.716	719.42
567.168	706.72
567.62	718.52
568.072	695.52
568.524	681.92
568.976	681.22
569.428	670.32
569.88	661.12
570.332	676.32
570.784	673.22
571.235	675.52
571.687	678.62
572.139	689.62
572.59	709.02
573.042	707.82
573.494	702.32
573.945	697.62
574.397	686.72
574.849	690.12
575.3	677.92
575.752	679.62
576.203	670.72
576.655	678.82
577.106	662.42
577.557	659.62
578.009	661.82
578.46	657.22
578.912	650.42
579.363	663.42
579.814	673.22
580.265	654.12
580.717	665.22
581.168	667.22
581.619	664.12
582.07	667.72
582.521	665.02
582.972	668.32
583.423	673.32
583.875	678.92
584.326	684.72
584.777	726.32
585.227	801.02
585.678	877.12
586.129	963.02
586.58	1029.62
587.031	1114.62
587.482	1258.12
587.933	1454.32
588.384	1263.72
588.834	954.12
589.285	787.22
589.736	765.42
590.186	763.12
590.637	747.52
591.088	732.12
591.538	723.32
591.989	710.02
592.439	719.42
592.89	709.52
593.34	697.62
593.791	699.72
594.241	694.02
594.692	686.62
595.142	685.52
595.593	681.92
596.043	689.92
596.493	699.82
596.943	700.12
597.394	707.02
597.844	706.12
598.294	707.92
598.744	738.32
599.195	749.42
599.645	799.52
600.095	844.02
600.545	886.32
600.995	929.52
601.445	1006.72
601.895	1061.62
602.345	1106.92
602.795	1092.32
603.245	1034.42
603.695	987.82
604.145	926.02
604.594	888.42
605.044	837.02
605.494	779.92
605.944	729.02
606.393	719.12
606.843	706.22
607.293	708.92
607.743	706.82
608.192	722.02
608.642	730.32
609.091	748.42
609.541	748.92
609.99	748.62
610.44	745.92
610.889	699.22
611.339	679.32
611.788	665.12
612.238	683.52
612.687	703.82
613.136	697.32
613.586	713.52
614.035	709.72
614.484	720.02
614.933	721.62
615.383	709.82
615.832	713.82
616.281	701.22
616.73	667.52
617.179	648.52
617.628	624.52
618.077	607.82
618.526	593.12
618.975	600.82
619.424	594.62
619.873	598.72
620.322	592.82
620.771	584.22
621.22	577.72
621.669	577.42
622.118	572.02
622.567	560.02
623.015	549.22
623.464	546.92
623.913	543.52
624.361	533.92
624.81	526.42
625.259	533.12
625.707	539.52
626.156	539.62
626.604	538.52
627.053	535.42
627.501	541.42
627.95	548.42
628.398	555.22
628.847	542.42
629.295	544.42
629.744	540.92
630.192	538.52
630.64	551.62
631.089	544.02
631.537	545.62
631.985	559.42
632.433	568.42
632.881	580.72
633.33	625.22
633.778	609.72
634.226	546.52
634.674	535.42
635.122	544.72
635.57	572.42
636.018	596.62
636.466	558.42
636.914	536.42
637.362	548.12
637.81	544.42
638.258	551.22
638.705	550.02
639.153	584.72
639.601	585.42
640.049	612.02
640.497	641.92
640.944	671.92
641.392	615.02
641.84	576.22
642.287	558.52
642.735	545.72
643.182	546.32
643.63	549.12
644.078	554.12
644.525	564.92
644.973	576.52
645.42	569.62
645.867	592.82
646.315	612.62
646.762	629.12
647.21	661.72
647.657	690.02
648.104	711.62
648.551	732.12
648.999	799.22
649.446	871.82
649.893	953.02
650.34	1085.12
650.787	1306.02
651.234	1634.62
651.682	2102.12
652.129	2890.62
652.576	4120.32
653.023	6128.82
653.47	8396.02
653.917	10573.72
654.363	12305.02
654.81	13733.22
655.257	13023.72
655.704	8505.42
656.151	5042.12
656.598	3280.12
657.044	2310.92
657.491	1773.42
657.938	1423.22
658.385	1187.12
658.831	1029.72
659.278	912.12
659.724	812.12
660.171	748.72
660.618	689.02
661.064	661.82
661.511	634.32
661.957	617.22
662.404	620.12
662.85	624.22
663.296	592.72
663.743	533.62
664.189	507.62
664.635	500.72
665.082	495.72
665.528	495.72
665.974	487.22
666.42	478.62
666.867	489.32
667.313	471.22
667.759	457.22
668.205	453.12
668.651	453.72
669.097	457.92
669.543	473.12
669.989	437.92
670.435	422.02
670.881	421.12
671.327	423.02
671.773	441.22
672.219	454.92
672.665	514.22
673.11	547.02
673.556	592.42
674.002	628.02
674.448	616.02
674.893	517.12
675.339	445.02
675.785	413.32
676.23	387.02
676.676	364.92
677.122	364.12
677.567	348.62
678.013	354.02
678.458	338.92
678.904	333.02
679.349	332.32
679.794	330.82
680.24	325.12
680.685	334.12
681.131	327.52
681.576	328.52
682.021	340.32
682.466	322.32
682.912	325.22
683.357	333.02
683.802	359.42
684.247	383.02
684.692	421.22
685.137	466.72
685.583	510.22
686.028	528.82
686.473	485.22
686.918	414.02
687.363	391.22
687.807	366.32
688.252	344.82
688.697	339.22
689.142	316.32
689.587	310.12
690.032	308.82
690.477	326.32
690.921	333.42
691.366	358.22
691.811	373.72
692.255	408.42
692.7	432.12
693.145	475.22
693.589	629.12
694.034	1038.82
694.478	1426.72
694.923	1639.12
695.367	2151.92
695.812	1126.72
696.256	462.62
696.701	348.02
697.145	324.12
697.59	303.92
698.034	304.52
698.478	313.62
698.922	305.22
699.367	303.72
699.811	318.22
700.255	329.22
700.699	359.52
701.143	392.52
701.588	442.02
702.032	480.62
702.476	474.92
702.92	462.52
703.364	454.22
703.808	586.42
704.252	943.82
704.696	1353.32
705.14	1581.72
705.584	2025.22
706.027	1004.02
706.471	493.02
706.915	372.32
707.359	325.52
707.803	296.82
708.246	287.92
708.69	291.72
709.134	296.72
709.577	286.82
710.021	299.72
710.465	285.62
710.908	286.92
711.352	280.12
711.795	288.62
712.239	324.42
712.682	364.22
713.126	393.52
713.569	438.32
714.012	348.12
714.456	299.62
714.899	281.82
715.342	252.52
715.786	240.22
716.229	238.52
716.672	239.82
717.115	246.32
717.558	235.12
718.002	235.62
718.445	247.92
718.888	268.82
719.331	269.42
719.774	282.92
720.217	280.92
720.66	260.02
721.103	242.32
721.546	239.32
721.989	230.12
722.432	214.82
722.874	221.02
723.317	208.02
723.76	223.22
724.203	240.02
724.645	298.32
725.088	411.82
725.531	531.32
725.974	603.62
726.416	514.72
726.859	279.62
727.301	228.92
727.744	218.72
728.187	216.52
728.629	217.42
729.071	226.92
729.514	237.32
729.956	244.22
730.399	260.52
730.841	271.82
731.283	250.82
731.726	254.32
732.168	235.62
732.61	242.82
733.053	268.22
733.495	287.72
733.937	325.52
734.379	368.92
734.821	408.12
735.263	505.62
735.705	766.32
736.148	1434.02
736.59	2388.52
737.032	2893.02
737.474	2367.72
737.916	762.02
738.357	402.42
738.799	304.22
739.241	277.82
739.683	268.42
740.125	275.42
740.567	277.92
741.008	305.42
741.45	301.32
741.892	298.22
742.334	320.62
742.775	344.02
743.217	320.62
743.658	255.72
744.1	244.52
744.542	245.92
744.983	297.32
745.425	314.32
745.866	323.62
746.307	261.92
746.749	263.92
747.19	300.92
747.632	403.72
748.073	791.92
748.514	1684.02
748.956	2652.92
749.397	3317.52
749.838	2753.12
750.279	2805.72
750.72	1409.82
751.162	508.02
751.603	302.92
752.044	242.22
752.485	200.82
752.926	194.72
753.367	187.92
753.808	178.02
754.249	179.32
754.69	172.32
755.131	164.82
755.572	170.12
756.013	167.42
756.453	172.02
756.894	173.22
757.335	177.22
757.776	186.52
758.216	180.52
758.657	184.12
759.098	186.82
759.538	204.72
759.979	239.32
760.42	339.92
760.86	629.12
761.301	1623.12
761.741	4034.52
762.182	6093.32
762.622	4312.12
763.063	1228.42
763.503	502.22
763.943	323.12
764.384	313.52
764.824	370.32
765.264	404.12
765.705	278.72
766.145	193.62
766.585	175.52
767.025	162.12
767.465	175.82
767.906	222.52
768.346	285.32
768.786	313.82
769.226	235.02
769.666	290.52
770.106	551.02
770.546	1409.92
770.986	2489.02
771.426	2248.62
771.866	737.62
772.306	296.52
772.745	193.82
773.185	164.92
773.625	159.22
774.065	151.52
774.505	184.42
774.944	264.12
775.384	582.12
775.824	1094.32
776.263	1081.02
776.703	463.72
777.142	205.62
777.582	144.82
778.021	126.32
778.461	130.02
778.9	132.02
779.34	124.22
779.779	110.72
780.219	109.12
780.658	102.12
781.097	98.72
781.537	111.72
781.976	103.92
782.415	95.52
782.855	100.22
783.294	92.32
783.733	95.32
784.172	104.82
784.611	94.02
785.05	102.32
785.489	106.12
785.928	112.42
786.367	109.62
786.806	110.32
787.245	125.02
787.684	123.92
788.123	134.22
788.562	122.32
789.001	122.52
789.44	122.42
789.879	104.92
790.317	112.12
790.756	111.12
791.195	118.02
791.634	132.12
792.072	181.82
792.511	323.72
792.95	895.42
793.388	1976.22
793.827	1839.42
794.265	634.62
794.704	260.12
795.142	175.92
795.581	153.12
796.019	127.32
796.458	119.02
796.896	115.42
797.334	119.52
797.773	138.42
798.211	203.92
798.649	397.72
799.087	919.32
799.526	1472.82
799.964	1844.72
800.402	1895.22
800.84	711.02
801.278	274.32
801.716	174.42
802.154	145.62
802.592	133.82
803.03	133.02
803.468	123.82
803.906	130.42
804.344	141.42
804.782	131.42
805.22	121.12
805.658	114.42
806.096	133.22
806.533	142.92
806.971	164.02
807.409	203.52
807.847	290.52
808.284	595.62
808.722	1700.92
809.16	3081.52
809.597	2854.62
810.035	5006.22
810.472	5534.42
810.91	1982.42
811.347	743.72
811.785	376.52
812.222	235.92
812.66	182.62
813.097	154.52
813.535	131.92
813.972	120.42
814.409	103.72
814.846	99.92
815.284	107.32
815.721	89.92
816.158	99.32
816.595	114.82
817.032	159.42
817.47	180.22
817.907	145.02
818.344	136.32
818.781	111.62
819.218	95.02
819.655	113.92
820.092	172.92
820.529	205.22
820.966	167.92
821.403	124.72
821.839	98.22
822.276	91.32
822.713	106.12
823.15	127.82
823.587	107.32
824.023	133.52
824.46	257.42
824.897	809.82
825.333	1272.22
825.77	552.22
826.206	213.12
826.643	128.92
827.08	89.12
827.516	80.12
827.953	66.62
828.389	71.02
828.825	65.82
829.262	60.22
829.698	56.92
830.135	57.32
830.571	61.22
831.007	57.52
831.443	62.72
831.88	62.52
832.316	62.92
832.752	55.42
833.188	60.12
833.624	58.92
834.06	68.22
834.497	65.02
834.933	71.02
835.369	73.52
835.805	57.22
836.241	72.02
836.677	75.12
837.112	84.02
837.548	89.72
837.984	117.52
838.42	186.32
838.856	440.22
839.292	1389.52
839.727	2176.02
840.163	999.12
840.599	839.72
841.034	1870.92
841.47	2020.42
841.906	737.92
842.341	313.82
842.777	211.02
843.212	284.02
843.648	284.12
844.083	139.82
844.519	86.52
844.954	70.52
845.39	59.12
845.825	53.22
846.261	47.22
846.696	51.62
847.131	44.42
847.566	55.22
848.002	52.82
848.437	53.32
848.872	62.42
849.307	53.52
849.742	72.92
850.177	159.02
850.613	498.42
851.048	830.72
851.483	358.02
851.918	139.02
852.353	74.62
852.788	53.82
853.223	53.82
853.657	47.22
854.092	42.22
854.527	34.12
854.962	38.12
855.397	38.02
855.832	46.22
856.266	41.72
856.701	37.62
857.136	42.32
857.57	35.72
858.005	50.72
858.44	55.82
858.874	49.12
859.309	48.62
859.743	33.62
860.178	44.52
860.612	42.12
861.047	47.02
861.481	65.62
861.915	66.92
862.35	48.12
862.784	33.92
863.218	39.22
863.653	27.42
864.087	40.82
864.521	48.42
864.955	66.82
865.39	138.92
865.824	166.92
866.258	113.32
866.692	153.62
867.126	166.72
867.56	96.32
867.994	50.42
868.428	38.92
868.862	44.92
869.296	55.72
869.73	50.62
870.164	48.42
870.598	41.02
871.031	30.82
871.465	32.42
871.899	23.52
872.333	16.32
872.766	21.72
873.2	24.82
873.634	23.52
874.067	22.22
874.501	21.22
874.935	29.52
875.368	23.52
875.802	24.42
876.235	23.42
876.669	25.92
877.102	22.52
877.535	20.12
877.969	23.62
878.402	23.32
878.836	18.52
879.269	22.72
879.702	25.42
880.135	22.72
880.569	22.42
881.002	29.42
881.435	16.22
881.868	10.42
882.301	22.92
882.734	17.02
883.167	21.32
883.601	19.12
884.034	18.02
884.467	9.42
884.899	19.82
885.332	12.22
885.765	12.92
886.198	14.02
886.631	19.02
887.064	12.82
887.497	17.52
887.929	17.12
888.362	9.82
888.795	16.02
889.228	19.92
889.66	19.62
890.093	16.12
890.526	11.22
890.958	11.62
891.391	18.12
891.823	24.72
892.256	11.82
892.688	13.12
893.121	11.32
893.553	17.62
893.985	18.72
894.418	13.12
894.85	12.62
895.282	16.12
895.715	17.22
896.147	14.02
896.579	14.02
897.011	12.82
897.444	10.32
897.876	7.12
898.308	17.72
898.74	15.42
899.172	12.52
899.604	20.22
900.036	15.72
900.468	9.52
900.9	12.82
901.332	18.12
901.764	19.32
902.196	11.52
902.628	15.62
903.06	17.82
903.491	27.62
903.923	27.12
904.355	21.22
904.787	21.92
905.218	23.02
905.65	19.32
906.082	16.82
906.513	13.72
906.945	10.02
907.376	9.42
907.808	11.32
908.239	18.02
908.671	18.42
909.102	23.52
909.534	23.42
909.965	40.22
910.397	87.72
910.828	289.22
911.259	443.72
911.691	201.42
912.122	99.22
912.553	44.72
912.984	29.62
913.415	26.72
913.847	23.62
914.278	14.52
914.709	13.62
915.14	18.12
915.571	17.32
916.002	16.62
916.433	13.62
916.864	10.72
917.295	17.02
917.726	18.72
918.157	16.32
918.587	27.42
919.018	23.42
919.449	22.02
919.88	21.82
920.311	26.32
920.741	44.72
921.172	152.62
921.603	142.92
922.033	70.22
922.464	43.52
922.895	24.02
923.325	20.62
923.756	14.32
924.186	13.32
924.617	23.52
925.047	38.32
925.478	52.42
925.908	41.62
926.338	21.72
926.769	14.22
927.199	22.12
927.629	8.32
928.06	12.22
928.49	15.42
928.92	11.92
929.35	14.02
929.78	11.72
930.21	11.92
930.641	11.82
931.071	7.12
931.501	1.32
931.931	3.92
932.361	11.82
932.791	2.82
933.221	5.22
933.651	5.02
934.08	12.12
934.51	24.32
934.94	10.72
935.37	6.62
935.8	12.52
936.229	5.32
936.659	8.22
937.089	4.42
937.519	14.82
937.948	19.42
938.378	13.02
938.807	4.32
939.237	4.72
939.666	3.92
940.096	-6.68
940.525	0.72
940.955	1.32
941.384	0.12
941.814	-2.68
942.243	-1.18
942.672	0.12
943.102	-3.88
943.531	-2.98
943.96	3.72
944.39	4.42
944.819	-0.78
945.248	1.62
945.677	-1.78
946.106	4.32
946.535	3.92
946.964	-0.08
947.393	1.42
947.822	1.32
948.251	-4.08
948.68	9.52
949.109	10.92
949.538	8.62
949.967	-6.68
950.396	0.42
950.825	-0.78
951.254	0.52
951.682	-4.68
952.111	1.72
952.54	0.52
952.969	-2.58
953.397	-5.68
953.826	-1.08
954.254	-8.18
954.683	3.22
955.112	-2.08
955.54	-1.48
955.969	2.82
956.397	2.02
956.826	-4.08
957.254	7.22
957.682	-0.88
958.111	5.82
958.539	4.92
958.967	3.92
959.396	-1.58
959.824	6.02
960.252	-2.58
960.68	-4.58
961.109	-1.88
961.537	-9.78
961.965	-3.88
962.393	4.02
962.821	-4.78
963.249	7.12
963.677	-0.78
964.105	6.32
964.533	40.02
964.961	42.62
965.389	18.62
965.817	6.52
966.245	-0.58
966.672	1.32
967.1	-11.08
967.528	-3.08
967.956	-0.48
968.383	0.52
968.811	-0.98
969.239	-7.38
969.666	-3.78
970.094	-4.18
970.522	3.12
970.949	-4.88
971.377	-7.48
971.804	-3.68
972.232	-5.08
972.659	-1.78
973.087	-3.68
973.514	-1.98
973.941	-5.78
974.369	5.82
974.796	3.32
975.223	3.52
975.651	-2.58
976.078	0.32
976.505	-2.78
976.932	2.02
977.359	13.02
977.786	13.42
978.214	0.02
978.641	5.12
979.068	-3.88
979.495	0.42
979.922	0.22
980.349	-2.98
980.776	0.02
981.202	4.12
981.629	2.02
982.056	7.32
982.483	-3.08
982.91	2.52
983.337	-5.08
983.763	4.22
984.19	-4.28
984.617	-5.78
985.043	-5.68
985.47	-3.88
985.897	-6.38
986.323	-5.48
986.75	8.12
987.176	-1.78
987.603	-0.18
988.029	0.22
988.456	-2.18
988.882	1.92
989.308	1.62
989.735	-4.38
990.161	2.02
990.587	-3.98
991.014	-4.28
991.44	6.92
991.866	-2.88
992.292	-6.38
992.719	-7.68
993.145	7.72
993.571	-6.08
993.997	-2.38
994.423	-4.38
994.849	-4.78
995.275	-1.48
995.701	-2.68
996.127	-9.28
996.553	5.42
996.979	-3.48
997.405	-2.48
997.83	-2.38
998.256	-5.48
998.682	-8.88
999.108	-9.58
999.534	-3.18
999.959	-2.18
1000.385	-7.18
1000.811	4.92
1001.236	-3.98
1001.662	-10.68
1002.087	-9.18
1002.513	-0.78
1002.938	-2.98
1003.364	-2.88
1003.789	1.72
1004.215	5.52
1004.64	-3.58
1005.066	-4.48
1005.491	2.62
1005.916	-6.38
1006.342	-4.38
1006.767	-6.58
1007.192	5.02
1007.617	-2.58
1008.042	0.62
1008.468	-5.68
1008.893	-3.88
1009.318	-4.98
1009.743	-3.58
1010.168	-1.98
1010.593	-1.98
1011.018	-8.48
1011.443	-0.38
1011.868	7.32
1012.293	-0.68
1012.718	-2.98
1013.143	3.32
1013.567	5.12
1013.992	-6.58
1014.417	-10.78
1014.842	-1.98
1015.267	-9.08
1015.691	-11.98
1016.116	1.32
1016.541	-3.78
1016.965	-2.28
1017.39	-0.38
1017.814	2.32
1018.239	0.02
1018.663	-4.98
1019.088	-9.88
1019.512	-4.88
1019.937	-7.28
1020.361	-5.48
1020.785	-6.48
1021.21	0.32
1021.634	-4.68
1022.058	4.02
1022.483	-1.58
1022.907	-5.58
1023.331	-1.98
1023.755	-1.28
1024.179	2.42
1024.604	-0.88
1025.028	-3.78
1025.452	-2.98
1025.876	-2.78
1026.3	-3.08
1026.724	-7.28
1027.148	-2.98
1027.572	-3.78
1027.996	1.42
1028.42	1.02
1028.843	0.22
1029.267	-0.18
1029.691	-0.68
1030.115	-3.68
1030.539	-2.88
1030.962	-2.58
1031.386	-9.28
1031.81	-5.88
1032.233	0.82
1032.657	1.12
1033.08	-5.38
1033.504	-3.18
1033.927	-4.58
1034.351	1.92
1034.774	-6.18
1035.198	-3.68
1035.621	-3.38
1036.045	-4.58
1036.468	2.82
1036.891	-14.28
1037.315	-12.28
1037.738	-17.48
1038.161	-0.48
1038.584	-4.08
1039.008	-10.38
1039.431	-0.58
1039.854	-2.28
1040.277	-10.38
1040.7	-11.98
1041.123	-0.48
1041.546	-11.38
1041.969	-9.98
1042.392	-8.48
1042.815	-3.28
1043.238	0.62
1043.661	4.02
1044.084	-10.08
1044.507	-8.58
1044.93	-2.58
1045.352	-7.78
1045.775	-1.28
1046.198	-4.88
1046.621	-5.88
1047.043	1.22
1047.466	6.72
1047.889	-6.08
1048.311	-4.88
1048.734	-6.18
1049.156	-5.48
1049.579	-0.88
1050.001	2.92
1050.424	-3.38
1050.846	-5.78
1051.269	-4.78
1051.691	-8.78
1052.113	0.12
1052.536	-0.78
1052.958	-4.78
1053.38	-1.58
1053.802	-10.48
1054.225	3.42
1054.647	-6.98
1055.069	-1.58
1055.491	-1.88
1055.913	-4.08
1056.335	6.52
1056.757	-5.18
1057.179	-6.48
1057.601	-1.38
1058.023	-0.88
1058.445	-8.08
1058.867	-4.18
1059.289	-3.48
1059.711	-7.78
1060.133	2.72
1060.555	-0.08
1060.976	-3.98
1061.398	-7.18
1061.82	-7.98
1062.241	-6.58
1062.663	-5.28
1063.085	-7.68
1063.506	-1.18
1063.928	-5.08
1064.35	-2.28
1064.771	-10.78
1065.193	-2.28
1065.614	-6.78
1066.035	-4.28
1066.457	-1.28
1066.878	1.82
1067.3	-4.68
1067.721	-3.38
1068.142	-6.98
1068.564	-2.18
1068.985	-6.18
1069.406	-4.88
1069.827	-5.98
1070.248	-2.78
1070.67	-4.88
1071.091	-6.38
1071.512	-1.28
1071.933	-1.18
1072.354	-4.58
1072.775	-7.38
1073.196	-11.08
1073.617	-6.18
1074.038	-3.28
1074.459	-1.68
1074.88	-6.78
1075.3	-0.38
1075.721	-3.18
1076.142	-3.48
1076.563	-1.78
1076.983	-14.38
1077.404	-6.48
1077.825	-12.78
1078.246	-7.48
1078.666	-14.18
1079.087	-3.18
1079.507	-5.78
1079.928	-1.48
1080.348	1.02
1080.769	-2.48
1081.189	-2.58
1081.61	-1.28
1082.03	-6.18
1082.451	-5.88
1082.871	-4.18
1083.291	-8.78
1083.711	-5.88
1084.132	-3.58
1084.552	-5.48
1084.972	-2.58
1085.392	-9.78
1085.813	-13.48
1086.233	-5.18
1086.653	-1.68
1087.073	-7.88
1087.493	-7.08
1087.913	-5.38
1088.333	-8.58
1088.753	-2.88
1089.173	8.42
1089.593	-2.18
1090.013	-3.78
1090.433	3.42
1090.852	-7.98
1091.272	-4.58
1091.692	-0.28
1092.112	0.52
1092.531	-2.78
1092.951	-10.78
1093.371	-2.48
1093.79	-0.68
1094.21	-0.18
1094.63	-4.28
1095.049	-6.88
1095.469	-2.38
1095.888	-6.08
1096.308	-2.18
1096.727	4.52
1097.146	-9.68
1097.566	-3.78
1097.985	-3.38
1098.405	-4.28
1098.824	-5.88
1099.243	-10.08
1099.662	-4.78
1100.082	-8.58
1100.501	1.32
1100.92	-3.38
1101.339	-4.48
1101.758	-7.48
