Data from 20171114-ORNL-Ar_H_NY_Subt18_08-07-12-872.txt Node
Date: Tue Nov 14 08:07:12 EST 2017
User: Ender
Spectrometer: HR+D1039
Trigger mode: 0
Integration Time (sec): 2.730000E-2
Scans to average: 10
Electric dark correction enabled: true
Nonlinearity correction enabled: false
Boxcar width: 0
XAxis mode: Wavelengths
Number of Pixels in Spectrum: 2048
>>>>>Begin Spectral Data<<<<<
187.836	-3.98
188.309	-3.98
188.782	-3.98
189.255	-0.88
189.728	-2.18
190.201	4.22
190.674	2.52
191.147	1.42
191.619	-11.68
192.092	-3.28
192.565	2.72
193.038	-0.48
193.511	1.72
193.984	3.82
194.456	0.02
194.929	1.02
195.402	2.32
195.874	2.72
196.347	-2.48
196.82	-9.78
197.292	4.42
197.765	1.62
198.237	-1.38
198.71	0.42
199.182	-3.28
199.655	3.62
200.127	2.22
200.6	0.52
201.072	-6.08
201.544	-4.68
202.017	-0.78
202.489	-1.48
202.961	1.12
203.433	1.52
203.906	-9.78
204.378	-1.98
204.85	-4.38
205.322	-5.98
205.794	-4.68
206.266	1.32
206.739	-5.88
207.211	1.62
207.683	-14.28
208.155	-5.68
208.627	-0.88
209.099	-2.28
209.57	-3.98
210.042	-8.08
210.514	-5.48
210.986	-2.98
211.458	-9.68
211.93	0.42
212.402	3.72
212.873	-9.68
213.345	-8.58
213.817	-12.38
214.288	-7.08
214.76	-13.38
215.232	-0.58
215.703	-6.98
216.175	-5.68
216.646	-1.08
217.118	-10.28
217.589	-4.28
218.061	-1.18
218.532	-4.78
219.004	-1.58
219.475	-3.98
219.946	-6.48
220.418	-5.18
220.889	-1.68
221.36	-2.18
221.832	-2.68
222.303	-7.48
222.774	-2.98
223.245	-13.08
223.717	-9.18
224.188	-1.58
224.659	-8.78
225.13	-8.28
225.601	-1.38
226.072	-1.28
226.543	5.02
227.014	-0.98
227.485	2.92
227.956	-8.68
228.427	-6.98
228.898	-5.38
229.369	6.72
229.839	-3.28
230.31	-11.58
230.781	-2.88
231.252	-3.28
231.722	-6.38
232.193	-4.98
232.664	0.32
233.135	0.42
233.605	-3.58
234.076	-9.48
234.546	-2.98
235.017	3.22
235.487	-10.98
235.958	-7.58
236.428	-1.88
236.899	-4.88
237.369	-5.78
237.84	-3.48
238.31	4.42
238.78	-6.88
239.251	-7.88
239.721	-5.78
240.191	-0.08
240.662	-5.18
241.132	-1.48
241.602	-3.98
242.072	-3.48
242.542	7.82
243.013	-7.38
243.483	4.42
243.953	-0.78
244.423	1.12
244.893	-6.88
245.363	1.82
245.833	1.32
246.303	-11.18
246.773	-0.98
247.243	-6.98
247.712	-1.48
248.182	-2.38
248.652	5.42
249.122	-0.08
249.592	3.02
250.061	0.92
250.531	3.52
251.001	-6.98
251.471	1.92
251.94	3.42
252.41	-2.18
252.879	-11.98
253.349	6.32
253.818	0.02
254.288	1.52
254.757	-0.98
255.227	-8.48
255.696	2.12
256.166	2.42
256.635	-1.98
257.105	0.72
257.574	-2.08
258.043	-2.38
258.513	0.42
258.982	1.32
259.451	-5.38
259.92	-0.98
260.389	1.92
260.859	2.22
261.328	5.32
261.797	8.52
262.266	1.52
262.735	9.42
263.204	5.72
263.673	-0.98
264.142	6.42
264.611	-0.78
265.08	-8.78
265.549	-2.28
266.018	5.52
266.487	-2.68
266.955	-5.88
267.424	-13.18
267.893	2.32
268.362	-6.08
268.83	3.02
269.299	-1.78
269.768	-0.18
270.236	-1.78
270.705	-10.28
271.174	-0.28
271.642	1.22
272.111	1.22
272.579	-2.38
273.048	1.72
273.516	3.62
273.985	-5.98
274.453	3.32
274.922	13.52
275.39	5.72
275.858	2.12
276.327	9.62
276.795	11.72
277.263	-0.88
277.731	7.12
278.2	0.92
278.668	4.22
279.136	2.82
279.604	0.82
280.072	7.12
280.54	5.62
281.008	8.22
281.477	7.82
281.945	1.62
282.413	7.02
282.881	7.22
283.348	2.82
283.816	6.42
284.284	6.62
284.752	16.92
285.22	3.92
285.688	7.72
286.156	9.52
286.623	11.72
287.091	5.32
287.559	13.02
288.026	7.52
288.494	12.72
288.962	-3.68
289.429	7.22
289.897	12.42
290.364	10.42
290.832	8.52
291.3	4.92
291.767	13.62
292.234	6.02
292.702	7.72
293.169	14.52
293.637	17.32
294.104	11.92
294.571	0.82
295.039	1.92
295.506	11.72
295.973	13.82
296.44	15.02
296.908	8.52
297.375	3.42
297.842	7.92
298.309	3.12
298.776	4.22
299.243	12.22
299.71	6.02
300.177	17.22
300.644	13.82
301.111	8.72
301.578	17.92
302.045	9.62
302.512	12.62
302.979	18.42
303.446	12.62
303.913	9.72
304.379	13.72
304.846	22.62
305.313	18.12
305.78	13.82
306.246	17.42
306.713	16.42
307.18	14.82
307.646	13.62
308.113	23.02
308.579	17.62
309.046	13.82
309.512	19.22
309.979	10.52
310.445	21.42
310.912	19.12
311.378	24.02
311.845	20.62
312.311	24.42
312.777	19.22
313.244	26.02
313.71	28.02
314.176	16.02
314.642	19.72
315.109	19.92
315.575	24.02
316.041	28.32
316.507	23.92
316.973	24.42
317.439	21.22
317.905	23.92
318.371	27.32
318.837	28.22
319.303	26.02
319.769	23.52
320.235	28.52
320.701	23.32
321.167	31.82
321.633	24.12
322.099	22.02
322.564	31.92
323.03	27.12
323.496	25.22
323.962	33.52
324.427	26.82
324.893	29.32
325.359	30.82
325.824	25.72
326.29	27.62
326.755	29.32
327.221	31.92
327.686	29.52
328.152	36.52
328.617	32.72
329.083	40.22
329.548	37.62
330.014	38.62
330.479	32.52
330.944	34.02
331.41	33.82
331.875	38.02
332.34	30.62
332.805	35.42
333.271	36.92
333.736	35.62
334.201	43.92
334.666	44.32
335.131	43.22
335.596	44.22
336.061	34.72
336.526	26.72
336.991	31.22
337.456	42.92
337.921	41.92
338.386	28.82
338.851	37.22
339.316	36.52
339.781	41.02
340.246	37.82
340.711	36.32
341.175	39.42
341.64	35.12
342.105	39.42
342.569	44.22
343.034	49.62
343.499	45.22
343.963	41.92
344.428	56.02
344.893	54.92
345.357	48.42
345.822	48.42
346.286	52.82
346.751	57.72
347.215	54.82
347.679	56.42
348.144	70.42
348.608	68.82
349.073	57.22
349.537	58.52
350.001	61.52
350.465	69.02
350.93	67.12
351.394	61.22
351.858	59.62
352.322	74.42
352.786	68.72
353.25	79.42
353.715	87.52
354.179	76.32
354.643	94.92
355.107	100.72
355.571	85.52
356.035	79.72
356.498	87.62
356.962	91.32
357.426	101.12
357.89	97.62
358.354	75.92
358.818	71.42
359.281	65.52
359.745	62.72
360.209	62.92
360.673	58.52
361.136	61.82
361.6	71.12
362.064	71.22
362.527	77.12
362.991	79.52
363.454	68.52
363.918	63.12
364.381	70.82
364.845	74.62
365.308	78.52
365.772	84.32
366.235	71.72
366.698	72.52
367.162	71.82
367.625	75.92
368.088	77.42
368.552	75.52
369.015	75.22
369.478	79.52
369.941	89.72
370.404	77.02
370.867	86.62
371.331	90.12
371.794	95.92
372.257	89.32
372.72	97.92
373.183	86.82
373.646	83.52
374.109	84.82
374.572	85.22
375.035	89.82
375.497	90.52
375.96	92.02
376.423	94.42
376.886	102.52
377.349	93.02
377.811	92.62
378.274	89.42
378.737	90.82
379.199	92.52
379.662	92.92
380.125	96.32
380.587	95.82
381.05	96.92
381.512	103.62
381.975	111.22
382.437	104.62
382.9	105.42
383.362	111.72
383.825	112.82
384.287	120.92
384.75	108.52
385.212	109.92
385.674	115.32
386.136	121.12
386.599	105.92
387.061	107.12
387.523	107.72
387.985	116.42
388.447	123.12
388.91	113.22
389.372	116.42
389.834	110.02
390.296	121.12
390.758	115.12
391.22	124.92
391.682	131.12
392.144	136.92
392.606	127.12
393.068	134.72
393.529	140.22
393.991	128.92
394.453	122.72
394.915	122.32
395.377	120.12
395.838	126.82
396.3	131.52
396.762	137.02
397.224	126.82
397.685	121.42
398.147	123.32
398.608	122.82
399.07	126.52
399.531	126.02
399.993	138.32
400.454	148.72
400.916	143.52
401.377	141.62
401.839	141.22
402.3	144.02
402.762	155.02
403.223	168.32
403.684	157.92
404.145	149.72
404.607	149.92
405.068	155.72
405.529	158.92
405.99	164.62
406.451	162.12
406.913	162.72
407.374	158.02
407.835	155.12
408.296	159.42
408.757	163.22
409.218	177.32
409.679	173.22
410.14	168.12
410.601	169.02
411.062	175.82
411.522	175.52
411.983	170.72
412.444	163.32
412.905	175.92
413.366	175.22
413.826	192.12
414.287	215.82
414.748	262.22
415.208	245.22
415.669	212.92
416.13	205.72
416.59	200.72
417.051	209.92
417.511	220.22
417.972	235.12
418.432	246.72
418.893	295.82
419.353	250.92
419.814	196.22
420.274	178.22
420.734	183.82
421.195	186.62
421.655	188.12
422.115	186.52
422.576	187.42
423.036	195.42
423.496	202.82
423.956	212.22
424.416	226.22
424.876	257.42
425.336	251.22
425.797	255.32
426.257	245.42
426.717	238.92
427.177	232.52
427.637	215.82
428.097	228.12
428.556	240.12
429.016	257.52
429.476	252.62
429.936	263.12
430.396	263.72
430.856	283.12
431.315	297.82
431.775	330.02
432.235	365.72
432.694	333.62
433.154	346.22
433.614	373.52
434.073	324.12
434.533	272.12
434.993	258.22
435.452	273.92
435.912	277.32
436.371	279.22
436.83	272.42
437.29	254.02
437.749	246.52
438.209	246.32
438.668	260.32
439.127	280.22
439.587	261.62
440.046	239.72
440.505	257.22
440.964	270.42
441.424	313.52
441.883	306.12
442.342	259.32
442.801	221.42
443.26	221.02
443.719	226.42
444.178	220.82
444.637	212.82
445.096	222.62
445.555	228.22
446.014	231.82
446.473	237.82
446.932	232.42
447.391	228.02
447.849	231.22
448.308	230.32
448.767	225.12
449.226	237.22
449.685	236.82
450.143	255.22
450.602	244.12
451.061	233.42
451.519	231.82
451.978	231.82
452.436	232.22
452.895	240.22
453.353	251.32
453.812	243.12
454.27	241.22
454.729	249.02
455.187	242.32
455.646	248.22
456.104	255.72
456.562	264.72
457.021	274.02
457.479	266.22
457.937	281.72
458.395	268.12
458.854	248.62
459.312	262.42
459.77	271.62
460.228	264.72
460.686	253.12
461.144	256.42
461.602	248.82
462.06	248.12
462.518	258.82
462.976	263.72
463.434	263.92
463.892	277.22
464.35	283.22
464.808	288.82
465.266	266.12
465.724	277.92
466.181	281.32
466.639	272.92
467.097	296.82
467.555	304.12
468.012	311.42
468.47	314.42
468.928	325.02
469.385	353.92
469.843	350.82
470.3	351.42
470.758	374.12
471.215	383.62
471.673	424.02
472.13	415.82
472.588	423.22
473.045	371.82
473.503	391.12
473.96	401.82
474.417	417.02
474.875	451.12
475.332	475.02
475.789	465.72
476.246	466.42
476.704	489.62
477.161	503.32
477.618	524.42
478.075	554.02
478.532	619.62
478.989	680.32
479.446	797.82
479.903	763.62
480.36	788.72
480.817	833.32
481.274	933.92
481.731	1008.42
482.188	1092.02
482.645	1212.72
483.102	1308.42
483.558	1419.22
484.015	1465.12
484.472	1435.92
484.929	1388.82
485.385	1351.52
485.842	1312.62
486.299	1280.32
486.755	1240.32
487.212	1050.92
487.668	900.22
488.125	837.42
488.582	767.02
489.038	743.22
489.494	705.42
489.951	677.52
490.407	668.02
490.864	654.12
491.32	654.32
491.776	649.32
492.233	652.62
492.689	622.72
493.145	621.22
493.602	610.62
494.058	623.42
494.514	625.12
494.97	654.82
495.426	659.62
495.882	636.52
496.338	631.02
496.794	641.22
497.251	632.12
497.707	650.52
498.163	651.32
498.618	645.52
499.074	651.62
499.53	681.42
499.986	682.32
500.442	663.72
500.898	635.82
501.354	625.22
501.809	640.72
502.265	636.72
502.721	655.62
503.177	660.72
503.632	660.32
504.088	663.92
504.543	685.62
504.999	698.02
505.455	674.22
505.91	644.82
506.366	662.12
506.821	650.62
507.277	649.92
507.732	648.32
508.187	645.52
508.643	655.72
509.098	665.02
509.553	684.52
510.009	684.62
510.464	691.72
510.919	712.32
511.375	717.02
511.83	729.22
512.285	741.32
512.74	776.22
513.195	798.32
513.65	796.22
514.105	782.12
514.56	787.82
515.015	800.82
515.47	825.42
515.925	796.52
516.38	815.82
516.835	812.32
517.29	799.72
517.745	798.62
518.2	790.82
518.655	768.02
519.109	763.02
519.564	760.22
520.019	759.42
520.474	749.42
520.928	746.52
521.383	742.82
521.838	724.32
522.292	738.82
522.747	734.62
523.201	726.52
523.656	722.92
524.11	708.82
524.565	708.32
525.019	713.82
525.474	717.72
525.928	715.62
526.382	712.92
526.837	718.12
527.291	721.02
527.745	716.82
528.2	712.92
528.654	715.82
529.108	717.92
529.562	708.02
530.016	709.22
530.47	716.32
530.925	707.42
531.379	713.32
531.833	712.82
532.287	718.72
532.741	722.72
533.195	725.62
533.649	737.52
534.103	739.02
534.556	729.52
535.01	737.92
535.464	718.12
535.918	736.42
536.372	737.02
536.826	738.12
537.279	717.32
537.733	723.32
538.187	730.72
538.64	731.72
539.094	746.32
539.548	749.52
540.001	760.92
540.455	744.02
540.908	761.12
541.362	757.22
541.815	764.92
542.269	783.52
542.722	779.92
543.175	787.72
543.629	796.62
544.082	800.32
544.536	814.92
544.989	815.12
545.442	814.52
545.895	816.62
546.349	812.62
546.802	817.12
547.255	829.42
547.708	849.62
548.161	837.42
548.614	848.42
549.067	867.72
549.52	835.62
549.973	831.82
550.426	827.32
550.879	835.72
551.332	824.72
551.785	837.72
552.238	836.62
552.691	844.02
553.144	862.62
553.596	874.22
554.049	899.52
554.502	922.42
554.955	938.82
555.407	948.32
555.86	933.32
556.313	923.82
556.765	913.82
557.218	904.92
557.67	911.62
558.123	902.32
558.576	899.12
559.028	906.52
559.48	898.82
559.933	893.32
560.385	867.62
560.838	845.02
561.29	824.42
561.742	808.42
562.195	803.32
562.647	800.42
563.099	806.22
563.551	796.52
564.004	810.02
564.456	798.82
564.908	779.72
565.36	769.22
565.812	764.02
566.264	740.42
566.716	731.52
567.168	726.72
567.62	728.02
568.072	726.42
568.524	715.92
568.976	706.62
569.428	700.52
569.88	691.82
570.332	706.32
570.784	704.12
571.235	703.82
571.687	725.92
572.139	725.72
572.59	735.22
573.042	738.92
573.494	733.32
573.945	736.22
574.397	714.52
574.849	723.82
575.3	726.72
575.752	704.72
576.203	712.92
576.655	704.62
577.106	696.32
577.557	685.52
578.009	694.62
578.46	684.02
578.912	681.52
579.363	685.42
579.814	697.12
580.265	678.02
580.717	681.12
581.168	683.42
581.619	698.52
582.07	700.62
582.521	697.22
582.972	692.62
583.423	695.32
583.875	694.82
584.326	704.52
584.777	709.92
585.227	745.22
585.678	745.12
586.129	760.02
586.58	779.22
587.031	804.82
587.482	831.72
587.933	848.52
588.384	832.92
588.834	799.12
589.285	795.22
589.736	797.12
590.186	790.32
590.637	789.12
591.088	761.72
591.538	760.02
591.989	755.42
592.439	741.72
592.89	737.02
593.34	728.52
593.791	737.62
594.241	720.92
594.692	706.82
595.142	719.92
595.593	718.02
596.043	713.62
596.493	725.12
596.943	729.02
597.394	737.32
597.844	735.52
598.294	744.62
598.744	782.72
599.195	812.22
599.645	837.22
600.095	893.92
600.545	957.32
600.995	994.52
601.445	1054.92
601.895	1104.92
602.345	1172.12
602.795	1156.32
603.245	1112.52
603.695	1039.12
604.145	990.02
604.594	941.12
605.044	887.82
605.494	829.12
605.944	776.72
606.393	754.32
606.843	740.02
607.293	756.32
607.743	743.82
608.192	765.62
608.642	773.22
609.091	779.32
609.541	783.02
609.99	772.02
610.44	775.82
610.889	732.72
611.339	726.32
611.788	702.52
612.238	699.12
612.687	717.62
613.136	712.32
613.586	728.82
614.035	723.42
614.484	743.42
614.933	731.32
615.383	724.32
615.832	723.22
616.281	713.72
616.73	686.42
617.179	666.12
617.628	656.52
618.077	643.92
618.526	639.72
618.975	627.32
619.424	626.32
619.873	631.32
620.322	640.32
620.771	614.92
621.22	619.02
621.669	604.42
622.118	600.62
622.567	593.52
623.015	579.52
623.464	581.42
623.913	570.22
624.361	563.22
624.81	562.72
625.259	563.22
625.707	566.32
626.156	576.62
626.604	582.72
627.053	574.62
627.501	590.12
627.95	582.02
628.398	591.22
628.847	591.22
629.295	579.82
629.744	592.52
630.192	582.62
630.64	578.42
631.089	558.92
631.537	550.52
631.985	541.22
632.433	552.32
632.881	537.02
633.33	537.22
633.778	534.82
634.226	527.52
634.674	543.32
635.122	552.32
635.57	561.52
636.018	567.12
636.466	573.02
636.914	558.42
637.362	583.32
637.81	580.22
638.258	599.42
638.705	604.22
639.153	620.32
639.601	632.42
640.049	659.22
640.497	692.62
640.944	710.52
641.392	657.52
641.84	626.82
642.287	593.02
642.735	569.72
643.182	570.42
643.63	570.12
644.078	576.52
644.525	581.52
644.973	590.82
645.42	601.52
645.867	624.72
646.315	635.12
646.762	665.12
647.21	693.52
647.657	711.52
648.104	745.62
648.551	765.32
648.999	820.12
649.446	886.32
649.893	976.92
650.34	1114.52
650.787	1327.82
651.234	1635.92
651.682	2109.42
652.129	2843.82
652.576	4054.72
653.023	5856.02
653.47	7976.02
653.917	9865.42
654.363	11374.72
654.81	12594.92
655.257	11904.82
655.704	7855.32
656.151	4745.22
656.598	3112.92
657.044	2247.42
657.491	1741.52
657.938	1412.02
658.385	1190.92
658.831	1041.32
659.278	929.42
659.724	835.82
660.171	771.42
660.618	709.02
661.064	689.42
661.511	661.52
661.957	656.22
662.404	634.22
662.85	649.92
663.296	624.12
663.743	567.62
664.189	540.82
664.635	542.32
665.082	541.02
665.528	541.52
665.974	523.62
666.42	521.92
666.867	506.92
667.313	492.52
667.759	473.52
668.205	465.42
668.651	459.92
669.097	451.92
669.543	447.02
669.989	452.32
670.435	446.12
670.881	450.72
671.327	456.82
671.773	484.02
672.219	500.12
672.665	558.02
673.11	603.52
673.556	643.62
674.002	688.72
674.448	676.02
674.893	563.02
675.339	496.92
675.785	458.62
676.23	428.92
676.676	401.82
677.122	393.52
677.567	375.82
678.013	372.32
678.458	372.82
678.904	371.62
679.349	357.52
679.794	362.72
680.24	361.42
680.685	361.22
681.131	361.22
681.576	362.52
682.021	363.42
682.466	366.22
682.912	363.12
683.357	354.22
683.802	389.82
684.247	421.92
684.692	466.32
685.137	512.92
685.583	556.12
686.028	575.72
686.473	533.42
686.918	457.42
687.363	431.52
687.807	400.72
688.252	377.32
688.697	365.02
689.142	340.82
689.587	348.82
690.032	334.82
690.477	354.82
690.921	357.82
691.366	386.92
691.811	405.72
692.255	440.52
692.7	467.72
693.145	512.82
693.589	727.52
694.034	1187.12
694.478	1602.12
694.923	1788.22
695.367	2332.62
695.812	1241.02
696.256	511.32
696.701	376.12
697.145	354.72
697.59	339.12
698.034	318.52
698.478	330.22
698.922	331.52
699.367	327.12
699.811	348.42
700.255	363.02
700.699	391.12
701.143	437.12
701.588	488.92
702.032	528.22
702.476	522.82
702.92	507.72
703.364	502.32
703.808	660.12
704.252	1080.22
704.696	1514.62
705.14	1719.92
705.584	2208.32
706.027	1103.72
706.471	542.32
706.915	413.32
707.359	357.82
707.803	336.42
708.246	317.92
708.69	319.12
709.134	315.62
709.577	326.12
710.021	322.22
710.465	308.82
710.908	303.22
711.352	303.52
711.795	321.92
712.239	367.22
712.682	394.32
713.126	428.32
713.569	468.12
714.012	371.12
714.456	316.82
714.899	285.82
715.342	281.42
715.786	265.52
716.229	263.22
716.672	264.72
717.115	253.42
717.558	253.22
718.002	255.72
718.445	269.22
718.888	294.52
719.331	307.42
719.774	308.72
720.217	315.02
720.66	291.82
721.103	271.52
721.546	261.62
721.989	249.92
722.432	239.62
722.874	248.42
723.317	228.12
723.76	234.82
724.203	263.42
724.645	328.32
725.088	461.72
725.531	582.32
725.974	661.92
726.416	558.02
726.859	311.02
727.301	249.22
727.744	246.82
728.187	238.52
728.629	243.22
729.071	249.52
729.514	272.52
729.956	273.92
730.399	296.92
730.841	298.32
731.283	281.62
731.726	269.02
732.168	271.92
732.61	273.22
733.053	284.12
733.495	323.42
733.937	355.72
734.379	409.82
734.821	446.82
735.263	562.32
735.705	874.62
736.148	1651.12
736.59	2697.72
737.032	3171.62
737.474	2585.72
737.916	849.42
738.357	450.22
738.799	353.72
739.241	314.42
739.683	291.72
740.125	307.92
740.567	307.22
741.008	322.12
741.45	326.72
741.892	324.92
742.334	365.62
742.775	377.32
743.217	359.02
743.658	287.62
744.1	268.02
744.542	271.52
744.983	323.12
745.425	365.12
745.866	360.52
746.307	288.92
746.749	284.52
747.19	332.82
747.632	481.52
748.073	922.22
748.514	1948.12
748.956	2959.92
749.397	3726.42
749.838	3097.62
750.279	3062.02
750.72	1558.12
751.162	580.12
751.603	337.12
752.044	261.32
752.485	223.02
752.926	207.42
753.367	214.82
753.808	203.82
754.249	199.82
754.69	191.12
755.131	186.82
755.572	188.42
756.013	186.72
756.453	189.42
756.894	195.52
757.335	194.12
757.776	202.92
758.216	204.22
758.657	202.22
759.098	213.82
759.538	231.72
759.979	275.92
760.42	389.92
760.86	744.12
761.301	1927.12
761.741	4639.12
762.182	6662.42
762.622	4701.82
763.063	1353.02
763.503	548.12
763.943	333.52
764.384	282.02
764.824	245.92
765.264	231.12
765.705	213.32
766.145	187.72
766.585	186.42
767.025	176.92
767.465	163.02
767.906	182.52
768.346	197.82
768.786	197.92
769.226	218.62
769.666	313.62
770.106	646.42
770.546	1630.42
770.986	2758.52
771.426	2426.72
771.866	821.32
772.306	341.72
772.745	210.12
773.185	174.32
773.625	164.12
774.065	158.02
774.505	162.92
774.944	210.02
775.384	371.32
775.824	597.62
776.263	572.72
776.703	280.62
777.142	161.12
777.582	135.82
778.021	121.72
778.461	129.22
778.9	123.52
779.34	125.42
779.779	118.02
780.219	115.62
780.658	106.22
781.097	109.72
781.537	113.02
781.976	113.42
782.415	107.42
782.855	102.22
783.294	109.62
783.733	105.22
784.172	110.22
784.611	102.52
785.05	111.22
785.489	115.12
785.928	126.62
786.367	121.42
786.806	120.72
787.245	129.52
787.684	139.62
788.123	148.32
788.562	139.82
789.001	134.12
789.44	122.52
789.879	120.52
790.317	121.72
790.756	130.22
791.195	127.12
791.634	150.82
792.072	209.52
792.511	377.82
792.95	1046.12
793.388	2205.12
793.827	1957.62
794.265	695.12
794.704	284.52
795.142	191.72
795.581	155.02
796.019	139.72
796.458	131.82
796.896	124.72
797.334	137.32
797.773	160.92
798.211	230.62
798.649	456.02
799.087	1061.62
799.526	1662.62
799.964	2078.52
800.402	2066.42
800.84	792.12
801.278	313.82
801.716	194.22
802.154	158.02
802.592	158.22
803.03	145.62
803.468	137.92
803.906	149.72
804.344	150.32
804.782	147.82
805.22	136.02
805.658	134.42
806.096	151.12
806.533	159.42
806.971	175.42
807.409	226.42
807.847	331.82
808.284	694.22
808.722	1948.62
809.16	3428.72
809.597	3290.32
810.035	5656.72
810.472	5973.32
810.91	2183.42
811.347	838.32
811.785	419.12
812.222	260.52
812.66	201.72
813.097	172.42
813.535	152.12
813.972	131.12
814.409	120.92
814.846	115.52
815.284	114.42
815.721	102.42
816.158	111.32
816.595	112.62
817.032	154.62
817.47	188.82
817.907	145.42
818.344	101.92
818.781	104.02
819.218	97.72
819.655	127.72
820.092	202.92
820.529	221.72
820.966	178.42
821.403	133.12
821.839	100.42
822.276	102.62
822.713	121.32
823.15	142.82
823.587	125.52
824.023	154.02
824.46	316.42
824.897	947.32
825.333	1411.32
825.77	611.52
826.206	236.12
826.643	142.52
827.08	98.32
827.516	88.62
827.953	74.22
828.389	83.52
828.825	72.32
829.262	73.22
829.698	66.02
830.135	67.82
830.571	69.02
831.007	70.72
831.443	64.62
831.88	71.82
832.316	64.12
832.752	61.72
833.188	69.12
833.624	67.22
834.06	68.62
834.497	67.02
834.933	69.72
835.369	78.82
835.805	65.92
836.241	79.32
836.677	83.82
837.112	95.72
837.548	107.42
837.984	148.42
838.42	207.52
838.856	518.62
839.292	1577.02
839.727	2391.92
840.163	1121.02
840.599	972.52
841.034	2119.12
841.47	2200.62
841.906	807.52
842.341	344.62
842.777	207.22
843.212	195.72
843.648	189.12
844.083	113.02
844.519	84.72
844.954	71.72
845.39	59.92
845.825	54.32
846.261	59.72
846.696	54.52
847.131	52.62
847.566	54.72
848.002	49.22
848.437	59.32
848.872	60.42
849.307	69.02
849.742	86.62
850.177	192.02
850.613	575.02
851.048	909.12
851.483	393.92
851.918	162.22
852.353	94.82
852.788	63.82
853.223	50.52
853.657	50.82
854.092	43.22
854.527	42.72
854.962	40.92
855.397	47.32
855.832	53.62
856.266	41.72
856.701	41.82
857.136	42.22
857.57	46.42
858.005	57.72
858.44	57.32
858.874	43.62
859.309	57.92
859.743	38.42
860.178	41.02
860.612	40.22
861.047	56.02
861.481	72.12
861.915	76.92
862.35	54.32
862.784	30.42
863.218	37.52
863.653	33.22
864.087	47.92
864.521	53.42
864.955	66.02
865.39	154.42
865.824	182.42
866.258	121.92
866.692	178.12
867.126	188.62
867.56	112.12
867.994	57.22
868.428	41.92
868.862	47.02
869.296	51.12
869.73	56.32
870.164	61.32
870.598	50.82
871.031	43.92
871.465	33.12
871.899	31.32
872.333	28.62
872.766	26.32
873.2	25.42
873.634	28.82
874.067	22.42
874.501	26.62
874.935	39.22
875.368	31.22
875.802	25.22
876.235	32.92
876.669	26.92
877.102	30.22
877.535	23.02
877.969	24.72
878.402	28.12
878.836	21.22
879.269	24.32
879.702	29.82
880.135	21.12
880.569	19.12
881.002	24.82
881.435	21.02
881.868	21.12
882.301	28.62
882.734	17.12
883.167	24.52
883.601	22.52
884.034	22.02
884.467	14.52
884.899	27.32
885.332	15.72
885.765	17.42
886.198	23.52
886.631	21.32
887.064	18.12
887.497	21.12
887.929	26.32
888.362	18.12
888.795	12.52
889.228	14.42
889.66	20.02
890.093	11.42
890.526	17.12
890.958	13.02
891.391	14.82
891.823	23.52
892.256	13.62
892.688	8.92
893.121	14.52
893.553	12.62
893.985	21.42
894.418	15.52
894.85	8.52
895.282	18.82
895.715	20.42
896.147	23.52
896.579	13.32
897.011	14.82
897.444	20.12
897.876	15.02
898.308	24.12
898.74	15.82
899.172	13.62
899.604	26.22
900.036	20.32
900.468	17.32
900.9	15.22
901.332	15.52
901.764	11.02
902.196	16.92
902.628	21.42
903.06	16.42
903.491	26.72
903.923	21.22
904.355	17.92
904.787	20.02
905.218	17.32
905.65	16.32
906.082	10.92
906.513	16.22
906.945	20.92
907.376	10.82
907.808	18.72
908.239	21.92
908.671	16.02
909.102	23.22
909.534	24.52
909.965	52.92
910.397	95.82
910.828	336.72
911.259	484.52
911.691	218.52
912.122	113.02
912.553	55.92
912.984	33.32
913.415	25.62
913.847	21.52
914.278	17.52
914.709	15.62
915.14	17.02
915.571	20.42
916.002	15.42
916.433	22.02
916.864	15.52
917.295	13.42
917.726	23.42
918.157	19.72
918.587	25.82
919.018	24.22
919.449	23.62
919.88	25.32
920.311	31.02
920.741	49.72
921.172	172.22
921.603	159.02
922.033	77.62
922.464	45.22
922.895	27.62
923.325	21.12
923.756	10.42
924.186	13.12
924.617	21.62
925.047	17.82
925.478	23.92
925.908	23.62
926.338	13.82
926.769	11.42
927.199	13.82
927.629	11.92
928.06	19.62
928.49	9.72
928.92	8.62
929.35	12.12
929.78	9.52
930.21	5.42
930.641	7.92
931.071	10.72
931.501	1.72
931.931	1.92
932.361	8.72
932.791	5.52
933.221	4.62
933.651	4.12
934.08	10.32
934.51	26.22
934.94	11.22
935.37	12.82
935.8	2.22
936.229	0.02
936.659	8.22
937.089	2.62
937.519	12.12
937.948	27.22
938.378	19.02
938.807	5.52
939.237	6.52
939.666	7.92
940.096	-3.18
940.525	1.62
940.955	2.22
941.384	5.92
941.814	-1.48
942.243	1.42
942.672	3.62
943.102	1.92
943.531	0.92
943.96	7.32
944.39	0.42
944.819	-0.18
945.248	1.02
945.677	1.12
946.106	-1.18
946.535	6.12
946.964	0.32
947.393	4.12
947.822	-4.98
948.251	-6.58
948.68	-0.68
949.109	5.32
949.538	2.62
949.967	-1.28
950.396	-1.08
950.825	4.82
951.254	1.22
951.682	-6.28
952.111	-2.38
952.54	5.72
952.969	-2.18
953.397	-8.88
953.826	3.62
954.254	-7.08
954.683	-2.38
955.112	-6.18
955.54	-3.28
955.969	-1.58
956.397	-4.08
956.826	-4.48
957.254	2.92
957.682	-2.38
958.111	1.02
958.539	-0.38
958.967	-0.48
959.396	2.22
959.824	1.72
960.252	-3.88
960.68	-8.18
961.109	3.32
961.537	-9.18
961.965	-0.68
962.393	-2.68
962.821	-5.78
963.249	5.52
963.677	4.12
964.105	3.62
964.533	44.42
964.961	38.52
965.389	18.62
965.817	11.92
966.245	3.62
966.672	1.42
967.1	-4.88
967.528	1.62
967.956	-3.78
968.383	0.52
968.811	-3.48
969.239	-4.28
969.666	-8.48
970.094	3.12
970.522	0.02
970.949	-4.98
971.377	-3.48
971.804	1.22
972.232	-4.18
972.659	-5.48
973.087	2.52
973.514	-4.98
973.941	-9.98
974.369	3.12
974.796	-1.58
975.223	1.72
975.651	-1.58
976.078	0.52
976.505	-2.58
976.932	-0.18
977.359	13.52
977.786	13.72
978.214	4.12
978.641	3.12
979.068	-1.78
979.495	-0.38
979.922	-0.68
980.349	-4.88
980.776	-0.08
981.202	1.32
981.629	2.52
982.056	4.82
982.483	-0.08
982.91	3.42
983.337	-4.08
983.763	-1.68
984.19	-7.08
984.617	-3.88
985.043	-1.38
985.47	-7.68
985.897	-3.68
986.323	-9.08
986.75	4.62
987.176	-4.18
987.603	-6.08
988.029	-5.28
988.456	-3.78
988.882	4.32
989.308	-4.78
989.735	-3.98
990.161	0.42
990.587	-2.38
991.014	-3.88
991.44	9.22
991.866	-5.88
992.292	0.32
992.719	-5.68
993.145	2.32
993.571	-8.38
993.997	-6.88
994.423	-2.48
994.849	-4.68
995.275	4.32
995.701	-3.08
996.127	-3.78
996.553	0.72
996.979	-1.98
997.405	0.92
997.83	-0.58
998.256	-4.08
998.682	-1.88
999.108	-8.18
999.534	-2.38
999.959	4.02
1000.385	-5.08
1000.811	-2.58
1001.236	-7.98
1001.662	-5.38
1002.087	-9.28
1002.513	0.72
1002.938	2.02
1003.364	-0.18
1003.789	-2.28
1004.215	5.12
1004.64	-2.48
1005.066	-2.28
1005.491	-3.58
1005.916	-3.68
1006.342	-0.98
1006.767	-10.38
1007.192	4.32
1007.617	-10.18
1008.042	-4.68
1008.468	-1.78
1008.893	-3.18
1009.318	0.22
1009.743	-4.18
1010.168	0.52
1010.593	-2.98
1011.018	-6.78
1011.443	1.02
1011.868	-2.28
1012.293	-10.58
1012.718	-5.88
1013.143	0.62
1013.567	-3.18
1013.992	-3.78
1014.417	-12.88
1014.842	0.02
1015.267	-7.68
1015.691	-0.58
1016.116	1.42
1016.541	-3.38
1016.965	-1.28
1017.39	5.12
1017.814	-3.48
1018.239	-7.98
1018.663	-7.88
1019.088	-7.78
1019.512	-2.78
1019.937	-1.78
1020.361	-1.98
1020.785	-13.18
1021.21	-3.88
1021.634	-4.28
1022.058	-2.88
1022.483	2.92
1022.907	-0.38
1023.331	-4.08
1023.755	-9.08
1024.179	-8.08
1024.604	-11.88
1025.028	-7.18
1025.452	-4.08
1025.876	2.52
1026.3	-1.38
1026.724	-10.38
1027.148	-6.98
1027.572	-9.88
1027.996	-6.38
1028.42	-1.08
1028.843	-6.38
1029.267	-7.28
1029.691	-4.48
1030.115	-8.68
1030.539	-6.78
1030.962	-6.68
1031.386	-9.08
1031.81	1.42
1032.233	3.52
1032.657	-2.98
1033.08	-3.08
1033.504	-4.38
1033.927	-5.88
1034.351	-4.88
1034.774	-5.28
1035.198	0.02
1035.621	-8.48
1036.045	-11.28
1036.468	-1.68
1036.891	-9.48
1037.315	-5.38
1037.738	-9.28
1038.161	-1.08
1038.584	-7.58
1039.008	-6.68
1039.431	-0.38
1039.854	-4.68
1040.277	-7.08
1040.7	-7.18
1041.123	-3.18
1041.546	-10.28
1041.969	-2.08
1042.392	-3.98
1042.815	-2.08
1043.238	-2.08
1043.661	-1.68
1044.084	-1.28
1044.507	-5.28
1044.93	-8.28
1045.352	-8.68
1045.775	-0.98
1046.198	-4.48
1046.621	-3.68
1047.043	-4.28
1047.466	8.32
1047.889	0.62
1048.311	-2.28
1048.734	-2.68
1049.156	-5.18
1049.579	-1.68
1050.001	-6.68
1050.424	2.62
1050.846	2.62
1051.269	-1.28
1051.691	-3.68
1052.113	-4.28
1052.536	-5.38
1052.958	-2.68
1053.38	-4.88
1053.802	-8.08
1054.225	0.52
1054.647	-7.48
1055.069	-4.48
1055.491	-1.68
1055.913	-12.08
1056.335	0.72
1056.757	-2.58
1057.179	-9.68
1057.601	-7.08
1058.023	-0.08
1058.445	-3.48
1058.867	-10.68
1059.289	-4.58
1059.711	-4.48
1060.133	-7.98
1060.555	-2.68
1060.976	-1.08
1061.398	-3.38
1061.82	-8.58
1062.241	-12.28
1062.663	-11.28
1063.085	-6.78
1063.506	4.72
1063.928	-4.78
1064.35	-1.78
1064.771	-11.88
1065.193	-6.78
1065.614	-9.88
1066.035	0.52
1066.457	-5.48
1066.878	3.92
1067.3	-5.98
1067.721	-5.58
1068.142	0.52
1068.564	-7.08
1068.985	-5.68
1069.406	-5.38
1069.827	-11.98
1070.248	-5.98
1070.67	-9.18
1071.091	-2.98
1071.512	-6.18
1071.933	-5.48
1072.354	-4.78
1072.775	-5.58
1073.196	-10.88
1073.617	0.02
1074.038	-12.98
1074.459	-2.28
1074.88	-12.28
1075.3	-1.98
1075.721	-9.88
1076.142	-1.78
1076.563	-3.88
1076.983	-12.18
1077.404	-8.18
1077.825	-2.68
1078.246	-4.68
1078.666	-11.18
1079.087	-5.58
1079.507	-4.48
1079.928	-5.48
1080.348	-0.08
1080.769	-11.08
1081.189	1.92
1081.61	-5.18
1082.03	-9.18
1082.451	-8.68
1082.871	-8.28
1083.291	-5.88
1083.711	-13.38
1084.132	-9.28
1084.552	-7.28
1084.972	-7.18
1085.392	-12.78
1085.813	-13.18
1086.233	-8.58
1086.653	-1.58
1087.073	-5.28
1087.493	-4.78
1087.913	-3.98
1088.333	-4.28
1088.753	4.92
1089.173	2.82
1089.593	-8.28
1090.013	-3.38
1090.433	-2.08
1090.852	-6.98
1091.272	-2.48
1091.692	-7.28
1092.112	-4.08
1092.531	-12.78
1092.951	-14.98
1093.371	-2.08
1093.79	0.72
1094.21	-6.58
1094.63	-2.78
1095.049	-5.48
1095.469	-5.58
1095.888	-0.28
1096.308	3.12
1096.727	1.82
1097.146	-6.08
1097.566	0.52
1097.985	-11.78
1098.405	0.92
1098.824	-6.58
1099.243	-5.78
1099.662	-9.18
1100.082	-6.58
1100.501	-2.08
1100.92	-6.88
1101.339	-1.38
1101.758	-8.58
