Data from 20171114-ORNL-Ar_H_NY_Subt18_08-07-06-594.txt Node
Date: Tue Nov 14 08:07:06 EST 2017
User: Ender
Spectrometer: HR+D1039
Trigger mode: 0
Integration Time (sec): 2.730000E-2
Scans to average: 10
Electric dark correction enabled: true
Nonlinearity correction enabled: false
Boxcar width: 0
XAxis mode: Wavelengths
Number of Pixels in Spectrum: 2048
>>>>>Begin Spectral Data<<<<<
187.836	-2.54
188.309	-2.54
188.782	-2.54
189.255	0.96
189.728	0.06
190.201	4.86
190.674	1.96
191.147	1.66
191.619	-6.54
192.092	-2.24
192.565	2.86
193.038	2.56
193.511	2.26
193.984	-2.04
194.456	1.36
194.929	3.56
195.402	-5.84
195.874	-2.84
196.347	-5.64
196.82	-4.04
197.292	6.16
197.765	0.56
198.237	-6.54
198.71	3.66
199.182	2.76
199.655	0.36
200.127	3.16
200.6	-0.94
201.072	0.26
201.544	-3.74
202.017	-3.84
202.489	1.66
202.961	3.36
203.433	-3.24
203.906	-5.94
204.378	-5.94
204.85	-3.64
205.322	-4.64
205.794	0.56
206.266	-2.14
206.739	-11.44
207.211	4.36
207.683	-6.44
208.155	-2.14
208.627	-7.04
209.099	-5.24
209.57	-8.14
210.042	-10.34
210.514	-5.84
210.986	-9.14
211.458	-3.14
211.93	-2.94
212.402	7.46
212.873	-3.14
213.345	-6.64
213.817	-6.44
214.288	-4.44
214.76	-8.94
215.232	-5.44
215.703	-1.54
216.175	-2.64
216.646	-7.24
217.118	-4.54
217.589	-0.54
218.061	-0.94
218.532	1.16
219.004	1.16
219.475	-3.64
219.946	-6.54
220.418	-2.34
220.889	-4.94
221.36	1.36
221.832	-0.24
222.303	-5.74
222.774	3.26
223.245	-7.44
223.717	-8.44
224.188	-4.64
224.659	-8.84
225.13	-3.04
225.601	-5.64
226.072	-2.74
226.543	-2.34
227.014	3.26
227.485	-1.74
227.956	-4.64
228.427	-1.84
228.898	1.56
229.369	8.86
229.839	-1.44
230.31	-6.24
230.781	2.96
231.252	-3.64
231.722	-5.74
232.193	-4.24
232.664	-1.44
233.135	3.86
233.605	-1.04
234.076	-8.84
234.546	1.46
235.017	-2.14
235.487	-2.14
235.958	-1.74
236.428	-8.74
236.899	3.96
237.369	-1.14
237.84	-3.94
238.31	2.26
238.78	-1.04
239.251	1.96
239.721	-2.64
240.191	-2.74
240.662	-4.24
241.132	-2.64
241.602	-2.74
242.072	-0.84
242.542	2.66
243.013	-0.54
243.483	1.66
243.953	-2.84
244.423	-0.24
244.893	-4.24
245.363	0.46
245.833	-0.84
246.303	1.86
246.773	-0.04
247.243	3.36
247.712	-2.74
248.182	5.36
248.652	3.36
249.122	-9.44
249.592	-2.64
250.061	-0.84
250.531	6.86
251.001	-1.94
251.471	3.56
251.94	4.06
252.41	-1.44
252.879	-7.54
253.349	3.56
253.818	3.46
254.288	-4.44
254.757	0.06
255.227	-3.54
255.696	4.86
256.166	2.76
256.635	1.26
257.105	5.96
257.574	0.96
258.043	-2.04
258.513	-1.54
258.982	0.56
259.451	-1.14
259.92	0.16
260.389	-1.74
260.859	7.46
261.328	0.96
261.797	-2.74
262.266	4.66
262.735	6.16
263.204	1.56
263.673	0.86
264.142	6.46
264.611	-7.34
265.08	-5.14
265.549	-4.14
266.018	5.36
266.487	-2.44
266.955	-5.94
267.424	-0.24
267.893	4.96
268.362	4.96
268.83	-4.24
269.299	6.56
269.768	3.86
270.236	2.26
270.705	-0.44
271.174	-4.64
271.642	4.96
272.111	4.96
272.579	8.16
273.048	-4.44
273.516	4.46
273.985	11.56
274.453	4.26
274.922	10.66
275.39	7.26
275.858	-0.34
276.327	-1.84
276.795	12.16
277.263	2.46
277.731	10.76
278.2	4.56
278.668	9.26
279.136	7.76
279.604	1.66
280.072	6.56
280.54	7.86
281.008	4.56
281.477	9.56
281.945	5.46
282.413	13.96
282.881	8.76
283.348	3.46
283.816	7.06
284.284	9.56
284.752	15.46
285.22	5.86
285.688	12.96
286.156	12.66
286.623	9.76
287.091	6.56
287.559	13.26
288.026	10.76
288.494	14.16
288.962	2.16
289.429	7.16
289.897	19.46
290.364	10.86
290.832	9.06
291.3	10.66
291.767	18.26
292.234	17.26
292.702	8.06
293.169	7.16
293.637	14.76
294.104	17.36
294.571	2.16
295.039	11.06
295.506	10.76
295.973	11.16
296.44	10.66
296.908	11.66
297.375	6.96
297.842	14.56
298.309	13.56
298.776	5.46
299.243	14.86
299.71	6.16
300.177	12.56
300.644	11.66
301.111	16.76
301.578	15.46
302.045	14.46
302.512	17.26
302.979	22.06
303.446	16.56
303.913	13.56
304.379	17.06
304.846	24.86
305.313	14.26
305.78	14.26
306.246	21.16
306.713	20.46
307.18	18.86
307.646	15.36
308.113	27.56
308.579	12.06
309.046	14.96
309.512	17.76
309.979	12.86
310.445	17.36
310.912	25.36
311.378	24.76
311.845	28.66
312.311	28.86
312.777	25.56
313.244	21.36
313.71	29.26
314.176	22.86
314.642	22.26
315.109	21.96
315.575	29.26
316.041	34.06
316.507	21.96
316.973	27.16
317.439	22.46
317.905	31.56
318.371	25.86
318.837	24.96
319.303	24.76
319.769	25.96
320.235	22.86
320.701	36.06
321.167	27.56
321.633	26.96
322.099	38.36
322.564	35.26
323.03	35.96
323.496	33.66
323.962	29.16
324.427	28.56
324.893	33.86
325.359	25.66
325.824	30.66
326.29	26.16
326.755	33.16
327.221	35.26
327.686	34.56
328.152	43.66
328.617	34.96
329.083	39.06
329.548	43.06
330.014	41.06
330.479	36.86
330.944	37.96
331.41	30.36
331.875	31.36
332.34	31.06
332.805	31.76
333.271	40.86
333.736	28.26
334.201	40.06
334.666	48.56
335.131	39.96
335.596	41.86
336.061	40.86
336.526	33.86
336.991	40.26
337.456	47.56
337.921	42.16
338.386	36.46
338.851	42.46
339.316	48.36
339.781	42.56
340.246	46.96
340.711	41.36
341.175	45.86
341.64	26.06
342.105	36.56
342.569	50.26
343.034	54.26
343.499	45.26
343.963	42.26
344.428	50.56
344.893	53.56
345.357	52.96
345.822	52.56
346.286	54.46
346.751	58.56
347.215	58.86
347.679	60.06
348.144	78.96
348.608	69.26
349.073	64.06
349.537	60.56
350.001	67.96
350.465	72.36
350.93	66.96
351.394	71.16
351.858	58.66
352.322	74.36
352.786	73.56
353.25	88.46
353.715	94.86
354.179	82.26
354.643	98.46
355.107	102.46
355.571	89.46
356.035	87.06
356.498	100.16
356.962	95.16
357.426	104.66
357.89	92.36
358.354	80.36
358.818	66.36
359.281	65.26
359.745	62.56
360.209	68.96
360.673	66.06
361.136	72.06
361.6	74.76
362.064	70.16
362.527	73.26
362.991	87.16
363.454	73.06
363.918	67.66
364.381	70.46
364.845	73.46
365.308	72.36
365.772	75.26
366.235	77.26
366.698	72.36
367.162	80.86
367.625	81.66
368.088	77.16
368.552	73.56
369.015	79.06
369.478	84.16
369.941	80.06
370.404	77.56
370.867	94.06
371.331	90.66
371.794	99.46
372.257	87.86
372.72	94.16
373.183	86.26
373.646	81.86
374.109	90.06
374.572	89.16
375.035	89.36
375.497	92.66
375.96	99.66
376.423	97.66
376.886	100.36
377.349	91.46
377.811	89.86
378.274	96.66
378.737	96.06
379.199	99.16
379.662	96.66
380.125	102.26
380.587	99.36
381.05	94.56
381.512	101.66
381.975	113.66
382.437	115.36
382.9	108.76
383.362	115.56
383.825	119.16
384.287	119.76
384.75	108.26
385.212	121.16
385.674	120.16
386.136	124.56
386.599	118.16
387.061	114.36
387.523	117.86
387.985	115.26
388.447	126.86
388.91	120.06
389.372	123.16
389.834	116.46
390.296	117.46
390.758	123.36
391.22	122.76
391.682	136.26
392.144	137.06
392.606	140.26
393.068	128.26
393.529	137.16
393.991	128.16
394.453	121.46
394.915	130.56
395.377	123.96
395.838	124.96
396.3	126.76
396.762	133.96
397.224	131.76
397.685	131.46
398.147	125.66
398.608	124.16
399.07	125.26
399.531	133.86
399.993	136.26
400.454	146.16
400.916	142.96
401.377	136.46
401.839	146.46
402.3	148.96
402.762	160.86
403.223	168.46
403.684	159.56
404.145	151.16
404.607	152.46
405.068	158.46
405.529	162.66
405.99	179.06
406.451	166.96
406.913	169.56
407.374	159.36
407.835	152.96
408.296	150.86
408.757	163.06
409.218	174.56
409.679	175.86
410.14	174.96
410.601	176.36
411.062	173.16
411.522	172.56
411.983	169.46
412.444	164.66
412.905	178.26
413.366	183.16
413.826	197.96
414.287	210.46
414.748	256.86
415.208	247.86
415.669	217.26
416.13	209.26
416.59	203.06
417.051	212.86
417.511	221.16
417.972	239.36
418.432	248.56
418.893	292.46
419.353	245.96
419.814	195.86
420.274	178.36
420.734	180.66
421.195	196.26
421.655	193.06
422.115	197.26
422.576	189.66
423.036	203.56
423.496	211.46
423.956	218.56
424.416	235.76
424.876	259.96
425.336	262.06
425.797	256.66
426.257	258.16
426.717	236.86
427.177	229.86
427.637	219.66
428.097	228.06
428.556	242.06
429.016	262.96
429.476	255.66
429.936	269.56
430.396	265.26
430.856	278.36
431.315	299.06
431.775	326.56
432.235	368.26
432.694	335.56
433.154	345.46
433.614	374.76
434.073	318.16
434.533	276.86
434.993	267.36
435.452	275.66
435.912	282.36
436.371	274.06
436.83	268.86
437.29	253.36
437.749	246.06
438.209	246.86
438.668	266.66
439.127	280.06
439.587	255.96
440.046	249.76
440.505	260.66
440.964	280.56
441.424	318.66
441.883	302.36
442.342	266.66
442.801	231.96
443.26	223.06
443.719	227.06
444.178	214.16
444.637	212.16
445.096	217.06
445.555	234.56
446.014	228.86
446.473	228.76
446.932	240.36
447.391	232.56
447.849	233.26
448.308	228.56
448.767	234.36
449.226	240.86
449.685	244.96
450.143	255.06
450.602	248.06
451.061	231.76
451.519	242.46
451.978	232.96
452.436	231.76
452.895	242.96
453.353	251.76
453.812	241.56
454.27	242.16
454.729	247.56
455.187	249.86
455.646	253.96
456.104	255.56
456.562	265.36
457.021	278.06
457.479	260.16
457.937	270.46
458.395	272.46
458.854	255.96
459.312	265.46
459.77	277.36
460.228	262.86
460.686	248.96
461.144	251.56
461.602	257.36
462.06	254.06
462.518	262.76
462.976	264.16
463.434	264.56
463.892	273.96
464.35	278.66
464.808	300.86
465.266	271.76
465.724	279.26
466.181	278.06
466.639	288.06
467.097	295.26
467.555	306.46
468.012	312.16
468.47	316.96
468.928	338.76
469.385	347.56
469.843	361.86
470.3	364.96
470.758	369.06
471.215	380.46
471.673	412.76
472.13	423.76
472.588	430.26
473.045	387.36
473.503	381.86
473.96	396.56
474.417	403.66
474.875	450.26
475.332	482.26
475.789	473.06
476.246	476.16
476.704	495.76
477.161	518.66
477.618	523.96
478.075	561.76
478.532	617.96
478.989	687.66
479.446	799.66
479.903	755.06
480.36	789.66
480.817	838.26
481.274	920.66
481.731	1016.06
482.188	1099.86
482.645	1220.66
483.102	1293.26
483.558	1418.66
484.015	1469.16
484.472	1432.26
484.929	1397.66
485.385	1348.16
485.842	1328.76
486.299	1288.16
486.755	1245.66
487.212	1052.66
487.668	908.26
488.125	833.16
488.582	773.66
489.038	742.96
489.494	716.16
489.951	686.66
490.407	675.66
490.864	653.06
491.32	650.56
491.776	655.26
492.233	654.86
492.689	629.36
493.145	616.66
493.602	610.96
494.058	624.66
494.514	629.96
494.97	652.96
495.426	660.86
495.882	632.86
496.338	625.86
496.794	640.06
497.251	630.76
497.707	643.26
498.163	651.16
498.618	655.76
499.074	659.96
499.53	682.86
499.986	684.56
500.442	654.06
500.898	645.56
501.354	632.16
501.809	637.76
502.265	639.96
502.721	640.96
503.177	649.26
503.632	650.16
504.088	664.66
504.543	690.76
504.999	710.76
505.455	675.06
505.91	658.06
506.366	651.76
506.821	656.46
507.277	639.26
507.732	659.06
508.187	664.26
508.643	661.86
509.098	663.96
509.553	674.16
510.009	690.56
510.464	689.96
510.919	708.06
511.375	715.06
511.83	735.16
512.285	739.86
512.74	779.76
513.195	796.06
513.65	785.66
514.105	791.16
514.56	787.66
515.015	816.96
515.47	821.96
515.925	805.56
516.38	808.46
516.835	814.66
517.29	802.36
517.745	806.36
518.2	783.66
518.655	770.36
519.109	773.66
519.564	762.36
520.019	762.66
520.474	752.36
520.928	752.66
521.383	736.36
521.838	733.36
522.292	742.16
522.747	729.06
523.201	733.16
523.656	720.36
524.11	718.56
524.565	714.96
525.019	712.86
525.474	719.96
525.928	720.36
526.382	714.56
526.837	723.06
527.291	741.26
527.745	720.76
528.2	719.36
528.654	712.56
529.108	710.56
529.562	701.36
530.016	705.16
530.47	711.76
530.925	701.76
531.379	714.96
531.833	720.96
532.287	723.16
532.741	720.36
533.195	726.56
533.649	736.16
534.103	736.76
534.556	732.76
535.01	731.46
535.464	722.36
535.918	740.66
536.372	736.96
536.826	742.16
537.279	734.56
537.733	731.96
538.187	728.46
538.64	737.86
539.094	746.16
539.548	747.06
540.001	736.56
540.455	750.56
540.908	756.26
541.362	765.16
541.815	779.06
542.269	779.56
542.722	788.56
543.175	798.26
543.629	795.96
544.082	811.86
544.536	821.36
544.989	810.16
545.442	819.46
545.895	820.66
546.349	820.46
546.802	818.66
547.255	835.66
547.708	831.06
548.161	844.06
548.614	852.36
549.067	865.56
549.52	852.66
549.973	843.76
550.426	840.16
550.879	829.56
551.332	834.36
551.785	838.86
552.238	847.06
552.691	850.26
553.144	866.76
553.596	883.26
554.049	903.66
554.502	925.86
554.955	938.96
555.407	948.66
555.86	935.56
556.313	921.56
556.765	915.26
557.218	918.66
557.67	920.36
558.123	899.86
558.576	896.96
559.028	906.96
559.48	914.96
559.933	906.76
560.385	868.76
560.838	837.56
561.29	823.16
561.742	814.76
562.195	802.86
562.647	792.76
563.099	800.36
563.551	806.06
564.004	806.36
564.456	798.26
564.908	784.26
565.36	765.86
565.812	747.36
566.264	743.16
566.716	743.86
567.168	730.46
567.62	730.56
568.072	717.36
568.524	722.26
568.976	710.76
569.428	701.16
569.88	698.66
570.332	708.26
570.784	707.26
571.235	708.96
571.687	717.26
572.139	717.06
572.59	733.56
573.042	738.06
573.494	737.96
573.945	736.36
574.397	707.26
574.849	718.66
575.3	714.06
575.752	712.86
576.203	707.86
576.655	714.96
577.106	704.06
577.557	684.46
578.009	689.06
578.46	684.56
578.912	685.96
579.363	691.66
579.814	692.66
580.265	681.56
580.717	696.16
581.168	692.96
581.619	700.76
582.07	706.86
582.521	688.76
582.972	698.26
583.423	704.56
583.875	693.66
584.326	700.06
584.777	717.46
585.227	737.16
585.678	753.06
586.129	766.36
586.58	792.16
587.031	810.06
587.482	851.16
587.933	872.96
588.384	849.66
588.834	807.36
589.285	794.96
589.736	795.86
590.186	787.36
590.637	784.56
591.088	772.26
591.538	766.86
591.989	753.56
592.439	751.06
592.89	752.16
593.34	728.76
593.791	729.06
594.241	714.96
594.692	722.66
595.142	718.66
595.593	714.76
596.043	727.06
596.493	730.56
596.943	729.36
597.394	736.86
597.844	742.76
598.294	752.56
598.744	777.76
599.195	806.76
599.645	847.06
600.095	887.46
600.545	954.96
600.995	993.66
601.445	1053.66
601.895	1130.06
602.345	1162.36
602.795	1147.56
603.245	1103.76
603.695	1049.76
604.145	991.36
604.594	937.66
605.044	888.26
605.494	825.36
605.944	773.36
606.393	762.46
606.843	753.76
607.293	756.56
607.743	739.96
608.192	759.56
608.642	770.56
609.091	778.76
609.541	788.56
609.99	782.76
610.44	784.26
610.889	737.26
611.339	714.56
611.788	710.76
612.238	707.86
612.687	723.86
613.136	719.56
613.586	718.16
614.035	723.26
614.484	733.76
614.933	722.66
615.383	722.36
615.832	717.46
616.281	716.36
616.73	686.66
617.179	671.36
617.628	660.66
618.077	646.86
618.526	639.56
618.975	625.36
619.424	626.16
619.873	623.56
620.322	627.06
620.771	628.36
621.22	618.06
621.669	606.46
622.118	598.86
622.567	603.76
623.015	580.26
623.464	589.26
623.913	574.36
624.361	563.96
624.81	568.06
625.259	561.06
625.707	568.26
626.156	563.36
626.604	585.96
627.053	572.86
627.501	580.76
627.95	579.96
628.398	593.86
628.847	582.36
629.295	591.26
629.744	592.86
630.192	578.96
630.64	573.56
631.089	560.86
631.537	553.26
631.985	538.56
632.433	544.46
632.881	530.76
633.33	540.16
633.778	531.26
634.226	539.26
634.674	545.76
635.122	554.36
635.57	567.16
636.018	572.56
636.466	570.66
636.914	567.16
637.362	585.86
637.81	586.46
638.258	591.36
638.705	594.06
639.153	632.16
639.601	639.86
640.049	665.36
640.497	699.46
640.944	713.86
641.392	659.16
641.84	620.26
642.287	596.76
642.735	581.16
643.182	572.56
643.63	573.86
644.078	575.46
644.525	579.06
644.973	584.36
645.42	598.56
645.867	620.76
646.315	641.26
646.762	653.36
647.21	701.06
647.657	716.16
648.104	740.26
648.551	763.06
648.999	824.96
649.446	896.36
649.893	969.06
650.34	1111.86
650.787	1329.16
651.234	1635.16
651.682	2093.56
652.129	2845.06
652.576	4029.26
653.023	5910.36
653.47	7959.26
653.917	9854.66
654.363	11409.66
654.81	12611.46
655.257	11915.96
655.704	7874.16
656.151	4747.66
656.598	3132.56
657.044	2253.86
657.491	1743.76
657.938	1410.96
658.385	1191.66
658.831	1040.76
659.278	945.76
659.724	836.76
660.171	771.96
660.618	713.06
661.064	685.76
661.511	660.66
661.957	654.96
662.404	640.66
662.85	656.16
663.296	621.26
663.743	565.56
664.189	552.16
664.635	541.16
665.082	538.96
665.528	538.36
665.974	522.16
666.42	517.26
666.867	509.46
667.313	495.36
667.759	471.86
668.205	465.26
668.651	459.36
669.097	457.66
669.543	454.76
669.989	456.36
670.435	462.66
670.881	455.16
671.327	467.36
671.773	486.36
672.219	506.66
672.665	558.96
673.11	594.36
673.556	646.56
674.002	689.06
674.448	681.46
674.893	570.36
675.339	489.86
675.785	449.26
676.23	432.56
676.676	411.86
677.122	397.76
677.567	386.76
678.013	376.36
678.458	370.06
678.904	373.26
679.349	366.56
679.794	369.86
680.24	357.56
680.685	356.96
681.131	363.66
681.576	356.06
682.021	363.96
682.466	360.46
682.912	360.56
683.357	364.36
683.802	398.86
684.247	422.66
684.692	466.66
685.137	512.46
685.583	552.06
686.028	575.46
686.473	532.76
686.918	464.16
687.363	441.46
687.807	401.96
688.252	384.06
688.697	366.16
689.142	346.56
689.587	338.36
690.032	335.26
690.477	350.96
690.921	361.26
691.366	392.16
691.811	421.26
692.255	436.26
692.7	472.36
693.145	519.86
693.589	720.36
694.034	1172.86
694.478	1596.56
694.923	1799.86
695.367	2345.56
695.812	1240.76
696.256	517.86
696.701	381.96
697.145	349.46
697.59	333.66
698.034	319.76
698.478	342.06
698.922	330.56
699.367	335.86
699.811	352.16
700.255	366.66
700.699	391.16
701.143	434.66
701.588	490.16
702.032	526.96
702.476	535.56
702.92	510.56
703.364	509.06
703.808	661.96
704.252	1072.56
704.696	1509.76
705.14	1736.96
705.584	2199.36
706.027	1098.66
706.471	544.26
706.915	415.76
707.359	369.06
707.803	321.36
708.246	323.46
708.69	325.76
709.134	327.76
709.577	314.86
710.021	331.76
710.465	319.16
710.908	305.26
711.352	311.46
711.795	325.06
712.239	362.66
712.682	400.36
713.126	425.06
713.569	467.76
714.012	372.36
714.456	318.56
714.899	296.46
715.342	284.86
715.786	275.56
716.229	263.16
716.672	267.16
717.115	257.46
717.558	257.36
718.002	257.46
718.445	264.86
718.888	293.46
719.331	301.96
719.774	319.56
720.217	313.66
720.66	291.06
721.103	271.36
721.546	264.36
721.989	262.66
722.432	247.66
722.874	241.06
723.317	235.66
723.76	246.36
724.203	270.56
724.645	324.36
725.088	465.56
725.531	588.46
725.974	666.76
726.416	568.66
726.859	311.96
727.301	257.86
727.744	250.66
728.187	244.56
728.629	243.66
729.071	259.06
729.514	263.86
729.956	283.16
730.399	296.86
730.841	302.26
731.283	280.26
731.726	280.26
732.168	270.16
732.61	280.56
733.053	295.16
733.495	328.66
733.937	363.26
734.379	422.16
734.821	448.06
735.263	573.56
735.705	876.66
736.148	1648.66
736.59	2680.66
737.032	3176.26
737.474	2584.06
737.916	845.66
738.357	448.46
738.799	336.76
739.241	315.36
739.683	291.56
740.125	303.36
740.567	307.56
741.008	327.96
741.45	322.96
741.892	326.56
742.334	369.16
742.775	376.56
743.217	358.56
743.658	283.96
744.1	262.86
744.542	277.86
744.983	331.36
745.425	361.16
745.866	361.46
746.307	285.76
746.749	289.86
747.19	333.86
747.632	469.16
748.073	924.96
748.514	1940.46
748.956	2969.86
749.397	3715.86
749.838	3080.06
750.279	3077.86
750.72	1562.26
751.162	573.76
751.603	336.06
752.044	261.96
752.485	222.96
752.926	217.66
753.367	209.96
753.808	205.26
754.249	199.66
754.69	193.06
755.131	192.66
755.572	195.56
756.013	193.66
756.453	184.96
756.894	195.06
757.335	200.66
757.776	195.06
758.216	199.36
758.657	209.26
759.098	210.46
759.538	229.56
759.979	271.56
760.42	382.86
760.86	738.36
761.301	1917.36
761.741	4648.46
762.182	6656.36
762.622	4709.26
763.063	1366.06
763.503	553.36
763.943	342.56
764.384	277.56
764.824	251.56
765.264	242.66
765.705	213.36
766.145	193.56
766.585	181.26
767.025	177.16
767.465	171.86
767.906	183.36
768.346	199.36
768.786	207.96
769.226	223.76
769.666	320.66
770.106	645.06
770.546	1623.16
770.986	2751.96
771.426	2456.36
771.866	816.76
772.306	340.26
772.745	216.66
773.185	170.96
773.625	164.56
774.065	156.76
774.505	165.86
774.944	212.46
775.384	372.76
775.824	607.86
776.263	584.56
776.703	299.96
777.142	165.76
777.582	140.86
778.021	131.46
778.461	128.76
778.9	125.16
779.34	128.86
779.779	121.26
780.219	110.76
780.658	112.96
781.097	108.66
781.537	114.66
781.976	109.96
782.415	108.96
782.855	111.86
783.294	104.46
783.733	102.36
784.172	110.46
784.611	106.46
785.05	112.36
785.489	111.86
785.928	120.66
786.367	125.96
786.806	125.06
787.245	137.56
787.684	137.16
788.123	155.16
788.562	138.56
789.001	130.36
789.44	121.66
789.879	118.06
790.317	119.16
790.756	139.26
791.195	130.76
791.634	158.76
792.072	207.96
792.511	377.26
792.95	1051.46
793.388	2196.86
793.827	1972.36
794.265	701.36
794.704	295.36
795.142	185.96
795.581	158.26
796.019	143.16
796.458	123.06
796.896	129.56
797.334	135.06
797.773	157.46
798.211	229.36
798.649	457.06
799.087	1067.86
799.526	1676.46
799.964	2102.96
800.402	2084.86
800.84	782.86
801.278	317.26
801.716	195.86
802.154	166.26
802.592	152.46
803.03	142.96
803.468	144.76
803.906	151.76
804.344	151.36
804.782	148.36
805.22	143.76
805.658	136.06
806.096	159.26
806.533	163.56
806.971	180.16
807.409	227.96
807.847	333.36
808.284	708.06
808.722	1956.36
809.16	3441.06
809.597	3278.46
810.035	5667.36
810.472	5997.86
810.91	2171.66
811.347	834.36
811.785	421.06
812.222	264.16
812.66	209.96
813.097	175.06
813.535	148.36
813.972	139.36
814.409	125.06
814.846	119.36
815.284	109.86
815.721	107.76
816.158	104.46
816.595	117.36
817.032	165.26
817.47	190.86
817.907	144.96
818.344	109.96
818.781	106.06
819.218	95.96
819.655	121.16
820.092	195.96
820.529	220.36
820.966	176.36
821.403	135.66
821.839	103.86
822.276	95.56
822.713	127.86
823.15	143.16
823.587	122.36
824.023	154.96
824.46	311.96
824.897	942.36
825.333	1403.16
825.77	612.76
826.206	241.66
826.643	140.96
827.08	107.56
827.516	94.36
827.953	77.36
828.389	82.66
828.825	70.56
829.262	72.86
829.698	65.06
830.135	66.16
830.571	59.86
831.007	65.06
831.443	64.26
831.88	64.56
832.316	67.16
832.752	71.96
833.188	73.86
833.624	65.36
834.06	66.26
834.497	70.06
834.933	72.36
835.369	82.86
835.805	70.46
836.241	82.56
836.677	79.86
837.112	94.16
837.548	114.36
837.984	132.56
838.42	208.66
838.856	526.36
839.292	1588.46
839.727	2378.76
840.163	1120.66
840.599	979.56
841.034	2116.76
841.47	2201.06
841.906	811.36
842.341	347.06
842.777	208.56
843.212	210.76
843.648	195.76
844.083	118.06
844.519	91.66
844.954	71.46
845.39	58.46
845.825	59.26
846.261	56.16
846.696	57.26
847.131	53.46
847.566	59.16
848.002	54.46
848.437	55.46
848.872	65.76
849.307	61.26
849.742	88.96
850.177	196.56
850.613	579.36
851.048	902.66
851.483	393.56
851.918	165.56
852.353	92.56
852.788	54.56
853.223	56.26
853.657	57.66
854.092	48.96
854.527	42.86
854.962	38.56
855.397	48.26
855.832	51.76
856.266	47.06
856.701	42.16
857.136	35.86
857.57	41.66
858.005	54.76
858.44	57.76
858.874	43.06
859.309	54.36
859.743	44.96
860.178	53.26
860.612	44.06
861.047	54.96
861.481	75.26
861.915	77.76
862.35	51.86
862.784	38.26
863.218	39.66
863.653	38.86
864.087	48.26
864.521	53.26
864.955	68.96
865.39	156.16
865.824	182.76
866.258	119.06
866.692	173.76
867.126	190.26
867.56	113.46
867.994	62.06
868.428	38.16
868.862	49.16
869.296	57.16
869.73	61.16
870.164	54.96
870.598	55.16
871.031	41.56
871.465	33.16
871.899	34.36
872.333	24.36
872.766	27.06
873.2	24.96
873.634	30.16
874.067	21.46
874.501	29.06
874.935	34.86
875.368	30.56
875.802	24.96
876.235	30.36
876.669	30.36
877.102	28.66
877.535	27.06
877.969	19.96
878.402	35.46
878.836	17.66
879.269	25.06
879.702	27.76
880.135	21.26
880.569	14.46
881.002	26.46
881.435	25.06
881.868	16.66
882.301	22.46
882.734	22.86
883.167	25.66
883.601	19.16
884.034	26.86
884.467	17.46
884.899	20.76
885.332	19.26
885.765	16.36
886.198	17.36
886.631	22.46
887.064	22.86
887.497	21.66
887.929	27.66
888.362	15.56
888.795	11.76
889.228	15.56
889.66	19.06
890.093	20.76
890.526	14.26
890.958	11.56
891.391	22.36
891.823	22.56
892.256	22.96
892.688	9.26
893.121	17.16
893.553	16.86
893.985	24.96
894.418	22.26
894.85	16.06
895.282	18.46
895.715	21.06
896.147	15.96
896.579	27.66
897.011	19.86
897.444	17.96
897.876	17.26
898.308	18.06
898.74	14.16
899.172	12.56
899.604	24.96
900.036	25.06
900.468	15.56
900.9	15.86
901.332	19.86
901.764	15.26
902.196	17.46
902.628	21.46
903.06	17.36
903.491	26.86
903.923	22.76
904.355	23.06
904.787	19.96
905.218	22.06
905.65	22.86
906.082	18.26
906.513	12.46
906.945	24.16
907.376	17.26
907.808	23.76
908.239	19.76
908.671	22.36
909.102	24.66
909.534	27.16
909.965	49.66
910.397	99.16
910.828	326.26
911.259	491.66
911.691	232.46
912.122	114.96
912.553	55.76
912.984	32.66
913.415	31.26
913.847	25.56
914.278	19.56
914.709	18.26
915.14	26.26
915.571	23.66
916.002	19.26
916.433	21.46
916.864	20.66
917.295	18.86
917.726	19.96
918.157	18.16
918.587	28.66
919.018	23.56
919.449	24.06
919.88	26.56
920.311	35.26
920.741	51.56
921.172	171.86
921.603	158.36
922.033	77.46
922.464	53.86
922.895	25.36
923.325	21.36
923.756	20.56
924.186	8.86
924.617	19.26
925.047	24.36
925.478	23.36
925.908	24.46
926.338	17.06
926.769	13.96
927.199	13.16
927.629	4.46
928.06	15.36
928.49	16.36
928.92	8.06
929.35	14.06
929.78	14.76
930.21	13.36
930.641	12.96
931.071	13.46
931.501	4.86
931.931	8.76
932.361	12.66
932.791	8.06
933.221	2.86
933.651	3.76
934.08	13.96
934.51	32.06
934.94	10.76
935.37	11.16
935.8	12.46
936.229	12.36
936.659	13.86
937.089	12.96
937.519	17.16
937.948	23.56
938.378	13.06
938.807	8.26
939.237	3.46
939.666	8.56
940.096	-9.04
940.525	5.46
940.955	0.86
941.384	4.36
941.814	-2.24
942.243	0.36
942.672	7.16
943.102	-0.04
943.531	6.66
943.96	7.66
944.39	1.36
944.819	5.16
945.248	7.36
945.677	5.46
946.106	9.76
946.535	3.36
946.964	7.76
947.393	5.16
947.822	5.06
948.251	0.06
948.68	-2.24
949.109	7.06
949.538	2.36
949.967	6.76
950.396	3.86
950.825	-0.74
951.254	0.06
951.682	-4.34
952.111	9.06
952.54	12.56
952.969	-4.44
953.397	-9.04
953.826	2.96
954.254	-6.04
954.683	2.96
955.112	0.16
955.54	0.56
955.969	3.66
956.397	1.46
956.826	-3.64
957.254	8.06
957.682	6.36
958.111	5.06
958.539	4.66
958.967	-4.24
959.396	-1.74
959.824	0.76
960.252	8.16
960.68	-5.44
961.109	-3.14
961.537	-1.64
961.965	0.26
962.393	4.76
962.821	-3.04
963.249	-1.34
963.677	5.96
964.105	4.46
964.533	43.36
964.961	39.06
965.389	24.36
965.817	9.46
966.245	9.36
966.672	-3.34
967.1	-6.54
967.528	0.26
967.956	-6.74
968.383	5.86
968.811	2.96
969.239	-2.14
969.666	-6.94
970.094	2.66
970.522	-0.24
970.949	6.26
971.377	-1.54
971.804	0.86
972.232	0.56
972.659	5.36
973.087	-4.54
973.514	-4.94
973.941	-5.54
974.369	4.46
974.796	5.76
975.223	6.86
975.651	-3.34
976.078	2.56
976.505	3.76
976.932	6.96
977.359	13.46
977.786	12.56
978.214	-1.44
978.641	-3.24
979.068	0.06
979.495	-4.34
979.922	0.66
980.349	-3.24
980.776	3.86
981.202	-1.24
981.629	3.26
982.056	3.46
982.483	5.36
982.91	4.56
983.337	-6.44
983.763	0.86
984.19	-2.64
984.617	-4.44
985.043	-6.54
985.47	3.66
985.897	-0.34
986.323	-5.44
986.75	2.06
987.176	1.26
987.603	1.16
988.029	2.86
988.456	1.56
988.882	0.26
989.308	-3.74
989.735	-1.64
990.161	2.46
990.587	-5.44
991.014	4.46
991.44	8.46
991.866	-5.34
992.292	-2.34
992.719	0.26
993.145	3.76
993.571	-4.34
993.997	-4.64
994.423	-1.64
994.849	0.56
995.275	6.06
995.701	-0.84
996.127	1.96
996.553	2.06
996.979	4.26
997.405	-0.04
997.83	-6.34
998.256	-3.64
998.682	-4.74
999.108	-8.34
999.534	-0.94
999.959	1.26
1000.385	-5.14
1000.811	6.36
1001.236	-12.34
1001.662	-5.64
1002.087	-11.44
1002.513	1.36
1002.938	2.06
1003.364	1.96
1003.789	5.66
1004.215	1.26
1004.64	-1.14
1005.066	3.36
1005.491	-0.54
1005.916	-4.64
1006.342	-7.64
1006.767	3.16
1007.192	5.96
1007.617	-0.84
1008.042	-7.64
1008.468	-1.94
1008.893	-4.84
1009.318	-0.34
1009.743	2.16
1010.168	10.46
1010.593	2.16
1011.018	-4.84
1011.443	-2.14
1011.868	1.86
1012.293	7.96
1012.718	-0.94
1013.143	2.56
1013.567	4.76
1013.992	-1.14
1014.417	-10.24
1014.842	6.86
1015.267	-3.14
1015.691	-3.04
1016.116	6.96
1016.541	-4.34
1016.965	2.66
1017.39	-2.24
1017.814	-2.54
1018.239	1.66
1018.663	-9.84
1019.088	-12.54
1019.512	-1.04
1019.937	1.26
1020.361	-4.74
1020.785	-7.94
1021.21	-0.24
1021.634	-2.94
1022.058	3.66
1022.483	5.16
1022.907	-2.24
1023.331	-2.24
1023.755	-0.94
1024.179	0.06
1024.604	-6.84
1025.028	-4.94
1025.452	1.36
1025.876	-5.54
1026.3	-0.84
1026.724	-7.34
1027.148	-5.44
1027.572	-8.24
1027.996	-1.74
1028.42	-0.74
1028.843	-2.54
1029.267	-5.94
1029.691	-6.64
1030.115	-5.64
1030.539	-8.04
1030.962	-2.04
1031.386	-5.24
1031.81	-1.44
1032.233	-2.74
1032.657	0.66
1033.08	2.96
1033.504	-1.44
1033.927	-0.64
1034.351	-0.34
1034.774	-7.64
1035.198	-5.84
1035.621	-3.24
1036.045	-9.04
1036.468	-0.64
1036.891	-8.54
1037.315	-10.04
1037.738	-7.14
1038.161	-2.14
1038.584	-2.14
1039.008	-4.74
1039.431	-1.74
1039.854	0.66
1040.277	-6.74
1040.7	-7.34
1041.123	-0.34
1041.546	-6.84
1041.969	-5.34
1042.392	-6.54
1042.815	-2.24
1043.238	-2.74
1043.661	1.86
1044.084	-8.24
1044.507	-3.84
1044.93	-6.84
1045.352	-4.14
1045.775	-5.34
1046.198	-0.24
1046.621	-4.74
1047.043	-2.54
1047.466	3.46
1047.889	-2.54
1048.311	-10.84
1048.734	-1.64
1049.156	-3.64
1049.579	0.46
1050.001	-3.14
1050.424	-0.04
1050.846	-8.34
1051.269	1.16
1051.691	-5.14
1052.113	-9.24
1052.536	-8.04
1052.958	-3.64
1053.38	-2.14
1053.802	-5.44
1054.225	3.36
1054.647	-7.24
1055.069	-4.94
1055.491	3.56
1055.913	-8.14
1056.335	-3.14
1056.757	1.46
1057.179	-4.64
1057.601	-5.84
1058.023	-9.14
1058.445	-2.64
1058.867	-0.64
1059.289	-1.14
1059.711	-4.64
1060.133	-3.44
1060.555	-5.74
1060.976	-6.94
1061.398	-2.24
1061.82	-8.14
1062.241	-5.84
1062.663	-8.04
1063.085	-2.34
1063.506	3.46
1063.928	-0.34
1064.35	-1.84
1064.771	-10.24
1065.193	-1.34
1065.614	-4.34
1066.035	1.46
1066.457	-4.54
1066.878	2.46
1067.3	-4.04
1067.721	-1.94
1068.142	-6.34
1068.564	-5.74
1068.985	-7.34
1069.406	-4.74
1069.827	-3.44
1070.248	-0.54
1070.67	-3.94
1071.091	-2.34
1071.512	-1.64
1071.933	-5.54
1072.354	-6.84
1072.775	1.06
1073.196	-2.04
1073.617	-3.64
1074.038	-4.04
1074.459	-6.94
1074.88	-3.74
1075.3	-1.74
1075.721	-4.84
1076.142	-0.94
1076.563	3.16
1076.983	-13.44
1077.404	-3.14
1077.825	-12.94
1078.246	-3.44
1078.666	-7.24
1079.087	-5.34
1079.507	-7.54
1079.928	-1.54
1080.348	-0.24
1080.769	-8.24
1081.189	1.36
1081.61	0.26
1082.03	-4.94
1082.451	-6.74
1082.871	-3.94
1083.291	-1.84
1083.711	-3.34
1084.132	0.66
1084.552	-4.34
1084.972	1.46
1085.392	-11.14
1085.813	-8.64
1086.233	-2.44
1086.653	-1.64
1087.073	-2.04
1087.493	-4.44
1087.913	-6.24
1088.333	-5.54
1088.753	0.06
1089.173	0.46
1089.593	-0.04
1090.013	7.06
1090.433	1.16
1090.852	-0.14
1091.272	1.06
1091.692	-6.64
1092.112	-0.64
1092.531	-6.44
1092.951	-9.84
1093.371	-5.64
1093.79	-0.54
1094.21	-7.14
1094.63	-2.94
1095.049	-2.04
1095.469	-0.74
1095.888	-5.34
1096.308	-2.44
1096.727	1.66
1097.146	-6.24
1097.566	-0.44
1097.985	-3.14
1098.405	-3.94
1098.824	-5.24
1099.243	-2.54
1099.662	-6.94
1100.082	-5.94
1100.501	1.76
1100.92	-7.24
1101.339	-3.84
1101.758	-0.14
