Data from 20171114-ORNL-Ar_H_NY_Subt18_08-08-39-133.txt Node
Date: Tue Nov 14 08:08:39 EST 2017
User: Ender
Spectrometer: HR+D1039
Trigger mode: 0
Integration Time (sec): 2.730000E-2
Scans to average: 10
Electric dark correction enabled: true
Nonlinearity correction enabled: false
Boxcar width: 0
XAxis mode: Wavelengths
Number of Pixels in Spectrum: 2048
>>>>>Begin Spectral Data<<<<<
187.836	-5.91
188.309	-5.91
188.782	-5.91
189.255	1.89
189.728	-5.71
190.201	8.29
190.674	3.09
191.147	4.29
191.619	-4.71
192.092	-0.71
192.565	2.29
193.038	-1.81
193.511	-0.11
193.984	1.59
194.456	-3.91
194.929	1.29
195.402	-1.21
195.874	1.29
196.347	0.79
196.82	-5.31
197.292	4.49
197.765	-0.61
198.237	-1.01
198.71	3.29
199.182	-2.01
199.655	4.29
200.127	5.89
200.6	-1.71
201.072	0.99
201.544	-4.51
202.017	-4.71
202.489	3.59
202.961	-4.21
203.433	-6.91
203.906	-2.41
204.378	-5.51
204.85	-2.71
205.322	-10.71
205.794	-1.01
206.266	-3.91
206.739	-11.41
207.211	2.09
207.683	-6.01
208.155	-1.91
208.627	-6.51
209.099	-6.21
209.57	-8.61
210.042	-3.31
210.514	-1.51
210.986	-2.41
211.458	-11.01
211.93	-4.61
212.402	2.79
212.873	-7.91
213.345	-3.21
213.817	-8.31
214.288	-1.81
214.76	-16.31
215.232	-1.91
215.703	-2.71
216.175	-5.11
216.646	-3.51
217.118	-9.81
217.589	-3.21
218.061	-7.11
218.532	-8.01
219.004	-6.91
219.475	-2.91
219.946	-3.81
220.418	-9.81
220.889	4.89
221.36	-0.21
221.832	-8.71
222.303	-8.91
222.774	1.99
223.245	-6.91
223.717	-7.31
224.188	-4.81
224.659	-11.31
225.13	-8.71
225.601	0.19
226.072	-0.11
226.543	-2.01
227.014	1.09
227.485	-4.41
227.956	-3.71
228.427	-0.41
228.898	-1.61
229.369	1.59
229.839	-8.61
230.31	-3.11
230.781	1.79
231.252	-5.71
231.722	-5.91
232.193	-5.31
232.664	-6.71
233.135	-2.91
233.605	-5.31
234.076	-13.21
234.546	-0.11
235.017	0.59
235.487	-1.71
235.958	-2.61
236.428	-8.11
236.899	-5.21
237.369	-3.51
237.84	-3.81
238.31	-1.11
238.78	-3.01
239.251	-3.21
239.721	1.79
240.191	-1.41
240.662	-6.41
241.132	0.99
241.602	-2.11
242.072	-5.21
242.542	-2.11
243.013	-1.81
243.483	1.69
243.953	-1.61
244.423	-5.31
244.893	-7.11
245.363	-1.61
245.833	-4.21
246.303	-9.01
246.773	2.39
247.243	-1.21
247.712	-2.81
248.182	2.99
248.652	1.39
249.122	-3.01
249.592	0.39
250.061	10.49
250.531	17.29
251.001	-1.01
251.471	1.39
251.94	6.59
252.41	0.39
252.879	-7.81
253.349	8.59
253.818	2.49
254.288	3.79
254.757	4.09
255.227	-3.71
255.696	-1.21
256.166	-0.21
256.635	2.99
257.105	4.39
257.574	-3.51
258.043	0.29
258.513	-4.21
258.982	4.69
259.451	-3.91
259.92	-2.21
260.389	-0.81
260.859	4.99
261.328	-1.01
261.797	0.69
262.266	-2.61
262.735	5.09
263.204	2.29
263.673	-3.71
264.142	3.09
264.611	-6.91
265.08	-6.21
265.549	-5.51
266.018	-0.91
266.487	-10.21
266.955	-3.11
267.424	-4.51
267.893	-1.51
268.362	-0.61
268.83	-5.21
269.299	4.79
269.768	-1.31
270.236	5.79
270.705	-1.41
271.174	2.09
271.642	-1.21
272.111	3.29
272.579	5.99
273.048	7.79
273.516	7.49
273.985	1.69
274.453	2.49
274.922	10.49
275.39	-0.51
275.858	-6.11
276.327	1.39
276.795	8.19
277.263	0.69
277.731	18.29
278.2	13.59
278.668	8.19
279.136	15.79
279.604	4.99
280.072	7.39
280.54	2.39
281.008	8.59
281.477	9.99
281.945	10.19
282.413	4.59
282.881	10.79
283.348	5.89
283.816	13.59
284.284	6.79
284.752	11.29
285.22	5.79
285.688	4.89
286.156	15.49
286.623	20.89
287.091	5.39
287.559	7.89
288.026	13.69
288.494	6.29
288.962	3.59
289.429	2.39
289.897	11.39
290.364	6.89
290.832	14.09
291.3	8.29
291.767	12.89
292.234	11.09
292.702	7.89
293.169	9.59
293.637	16.79
294.104	15.39
294.571	7.99
295.039	13.29
295.506	6.89
295.973	13.59
296.44	10.69
296.908	14.39
297.375	10.49
297.842	12.59
298.309	13.49
298.776	4.49
299.243	21.99
299.71	9.09
300.177	14.09
300.644	12.69
301.111	15.19
301.578	10.59
302.045	11.69
302.512	22.09
302.979	20.79
303.446	17.59
303.913	11.49
304.379	7.29
304.846	16.99
305.313	22.29
305.78	21.29
306.246	23.99
306.713	16.79
307.18	20.99
307.646	22.09
308.113	19.49
308.579	18.39
309.046	21.59
309.512	22.49
309.979	15.59
310.445	29.79
310.912	29.39
311.378	29.39
311.845	28.59
312.311	25.89
312.777	29.59
313.244	22.69
313.71	31.39
314.176	22.99
314.642	23.19
315.109	16.19
315.575	29.59
316.041	33.49
316.507	22.99
316.973	28.89
317.439	30.39
317.905	20.89
318.371	20.89
318.837	25.19
319.303	27.69
319.769	26.19
320.235	31.89
320.701	31.39
321.167	29.49
321.633	29.39
322.099	28.29
322.564	30.79
323.03	37.29
323.496	22.09
323.962	33.09
324.427	29.99
324.893	35.79
325.359	29.89
325.824	30.29
326.29	29.99
326.755	30.29
327.221	30.09
327.686	33.99
328.152	39.09
328.617	39.49
329.083	38.79
329.548	45.99
330.014	35.59
330.479	28.39
330.944	37.19
331.41	30.69
331.875	32.59
332.34	39.49
332.805	38.09
333.271	37.29
333.736	29.19
334.201	44.19
334.666	39.29
335.131	43.69
335.596	40.69
336.061	41.79
336.526	34.99
336.991	44.19
337.456	51.49
337.921	40.79
338.386	37.59
338.851	34.69
339.316	37.59
339.781	38.69
340.246	49.69
340.711	40.69
341.175	42.69
341.64	39.09
342.105	40.39
342.569	50.99
343.034	50.39
343.499	47.69
343.963	50.09
344.428	54.59
344.893	49.19
345.357	56.99
345.822	54.79
346.286	62.49
346.751	66.09
347.215	53.49
347.679	61.69
348.144	84.39
348.608	70.69
349.073	59.79
349.537	68.39
350.001	72.39
350.465	80.79
350.93	69.49
351.394	75.19
351.858	63.49
352.322	79.79
352.786	72.89
353.25	88.99
353.715	101.49
354.179	86.59
354.643	110.19
355.107	108.19
355.571	93.09
356.035	85.09
356.498	98.69
356.962	104.19
357.426	111.09
357.89	98.19
358.354	81.39
358.818	75.99
359.281	74.29
359.745	70.09
360.209	73.39
360.673	70.59
361.136	66.39
361.6	77.19
362.064	72.19
362.527	75.29
362.991	85.69
363.454	72.39
363.918	66.49
364.381	73.49
364.845	77.49
365.308	74.09
365.772	79.39
366.235	74.29
366.698	64.69
367.162	75.09
367.625	73.89
368.088	76.69
368.552	75.59
369.015	77.69
369.478	84.89
369.941	85.49
370.404	87.29
370.867	89.59
371.331	97.29
371.794	105.59
372.257	90.59
372.72	95.19
373.183	90.59
373.646	84.79
374.109	88.79
374.572	95.29
375.035	95.49
375.497	95.89
375.96	95.19
376.423	93.09
376.886	102.09
377.349	99.99
377.811	92.19
378.274	98.49
378.737	93.19
379.199	102.19
379.662	102.89
380.125	104.59
380.587	104.99
381.05	102.99
381.512	107.89
381.975	114.99
382.437	110.59
382.9	108.79
383.362	119.59
383.825	119.99
384.287	117.89
384.75	110.39
385.212	116.99
385.674	132.49
386.136	129.89
386.599	112.69
387.061	114.39
387.523	112.99
387.985	118.69
388.447	132.09
388.91	117.19
389.372	125.89
389.834	125.79
390.296	120.69
390.758	126.19
391.22	134.99
391.682	152.09
392.144	175.19
392.606	152.49
393.068	137.69
393.529	148.19
393.991	136.29
394.453	130.79
394.915	126.59
395.377	145.49
395.838	147.89
396.3	135.89
396.762	136.99
397.224	134.69
397.685	119.39
398.147	128.19
398.608	125.39
399.07	122.99
399.531	134.29
399.993	144.99
400.454	151.69
400.916	138.69
401.377	137.89
401.839	147.89
402.3	142.09
402.762	160.99
403.223	167.99
403.684	167.79
404.145	154.19
404.607	153.69
405.068	160.59
405.529	165.89
405.99	178.19
406.451	168.69
406.913	167.49
407.374	158.79
407.835	155.89
408.296	163.59
408.757	167.79
409.218	176.49
409.679	174.69
410.14	172.69
410.601	172.59
411.062	178.29
411.522	177.89
411.983	170.49
412.444	173.19
412.905	181.39
413.366	179.39
413.826	191.99
414.287	216.59
414.748	265.19
415.208	247.79
415.669	205.89
416.13	209.79
416.59	202.19
417.051	214.19
417.511	223.39
417.972	242.19
418.432	244.99
418.893	284.59
419.353	246.79
419.814	200.59
420.274	188.69
420.734	178.89
421.195	198.69
421.655	193.29
422.115	184.09
422.576	188.89
423.036	193.99
423.496	204.49
423.956	208.39
424.416	230.19
424.876	266.09
425.336	262.69
425.797	255.69
426.257	252.39
426.717	241.89
427.177	225.29
427.637	217.39
428.097	226.29
428.556	241.39
429.016	265.69
429.476	262.69
429.936	269.09
430.396	273.39
430.856	280.89
431.315	303.49
431.775	336.09
432.235	371.69
432.694	349.39
433.154	356.79
433.614	383.19
434.073	329.89
434.533	282.69
434.993	264.79
435.452	277.69
435.912	288.39
436.371	287.79
436.83	279.09
437.29	271.19
437.749	243.89
438.209	247.09
438.668	274.89
439.127	278.29
439.587	264.89
440.046	247.69
440.505	264.19
440.964	281.59
441.424	317.39
441.883	306.29
442.342	257.99
442.801	233.09
443.26	229.79
443.719	227.79
444.178	223.99
444.637	212.09
445.096	219.49
445.555	225.69
446.014	224.89
446.473	232.19
446.932	231.59
447.391	225.39
447.849	234.29
448.308	220.39
448.767	225.89
449.226	238.69
449.685	245.29
450.143	258.99
450.602	240.29
451.061	227.29
451.519	240.49
451.978	246.29
452.436	237.49
452.895	236.29
453.353	260.09
453.812	247.79
454.27	242.69
454.729	241.89
455.187	251.19
455.646	251.99
456.104	253.69
456.562	269.89
457.021	274.79
457.479	268.59
457.937	283.59
458.395	277.49
458.854	261.09
459.312	260.89
459.77	280.69
460.228	263.69
460.686	245.69
461.144	255.69
461.602	250.29
462.06	258.79
462.518	255.09
462.976	267.09
463.434	259.29
463.892	268.19
464.35	279.09
464.808	287.59
465.266	278.79
465.724	274.79
466.181	278.59
466.639	275.49
467.097	291.59
467.555	309.99
468.012	308.49
468.47	319.89
468.928	338.69
469.385	346.79
469.843	350.19
470.3	352.09
470.758	375.09
471.215	392.59
471.673	407.89
472.13	415.69
472.588	427.29
473.045	372.99
473.503	381.29
473.96	403.69
474.417	413.59
474.875	436.29
475.332	480.39
475.789	475.19
476.246	479.69
476.704	495.79
477.161	510.19
477.618	530.79
478.075	562.79
478.532	614.39
478.989	686.49
479.446	799.59
479.903	757.69
480.36	790.89
480.817	836.79
481.274	925.49
481.731	1034.09
482.188	1099.29
482.645	1216.59
483.102	1300.39
483.558	1421.99
484.015	1465.69
484.472	1447.99
484.929	1401.39
485.385	1351.39
485.842	1322.39
486.299	1275.99
486.755	1229.09
487.212	1058.99
487.668	900.99
488.125	833.89
488.582	767.69
489.038	741.39
489.494	710.59
489.951	685.89
490.407	669.29
490.864	640.29
491.32	644.19
491.776	649.79
492.233	647.59
492.689	620.69
493.145	612.99
493.602	602.49
494.058	612.99
494.514	622.69
494.97	648.49
495.426	647.59
495.882	613.69
496.338	615.09
496.794	630.59
497.251	615.99
497.707	633.39
498.163	646.59
498.618	641.29
499.074	649.09
499.53	672.99
499.986	674.99
500.442	650.59
500.898	627.69
501.354	613.49
501.809	631.99
502.265	629.29
502.721	634.69
503.177	649.99
503.632	651.69
504.088	652.39
504.543	686.89
504.999	706.39
505.455	667.29
505.91	642.89
506.366	637.49
506.821	644.09
507.277	644.59
507.732	635.79
508.187	646.99
508.643	650.09
509.098	659.69
509.553	663.19
510.009	677.09
510.464	686.59
510.919	704.59
511.375	707.29
511.83	724.09
512.285	732.49
512.74	767.29
513.195	792.19
513.65	788.19
514.105	784.29
514.56	772.59
515.015	801.49
515.47	818.09
515.925	793.09
516.38	799.29
516.835	804.59
517.29	798.49
517.745	796.09
518.2	783.29
518.655	751.89
519.109	746.79
519.564	738.09
520.019	747.59
520.474	737.19
520.928	727.99
521.383	729.39
521.838	726.29
522.292	723.79
522.747	720.79
523.201	721.49
523.656	706.89
524.11	702.09
524.565	717.19
525.019	705.99
525.474	719.39
525.928	720.29
526.382	708.49
526.837	710.29
527.291	724.19
527.745	716.99
528.2	710.69
528.654	710.19
529.108	696.39
529.562	698.39
530.016	706.39
530.47	706.89
530.925	697.79
531.379	703.09
531.833	717.19
532.287	709.49
532.741	715.29
533.195	711.99
533.649	727.59
534.103	729.19
534.556	717.79
535.01	719.39
535.464	720.69
535.918	724.69
536.372	724.59
536.826	734.39
537.279	717.29
537.733	724.49
538.187	730.29
538.64	726.79
539.094	740.99
539.548	747.69
540.001	733.89
540.455	746.79
540.908	752.49
541.362	755.69
541.815	757.19
542.269	776.19
542.722	780.79
543.175	794.79
543.629	789.49
544.082	807.89
544.536	802.99
544.989	801.49
545.442	813.39
545.895	801.79
546.349	811.69
546.802	808.49
547.255	815.69
547.708	823.39
548.161	835.69
548.614	840.69
549.067	847.69
549.52	836.19
549.973	825.29
550.426	820.99
550.879	827.49
551.332	820.49
551.785	837.89
552.238	830.39
552.691	843.69
553.144	849.39
553.596	864.69
554.049	885.49
554.502	919.69
554.955	926.49
555.407	935.09
555.86	931.29
556.313	907.59
556.765	894.39
557.218	900.99
557.67	908.59
558.123	894.09
558.576	901.89
559.028	891.89
559.48	898.49
559.933	896.69
560.385	864.39
560.838	841.09
561.29	806.09
561.742	797.19
562.195	795.29
562.647	791.59
563.099	798.69
563.551	792.89
564.004	806.29
564.456	793.19
564.908	783.29
565.36	764.39
565.812	751.39
566.264	730.69
566.716	736.19
567.168	727.69
567.62	734.99
568.072	716.69
568.524	722.69
568.976	707.89
569.428	693.49
569.88	692.79
570.332	703.79
570.784	700.39
571.235	716.59
571.687	707.59
572.139	726.29
572.59	730.39
573.042	732.09
573.494	731.09
573.945	729.79
574.397	698.89
574.849	704.89
575.3	716.49
575.752	709.39
576.203	704.39
576.655	706.59
577.106	697.49
577.557	685.69
578.009	674.49
578.46	681.69
578.912	679.69
579.363	686.99
579.814	689.19
580.265	684.49
580.717	679.69
581.168	690.49
581.619	694.19
582.07	696.49
582.521	702.89
582.972	691.49
583.423	691.59
583.875	686.59
584.326	700.59
584.777	717.39
585.227	759.69
585.678	780.69
586.129	805.49
586.58	832.59
587.031	876.89
587.482	919.69
587.933	970.99
588.384	930.69
588.834	838.09
589.285	807.09
589.736	795.09
590.186	793.19
590.637	789.29
591.088	766.49
591.538	760.29
591.989	750.49
592.439	741.09
592.89	743.69
593.34	735.29
593.791	730.49
594.241	727.09
594.692	715.49
595.142	713.89
595.593	710.99
596.043	720.69
596.493	724.19
596.943	724.19
597.394	738.29
597.844	732.89
598.294	758.79
598.744	783.49
599.195	813.89
599.645	847.89
600.095	894.69
600.545	954.29
600.995	997.19
601.445	1049.39
601.895	1117.89
602.345	1168.69
602.795	1140.69
603.245	1090.39
603.695	1036.89
604.145	984.29
604.594	947.69
605.044	884.59
605.494	819.89
605.944	771.69
606.393	767.89
606.843	752.29
607.293	751.29
607.743	746.29
608.192	764.09
608.642	774.29
609.091	780.79
609.541	789.29
609.99	780.39
610.44	783.19
610.889	740.09
611.339	713.79
611.788	703.89
612.238	712.19
612.687	721.69
613.136	721.89
613.586	722.09
614.035	719.99
614.484	731.39
614.933	744.19
615.383	739.39
615.832	721.09
616.281	714.49
616.73	694.59
617.179	674.59
617.628	655.09
618.077	644.39
618.526	639.89
618.975	634.09
619.424	629.99
619.873	627.59
620.322	639.69
620.771	625.39
621.22	621.19
621.669	606.89
622.118	601.99
622.567	595.39
623.015	588.19
623.464	584.39
623.913	576.79
624.361	553.89
624.81	562.29
625.259	569.79
625.707	565.39
626.156	568.99
626.604	587.99
627.053	581.19
627.501	589.59
627.95	594.29
628.398	603.59
628.847	587.79
629.295	591.49
629.744	592.69
630.192	599.19
630.64	590.09
631.089	565.49
631.537	557.99
631.985	556.09
632.433	566.29
632.881	553.69
633.33	563.29
633.778	567.99
634.226	561.79
634.674	554.49
635.122	566.29
635.57	568.09
636.018	577.49
636.466	574.89
636.914	570.69
637.362	586.09
637.81	598.09
638.258	596.39
638.705	601.59
639.153	641.69
639.601	635.89
640.049	668.09
640.497	695.49
640.944	713.99
641.392	661.99
641.84	636.19
642.287	605.29
642.735	583.09
643.182	579.19
643.63	583.69
644.078	577.89
644.525	588.89
644.973	594.89
645.42	603.59
645.867	632.19
646.315	651.49
646.762	683.69
647.21	696.49
647.657	719.29
648.104	754.39
648.551	776.49
648.999	845.29
649.446	909.09
649.893	996.49
650.34	1132.49
650.787	1352.89
651.234	1672.19
651.682	2179.39
652.129	2969.09
652.576	4215.89
653.023	6111.39
653.47	8261.09
653.917	10179.29
654.363	11692.09
654.81	12830.59
655.257	12200.49
655.704	8095.39
656.151	4861.19
656.598	3179.39
657.044	2282.49
657.491	1775.09
657.938	1432.79
658.385	1218.59
658.831	1052.29
659.278	957.49
659.724	848.49
660.171	783.39
660.618	725.49
661.064	693.89
661.511	675.69
661.957	664.19
662.404	657.59
662.85	657.09
663.296	637.59
663.743	569.89
664.189	545.49
664.635	548.69
665.082	543.39
665.528	542.69
665.974	532.39
666.42	530.99
666.867	518.99
667.313	504.09
667.759	478.09
668.205	455.59
668.651	462.09
669.097	461.39
669.543	463.29
669.989	461.59
670.435	462.99
670.881	461.59
671.327	473.19
671.773	485.79
672.219	516.09
672.665	566.99
673.11	615.09
673.556	652.69
674.002	684.69
674.448	673.19
674.893	572.29
675.339	496.09
675.785	451.19
676.23	437.09
676.676	405.29
677.122	403.19
677.567	391.69
678.013	385.99
678.458	367.19
678.904	379.09
679.349	367.99
679.794	374.59
680.24	366.79
680.685	370.99
681.131	364.89
681.576	366.09
682.021	371.09
682.466	365.09
682.912	365.99
683.357	373.49
683.802	399.79
684.247	435.09
684.692	479.19
685.137	525.39
685.583	556.19
686.028	576.49
686.473	538.99
686.918	467.19
687.363	442.79
687.807	408.99
688.252	384.09
688.697	369.39
689.142	355.99
689.587	344.19
690.032	335.29
690.477	364.99
690.921	366.49
691.366	401.39
691.811	419.89
692.255	446.59
692.7	480.29
693.145	535.49
693.589	756.09
694.034	1225.49
694.478	1616.99
694.923	1790.59
695.367	2346.89
695.812	1252.69
696.256	524.19
696.701	385.59
697.145	361.49
697.59	337.89
698.034	342.99
698.478	345.19
698.922	333.39
699.367	342.69
699.811	347.79
700.255	369.99
700.699	398.99
701.143	442.99
701.588	493.49
702.032	537.29
702.476	536.49
702.92	516.09
703.364	526.99
703.808	688.69
704.252	1122.49
704.696	1552.89
705.14	1743.49
705.584	2205.89
706.027	1114.99
706.471	547.59
706.915	409.79
707.359	374.59
707.803	340.39
708.246	321.89
708.69	329.79
709.134	322.19
709.577	319.79
710.021	319.29
710.465	321.89
710.908	315.19
711.352	306.19
711.795	328.19
712.239	370.59
712.682	393.99
713.126	428.69
713.569	468.79
714.012	370.19
714.456	310.89
714.899	296.49
715.342	285.99
715.786	275.29
716.229	267.79
716.672	271.59
717.115	253.69
717.558	260.09
718.002	268.39
718.445	277.29
718.888	300.59
719.331	307.99
719.774	320.39
720.217	319.09
720.66	294.09
721.103	280.09
721.546	265.79
721.989	264.49
722.432	249.39
722.874	255.79
723.317	245.89
723.76	244.79
724.203	265.89
724.645	329.69
725.088	471.39
725.531	595.79
725.974	670.29
726.416	565.29
726.859	321.39
727.301	260.89
727.744	250.19
728.187	242.79
728.629	254.59
729.071	253.39
729.514	272.39
729.956	284.99
730.399	295.19
730.841	303.49
731.283	286.09
731.726	277.39
732.168	273.59
732.61	281.09
733.053	299.59
733.495	333.19
733.937	377.29
734.379	418.69
734.821	457.79
735.263	582.29
735.705	908.59
736.148	1728.29
736.59	2745.29
737.032	3178.39
737.474	2580.69
737.916	851.19
738.357	459.99
738.799	342.49
739.241	313.49
739.683	293.59
740.125	305.79
740.567	320.39
741.008	330.29
741.45	336.99
741.892	329.69
742.334	367.29
742.775	374.59
743.217	353.59
743.658	284.49
744.1	266.89
744.542	286.09
744.983	339.79
745.425	365.89
745.866	361.09
746.307	300.89
746.749	295.89
747.19	343.19
747.632	496.49
748.073	972.59
748.514	2011.39
748.956	3005.89
749.397	3801.19
749.838	3124.79
750.279	3057.59
750.72	1587.89
751.162	578.99
751.603	347.49
752.044	268.89
752.485	229.79
752.926	213.99
753.367	212.59
753.808	205.09
754.249	200.09
754.69	195.39
755.131	189.89
755.572	186.39
756.013	193.29
756.453	200.89
756.894	198.19
757.335	198.39
757.776	206.09
758.216	203.49
758.657	203.99
759.098	208.29
759.538	239.19
759.979	287.49
760.42	397.29
760.86	770.49
761.301	2019.99
761.741	4781.79
762.182	6627.69
762.622	4689.49
763.063	1391.59
763.503	567.49
763.943	345.69
764.384	287.09
764.824	289.99
765.264	276.19
765.705	236.79
766.145	193.59
766.585	189.09
767.025	182.29
767.465	179.99
767.906	197.79
768.346	222.09
768.786	245.19
769.226	235.59
769.666	332.29
770.106	683.19
770.546	1692.99
770.986	2756.59
771.426	2453.09
771.866	831.99
772.306	348.99
772.745	212.89
773.185	174.79
773.625	167.19
774.065	163.59
774.505	172.49
774.944	231.29
775.384	416.89
775.824	677.19
776.263	650.19
776.703	317.89
777.142	167.69
777.582	137.19
778.021	127.09
778.461	128.59
778.9	129.29
779.34	135.49
779.779	125.29
780.219	115.79
780.658	115.99
781.097	110.99
781.537	113.09
781.976	113.39
782.415	108.99
782.855	108.79
783.294	102.99
783.733	109.79
784.172	113.99
784.611	109.79
785.05	114.39
785.489	123.89
785.928	125.19
786.367	125.19
786.806	122.19
787.245	129.49
787.684	139.89
788.123	152.59
788.562	137.09
789.001	142.19
789.44	127.49
789.879	121.59
790.317	128.39
790.756	134.19
791.195	131.29
791.634	155.19
792.072	216.69
792.511	402.39
792.95	1111.09
793.388	2215.49
793.827	1963.29
794.265	703.29
794.704	298.89
795.142	196.39
795.581	160.59
796.019	146.59
796.458	132.79
796.896	133.29
797.334	140.89
797.773	161.89
798.211	231.59
798.649	486.09
799.087	1103.09
799.526	1698.39
799.964	2148.39
800.402	2054.49
800.84	798.39
801.278	324.79
801.716	192.59
802.154	162.49
802.592	147.79
803.03	145.49
803.468	143.59
803.906	145.59
804.344	155.59
804.782	144.89
805.22	134.49
805.658	138.39
806.096	161.69
806.533	167.09
806.971	183.19
807.409	231.89
807.847	351.49
808.284	737.89
808.722	2027.59
809.16	3470.29
809.597	3391.99
810.035	5782.49
810.472	5924.49
810.91	2183.29
811.347	849.39
811.785	434.99
812.222	269.09
812.66	208.79
813.097	175.99
813.535	152.39
813.972	132.59
814.409	120.59
814.846	114.59
815.284	113.89
815.721	111.49
816.158	112.89
816.595	113.89
817.032	164.49
817.47	186.89
817.907	129.29
818.344	108.29
818.781	107.09
819.218	101.39
819.655	128.29
820.092	203.49
820.529	220.09
820.966	175.29
821.403	128.59
821.839	98.99
822.276	100.59
822.713	126.19
823.15	139.09
823.587	118.39
824.023	157.29
824.46	329.09
824.897	971.09
825.333	1402.09
825.77	612.19
826.206	243.69
826.643	142.29
827.08	103.49
827.516	84.39
827.953	83.79
828.389	81.89
828.825	80.79
829.262	67.19
829.698	66.49
830.135	67.49
830.571	62.59
831.007	64.89
831.443	65.99
831.88	60.09
832.316	71.29
832.752	61.89
833.188	65.39
833.624	66.49
834.06	70.19
834.497	77.39
834.933	80.89
835.369	77.29
835.805	64.39
836.241	85.19
836.677	84.79
837.112	95.29
837.548	106.29
837.984	138.09
838.42	216.29
838.856	548.59
839.292	1629.69
839.727	2378.49
840.163	1139.19
840.599	1011.29
841.034	2164.59
841.47	2187.99
841.906	809.39
842.341	352.69
842.777	219.29
843.212	221.19
843.648	207.19
844.083	118.19
844.519	84.99
844.954	75.49
845.39	65.69
845.825	59.29
846.261	61.19
846.696	54.79
847.131	52.29
847.566	63.99
848.002	62.59
848.437	52.29
848.872	61.39
849.307	60.19
849.742	89.89
850.177	208.19
850.613	597.39
851.048	914.39
851.483	399.99
851.918	160.69
852.353	87.39
852.788	56.39
853.223	51.49
853.657	59.79
854.092	49.59
854.527	41.89
854.962	40.59
855.397	50.69
855.832	54.39
856.266	45.99
856.701	38.59
857.136	38.19
857.57	39.59
858.005	58.09
858.44	65.19
858.874	40.49
859.309	54.69
859.743	46.99
860.178	48.09
860.612	44.19
861.047	53.99
861.481	76.29
861.915	75.89
862.35	51.49
862.784	38.09
863.218	36.89
863.653	38.79
864.087	47.99
864.521	55.89
864.955	73.59
865.39	164.29
865.824	178.39
866.258	121.29
866.692	176.19
867.126	192.19
867.56	109.49
867.994	60.79
868.428	38.99
868.862	48.69
869.296	62.89
869.73	61.79
870.164	57.59
870.598	47.79
871.031	44.19
871.465	27.29
871.899	31.29
872.333	24.29
872.766	22.29
873.2	25.99
873.634	22.89
874.067	25.39
874.501	24.39
874.935	32.69
875.368	27.99
875.802	34.29
876.235	21.69
876.669	22.99
877.102	28.39
877.535	26.49
877.969	29.79
878.402	24.69
878.836	21.09
879.269	23.99
879.702	27.49
880.135	22.89
880.569	23.29
881.002	28.89
881.435	27.89
881.868	16.49
882.301	21.99
882.734	19.19
883.167	23.59
883.601	24.39
884.034	26.79
884.467	18.39
884.899	18.69
885.332	21.39
885.765	20.49
886.198	16.19
886.631	15.69
887.064	17.49
887.497	19.99
887.929	22.59
888.362	18.29
888.795	13.39
889.228	16.29
889.66	19.89
890.093	21.29
890.526	14.59
890.958	13.99
891.391	23.19
891.823	18.49
892.256	21.29
892.688	9.99
893.121	12.69
893.553	16.49
893.985	19.09
894.418	12.49
894.85	11.09
895.282	12.69
895.715	15.09
896.147	22.09
896.579	23.59
897.011	18.59
897.444	13.39
897.876	9.99
898.308	16.19
898.74	14.99
899.172	6.29
899.604	26.69
900.036	18.29
900.468	15.59
900.9	16.99
901.332	16.79
901.764	16.89
902.196	17.99
902.628	19.09
903.06	23.99
903.491	24.69
903.923	21.99
904.355	20.59
904.787	25.69
905.218	22.09
905.65	21.79
906.082	9.69
906.513	12.39
906.945	11.69
907.376	13.09
907.808	16.09
908.239	18.89
908.671	21.09
909.102	19.69
909.534	28.39
909.965	46.09
910.397	98.39
910.828	336.39
911.259	485.39
911.691	224.89
912.122	112.89
912.553	61.99
912.984	32.19
913.415	27.09
913.847	23.69
914.278	15.59
914.709	16.79
915.14	20.49
915.571	8.09
916.002	13.19
916.433	21.59
916.864	16.99
917.295	11.89
917.726	24.49
918.157	15.69
918.587	28.29
919.018	24.79
919.449	22.19
919.88	20.89
920.311	28.39
920.741	52.49
921.172	175.59
921.603	153.29
922.033	79.69
922.464	42.99
922.895	27.69
923.325	25.19
923.756	12.79
924.186	6.99
924.617	21.09
925.047	21.39
925.478	24.69
925.908	27.49
926.338	11.59
926.769	14.19
927.199	16.89
927.629	11.39
928.06	13.79
928.49	15.49
928.92	12.99
929.35	14.49
929.78	13.79
930.21	5.39
930.641	7.49
931.071	8.79
931.501	4.29
931.931	10.99
932.361	11.19
932.791	3.69
933.221	7.79
933.651	7.09
934.08	11.69
934.51	35.99
934.94	11.29
935.37	13.69
935.8	6.79
936.229	6.09
936.659	12.09
937.089	5.89
937.519	12.79
937.948	23.69
938.378	17.49
938.807	8.49
939.237	3.49
939.666	3.79
940.096	-10.11
940.525	-3.01
940.955	3.39
941.384	9.59
941.814	-6.31
942.243	5.19
942.672	2.69
943.102	-1.71
943.531	3.09
943.96	5.69
944.39	-0.21
944.819	-1.41
945.248	-0.21
945.677	2.49
946.106	3.99
946.535	3.99
946.964	-0.41
947.393	5.99
947.822	-7.81
948.251	-4.61
948.68	0.39
949.109	4.59
949.538	7.89
949.967	0.19
950.396	2.19
950.825	0.79
951.254	1.09
951.682	-5.71
952.111	0.79
952.54	5.59
952.969	-1.31
953.397	-6.71
953.826	-1.01
954.254	-7.11
954.683	-0.11
955.112	-0.61
955.54	0.99
955.969	5.89
956.397	5.39
956.826	-0.41
957.254	4.59
957.682	1.29
958.111	7.49
958.539	-2.61
958.967	-1.51
959.396	-2.41
959.824	5.09
960.252	3.79
960.68	-3.61
961.109	-1.71
961.537	-2.71
961.965	-3.21
962.393	-3.81
962.821	-3.41
963.249	3.19
963.677	12.89
964.105	8.29
964.533	48.19
964.961	40.99
965.389	20.49
965.817	6.59
966.245	2.89
966.672	0.49
967.1	-9.71
967.528	-2.81
967.956	-5.21
968.383	-1.81
968.811	-6.71
969.239	-4.71
969.666	-3.31
970.094	3.59
970.522	1.19
970.949	0.69
971.377	-5.91
971.804	-4.21
972.232	0.79
972.659	0.39
973.087	-3.91
973.514	-2.51
973.941	-0.31
974.369	1.39
974.796	-0.61
975.223	-1.51
975.651	-1.91
976.078	-6.91
976.505	-4.61
976.932	2.69
977.359	11.79
977.786	14.09
978.214	1.29
978.641	-5.41
979.068	-2.91
979.495	-4.81
979.922	-4.11
980.349	-1.31
980.776	5.89
981.202	6.59
981.629	3.89
982.056	3.49
982.483	1.79
982.91	5.99
983.337	-10.11
983.763	3.19
984.19	-6.51
984.617	-0.01
985.043	-2.81
985.47	-1.11
985.897	-7.61
986.323	-7.31
986.75	8.49
987.176	-1.01
987.603	-3.11
988.029	-3.51
988.456	-1.71
988.882	4.39
989.308	-6.41
989.735	-5.81
990.161	-2.81
990.587	-6.71
991.014	-0.11
991.44	0.89
991.866	-1.41
992.292	-6.21
992.719	-6.81
993.145	5.69
993.571	-9.31
993.997	-6.01
994.423	-3.61
994.849	-3.01
995.275	-1.71
995.701	6.09
996.127	-5.71
996.553	3.49
996.979	-4.01
997.405	-2.21
997.83	-1.51
998.256	-4.21
998.682	-3.11
999.108	-3.31
999.534	1.19
999.959	-0.31
1000.385	-0.81
1000.811	-2.61
1001.236	-11.91
1001.662	-9.81
1002.087	-11.11
1002.513	1.79
1002.938	1.59
1003.364	-5.71
1003.789	-1.11
1004.215	-0.71
1004.64	3.29
1005.066	2.69
1005.491	-2.41
1005.916	2.39
1006.342	-8.91
1006.767	-3.31
1007.192	7.29
1007.617	-3.51
1008.042	-7.11
1008.468	-10.91
1008.893	-5.31
1009.318	-10.91
1009.743	-5.31
1010.168	2.49
1010.593	-0.71
1011.018	-11.31
1011.443	-1.81
1011.868	2.99
1012.293	-5.51
1012.718	-13.01
1013.143	0.99
1013.567	0.79
1013.992	-3.91
1014.417	-15.11
1014.842	-0.61
1015.267	-2.01
1015.691	-4.61
1016.116	5.99
1016.541	-4.11
1016.965	1.99
1017.39	1.69
1017.814	3.19
1018.239	-2.91
1018.663	-0.91
1019.088	-8.41
1019.512	-0.61
1019.937	-3.61
1020.361	-5.61
1020.785	-9.91
1021.21	-4.01
1021.634	-2.31
1022.058	-3.21
1022.483	0.09
1022.907	-2.51
1023.331	-3.61
1023.755	-2.61
1024.179	2.59
1024.604	-5.81
1025.028	-9.11
1025.452	-9.21
1025.876	-5.11
1026.3	1.79
1026.724	-6.61
1027.148	-7.31
1027.572	-10.71
1027.996	-4.31
1028.42	-1.81
1028.843	-4.61
1029.267	-5.01
1029.691	1.59
1030.115	-5.61
1030.539	-8.11
1030.962	-12.91
1031.386	-13.31
1031.81	-1.41
1032.233	-2.61
1032.657	-4.71
1033.08	-8.81
1033.504	1.19
1033.927	-4.01
1034.351	0.19
1034.774	-7.51
1035.198	0.09
1035.621	-3.41
1036.045	-2.01
1036.468	-3.31
1036.891	-9.21
1037.315	-8.91
1037.738	-8.81
1038.161	-5.41
1038.584	-4.61
1039.008	-11.71
1039.431	-4.21
1039.854	-1.11
1040.277	-9.51
1040.7	-17.31
1041.123	-1.11
1041.546	-7.51
1041.969	-3.21
1042.392	-12.81
1042.815	-4.61
1043.238	5.29
1043.661	0.49
1044.084	-7.51
1044.507	-4.61
1044.93	-4.21
1045.352	-5.61
1045.775	-3.41
1046.198	-6.81
1046.621	-3.31
1047.043	-1.51
1047.466	6.79
1047.889	-3.71
1048.311	-4.41
1048.734	-1.71
1049.156	-1.11
1049.579	-3.21
1050.001	-2.21
1050.424	3.09
1050.846	-10.31
1051.269	-6.01
1051.691	-9.11
1052.113	-2.81
1052.536	-3.51
1052.958	-7.81
1053.38	-4.11
1053.802	-10.81
1054.225	-6.21
1054.647	-8.71
1055.069	-0.61
1055.491	-1.81
1055.913	-5.81
1056.335	-5.01
1056.757	-5.61
1057.179	-7.31
1057.601	-6.51
1058.023	-1.71
1058.445	-8.81
1058.867	-5.91
1059.289	-2.71
1059.711	-6.11
1060.133	-8.31
1060.555	-12.21
1060.976	-11.91
1061.398	-4.71
1061.82	-5.71
1062.241	-4.71
1062.663	-9.91
1063.085	-6.81
1063.506	1.09
1063.928	-2.41
1064.35	-0.31
1064.771	-9.01
1065.193	-4.41
1065.614	-8.31
1066.035	0.89
1066.457	-4.31
1066.878	5.89
1067.3	-5.31
1067.721	-9.01
1068.142	-5.41
1068.564	-0.91
1068.985	-6.11
1069.406	-5.61
1069.827	-8.51
1070.248	0.29
1070.67	-6.41
1071.091	-6.31
1071.512	-8.51
1071.933	-5.61
1072.354	-12.41
1072.775	-3.81
1073.196	-8.71
1073.617	-5.31
1074.038	-8.21
1074.459	-5.01
1074.88	-10.21
1075.3	-5.91
1075.721	-7.01
1076.142	0.59
1076.563	-2.01
1076.983	-14.91
1077.404	-3.61
1077.825	-5.41
1078.246	-1.11
1078.666	-4.11
1079.087	-6.71
1079.507	-6.41
1079.928	-2.41
1080.348	-1.71
1080.769	-7.11
1081.189	-1.61
1081.61	-1.31
1082.03	-8.81
1082.451	-11.71
1082.871	-2.31
1083.291	-10.01
1083.711	-9.51
1084.132	-5.01
1084.552	-6.71
1084.972	-5.91
1085.392	-9.11
1085.813	-16.71
1086.233	-4.31
1086.653	-6.81
1087.073	2.29
1087.493	-4.11
1087.913	-12.91
1088.333	-7.81
1088.753	-8.31
1089.173	1.69
1089.593	-7.21
1090.013	1.99
1090.433	2.49
1090.852	-7.01
1091.272	-0.41
1091.692	-5.21
1092.112	-7.71
1092.531	-12.01
1092.951	-10.31
1093.371	-6.41
1093.79	2.79
1094.21	-6.91
1094.63	-11.81
1095.049	-3.81
1095.469	-9.01
1095.888	-6.71
1096.308	0.79
1096.727	4.39
1097.146	-9.11
1097.566	0.79
1097.985	-9.41
1098.405	-5.21
1098.824	-8.61
1099.243	-10.11
1099.662	-9.91
1100.082	-1.51
1100.501	-5.41
1100.92	-8.21
1101.339	-4.81
1101.758	-6.61
