Data from 20171114-ORNL-Ar_H_NY_Subt18_08-07-13-418.txt Node
Date: Tue Nov 14 08:07:13 EST 2017
User: Ender
Spectrometer: HR+D1039
Trigger mode: 0
Integration Time (sec): 2.730000E-2
Scans to average: 10
Electric dark correction enabled: true
Nonlinearity correction enabled: false
Boxcar width: 0
XAxis mode: Wavelengths
Number of Pixels in Spectrum: 2048
>>>>>Begin Spectral Data<<<<<
187.836	-4.67
188.309	-4.67
188.782	-4.67
189.255	1.53
189.728	0.33
190.201	4.43
190.674	-1.37
191.147	3.93
191.619	-5.27
192.092	0.03
192.565	4.53
193.038	-1.97
193.511	3.93
193.984	3.33
194.456	0.03
194.929	-6.67
195.402	-1.97
195.874	-0.17
196.347	-5.57
196.82	-6.57
197.292	4.83
197.765	1.43
198.237	-10.67
198.71	1.63
199.182	0.33
199.655	3.43
200.127	-0.77
200.6	-2.37
201.072	-2.17
201.544	-4.07
202.017	0.53
202.489	0.83
202.961	-2.37
203.433	1.13
203.906	-5.87
204.378	-9.77
204.85	-3.17
205.322	-6.87
205.794	-6.47
206.266	-5.47
206.739	-3.87
207.211	-0.57
207.683	-5.67
208.155	-6.67
208.627	-6.97
209.099	-2.57
209.57	-10.47
210.042	-12.47
210.514	-0.67
210.986	0.03
211.458	-7.77
211.93	-7.77
212.402	4.63
212.873	-10.37
213.345	-4.17
213.817	-8.07
214.288	0.53
214.76	-12.07
215.232	-1.77
215.703	-0.77
216.175	0.23
216.646	-5.07
217.118	-5.37
217.589	-3.77
218.061	-3.37
218.532	-6.47
219.004	-0.47
219.475	-2.57
219.946	-0.87
220.418	-8.97
220.889	0.53
221.36	0.43
221.832	-3.37
222.303	-5.87
222.774	-0.67
223.245	-15.67
223.717	-8.57
224.188	-6.17
224.659	-11.17
225.13	0.43
225.601	-4.77
226.072	3.73
226.543	-1.57
227.014	-1.37
227.485	-5.27
227.956	-9.97
228.427	-3.07
228.898	0.33
229.369	3.63
229.839	-3.27
230.31	-10.57
230.781	-0.27
231.252	-3.07
231.722	-2.77
232.193	-7.27
232.664	0.73
233.135	-0.97
233.605	-6.27
234.076	-11.47
234.546	-0.27
235.017	-0.07
235.487	-1.87
235.958	-9.27
236.428	-2.17
236.899	-1.37
237.369	1.03
237.84	-1.67
238.31	0.23
238.78	-5.77
239.251	-4.97
239.721	-8.37
240.191	-5.87
240.662	-3.57
241.132	-1.77
241.602	-7.97
242.072	-4.07
242.542	2.53
243.013	0.23
243.483	-1.57
243.953	0.13
244.423	-3.27
244.893	-3.17
245.363	6.73
245.833	1.33
246.303	-4.27
246.773	1.33
247.243	-4.17
247.712	-4.57
248.182	-4.87
248.652	1.63
249.122	-15.07
249.592	0.53
250.061	1.83
250.531	7.33
251.001	-4.67
251.471	7.33
251.94	9.43
252.41	-3.97
252.879	-4.07
253.349	-0.57
253.818	9.73
254.288	-1.07
254.757	-2.67
255.227	-9.17
255.696	0.53
256.166	-5.07
256.635	3.33
257.105	3.33
257.574	-3.87
258.043	2.63
258.513	-3.87
258.982	4.63
259.451	-8.07
259.92	3.83
260.389	-4.67
260.859	7.83
261.328	-3.97
261.797	0.93
262.266	2.03
262.735	10.73
263.204	-0.97
263.673	-4.17
264.142	4.13
264.611	-8.77
265.08	-2.07
265.549	-7.47
266.018	7.43
266.487	-0.87
266.955	-10.77
267.424	-0.57
267.893	2.23
268.362	-1.77
268.83	-6.37
269.299	8.33
269.768	-0.77
270.236	-4.97
270.705	3.33
271.174	-0.67
271.642	1.43
272.111	-1.67
272.579	0.73
273.048	0.43
273.516	4.33
273.985	2.33
274.453	3.13
274.922	8.43
275.39	0.23
275.858	-0.47
276.327	1.93
276.795	8.73
277.263	-1.27
277.731	9.03
278.2	0.93
278.668	4.43
279.136	6.03
279.604	0.13
280.072	9.13
280.54	0.73
281.008	6.93
281.477	8.23
281.945	10.13
282.413	7.93
282.881	9.53
283.348	1.03
283.816	7.73
284.284	5.03
284.752	16.03
285.22	1.93
285.688	2.13
286.156	7.53
286.623	10.43
287.091	8.23
287.559	9.73
288.026	8.83
288.494	7.33
288.962	-3.87
289.429	1.43
289.897	10.43
290.364	9.23
290.832	11.33
291.3	5.93
291.767	10.83
292.234	12.63
292.702	1.83
293.169	2.33
293.637	21.63
294.104	12.63
294.571	6.73
295.039	2.43
295.506	3.23
295.973	12.63
296.44	11.73
296.908	7.93
297.375	6.23
297.842	9.73
298.309	8.43
298.776	6.83
299.243	10.03
299.71	5.03
300.177	13.83
300.644	13.53
301.111	7.43
301.578	17.23
302.045	7.33
302.512	12.83
302.979	17.23
303.446	10.63
303.913	15.23
304.379	12.63
304.846	19.13
305.313	13.23
305.78	12.73
306.246	13.93
306.713	19.93
307.18	18.53
307.646	18.23
308.113	20.33
308.579	12.53
309.046	17.43
309.512	21.03
309.979	9.63
310.445	17.83
310.912	18.23
311.378	20.93
311.845	28.63
312.311	27.83
312.777	22.53
313.244	21.93
313.71	28.93
314.176	21.63
314.642	22.23
315.109	11.03
315.575	24.33
316.041	24.43
316.507	15.93
316.973	23.73
317.439	29.63
317.905	21.03
318.371	24.93
318.837	22.93
319.303	21.53
319.769	31.73
320.235	25.13
320.701	27.53
321.167	31.73
321.633	23.03
322.099	26.23
322.564	27.63
323.03	29.63
323.496	21.03
323.962	28.03
324.427	25.03
324.893	37.73
325.359	28.13
325.824	35.13
326.29	32.03
326.755	30.73
327.221	33.43
327.686	30.23
328.152	34.03
328.617	29.93
329.083	44.63
329.548	45.43
330.014	44.33
330.479	37.73
330.944	28.83
331.41	39.83
331.875	32.23
332.34	32.43
332.805	32.63
333.271	38.83
333.736	32.23
334.201	43.23
334.666	40.73
335.131	46.93
335.596	44.73
336.061	36.03
336.526	34.53
336.991	40.83
337.456	45.13
337.921	34.03
338.386	35.63
338.851	40.13
339.316	36.93
339.781	41.33
340.246	47.93
340.711	42.43
341.175	40.33
341.64	32.93
342.105	34.63
342.569	52.13
343.034	46.93
343.499	51.73
343.963	44.43
344.428	54.53
344.893	54.13
345.357	52.73
345.822	47.73
346.286	50.93
346.751	54.93
347.215	56.93
347.679	58.23
348.144	71.93
348.608	66.83
349.073	60.03
349.537	63.43
350.001	67.63
350.465	73.43
350.93	65.53
351.394	67.43
351.858	61.73
352.322	71.73
352.786	70.33
353.25	80.43
353.715	84.63
354.179	83.73
354.643	94.73
355.107	104.43
355.571	86.23
356.035	77.23
356.498	92.93
356.962	88.43
357.426	99.23
357.89	87.23
358.354	79.93
358.818	68.43
359.281	77.33
359.745	59.33
360.209	60.23
360.673	61.63
361.136	64.53
361.6	73.83
362.064	70.03
362.527	71.13
362.991	82.73
363.454	76.73
363.918	69.03
364.381	70.43
364.845	78.53
365.308	84.73
365.772	78.33
366.235	73.53
366.698	76.03
367.162	71.73
367.625	76.93
368.088	72.93
368.552	75.53
369.015	82.43
369.478	77.73
369.941	83.83
370.404	73.73
370.867	89.43
371.331	85.73
371.794	100.83
372.257	85.93
372.72	92.93
373.183	93.33
373.646	82.63
374.109	87.83
374.572	91.83
375.035	90.63
375.497	102.43
375.96	96.73
376.423	97.53
376.886	99.93
377.349	97.53
377.811	98.33
378.274	94.43
378.737	96.23
379.199	103.53
379.662	98.13
380.125	103.43
380.587	100.13
381.05	106.23
381.512	109.43
381.975	109.03
382.437	113.23
382.9	107.83
383.362	117.33
383.825	118.73
384.287	113.03
384.75	108.43
385.212	110.93
385.674	117.43
386.136	123.53
386.599	115.93
387.061	107.93
387.523	119.73
387.985	122.63
388.447	126.83
388.91	116.03
389.372	120.73
389.834	119.23
390.296	122.13
390.758	117.33
391.22	127.93
391.682	136.13
392.144	135.83
392.606	141.73
393.068	131.33
393.529	140.43
393.991	132.43
394.453	131.53
394.915	128.33
395.377	124.83
395.838	123.33
396.3	124.03
396.762	131.43
397.224	127.23
397.685	133.83
398.147	123.03
398.608	122.83
399.07	123.23
399.531	131.83
399.993	142.13
400.454	148.83
400.916	146.43
401.377	144.83
401.839	150.03
402.3	146.43
402.762	157.43
403.223	169.73
403.684	160.43
404.145	154.03
404.607	154.73
405.068	158.23
405.529	159.13
405.99	172.73
406.451	161.93
406.913	166.23
407.374	166.53
407.835	159.33
408.296	162.73
408.757	161.23
409.218	181.63
409.679	169.63
410.14	166.23
410.601	169.63
411.062	174.73
411.522	172.73
411.983	173.43
412.444	168.43
412.905	175.13
413.366	179.33
413.826	191.03
414.287	217.73
414.748	260.93
415.208	253.13
415.669	214.53
416.13	214.23
416.59	206.03
417.051	215.73
417.511	220.73
417.972	237.53
418.432	257.63
418.893	290.23
419.353	255.63
419.814	197.03
420.274	184.73
420.734	179.93
421.195	199.83
421.655	195.03
422.115	195.23
422.576	194.73
423.036	199.53
423.496	214.53
423.956	213.73
424.416	231.73
424.876	262.23
425.336	261.33
425.797	264.23
426.257	258.63
426.717	241.33
427.177	232.03
427.637	229.13
428.097	236.63
428.556	241.83
429.016	261.73
429.476	251.63
429.936	272.33
430.396	266.13
430.856	281.23
431.315	301.43
431.775	339.93
432.235	359.53
432.694	337.23
433.154	352.03
433.614	373.03
434.073	320.63
434.533	283.13
434.993	266.33
435.452	281.93
435.912	286.53
436.371	274.93
436.83	277.33
437.29	257.53
437.749	250.63
438.209	243.23
438.668	272.43
439.127	285.23
439.587	262.93
440.046	249.33
440.505	261.23
440.964	278.63
441.424	319.63
441.883	316.83
442.342	261.93
442.801	231.33
443.26	227.73
443.719	227.73
444.178	224.23
444.637	210.83
445.096	224.73
445.555	230.23
446.014	240.13
446.473	237.63
446.932	236.73
447.391	234.73
447.849	241.23
448.308	231.73
448.767	227.93
449.226	248.93
449.685	246.13
450.143	262.63
450.602	250.03
451.061	232.03
451.519	240.43
451.978	236.03
452.436	238.43
452.895	234.93
453.353	259.33
453.812	248.13
454.27	252.03
454.729	249.83
455.187	250.73
455.646	254.33
456.104	248.23
456.562	272.83
457.021	272.33
457.479	261.53
457.937	278.83
458.395	274.23
458.854	254.13
459.312	266.83
459.77	275.53
460.228	264.03
460.686	251.83
461.144	267.23
461.602	255.53
462.06	252.03
462.518	266.43
462.976	265.53
463.434	272.43
463.892	271.43
464.35	290.03
464.808	299.93
465.266	278.83
465.724	281.53
466.181	281.93
466.639	281.33
467.097	299.03
467.555	315.23
468.012	314.63
468.47	316.03
468.928	340.83
469.385	348.23
469.843	361.53
470.3	364.13
470.758	382.23
471.215	397.03
471.673	425.53
472.13	412.23
472.588	431.73
473.045	392.13
473.503	393.03
473.96	406.63
474.417	413.03
474.875	450.13
475.332	483.33
475.789	477.93
476.246	482.53
476.704	497.33
477.161	512.03
477.618	533.93
478.075	569.73
478.532	627.03
478.989	699.03
479.446	791.73
479.903	761.23
480.36	801.53
480.817	840.73
481.274	935.93
481.731	1026.43
482.188	1124.03
482.645	1227.03
483.102	1318.53
483.558	1434.63
484.015	1474.93
484.472	1450.83
484.929	1406.83
485.385	1354.93
485.842	1337.33
486.299	1302.23
486.755	1253.43
487.212	1069.93
487.668	909.53
488.125	847.73
488.582	775.83
489.038	749.03
489.494	721.13
489.951	689.13
490.407	673.93
490.864	660.93
491.32	669.13
491.776	657.83
492.233	657.63
492.689	626.13
493.145	625.73
493.602	621.03
494.058	637.53
494.514	631.43
494.97	655.73
495.426	664.53
495.882	647.33
496.338	629.03
496.794	638.53
497.251	636.53
497.707	652.33
498.163	653.43
498.618	663.13
499.074	665.93
499.53	693.13
499.986	686.43
500.442	660.53
500.898	642.43
501.354	639.53
501.809	635.83
502.265	639.03
502.721	655.73
503.177	669.03
503.632	672.43
504.088	661.43
504.543	690.23
504.999	707.83
505.455	680.33
505.91	654.63
506.366	658.33
506.821	660.73
507.277	660.63
507.732	669.63
508.187	660.33
508.643	667.63
509.098	668.73
509.553	684.53
510.009	690.53
510.464	706.73
510.919	713.63
511.375	721.33
511.83	741.03
512.285	766.73
512.74	788.63
513.195	804.13
513.65	798.83
514.105	801.33
514.56	801.63
515.015	815.83
515.47	831.63
515.925	812.83
516.38	807.83
516.835	827.63
517.29	805.53
517.745	798.63
518.2	795.63
518.655	784.03
519.109	779.33
519.564	779.43
520.019	768.53
520.474	765.53
520.928	758.63
521.383	749.13
521.838	730.83
522.292	738.83
522.747	743.03
523.201	737.83
523.656	721.13
524.11	729.33
524.565	727.33
525.019	724.83
525.474	721.63
525.928	730.03
526.382	728.93
526.837	736.83
527.291	732.63
527.745	729.33
528.2	716.73
528.654	715.83
529.108	716.33
529.562	724.43
530.016	724.63
530.47	718.63
530.925	719.03
531.379	717.43
531.833	733.33
532.287	727.33
532.741	736.73
533.195	733.63
533.649	738.83
534.103	749.63
534.556	737.03
535.01	746.03
535.464	744.33
535.918	749.73
536.372	748.83
536.826	748.73
537.279	739.23
537.733	745.63
538.187	745.13
538.64	747.03
539.094	750.53
539.548	765.93
540.001	756.83
540.455	757.53
540.908	767.73
541.362	765.23
541.815	778.93
542.269	796.03
542.722	784.93
543.175	806.93
543.629	814.53
544.082	826.53
544.536	819.43
544.989	827.13
545.442	831.23
545.895	829.83
546.349	826.43
546.802	828.23
547.255	838.13
547.708	845.53
548.161	860.33
548.614	860.53
549.067	866.33
549.52	871.33
549.973	851.43
550.426	847.53
550.879	831.73
551.332	836.83
551.785	850.53
552.238	860.13
552.691	855.43
553.144	872.63
553.596	888.53
554.049	910.73
554.502	932.53
554.955	953.43
555.407	952.23
555.86	935.23
556.313	941.53
556.765	925.33
557.218	936.23
557.67	919.93
558.123	902.13
558.576	912.83
559.028	913.63
559.48	921.53
559.933	915.53
560.385	886.23
560.838	852.83
561.29	837.03
561.742	830.03
562.195	804.43
562.647	816.73
563.099	811.83
563.551	803.53
564.004	817.13
564.456	799.33
564.908	790.43
565.36	774.23
565.812	757.03
566.264	743.53
566.716	757.03
567.168	726.53
567.62	745.83
568.072	731.73
568.524	724.73
568.976	731.83
569.428	720.03
569.88	710.33
570.332	712.63
570.784	721.93
571.235	718.83
571.687	723.63
572.139	736.93
572.59	743.53
573.042	745.93
573.494	746.43
573.945	726.83
574.397	714.13
574.849	728.53
575.3	722.53
575.752	722.43
576.203	710.43
576.655	723.13
577.106	700.33
577.557	688.33
578.009	700.73
578.46	698.03
578.912	692.33
579.363	695.73
579.814	698.13
580.265	698.73
580.717	702.03
581.168	695.53
581.619	710.23
582.07	708.63
582.521	702.73
582.972	695.93
583.423	704.43
583.875	704.03
584.326	703.73
584.777	727.13
585.227	740.33
585.678	742.53
586.129	766.03
586.58	769.13
587.031	791.13
587.482	821.13
587.933	827.33
588.384	820.53
588.834	795.23
589.285	803.03
589.736	802.13
590.186	809.03
590.637	801.73
591.088	776.13
591.538	767.73
591.989	767.63
592.439	755.43
592.89	742.43
593.34	741.73
593.791	731.43
594.241	721.63
594.692	731.83
595.142	727.73
595.593	712.13
596.043	725.93
596.493	730.73
596.943	734.83
597.394	749.53
597.844	747.03
598.294	761.63
598.744	780.03
599.195	809.73
599.645	858.23
600.095	896.53
600.545	956.43
600.995	1007.03
601.445	1064.63
601.895	1129.23
602.345	1174.63
602.795	1160.53
603.245	1124.43
603.695	1057.93
604.145	998.23
604.594	946.63
605.044	898.13
605.494	838.43
605.944	780.43
606.393	784.43
606.843	764.73
607.293	758.23
607.743	758.63
608.192	773.93
608.642	771.13
609.091	786.93
609.541	784.33
609.99	792.73
610.44	790.43
610.889	742.13
611.339	716.33
611.788	703.93
612.238	711.73
612.687	726.03
613.136	714.83
613.586	727.23
614.035	728.23
614.484	736.93
614.933	734.63
615.383	732.63
615.832	727.43
616.281	719.83
616.73	691.13
617.179	682.53
617.628	667.03
618.077	649.63
618.526	643.23
618.975	634.53
619.424	639.33
619.873	637.63
620.322	640.63
620.771	625.63
621.22	632.73
621.669	613.93
622.118	602.73
622.567	595.53
623.015	589.33
623.464	586.63
623.913	573.43
624.361	575.33
624.81	561.93
625.259	581.63
625.707	582.63
626.156	573.03
626.604	588.73
627.053	580.33
627.501	577.63
627.95	597.53
628.398	600.43
628.847	594.13
629.295	597.63
629.744	601.53
630.192	582.73
630.64	578.63
631.089	566.63
631.537	563.93
631.985	542.13
632.433	548.23
632.881	538.93
633.33	554.83
633.778	539.73
634.226	541.03
634.674	556.73
635.122	552.33
635.57	559.43
636.018	578.93
636.466	569.83
636.914	576.83
637.362	589.43
637.81	589.83
638.258	595.63
638.705	604.63
639.153	634.73
639.601	630.23
640.049	654.53
640.497	699.13
640.944	715.63
641.392	667.53
641.84	635.23
642.287	604.53
642.735	582.03
643.182	582.13
643.63	579.83
644.078	580.73
644.525	591.53
644.973	594.33
645.42	621.23
645.867	627.33
646.315	652.43
646.762	673.33
647.21	694.83
647.657	720.03
648.104	757.93
648.551	778.03
648.999	831.53
649.446	898.43
649.893	980.63
650.34	1129.93
650.787	1341.43
651.234	1638.43
651.682	2113.53
652.129	2873.73
652.576	4067.53
653.023	5950.43
653.47	8053.43
653.917	9964.53
654.363	11493.33
654.81	12740.43
655.257	12004.03
655.704	7945.33
656.151	4797.33
656.598	3149.83
657.044	2268.23
657.491	1744.93
657.938	1432.53
658.385	1200.83
658.831	1054.53
659.278	949.13
659.724	851.33
660.171	786.43
660.618	717.63
661.064	679.13
661.511	680.53
661.957	661.83
662.404	648.33
662.85	656.63
663.296	628.83
663.743	572.63
664.189	549.83
664.635	544.83
665.082	548.63
665.528	545.93
665.974	530.03
666.42	526.13
666.867	516.53
667.313	507.23
667.759	481.63
668.205	474.13
668.651	459.63
669.097	459.13
669.543	457.93
669.989	455.73
670.435	462.83
670.881	450.03
671.327	461.73
671.773	478.83
672.219	509.13
672.665	572.73
673.11	618.03
673.556	661.13
674.002	700.03
674.448	683.53
674.893	575.03
675.339	495.73
675.785	454.93
676.23	435.63
676.676	407.03
677.122	395.33
677.567	389.23
678.013	373.63
678.458	366.33
678.904	371.93
679.349	364.83
679.794	365.73
680.24	367.23
680.685	366.53
681.131	353.83
681.576	358.83
682.021	368.03
682.466	367.03
682.912	355.23
683.357	370.53
683.802	396.53
684.247	421.63
684.692	464.13
685.137	514.43
685.583	557.73
686.028	577.33
686.473	542.03
686.918	462.33
687.363	429.43
687.807	404.83
688.252	380.03
688.697	365.43
689.142	357.93
689.587	348.23
690.032	345.43
690.477	364.43
690.921	365.43
691.366	400.03
691.811	409.43
692.255	449.23
692.7	474.43
693.145	523.43
693.589	734.43
694.034	1189.63
694.478	1607.43
694.923	1806.43
695.367	2365.13
695.812	1256.13
696.256	517.73
696.701	386.33
697.145	357.63
697.59	340.53
698.034	328.33
698.478	336.33
698.922	334.83
699.367	344.83
699.811	350.13
700.255	365.93
700.699	398.03
701.143	438.03
701.588	491.03
702.032	533.23
702.476	541.03
702.92	508.23
703.364	519.73
703.808	672.03
704.252	1093.93
704.696	1518.03
705.14	1755.43
705.584	2217.83
706.027	1111.43
706.471	537.63
706.915	412.23
707.359	370.03
707.803	327.43
708.246	324.33
708.69	326.43
709.134	329.33
709.577	323.43
710.021	324.23
710.465	319.93
710.908	315.73
711.352	309.43
711.795	321.63
712.239	362.33
712.682	400.83
713.126	431.13
713.569	469.33
714.012	365.83
714.456	317.73
714.899	298.93
715.342	286.83
715.786	270.43
716.229	266.33
716.672	258.03
717.115	258.93
717.558	260.33
718.002	261.53
718.445	274.23
718.888	294.13
719.331	311.63
719.774	320.43
720.217	315.13
720.66	298.93
721.103	272.93
721.546	257.23
721.989	255.63
722.432	247.83
722.874	242.63
723.317	237.83
723.76	241.13
724.203	270.03
724.645	331.43
725.088	462.83
725.531	590.33
725.974	673.33
726.416	572.03
726.859	317.43
727.301	253.43
727.744	244.23
728.187	244.43
728.629	238.43
729.071	249.63
729.514	266.23
729.956	288.33
730.399	281.23
730.841	303.23
731.283	282.83
731.726	271.43
732.168	271.73
732.61	278.53
733.053	302.13
733.495	328.53
733.937	366.93
734.379	418.33
734.821	457.93
735.263	565.23
735.705	885.53
736.148	1656.53
736.59	2714.33
737.032	3191.23
737.474	2605.83
737.916	847.63
738.357	452.13
738.799	344.23
739.241	308.03
739.683	290.43
740.125	305.83
740.567	301.93
741.008	327.43
741.45	336.53
741.892	331.33
742.334	367.13
742.775	380.43
743.217	359.23
743.658	280.43
744.1	263.33
744.542	282.53
744.983	330.43
745.425	367.23
745.866	365.53
746.307	284.13
746.749	288.33
747.19	339.93
747.632	479.83
748.073	930.33
748.514	1981.23
748.956	3000.23
749.397	3770.63
749.838	3127.83
750.279	3120.33
750.72	1578.03
751.162	580.13
751.603	342.03
752.044	265.63
752.485	227.03
752.926	215.03
753.367	209.63
753.808	200.13
754.249	196.33
754.69	192.53
755.131	196.03
755.572	194.63
756.013	183.73
756.453	190.33
756.894	194.43
757.335	197.73
757.776	203.13
758.216	205.23
758.657	209.63
759.098	214.13
759.538	237.83
759.979	276.23
760.42	392.63
760.86	746.33
761.301	1955.93
761.741	4694.63
762.182	6733.63
762.622	4766.83
763.063	1386.13
763.503	562.63
763.943	333.23
764.384	278.73
764.824	240.43
765.264	219.13
765.705	211.33
766.145	188.23
766.585	184.63
767.025	169.53
767.465	165.43
767.906	179.63
768.346	195.73
768.786	198.03
769.226	219.63
769.666	321.33
770.106	654.03
770.546	1655.13
770.986	2769.13
771.426	2475.33
771.866	835.03
772.306	343.03
772.745	221.53
773.185	170.53
773.625	167.93
774.065	156.13
774.505	167.53
774.944	213.03
775.384	364.83
775.824	586.13
776.263	565.83
776.703	276.03
777.142	157.83
777.582	133.23
778.021	125.63
778.461	131.73
778.9	134.43
779.34	135.83
779.779	117.53
780.219	106.93
780.658	110.13
781.097	111.63
781.537	117.83
781.976	108.03
782.415	107.43
782.855	100.53
783.294	107.73
783.733	107.43
784.172	113.53
784.611	106.13
785.05	107.73
785.489	118.73
785.928	120.73
786.367	126.93
786.806	122.53
787.245	137.73
787.684	141.13
788.123	149.03
788.562	140.23
789.001	124.13
789.44	131.73
789.879	122.13
790.317	125.53
790.756	130.93
791.195	134.73
791.634	154.03
792.072	208.63
792.511	385.83
792.95	1058.23
793.388	2218.23
793.827	1998.13
794.265	697.23
794.704	296.63
795.142	196.63
795.581	152.83
796.019	141.73
796.458	132.83
796.896	128.73
797.334	141.43
797.773	163.03
798.211	231.63
798.649	473.93
799.087	1070.73
799.526	1680.43
799.964	2105.93
800.402	2100.83
800.84	798.83
801.278	315.23
801.716	191.23
802.154	165.73
802.592	150.33
803.03	148.93
803.468	135.93
803.906	152.23
804.344	162.93
804.782	150.43
805.22	137.33
805.658	136.43
806.096	154.53
806.533	162.43
806.971	184.73
807.409	235.13
807.847	338.63
808.284	706.23
808.722	1997.23
809.16	3480.73
809.597	3355.23
810.035	5707.03
810.472	6040.73
810.91	2206.63
811.347	847.33
811.785	430.13
812.222	269.13
812.66	210.93
813.097	167.93
813.535	146.93
813.972	133.73
814.409	122.23
814.846	114.33
815.284	111.23
815.721	104.23
816.158	108.43
816.595	109.83
817.032	161.63
817.47	188.23
817.907	149.93
818.344	101.83
818.781	104.13
819.218	99.23
819.655	129.33
820.092	190.93
820.529	227.13
820.966	175.83
821.403	128.63
821.839	108.63
822.276	94.93
822.713	130.73
823.15	149.33
823.587	125.73
824.023	158.23
824.46	323.63
824.897	946.83
825.333	1412.73
825.77	621.13
826.206	239.83
826.643	145.03
827.08	104.53
827.516	90.73
827.953	75.33
828.389	78.23
828.825	75.83
829.262	65.33
829.698	64.73
830.135	64.23
830.571	61.23
831.007	65.23
831.443	58.53
831.88	59.33
832.316	62.03
832.752	67.83
833.188	62.93
833.624	65.93
834.06	70.73
834.497	71.63
834.933	78.33
835.369	80.43
835.805	67.33
836.241	82.23
836.677	86.93
837.112	92.93
837.548	109.63
837.984	135.23
838.42	217.53
838.856	525.63
839.292	1596.33
839.727	2417.63
840.163	1137.93
840.599	988.73
841.034	2136.73
841.47	2213.93
841.906	814.73
842.341	345.23
842.777	207.93
843.212	209.13
843.648	187.43
844.083	109.53
844.519	85.13
844.954	67.63
845.39	61.73
845.825	53.33
846.261	55.63
846.696	52.43
847.131	52.43
847.566	57.33
848.002	55.63
848.437	55.43
848.872	62.03
849.307	66.03
849.742	91.53
850.177	196.03
850.613	581.63
851.048	921.23
851.483	398.53
851.918	162.83
852.353	83.43
852.788	45.23
853.223	54.23
853.657	48.03
854.092	48.23
854.527	40.63
854.962	48.63
855.397	50.43
855.832	53.73
856.266	41.23
856.701	45.73
857.136	40.43
857.57	46.43
858.005	54.73
858.44	61.23
858.874	49.63
859.309	56.63
859.743	39.73
860.178	47.73
860.612	44.83
861.047	51.53
861.481	73.33
861.915	78.93
862.35	44.23
862.784	38.03
863.218	41.33
863.653	35.43
864.087	45.73
864.521	54.03
864.955	73.93
865.39	155.93
865.824	183.53
866.258	123.03
866.692	181.23
867.126	191.23
867.56	114.13
867.994	58.03
868.428	42.33
868.862	49.63
869.296	55.03
869.73	61.83
870.164	56.23
870.598	47.83
871.031	40.73
871.465	37.13
871.899	28.13
872.333	31.73
872.766	29.93
873.2	22.73
873.634	29.83
874.067	29.03
874.501	29.33
874.935	29.93
875.368	32.83
875.802	28.03
876.235	26.13
876.669	16.53
877.102	18.53
877.535	27.13
877.969	26.43
878.402	23.83
878.836	16.63
879.269	25.73
879.702	25.43
880.135	24.53
880.569	24.63
881.002	21.33
881.435	25.63
881.868	16.13
882.301	18.03
882.734	10.93
883.167	26.13
883.601	21.83
884.034	15.43
884.467	18.93
884.899	19.73
885.332	19.63
885.765	10.33
886.198	17.43
886.631	22.53
887.064	16.83
887.497	16.83
887.929	21.83
888.362	12.33
888.795	16.93
889.228	18.33
889.66	14.83
890.093	18.13
890.526	19.63
890.958	14.93
891.391	19.93
891.823	26.23
892.256	13.53
892.688	10.33
893.121	16.33
893.553	15.73
893.985	24.53
894.418	17.53
894.85	15.63
895.282	19.03
895.715	16.93
896.147	12.83
896.579	18.03
897.011	12.13
897.444	15.53
897.876	17.33
898.308	13.93
898.74	14.73
899.172	10.03
899.604	25.13
900.036	20.33
900.468	19.53
900.9	17.23
901.332	17.03
901.764	15.43
902.196	17.13
902.628	18.53
903.06	16.73
903.491	33.23
903.923	20.83
904.355	24.43
904.787	23.23
905.218	19.43
905.65	27.03
906.082	9.43
906.513	13.33
906.945	15.03
907.376	14.83
907.808	13.23
908.239	21.43
908.671	28.13
909.102	22.83
909.534	32.53
909.965	45.73
910.397	103.93
910.828	331.23
911.259	492.63
911.691	226.53
912.122	117.13
912.553	57.43
912.984	36.03
913.415	30.03
913.847	27.53
914.278	12.73
914.709	18.13
915.14	18.03
915.571	17.73
916.002	12.43
916.433	18.43
916.864	19.03
917.295	12.13
917.726	26.93
918.157	20.03
918.587	35.33
919.018	26.43
919.449	28.03
919.88	23.73
920.311	31.03
920.741	53.53
921.172	179.13
921.603	155.13
922.033	73.13
922.464	43.63
922.895	23.03
923.325	22.13
923.756	8.73
924.186	8.13
924.617	19.63
925.047	18.53
925.478	21.13
925.908	26.23
926.338	11.03
926.769	13.73
927.199	12.83
927.629	8.43
928.06	12.73
928.49	10.93
928.92	10.63
929.35	5.23
929.78	15.33
930.21	7.13
930.641	7.23
931.071	9.03
931.501	6.53
931.931	9.33
932.361	3.03
932.791	7.73
933.221	4.83
933.651	1.23
934.08	17.43
934.51	30.93
934.94	9.03
935.37	8.13
935.8	11.83
936.229	10.53
936.659	9.43
937.089	1.13
937.519	15.23
937.948	21.33
938.378	17.43
938.807	-0.27
939.237	3.53
939.666	5.63
940.096	-2.77
940.525	2.73
940.955	0.03
941.384	5.13
941.814	-4.77
942.243	-2.77
942.672	-0.07
943.102	-3.07
943.531	-3.97
943.96	4.13
944.39	6.53
944.819	0.63
945.248	4.33
945.677	-5.37
946.106	7.73
946.535	7.23
946.964	0.33
947.393	-0.77
947.822	2.83
948.251	-6.07
948.68	3.13
949.109	7.13
949.538	3.73
949.967	-1.47
950.396	3.63
950.825	3.83
951.254	-5.77
951.682	0.63
952.111	6.23
952.54	5.23
952.969	-3.27
953.397	-7.97
953.826	4.43
954.254	-6.57
954.683	-2.47
955.112	-6.57
955.54	-2.17
955.969	-1.57
956.397	-3.57
956.826	-2.37
957.254	0.83
957.682	4.53
958.111	1.93
958.539	1.93
958.967	0.43
959.396	-3.07
959.824	-4.07
960.252	4.93
960.68	-5.17
961.109	-3.97
961.537	2.03
961.965	0.53
962.393	-1.67
962.821	-3.37
963.249	1.43
963.677	-1.67
964.105	1.83
964.533	45.93
964.961	36.03
965.389	24.83
965.817	6.53
966.245	4.63
966.672	-8.37
967.1	-3.37
967.528	-3.37
967.956	-6.57
968.383	-2.97
968.811	-2.17
969.239	-0.47
969.666	-5.97
970.094	1.03
970.522	1.73
970.949	-0.57
971.377	-7.37
971.804	-2.17
972.232	-3.57
972.659	-1.67
973.087	-2.57
973.514	-6.07
973.941	-6.77
974.369	-0.27
974.796	-0.47
975.223	-1.07
975.651	2.63
976.078	2.93
976.505	0.53
976.932	6.53
977.359	10.43
977.786	16.93
978.214	0.73
978.641	0.63
979.068	-2.77
979.495	-4.87
979.922	-1.07
980.349	-1.07
980.776	3.13
981.202	-2.97
981.629	9.03
982.056	-1.47
982.483	1.53
982.91	-0.07
983.337	-6.67
983.763	7.73
984.19	-7.37
984.617	2.43
985.043	-8.77
985.47	-1.87
985.897	-10.07
986.323	-5.77
986.75	1.73
987.176	-1.97
987.603	-1.57
988.029	2.13
988.456	-1.37
988.882	3.93
989.308	-5.47
989.735	-4.07
990.161	-0.87
990.587	-2.07
991.014	-2.07
991.44	4.63
991.866	2.43
992.292	-1.67
992.719	-6.87
993.145	3.83
993.571	-5.37
993.997	2.63
994.423	-5.37
994.849	-1.37
995.275	0.03
995.701	0.33
996.127	-5.47
996.553	-3.47
996.979	1.33
997.405	0.33
997.83	-0.87
998.256	-6.87
998.682	-6.17
999.108	-12.57
999.534	-2.67
999.959	-2.77
1000.385	-5.27
1000.811	-3.67
1001.236	-11.47
1001.662	-8.77
1002.087	-7.57
1002.513	-0.07
1002.938	4.33
1003.364	-7.37
1003.789	-0.17
1004.215	4.23
1004.64	-1.17
1005.066	3.43
1005.491	4.43
1005.916	-1.07
1006.342	-2.97
1006.767	-8.47
1007.192	3.33
1007.617	-5.17
1008.042	-1.77
1008.468	-3.97
1008.893	-9.07
1009.318	-5.97
1009.743	-6.77
1010.168	3.33
1010.593	3.23
1011.018	-4.87
1011.443	-3.87
1011.868	0.13
1012.293	-4.67
1012.718	-7.17
1013.143	0.03
1013.567	1.13
1013.992	-0.17
1014.417	-11.87
1014.842	2.63
1015.267	-2.27
1015.691	-2.07
1016.116	5.93
1016.541	-1.97
1016.965	2.43
1017.39	4.33
1017.814	-0.07
1018.239	-3.87
1018.663	-6.17
1019.088	-11.77
1019.512	-7.37
1019.937	3.53
1020.361	-8.97
1020.785	-3.47
1021.21	-4.77
1021.634	-1.97
1022.058	-2.57
1022.483	6.63
1022.907	-6.17
1023.331	-1.17
1023.755	-2.67
1024.179	-4.47
1024.604	-13.67
1025.028	-14.27
1025.452	-1.37
1025.876	-3.37
1026.3	-1.37
1026.724	-17.87
1027.148	-4.47
1027.572	-12.47
1027.996	-7.27
1028.42	-0.07
1028.843	-2.67
1029.267	-4.27
1029.691	-11.97
1030.115	-9.37
1030.539	-10.67
1030.962	-1.67
1031.386	-6.47
1031.81	-3.47
1032.233	1.73
1032.657	-3.37
1033.08	-2.27
1033.504	-8.57
1033.927	-4.67
1034.351	3.73
1034.774	-3.37
1035.198	-1.57
1035.621	-5.17
1036.045	-10.67
1036.468	1.83
1036.891	-10.67
1037.315	-7.77
1037.738	-8.37
1038.161	4.33
1038.584	-2.37
1039.008	-5.17
1039.431	-1.07
1039.854	-0.87
1040.277	-8.97
1040.7	-10.87
1041.123	-2.47
1041.546	-6.37
1041.969	-2.87
1042.392	-6.97
1042.815	-5.17
1043.238	-3.47
1043.661	6.43
1044.084	-2.07
1044.507	-3.77
1044.93	-4.27
1045.352	-2.57
1045.775	-6.17
1046.198	1.63
1046.621	-6.07
1047.043	-7.47
1047.466	4.43
1047.889	-7.67
1048.311	-3.87
1048.734	-0.37
1049.156	-0.67
1049.579	-3.27
1050.001	-6.37
1050.424	-2.07
1050.846	-2.47
1051.269	0.13
1051.691	-10.77
1052.113	-5.97
1052.536	-2.57
1052.958	-2.77
1053.38	0.73
1053.802	-9.27
1054.225	0.83
1054.647	-5.37
1055.069	-6.97
1055.491	-4.07
1055.913	-3.37
1056.335	-4.97
1056.757	0.63
1057.179	-6.47
1057.601	-6.67
1058.023	-7.57
1058.445	-5.17
1058.867	-1.47
1059.289	-5.07
1059.711	-5.37
1060.133	-0.17
1060.555	-3.37
1060.976	-8.27
1061.398	-3.17
1061.82	-7.07
1062.241	-5.87
1062.663	-5.77
1063.085	-8.97
1063.506	0.23
1063.928	-8.77
1064.35	-2.57
1064.771	-13.57
1065.193	-3.87
1065.614	-6.47
1066.035	-4.17
1066.457	-6.87
1066.878	-1.77
1067.3	-6.77
1067.721	-8.27
1068.142	-0.67
1068.564	0.83
1068.985	-4.27
1069.406	-6.67
1069.827	-7.27
1070.248	-2.67
1070.67	-8.77
1071.091	-6.07
1071.512	0.13
1071.933	-3.57
1072.354	-8.07
1072.775	-11.07
1073.196	-8.97
1073.617	0.53
1074.038	-9.97
1074.459	-2.97
1074.88	-8.17
1075.3	-4.87
1075.721	-11.57
1076.142	3.73
1076.563	-3.17
1076.983	-13.17
1077.404	-3.77
1077.825	-12.67
1078.246	-3.67
1078.666	-4.97
1079.087	-6.97
1079.507	-3.67
1079.928	-4.87
1080.348	-0.17
1080.769	-9.67
1081.189	2.03
1081.61	-6.37
1082.03	-5.77
1082.451	-4.77
1082.871	-4.47
1083.291	-4.17
1083.711	-10.07
1084.132	-5.67
1084.552	-7.97
1084.972	0.33
1085.392	-4.17
1085.813	-8.87
1086.233	-5.17
1086.653	-6.67
1087.073	-1.77
1087.493	-5.07
1087.913	-5.27
1088.333	-9.87
1088.753	-0.87
1089.173	0.13
1089.593	-6.17
1090.013	-2.47
1090.433	-3.67
1090.852	-3.07
1091.272	-8.37
1091.692	-4.37
1092.112	-4.77
1092.531	-7.97
1092.951	-10.77
1093.371	-5.17
1093.79	-2.37
1094.21	-4.77
1094.63	-3.07
1095.049	-10.47
1095.469	-2.17
1095.888	-8.67
1096.308	1.33
1096.727	7.43
1097.146	-6.97
1097.566	-1.17
1097.985	-9.67
1098.405	-0.37
1098.824	-4.37
1099.243	-9.07
1099.662	-15.37
1100.082	-3.87
1100.501	-2.97
1100.92	1.03
1101.339	-4.87
1101.758	-5.77
