Data from 20171114-ORNL-Ar_H_NY_Subt18_08-05-57-258.txt Node
Date: Tue Nov 14 08:05:57 EST 2017
User: Ender
Spectrometer: HR+D1039
Trigger mode: 0
Integration Time (sec): 2.730000E-2
Scans to average: 10
Electric dark correction enabled: true
Nonlinearity correction enabled: false
Boxcar width: 0
XAxis mode: Wavelengths
Number of Pixels in Spectrum: 2048
>>>>>Begin Spectral Data<<<<<
187.836	-3.71
188.309	-3.71
188.782	-3.71
189.255	1.69
189.728	-0.11
190.201	7.79
190.674	-2.31
191.147	6.59
191.619	-8.71
192.092	-2.11
192.565	9.39
193.038	-2.01
193.511	3.09
193.984	-1.51
194.456	-7.91
194.929	-4.51
195.402	-2.71
195.874	6.99
196.347	2.39
196.82	-4.91
197.292	7.99
197.765	3.89
198.237	-5.71
198.71	0.29
199.182	-4.11
199.655	1.59
200.127	6.59
200.6	-5.11
201.072	3.69
201.544	-2.61
202.017	2.39
202.489	1.99
202.961	-2.21
203.433	-4.91
203.906	-3.31
204.378	-0.81
204.85	-4.21
205.322	-10.21
205.794	-2.01
206.266	-0.61
206.739	-0.61
207.211	4.29
207.683	-7.51
208.155	-1.01
208.627	-5.51
209.099	-4.51
209.57	-4.61
210.042	-7.31
210.514	0.09
210.986	2.29
211.458	-8.31
211.93	-3.31
212.402	0.89
212.873	-4.01
213.345	-7.11
213.817	-9.51
214.288	-0.81
214.76	-8.51
215.232	-3.21
215.703	-2.01
216.175	-5.31
216.646	0.39
217.118	-6.21
217.589	0.29
218.061	4.59
218.532	-4.71
219.004	0.29
219.475	-0.51
219.946	-4.01
220.418	-2.81
220.889	5.39
221.36	1.09
221.832	2.99
222.303	-3.81
222.774	4.59
223.245	-1.71
223.717	-5.01
224.188	-1.21
224.659	-10.31
225.13	-5.41
225.601	-1.51
226.072	-2.01
226.543	2.69
227.014	1.99
227.485	-2.71
227.956	-5.81
228.427	1.69
228.898	2.49
229.369	6.79
229.839	-4.11
230.31	-7.71
230.781	-0.01
231.252	-1.01
231.722	-1.71
232.193	-5.41
232.664	-4.71
233.135	1.69
233.605	0.89
234.076	0.09
234.546	3.69
235.017	7.89
235.487	6.49
235.958	0.09
236.428	-0.11
236.899	6.19
237.369	1.09
237.84	3.59
238.31	6.49
238.78	12.69
239.251	3.79
239.721	1.69
240.191	0.59
240.662	4.29
241.132	6.79
241.602	-2.91
242.072	0.59
242.542	8.79
243.013	0.29
243.483	4.49
243.953	2.59
244.423	-0.71
244.893	1.49
245.363	2.09
245.833	5.59
246.303	3.29
246.773	13.29
247.243	4.69
247.712	6.99
248.182	8.49
248.652	2.99
249.122	1.59
249.592	15.99
250.061	17.89
250.531	35.39
251.001	19.29
251.471	25.79
251.94	19.89
252.41	5.89
252.879	-0.51
253.349	14.39
253.818	10.39
254.288	4.99
254.757	7.89
255.227	-0.01
255.696	3.69
256.166	7.29
256.635	7.89
257.105	9.69
257.574	5.29
258.043	6.99
258.513	3.99
258.982	22.99
259.451	2.89
259.92	11.29
260.389	15.09
260.859	17.59
261.328	13.09
261.797	20.49
262.266	11.89
262.735	14.59
263.204	9.19
263.673	3.59
264.142	7.29
264.611	-2.01
265.08	-0.21
265.549	4.99
266.018	9.19
266.487	1.29
266.955	-0.81
267.424	0.69
267.893	3.09
268.362	3.19
268.83	2.39
269.299	16.09
269.768	9.99
270.236	10.19
270.705	3.49
271.174	5.49
271.642	7.29
272.111	14.99
272.579	18.29
273.048	26.79
273.516	29.29
273.985	28.49
274.453	21.39
274.922	20.39
275.39	14.79
275.858	12.09
276.327	14.89
276.795	20.59
277.263	13.79
277.731	35.89
278.2	56.39
278.668	65.29
279.136	52.99
279.604	22.39
280.072	20.79
280.54	13.39
281.008	14.79
281.477	14.59
281.945	10.19
282.413	19.59
282.881	22.79
283.348	10.99
283.816	18.89
284.284	18.89
284.752	24.29
285.22	12.89
285.688	14.79
286.156	23.49
286.623	44.29
287.091	55.29
287.559	35.89
288.026	21.79
288.494	21.29
288.962	6.79
289.429	12.39
289.897	20.29
290.364	19.49
290.832	19.69
291.3	16.19
291.767	18.29
292.234	23.09
292.702	20.69
293.169	24.99
293.637	21.39
294.104	26.09
294.571	13.89
295.039	15.49
295.506	18.99
295.973	25.89
296.44	16.99
296.908	21.19
297.375	17.59
297.842	23.09
298.309	18.19
298.776	19.69
299.243	28.29
299.71	16.39
300.177	28.99
300.644	21.39
301.111	24.09
301.578	26.89
302.045	18.39
302.512	23.69
302.979	30.29
303.446	30.09
303.913	26.99
304.379	24.89
304.846	27.49
305.313	27.89
305.78	24.39
306.246	28.59
306.713	29.59
307.18	26.99
307.646	32.49
308.113	30.29
308.579	22.99
309.046	32.49
309.512	34.99
309.979	20.69
310.445	32.59
310.912	32.19
311.378	33.99
311.845	36.99
312.311	37.69
312.777	34.39
313.244	31.59
313.71	41.29
314.176	29.39
314.642	35.99
315.109	35.19
315.575	34.59
316.041	44.29
316.507	36.79
316.973	41.09
317.439	39.39
317.905	34.29
318.371	40.39
318.837	37.89
319.303	36.79
319.769	40.19
320.235	32.09
320.701	36.49
321.167	40.89
321.633	35.59
322.099	44.09
322.564	42.89
323.03	38.89
323.496	37.29
323.962	46.69
324.427	38.19
324.893	48.39
325.359	47.39
325.824	45.59
326.29	35.69
326.755	44.19
327.221	49.39
327.686	44.59
328.152	53.29
328.617	41.79
329.083	46.09
329.548	53.99
330.014	50.79
330.479	34.39
330.944	50.39
331.41	46.79
331.875	47.29
332.34	48.59
332.805	46.59
333.271	51.59
333.736	47.49
334.201	55.49
334.666	53.89
335.131	51.89
335.596	55.09
336.061	46.69
336.526	45.69
336.991	51.59
337.456	55.39
337.921	52.29
338.386	47.29
338.851	53.29
339.316	48.19
339.781	49.69
340.246	53.99
340.711	50.89
341.175	46.59
341.64	46.99
342.105	55.99
342.569	59.59
343.034	61.79
343.499	57.69
343.963	54.89
344.428	65.29
344.893	65.59
345.357	62.29
345.822	64.99
346.286	67.69
346.751	79.89
347.215	68.99
347.679	81.59
348.144	99.69
348.608	87.59
349.073	73.09
349.537	72.19
350.001	82.39
350.465	93.39
350.93	85.89
351.394	86.59
351.858	73.69
352.322	89.99
352.786	85.69
353.25	104.89
353.715	114.69
354.179	105.49
354.643	120.09
355.107	134.59
355.571	110.89
356.035	103.89
356.498	120.39
356.962	119.79
357.426	133.59
357.89	123.79
358.354	96.29
358.818	88.89
359.281	80.29
359.745	80.89
360.209	80.69
360.673	76.09
361.136	85.09
361.6	90.59
362.064	84.39
362.527	83.69
362.991	93.49
363.454	83.89
363.918	77.09
364.381	87.59
364.845	85.19
365.308	87.19
365.772	82.29
366.235	84.19
366.698	83.89
367.162	90.09
367.625	92.19
368.088	88.29
368.552	94.29
369.015	91.19
369.478	104.79
369.941	104.29
370.404	98.29
370.867	107.49
371.331	111.59
371.794	114.79
372.257	116.09
372.72	118.49
373.183	112.99
373.646	105.19
374.109	108.59
374.572	115.99
375.035	117.39
375.497	111.89
375.96	100.59
376.423	106.39
376.886	115.99
377.349	117.19
377.811	104.69
378.274	111.79
378.737	102.49
379.199	113.49
379.662	113.79
380.125	125.59
380.587	120.39
381.05	123.49
381.512	126.99
381.975	138.09
382.437	128.89
382.9	136.99
383.362	136.49
383.825	147.89
384.287	156.79
384.75	150.09
385.212	143.19
385.674	138.29
386.136	138.99
386.599	130.79
387.061	132.29
387.523	139.79
387.985	139.49
388.447	145.39
388.91	148.59
389.372	166.59
389.834	156.29
390.296	147.89
390.758	160.29
391.22	164.89
391.682	208.69
392.144	294.49
392.606	231.59
393.068	174.39
393.529	172.09
393.991	156.09
394.453	148.09
394.915	151.59
395.377	190.39
395.838	218.99
396.3	152.39
396.762	146.99
397.224	130.49
397.685	134.89
398.147	134.19
398.608	136.59
399.07	129.69
399.531	142.39
399.993	147.59
400.454	157.69
400.916	149.09
401.377	152.29
401.839	158.89
402.3	153.89
402.762	175.19
403.223	180.69
403.684	177.99
404.145	161.79
404.607	163.49
405.068	174.79
405.529	182.49
405.99	189.79
406.451	183.39
406.913	177.19
407.374	171.39
407.835	164.79
408.296	168.79
408.757	179.19
409.218	197.89
409.679	181.49
410.14	180.49
410.601	181.29
411.062	189.59
411.522	191.39
411.983	198.49
412.444	176.79
412.905	184.49
413.366	184.49
413.826	198.89
414.287	221.49
414.748	264.19
415.208	246.99
415.669	216.19
416.13	216.79
416.59	207.99
417.051	213.49
417.511	228.99
417.972	232.79
418.432	249.89
418.893	290.59
419.353	248.59
419.814	202.19
420.274	182.19
420.734	183.29
421.195	204.49
421.655	201.69
422.115	197.09
422.576	199.49
423.036	199.99
423.496	208.39
423.956	225.09
424.416	231.99
424.876	275.39
425.336	273.09
425.797	267.89
426.257	258.29
426.717	249.59
427.177	240.79
427.637	224.59
428.097	236.29
428.556	251.99
429.016	276.59
429.476	273.99
429.936	283.09
430.396	280.09
430.856	302.39
431.315	325.69
431.775	362.09
432.235	389.69
432.694	366.09
433.154	375.39
433.614	401.09
434.073	342.39
434.533	287.99
434.993	279.29
435.452	291.19
435.912	308.49
436.371	294.19
436.83	293.89
437.29	272.59
437.749	259.39
438.209	249.69
438.668	276.89
439.127	299.39
439.587	266.69
440.046	256.49
440.505	268.29
440.964	279.59
441.424	334.59
441.883	322.19
442.342	266.99
442.801	221.49
443.26	224.99
443.719	233.19
444.178	225.89
444.637	214.19
445.096	221.79
445.555	221.49
446.014	230.29
446.473	234.49
446.932	242.59
447.391	229.69
447.849	239.59
448.308	224.19
448.767	222.29
449.226	233.39
449.685	242.69
450.143	245.29
450.602	247.39
451.061	226.59
451.519	243.59
451.978	235.99
452.436	230.89
452.895	244.19
453.353	259.69
453.812	242.29
454.27	246.49
454.729	245.19
455.187	242.59
455.646	250.09
456.104	251.99
456.562	260.59
457.021	269.79
457.479	263.19
457.937	279.09
458.395	273.59
458.854	254.09
459.312	264.59
459.77	286.09
460.228	263.49
460.686	249.29
461.144	253.49
461.602	251.99
462.06	248.19
462.518	260.49
462.976	258.29
463.434	263.79
463.892	267.69
464.35	277.59
464.808	295.19
465.266	272.79
465.724	274.89
466.181	279.29
466.639	277.89
467.097	287.19
467.555	316.19
468.012	304.59
468.47	310.69
468.928	330.99
469.385	347.09
469.843	350.79
470.3	355.69
470.758	368.89
471.215	395.59
471.673	420.89
472.13	410.99
472.588	428.79
473.045	384.69
473.503	391.49
473.96	402.99
474.417	414.09
474.875	445.79
475.332	489.89
475.789	471.99
476.246	475.19
476.704	500.89
477.161	519.39
477.618	533.09
478.075	574.09
478.532	621.59
478.989	704.29
479.446	824.69
479.903	782.59
480.36	826.19
480.817	872.79
481.274	980.49
481.731	1096.89
482.188	1190.99
482.645	1323.99
483.102	1428.49
483.558	1559.99
484.015	1628.29
484.472	1596.59
484.929	1530.89
485.385	1491.89
485.842	1448.79
486.299	1401.09
486.755	1317.59
487.212	1124.09
487.668	932.29
488.125	874.99
488.582	797.19
489.038	762.79
489.494	728.09
489.951	696.99
490.407	676.39
490.864	660.79
491.32	661.19
491.776	657.99
492.233	667.69
492.689	626.29
493.145	628.69
493.602	604.59
494.058	619.69
494.514	622.99
494.97	650.09
495.426	657.39
495.882	625.39
496.338	629.79
496.794	651.39
497.251	640.39
497.707	644.09
498.163	647.39
498.618	664.89
499.074	659.69
499.53	692.49
499.986	685.39
500.442	664.79
500.898	645.39
501.354	630.09
501.809	651.49
502.265	656.29
502.721	663.29
503.177	677.59
503.632	685.19
504.088	691.59
504.543	713.49
504.999	715.39
505.455	667.19
505.91	643.39
506.366	645.29
506.821	644.89
507.277	638.59
507.732	641.89
508.187	641.49
508.643	641.29
509.098	640.69
509.553	650.39
510.009	676.09
510.464	679.59
510.919	693.99
511.375	709.59
511.83	726.59
512.285	730.49
512.74	777.89
513.195	798.49
513.65	791.19
514.105	786.79
514.56	788.39
515.015	814.29
515.47	823.39
515.925	810.09
516.38	800.49
516.835	798.79
517.29	794.89
517.745	784.99
518.2	781.09
518.655	765.79
519.109	753.69
519.564	751.29
520.019	753.69
520.474	730.69
520.928	739.09
521.383	724.99
521.838	718.19
522.292	725.69
522.747	727.99
523.201	722.29
523.656	714.79
524.11	709.69
524.565	699.79
525.019	699.29
525.474	708.69
525.928	708.39
526.382	699.79
526.837	707.99
527.291	709.59
527.745	714.49
528.2	705.19
528.654	703.09
529.108	699.09
529.562	700.89
530.016	704.89
530.47	711.79
530.925	700.79
531.379	711.19
531.833	714.39
532.287	720.69
532.741	731.49
533.195	717.39
533.649	733.19
534.103	732.59
534.556	727.69
535.01	730.09
535.464	726.39
535.918	737.49
536.372	732.39
536.826	731.09
537.279	725.39
537.733	728.59
538.187	723.89
538.64	719.19
539.094	746.09
539.548	731.19
540.001	734.89
540.455	730.99
540.908	740.99
541.362	751.29
541.815	757.99
542.269	774.39
542.722	766.89
543.175	783.59
543.629	790.09
544.082	797.49
544.536	804.99
544.989	790.99
545.442	801.89
545.895	805.19
546.349	797.99
546.802	798.19
547.255	812.89
547.708	814.79
548.161	827.59
548.614	836.79
549.067	840.19
549.52	834.99
549.973	823.49
550.426	815.59
550.879	814.09
551.332	803.79
551.785	823.29
552.238	818.19
552.691	839.49
553.144	849.49
553.596	849.19
554.049	881.09
554.502	902.79
554.955	918.99
555.407	925.59
555.86	917.19
556.313	907.19
556.765	899.99
557.218	905.89
557.67	894.59
558.123	887.89
558.576	890.99
559.028	892.39
559.48	893.09
559.933	875.29
560.385	851.99
560.838	824.79
561.29	791.39
561.742	796.79
562.195	777.79
562.647	783.49
563.099	786.49
563.551	790.49
564.004	794.79
564.456	780.29
564.908	768.19
565.36	763.09
565.812	735.49
566.264	729.19
566.716	731.89
567.168	723.89
567.62	725.59
568.072	718.69
568.524	702.29
568.976	696.39
569.428	678.49
569.88	684.59
570.332	692.09
570.784	691.39
571.235	686.79
571.687	696.59
572.139	706.79
572.59	719.79
573.042	723.39
573.494	720.29
573.945	703.89
574.397	682.09
574.849	691.79
575.3	693.69
575.752	690.09
576.203	692.99
576.655	690.79
577.106	679.39
577.557	673.09
578.009	674.49
578.46	670.29
578.912	669.49
579.363	665.79
579.814	674.59
580.265	675.99
580.717	668.79
581.168	672.79
581.619	683.69
582.07	685.39
582.521	681.99
582.972	681.69
583.423	688.49
583.875	682.39
584.326	705.79
584.777	748.29
585.227	825.89
585.678	907.09
586.129	993.49
586.58	1071.39
587.031	1139.59
587.482	1291.49
587.933	1478.99
588.384	1271.69
588.834	968.69
589.285	807.89
589.736	793.19
590.186	779.19
590.637	769.39
591.088	751.09
591.538	747.99
591.989	738.09
592.439	730.39
592.89	728.09
593.34	720.29
593.791	714.09
594.241	706.79
594.692	716.59
595.142	706.79
595.593	693.59
596.043	703.59
596.493	718.49
596.943	711.29
597.394	719.89
597.844	720.79
598.294	725.49
598.744	747.19
599.195	779.89
599.645	818.09
600.095	851.79
600.545	918.79
600.995	966.99
601.445	1038.79
601.895	1083.29
602.345	1141.19
602.795	1112.19
603.245	1065.59
603.695	1016.89
604.145	962.69
604.594	907.69
605.044	856.09
605.494	796.19
605.944	757.09
606.393	745.59
606.843	733.69
607.293	735.49
607.743	720.79
608.192	742.29
608.642	761.69
609.091	767.39
609.541	768.79
609.99	779.09
610.44	768.79
610.889	719.49
611.339	702.29
611.788	697.69
612.238	711.59
612.687	723.69
613.136	715.49
613.586	728.19
614.035	745.99
614.484	751.89
614.933	754.49
615.383	758.49
615.832	746.79
616.281	716.99
616.73	675.39
617.179	660.79
617.628	648.49
618.077	633.29
618.526	625.59
618.975	613.39
619.424	614.29
619.873	612.39
620.322	611.09
620.771	607.99
621.22	599.79
621.669	585.79
622.118	598.99
622.567	585.29
623.015	570.29
623.464	567.89
623.913	567.99
624.361	547.59
624.81	547.89
625.259	548.29
625.707	546.49
626.156	550.39
626.604	571.49
627.053	557.79
627.501	563.99
627.95	572.19
628.398	579.29
628.847	564.99
629.295	567.59
629.744	571.79
630.192	564.19
630.64	570.49
631.089	571.19
631.537	576.19
631.985	586.49
632.433	595.69
632.881	608.59
633.33	659.39
633.778	624.29
634.226	564.49
634.674	569.79
635.122	573.59
635.57	601.59
636.018	620.19
636.466	589.79
636.914	552.59
637.362	571.79
637.81	563.79
638.258	571.09
638.705	578.59
639.153	607.59
639.601	613.39
640.049	633.39
640.497	668.39
640.944	686.49
641.392	639.19
641.84	602.79
642.287	580.29
642.735	555.59
643.182	569.49
643.63	569.59
644.078	573.09
644.525	589.49
644.973	591.59
645.42	597.69
645.867	613.29
646.315	631.29
646.762	662.59
647.21	684.39
647.657	716.89
648.104	744.19
648.551	761.69
648.999	825.69
649.446	910.49
649.893	995.09
650.34	1146.89
650.787	1373.79
651.234	1706.39
651.682	2222.79
652.129	3041.09
652.576	4387.39
653.023	6457.39
653.47	8872.09
653.917	11097.99
654.363	12828.19
654.81	14225.19
655.257	13542.29
655.704	8844.69
656.151	5244.59
656.598	3399.99
657.044	2400.99
657.491	1840.49
657.938	1483.79
658.385	1236.99
658.831	1063.99
659.278	966.49
659.724	844.09
660.171	780.09
660.618	709.09
661.064	676.39
661.511	661.29
661.957	647.99
662.404	653.39
662.85	645.69
663.296	630.39
663.743	561.09
664.189	530.69
664.635	528.49
665.082	521.49
665.528	525.39
665.974	517.39
666.42	503.69
666.867	498.09
667.313	489.39
667.759	470.59
668.205	477.59
668.651	476.59
669.097	477.39
669.543	486.29
669.989	469.59
670.435	446.59
670.881	443.49
671.327	443.89
671.773	461.89
672.219	476.69
672.665	530.69
673.11	569.39
673.556	628.69
674.002	659.39
674.448	646.09
674.893	543.89
675.339	469.29
675.785	432.49
676.23	421.19
676.676	392.19
677.122	377.99
677.567	372.09
678.013	367.49
678.458	360.09
678.904	358.09
679.349	342.29
679.794	345.79
680.24	348.29
680.685	341.69
681.131	348.79
681.576	340.89
682.021	349.39
682.466	343.39
682.912	343.49
683.357	351.69
683.802	375.29
684.247	409.99
684.692	455.89
685.137	482.79
685.583	534.39
686.028	559.59
686.473	506.69
686.918	441.89
687.363	410.19
687.807	381.59
688.252	362.49
688.697	347.19
689.142	341.89
689.587	330.19
690.032	323.79
690.477	331.09
690.921	343.59
691.366	378.59
691.811	392.19
692.255	428.69
692.7	452.29
693.145	491.49
693.589	687.59
694.034	1093.09
694.478	1496.29
694.923	1700.79
695.367	2228.49
695.812	1168.69
696.256	483.99
696.701	371.79
697.145	338.59
697.59	323.09
698.034	315.19
698.478	324.59
698.922	320.99
699.367	324.99
699.811	333.59
700.255	347.49
700.699	374.19
701.143	416.69
701.588	465.59
702.032	505.69
702.476	500.99
702.92	478.19
703.364	477.69
703.808	617.29
704.252	999.79
704.696	1414.29
705.14	1626.69
705.584	2091.89
706.027	1043.59
706.471	503.29
706.915	389.29
707.359	347.19
707.803	320.39
708.246	305.49
708.69	307.09
709.134	310.39
709.577	296.99
710.021	319.19
710.465	303.09
710.908	298.59
711.352	295.49
711.795	312.99
712.239	350.39
712.682	373.89
713.126	406.59
713.569	459.49
714.012	361.49
714.456	318.59
714.899	283.09
715.342	273.49
715.786	256.49
716.229	255.99
716.672	245.29
717.115	243.59
717.558	243.89
718.002	247.69
718.445	257.29
718.888	276.49
719.331	288.39
719.774	302.29
720.217	298.39
720.66	277.29
721.103	262.79
721.546	258.69
721.989	242.99
722.432	226.49
722.874	235.69
723.317	224.09
723.76	233.29
724.203	254.89
724.645	309.79
725.088	434.39
725.531	557.49
725.974	622.09
726.416	528.39
726.859	302.89
727.301	246.79
727.744	237.19
728.187	239.69
728.629	232.49
729.071	232.79
729.514	257.39
729.956	275.29
730.399	275.09
730.841	283.99
731.283	271.09
731.726	265.79
732.168	253.69
732.61	265.89
733.053	282.29
733.495	304.79
733.937	345.79
734.379	386.09
734.821	418.59
735.263	531.49
735.705	801.99
736.148	1520.69
736.59	2472.29
737.032	2984.99
737.474	2429.69
737.916	784.49
738.357	426.99
738.799	317.19
739.241	296.49
739.683	277.59
740.125	284.39
740.567	292.49
741.008	306.29
741.45	305.19
741.892	307.99
742.334	344.09
742.775	358.19
743.217	330.29
743.658	264.39
744.1	247.79
744.542	257.49
744.983	298.39
745.425	332.59
745.866	336.59
746.307	281.09
746.749	278.69
747.19	317.09
747.632	435.69
748.073	836.29
748.514	1785.99
748.956	2778.29
749.397	3464.69
749.838	2863.09
750.279	2901.89
750.72	1463.99
751.162	529.49
751.603	313.89
752.044	243.09
752.485	212.59
752.926	208.69
753.367	198.89
753.808	192.89
754.249	192.29
754.69	190.09
755.131	185.69
755.572	176.99
756.013	182.89
756.453	181.49
756.894	184.19
757.335	192.49
757.776	194.59
758.216	189.59
758.657	198.49
759.098	196.29
759.538	226.29
759.979	260.59
760.42	361.59
760.86	669.29
761.301	1728.79
761.741	4243.19
762.182	6276.99
762.622	4436.09
763.063	1273.79
763.503	519.79
763.943	331.29
764.384	330.39
764.824	386.39
765.264	422.69
765.705	304.59
766.145	198.99
766.585	187.59
767.025	172.39
767.465	181.59
767.906	231.49
768.346	303.69
768.786	330.89
769.226	253.09
769.666	305.29
770.106	592.49
770.546	1489.19
770.986	2576.99
771.426	2321.59
771.866	774.09
772.306	321.49
772.745	205.59
773.185	172.19
773.625	171.79
774.065	161.59
774.505	191.09
774.944	292.19
775.384	644.59
775.824	1184.79
776.263	1149.39
776.703	495.69
777.142	208.09
777.582	157.39
778.021	135.29
778.461	131.69
778.9	137.49
779.34	133.99
779.779	115.39
780.219	107.49
780.658	112.39
781.097	111.19
781.537	114.59
781.976	109.79
782.415	104.79
782.855	103.79
783.294	104.29
783.733	103.59
784.172	108.29
784.611	96.39
785.05	104.09
785.489	111.39
785.928	121.09
786.367	121.69
786.806	107.09
787.245	134.69
787.684	133.19
788.123	145.49
788.562	131.49
789.001	122.69
789.44	114.89
789.879	118.39
790.317	120.09
790.756	122.69
791.195	125.59
791.634	141.39
792.072	197.79
792.511	349.49
792.95	961.19
793.388	2087.19
793.827	1913.59
794.265	659.79
794.704	275.59
795.142	183.79
795.581	147.69
796.019	130.49
796.458	124.79
796.896	121.19
797.334	124.69
797.773	158.59
798.211	209.59
798.649	419.39
799.087	986.49
799.526	1528.29
799.964	1940.59
800.402	1972.29
800.84	734.29
801.278	297.49
801.716	188.29
802.154	150.59
802.592	147.69
803.03	140.69
803.468	136.99
803.906	144.29
804.344	144.69
804.782	134.59
805.22	133.29
805.658	127.39
806.096	144.99
806.533	152.89
806.971	165.29
807.409	207.29
807.847	303.89
808.284	622.69
808.722	1783.39
809.16	3187.09
809.597	2992.99
810.035	5201.89
810.472	5654.49
810.91	2024.19
811.347	764.09
811.785	391.09
812.222	247.79
812.66	191.99
813.097	157.39
813.535	139.89
813.972	126.79
814.409	124.09
814.846	104.49
815.284	104.29
815.721	103.79
816.158	102.49
816.595	118.39
817.032	168.79
817.47	191.99
817.907	169.19
818.344	144.39
818.781	113.89
819.218	99.99
819.655	126.49
820.092	177.39
820.529	213.99
820.966	173.69
821.403	131.99
821.839	104.49
822.276	102.99
822.713	119.39
823.15	135.79
823.587	110.99
824.023	144.79
824.46	288.49
824.897	862.49
825.333	1330.29
825.77	570.39
826.206	229.89
826.643	132.59
827.08	101.99
827.516	79.89
827.953	76.29
828.389	79.29
828.825	71.39
829.262	73.09
829.698	65.39
830.135	58.09
830.571	59.59
831.007	59.79
831.443	63.59
831.88	57.59
832.316	59.69
832.752	65.29
833.188	65.49
833.624	62.59
834.06	67.09
834.497	73.19
834.933	68.09
835.369	71.19
835.805	55.39
836.241	77.89
836.677	77.09
837.112	90.19
837.548	104.09
837.984	129.79
838.42	188.49
838.856	469.49
839.292	1457.19
839.727	2245.89
840.163	1046.29
840.599	884.09
841.034	1939.49
841.47	2077.79
841.906	754.49
842.341	328.59
842.777	218.59
843.212	305.39
843.648	304.19
844.083	150.79
844.519	96.99
844.954	73.09
845.39	54.69
845.825	54.59
846.261	57.29
846.696	52.89
847.131	51.79
847.566	56.19
848.002	49.09
848.437	54.19
848.872	58.69
849.307	62.29
849.742	83.79
850.177	174.89
850.613	531.19
851.048	851.49
851.483	365.89
851.918	141.79
852.353	87.89
852.788	59.49
853.223	59.49
853.657	56.19
854.092	47.19
854.527	45.29
854.962	41.19
855.397	48.59
855.832	50.69
856.266	44.59
856.701	42.59
857.136	40.99
857.57	38.69
858.005	48.79
858.44	59.09
858.874	42.09
859.309	52.69
859.743	41.29
860.178	45.19
860.612	42.29
861.047	54.69
861.481	64.39
861.915	69.59
862.35	53.29
862.784	34.69
863.218	39.09
863.653	28.29
864.087	49.19
864.521	49.29
864.955	64.79
865.39	152.09
865.824	171.39
866.258	111.19
866.692	158.79
867.126	169.59
867.56	109.89
867.994	54.29
868.428	35.79
868.862	51.89
869.296	55.39
869.73	52.99
870.164	48.89
870.598	47.99
871.031	37.99
871.465	34.59
871.899	32.29
872.333	27.69
872.766	27.89
873.2	23.19
873.634	32.39
874.067	22.99
874.501	22.49
874.935	34.59
875.368	26.39
875.802	28.09
876.235	25.79
876.669	24.29
877.102	23.69
877.535	26.29
877.969	21.79
878.402	25.69
878.836	14.69
879.269	19.79
879.702	24.39
880.135	29.49
880.569	24.79
881.002	30.19
881.435	19.09
881.868	13.09
882.301	24.19
882.734	17.29
883.167	25.49
883.601	15.89
884.034	20.79
884.467	15.49
884.899	23.19
885.332	16.09
885.765	17.49
886.198	19.69
886.631	19.19
887.064	18.69
887.497	21.29
887.929	25.79
888.362	16.49
888.795	16.29
889.228	13.59
889.66	14.79
890.093	17.29
890.526	16.29
890.958	20.29
891.391	20.69
891.823	20.09
892.256	15.39
892.688	16.59
893.121	20.99
893.553	14.59
893.985	23.79
894.418	21.09
894.85	11.99
895.282	19.69
895.715	21.29
896.147	18.99
896.579	19.39
897.011	10.09
897.444	17.29
897.876	10.69
898.308	14.19
898.74	15.49
899.172	15.99
899.604	23.79
900.036	14.39
900.468	16.29
900.9	12.69
901.332	26.19
901.764	14.19
902.196	24.89
902.628	20.89
903.06	19.79
903.491	29.99
903.923	19.69
904.355	20.89
904.787	23.79
905.218	24.69
905.65	23.99
906.082	11.79
906.513	13.19
906.945	19.99
907.376	17.59
907.808	13.59
908.239	26.59
908.671	16.99
909.102	22.69
909.534	27.49
909.965	44.59
910.397	84.19
910.828	304.99
911.259	452.69
911.691	205.59
912.122	104.19
912.553	52.89
912.984	41.29
913.415	25.19
913.847	20.79
914.278	10.19
914.709	15.89
915.14	22.99
915.571	20.09
916.002	13.09
916.433	17.49
916.864	17.69
917.295	12.29
917.726	17.59
918.157	15.29
918.587	23.29
919.018	28.39
919.449	22.09
919.88	21.19
920.311	33.89
920.741	51.59
921.172	168.29
921.603	152.19
922.033	72.89
922.464	46.79
922.895	26.99
923.325	20.69
923.756	15.89
924.186	21.09
924.617	25.39
925.047	39.49
925.478	54.39
925.908	39.59
926.338	27.39
926.769	17.49
927.199	22.79
927.629	10.49
928.06	17.79
928.49	16.09
928.92	15.49
929.35	10.39
929.78	11.09
930.21	6.09
930.641	7.39
931.071	7.09
931.501	13.79
931.931	12.79
932.361	8.09
932.791	1.99
933.221	6.29
933.651	3.99
934.08	18.09
934.51	30.69
934.94	10.59
935.37	9.39
935.8	11.59
936.229	6.39
936.659	7.39
937.089	6.79
937.519	15.69
937.948	28.59
938.378	21.19
938.807	6.39
939.237	5.19
939.666	6.29
940.096	-4.71
940.525	3.69
940.955	6.89
941.384	4.09
941.814	-0.71
942.243	3.79
942.672	8.39
943.102	1.89
943.531	-5.41
943.96	5.39
944.39	2.69
944.819	-1.21
945.248	7.49
945.677	5.89
946.106	7.69
946.535	9.19
946.964	2.99
947.393	2.39
947.822	5.79
948.251	-2.51
948.68	3.59
949.109	7.49
949.538	9.69
949.967	4.69
950.396	3.79
950.825	-2.01
951.254	2.89
951.682	-3.31
952.111	1.69
952.54	8.09
952.969	-5.71
953.397	-4.31
953.826	6.39
954.254	-4.91
954.683	8.09
955.112	5.79
955.54	0.89
955.969	-0.71
956.397	5.49
956.826	0.09
957.254	4.59
957.682	4.49
958.111	7.89
958.539	1.99
958.967	5.69
959.396	2.09
959.824	3.09
960.252	0.59
960.68	-9.01
961.109	2.29
961.537	-3.81
961.965	-1.61
962.393	1.99
962.821	0.19
963.249	8.09
963.677	4.79
964.105	8.99
964.533	41.19
964.961	38.39
965.389	17.29
965.817	7.19
966.245	2.99
966.672	1.09
967.1	-2.71
967.528	-3.91
967.956	2.49
968.383	-5.41
968.811	-1.31
969.239	-4.41
969.666	-0.81
970.094	0.59
970.522	4.89
970.949	4.39
971.377	-9.81
971.804	-1.51
972.232	-1.11
972.659	5.69
973.087	-0.41
973.514	6.79
973.941	-1.21
974.369	8.99
974.796	-4.61
975.223	0.59
975.651	-2.61
976.078	6.29
976.505	2.49
976.932	-0.61
977.359	16.29
977.786	19.49
978.214	2.29
978.641	-2.51
979.068	-1.01
979.495	-2.81
979.922	2.39
980.349	-2.01
980.776	4.19
981.202	-0.01
981.629	3.09
982.056	4.99
982.483	4.49
982.91	2.09
983.337	-2.61
983.763	4.09
984.19	-2.91
984.617	-1.91
985.043	-5.71
985.47	-3.31
985.897	-5.41
986.323	-10.01
986.75	3.29
987.176	3.59
987.603	1.89
988.029	1.49
988.456	-4.71
988.882	-4.31
989.308	-2.21
989.735	-1.21
990.161	4.59
990.587	-8.01
991.014	-2.41
991.44	9.39
991.866	-1.01
992.292	-6.51
992.719	-0.91
993.145	3.19
993.571	-5.61
993.997	-1.51
994.423	4.19
994.849	0.39
995.275	-0.11
995.701	-0.31
996.127	-6.61
996.553	-1.01
996.979	-6.81
997.405	-1.31
997.83	2.49
998.256	-3.61
998.682	-3.91
999.108	-7.21
999.534	1.49
999.959	-6.81
1000.385	-6.01
1000.811	0.39
1001.236	-6.41
1001.662	-5.91
1002.087	-10.21
1002.513	2.89
1002.938	5.79
1003.364	-3.71
1003.789	-6.91
1004.215	4.89
1004.64	-6.01
1005.066	3.79
1005.491	1.19
1005.916	-0.41
1006.342	-0.61
1006.767	-7.91
1007.192	7.79
1007.617	-8.71
1008.042	-8.01
1008.468	-10.11
1008.893	-0.41
1009.318	-7.01
1009.743	-0.61
1010.168	6.59
1010.593	0.19
1011.018	-4.91
1011.443	-0.81
1011.868	0.99
1012.293	-2.61
1012.718	-3.41
1013.143	2.69
1013.567	6.19
1013.992	-2.31
1014.417	-9.51
1014.842	-0.71
1015.267	-9.61
1015.691	-1.41
1016.116	1.59
1016.541	4.89
1016.965	0.09
1017.39	7.19
1017.814	0.99
1018.239	-0.41
1018.663	-6.51
1019.088	-12.91
1019.512	-5.01
1019.937	-3.21
1020.361	-2.41
1020.785	-3.41
1021.21	0.09
1021.634	-4.71
1022.058	-5.31
1022.483	5.29
1022.907	-2.91
1023.331	-9.01
1023.755	0.79
1024.179	0.39
1024.604	-8.21
1025.028	-1.71
1025.452	-3.91
1025.876	-3.91
1026.3	3.09
1026.724	-9.91
1027.148	0.39
1027.572	-2.71
1027.996	1.29
1028.42	1.49
1028.843	-3.31
1029.267	-7.11
1029.691	0.19
1030.115	-2.61
1030.539	-1.51
1030.962	-6.21
1031.386	-5.91
1031.81	2.19
1032.233	-5.31
1032.657	1.29
1033.08	-4.61
1033.504	-1.91
1033.927	-3.41
1034.351	-2.41
1034.774	-0.81
1035.198	0.39
1035.621	-4.01
1036.045	-6.71
1036.468	7.19
1036.891	-8.41
1037.315	-13.81
1037.738	-3.11
1038.161	-6.41
1038.584	-2.21
1039.008	-6.11
1039.431	-2.41
1039.854	0.49
1040.277	-3.61
1040.7	-11.01
1041.123	-3.41
1041.546	-8.21
1041.969	-5.91
1042.392	-6.41
1042.815	-1.61
1043.238	-4.41
1043.661	0.59
1044.084	-4.81
1044.507	-6.91
1044.93	-4.01
1045.352	-5.71
1045.775	-2.11
1046.198	0.29
1046.621	2.49
1047.043	1.99
1047.466	7.49
1047.889	-0.31
1048.311	-8.01
1048.734	-2.81
1049.156	0.09
1049.579	2.29
1050.001	-0.31
1050.424	-4.31
1050.846	-0.71
1051.269	-8.71
1051.691	-1.51
1052.113	-5.91
1052.536	-1.11
1052.958	0.39
1053.38	-3.91
1053.802	-9.71
1054.225	2.49
1054.647	-7.01
1055.069	-1.11
1055.491	5.59
1055.913	-6.81
1056.335	1.79
1056.757	-3.81
1057.179	-1.41
1057.601	-7.41
1058.023	-0.11
1058.445	-1.21
1058.867	-2.51
1059.289	-0.21
1059.711	-5.01
1060.133	1.19
1060.555	-3.01
1060.976	-6.81
1061.398	-3.01
1061.82	-5.81
1062.241	-3.21
1062.663	-5.61
1063.085	0.39
1063.506	-7.01
1063.928	-0.01
1064.35	-1.71
1064.771	-11.21
1065.193	-2.21
1065.614	-9.61
1066.035	1.29
1066.457	-4.81
1066.878	2.89
1067.3	-1.31
1067.721	3.09
1068.142	-6.21
1068.564	-9.21
1068.985	-6.91
1069.406	-9.51
1069.827	-5.21
1070.248	-3.11
1070.67	-6.71
1071.091	-3.91
1071.512	-5.61
1071.933	-2.61
1072.354	-6.61
1072.775	-2.91
1073.196	-6.41
1073.617	-5.71
1074.038	-1.81
1074.459	-0.31
1074.88	-2.31
1075.3	2.99
1075.721	-9.11
1076.142	-0.01
1076.563	-0.81
1076.983	-3.61
1077.404	-1.31
1077.825	-13.11
1078.246	-1.01
1078.666	-8.91
1079.087	-1.01
1079.507	-4.91
1079.928	0.09
1080.348	0.69
1080.769	-5.31
1081.189	2.39
1081.61	-3.61
1082.03	-5.61
1082.451	-6.51
1082.871	-1.51
1083.291	-7.61
1083.711	-10.01
1084.132	-11.41
1084.552	-10.01
1084.972	0.79
1085.392	-4.41
1085.813	-11.41
1086.233	-8.11
1086.653	-1.71
1087.073	-4.11
1087.493	-1.71
1087.913	-2.51
1088.333	-7.61
1088.753	-2.31
1089.173	3.79
1089.593	-3.11
1090.013	0.89
1090.433	-1.91
1090.852	1.79
1091.272	-1.61
1091.692	-2.81
1092.112	2.29
1092.531	-6.61
1092.951	-11.41
1093.371	-3.81
1093.79	-3.71
1094.21	3.19
1094.63	-4.21
1095.049	0.49
1095.469	-4.51
1095.888	-7.91
1096.308	6.49
1096.727	-5.11
1097.146	-0.61
1097.566	3.09
1097.985	2.19
1098.405	3.59
1098.824	-2.71
1099.243	-11.51
1099.662	-0.61
1100.082	-1.51
1100.501	-2.31
1100.92	-6.71
1101.339	-2.61
1101.758	-3.41
