Data from 20171114-ORNL-Ar_H_NY_Subt18_08-04-24-719.txt Node
Date: Tue Nov 14 08:04:24 EST 2017
User: Ender
Spectrometer: HR+D1039
Trigger mode: 0
Integration Time (sec): 2.730000E-2
Scans to average: 10
Electric dark correction enabled: true
Nonlinearity correction enabled: false
Boxcar width: 0
XAxis mode: Wavelengths
Number of Pixels in Spectrum: 2048
>>>>>Begin Spectral Data<<<<<
187.836	-3.08
188.309	-3.08
188.782	-3.08
189.255	3.92
189.728	-4.28
190.201	7.22
190.674	5.72
191.147	7.52
191.619	-9.28
192.092	-1.68
192.565	2.02
193.038	0.62
193.511	1.72
193.984	-6.08
194.456	-3.18
194.929	3.62
195.402	-2.28
195.874	-2.48
196.347	-4.88
196.82	-2.68
197.292	3.22
197.765	-4.18
198.237	-4.28
198.71	1.02
199.182	-2.18
199.655	2.62
200.127	0.32
200.6	-0.08
201.072	-0.08
201.544	-10.08
202.017	-4.08
202.489	5.62
202.961	-0.08
203.433	-2.18
203.906	-4.98
204.378	-9.18
204.85	-5.58
205.322	-8.88
205.794	1.82
206.266	-2.88
206.739	-5.78
207.211	5.82
207.683	-8.18
208.155	-1.48
208.627	-7.08
209.099	-7.58
209.57	-7.78
210.042	-2.18
210.514	-1.38
210.986	2.62
211.458	-3.98
211.93	-4.28
212.402	-3.98
212.873	-2.98
213.345	-2.48
213.817	-9.08
214.288	-6.38
214.76	-11.58
215.232	-1.68
215.703	-2.38
216.175	-1.78
216.646	-2.08
217.118	-10.18
217.589	-1.88
218.061	-0.48
218.532	-8.08
219.004	-6.18
219.475	0.92
219.946	-3.98
220.418	-3.88
220.889	4.32
221.36	-1.18
221.832	-3.78
222.303	-6.98
222.774	1.72
223.245	-3.88
223.717	-8.58
224.188	-1.98
224.659	-6.18
225.13	-8.58
225.601	3.42
226.072	6.12
226.543	-5.48
227.014	-0.38
227.485	-2.08
227.956	0.22
228.427	0.12
228.898	1.62
229.369	4.12
229.839	-5.18
230.31	-4.88
230.781	-1.48
231.252	-0.88
231.722	2.02
232.193	0.82
232.664	6.72
233.135	1.92
233.605	0.92
234.076	-5.68
234.546	-1.48
235.017	4.92
235.487	1.72
235.958	3.22
236.428	1.12
236.899	5.52
237.369	1.52
237.84	0.12
238.31	4.92
238.78	5.82
239.251	4.82
239.721	4.62
240.191	5.12
240.662	-2.28
241.132	4.52
241.602	-4.38
242.072	2.52
242.542	4.92
243.013	0.22
243.483	-2.28
243.953	0.52
244.423	-0.48
244.893	2.42
245.363	0.52
245.833	-2.38
246.303	-4.78
246.773	9.72
247.243	8.72
247.712	6.82
248.182	11.52
248.652	6.42
249.122	1.52
249.592	13.42
250.061	16.22
250.531	35.82
251.001	18.62
251.471	26.22
251.94	18.72
252.41	7.62
252.879	-4.08
253.349	14.82
253.818	9.52
254.288	3.92
254.757	3.92
255.227	5.82
255.696	2.32
256.166	7.52
256.635	7.32
257.105	9.52
257.574	8.92
258.043	12.72
258.513	14.32
258.982	18.82
259.451	8.52
259.92	10.32
260.389	10.22
260.859	16.82
261.328	11.62
261.797	23.52
262.266	12.62
262.735	9.02
263.204	4.32
263.673	0.52
264.142	7.62
264.611	-0.28
265.08	2.62
265.549	2.82
266.018	12.52
266.487	-0.28
266.955	3.42
267.424	-1.58
267.893	6.52
268.362	2.32
268.83	3.82
269.299	8.32
269.768	12.32
270.236	7.32
270.705	-0.08
271.174	0.32
271.642	8.12
272.111	5.62
272.579	12.82
273.048	20.32
273.516	33.42
273.985	36.12
274.453	23.32
274.922	21.32
275.39	13.42
275.858	9.02
276.327	9.42
276.795	21.32
277.263	11.52
277.731	27.02
278.2	52.72
278.668	60.62
279.136	43.72
279.604	21.42
280.072	21.62
280.54	17.72
281.008	11.82
281.477	17.62
281.945	15.02
282.413	18.02
282.881	18.82
283.348	16.52
283.816	17.32
284.284	13.82
284.752	21.02
285.22	15.62
285.688	18.92
286.156	17.62
286.623	45.02
287.091	51.42
287.559	30.12
288.026	22.52
288.494	18.72
288.962	3.12
289.429	9.92
289.897	21.52
290.364	9.52
290.832	15.52
291.3	11.12
291.767	16.32
292.234	17.42
292.702	16.72
293.169	19.32
293.637	25.32
294.104	17.72
294.571	6.22
295.039	14.22
295.506	14.52
295.973	16.72
296.44	10.42
296.908	22.22
297.375	19.82
297.842	24.52
298.309	14.22
298.776	17.52
299.243	23.12
299.71	14.82
300.177	21.12
300.644	24.72
301.111	26.92
301.578	24.72
302.045	17.32
302.512	27.12
302.979	19.62
303.446	23.32
303.913	21.52
304.379	19.02
304.846	26.52
305.313	25.22
305.78	22.82
306.246	25.82
306.713	23.42
307.18	27.12
307.646	29.22
308.113	34.32
308.579	29.82
309.046	30.62
309.512	25.12
309.979	17.12
310.445	25.92
310.912	29.52
311.378	33.22
311.845	28.42
312.311	36.22
312.777	35.92
313.244	31.82
313.71	40.42
314.176	27.62
314.642	33.92
315.109	33.12
315.575	37.22
316.041	39.62
316.507	36.32
316.973	41.22
317.439	32.02
317.905	39.22
318.371	37.82
318.837	35.42
319.303	39.42
319.769	37.22
320.235	32.92
320.701	31.82
321.167	42.22
321.633	32.42
322.099	38.02
322.564	45.52
323.03	36.82
323.496	39.42
323.962	41.22
324.427	36.02
324.893	43.72
325.359	37.92
325.824	34.02
326.29	30.42
326.755	41.52
327.221	34.92
327.686	41.92
328.152	46.12
328.617	37.92
329.083	47.62
329.548	46.62
330.014	48.62
330.479	39.42
330.944	41.22
331.41	47.32
331.875	47.12
332.34	44.02
332.805	42.12
333.271	44.72
333.736	43.42
334.201	55.42
334.666	53.32
335.131	51.92
335.596	50.42
336.061	54.22
336.526	43.92
336.991	48.72
337.456	56.12
337.921	50.22
338.386	43.72
338.851	44.92
339.316	44.82
339.781	44.32
340.246	48.22
340.711	44.32
341.175	46.82
341.64	46.12
342.105	51.72
342.569	59.52
343.034	58.12
343.499	50.22
343.963	46.32
344.428	57.62
344.893	55.22
345.357	62.32
345.822	59.02
346.286	65.72
346.751	68.82
347.215	64.62
347.679	67.12
348.144	80.02
348.608	77.52
349.073	63.52
349.537	69.52
350.001	76.72
350.465	80.32
350.93	69.82
351.394	78.02
351.858	70.02
352.322	78.62
352.786	78.62
353.25	89.42
353.715	98.02
354.179	95.72
354.643	111.92
355.107	115.92
355.571	102.32
356.035	98.12
356.498	108.12
356.962	114.62
357.426	123.32
357.89	111.22
358.354	86.02
358.818	77.42
359.281	74.82
359.745	70.82
360.209	69.32
360.673	71.52
361.136	80.02
361.6	86.42
362.064	78.02
362.527	80.42
362.991	87.32
363.454	76.52
363.918	76.32
364.381	78.02
364.845	79.72
365.308	77.12
365.772	79.82
366.235	86.32
366.698	76.42
367.162	82.92
367.625	74.12
368.088	87.02
368.552	81.32
369.015	80.82
369.478	89.82
369.941	95.32
370.404	84.82
370.867	95.42
371.331	98.02
371.794	114.32
372.257	102.42
372.72	110.02
373.183	103.12
373.646	95.92
374.109	93.32
374.572	96.22
375.035	100.02
375.497	100.52
375.96	104.62
376.423	98.02
376.886	98.32
377.349	99.62
377.811	101.02
378.274	105.82
378.737	93.32
379.199	102.12
379.662	97.52
380.125	109.02
380.587	109.32
381.05	113.52
381.512	117.72
381.975	122.42
382.437	128.22
382.9	119.42
383.362	123.52
383.825	132.92
384.287	139.42
384.75	131.32
385.212	140.72
385.674	127.42
386.136	123.42
386.599	115.52
387.061	116.72
387.523	120.42
387.985	125.82
388.447	126.82
388.91	126.92
389.372	148.62
389.834	141.72
390.296	132.92
390.758	147.42
391.22	154.32
391.682	190.62
392.144	264.72
392.606	212.02
393.068	151.42
393.529	150.92
393.991	141.92
394.453	134.02
394.915	140.72
395.377	175.92
395.838	191.22
396.3	141.82
396.762	132.92
397.224	116.42
397.685	116.62
398.147	120.82
398.608	120.22
399.07	118.42
399.531	126.92
399.993	137.72
400.454	138.92
400.916	141.02
401.377	131.62
401.839	142.82
402.3	144.22
402.762	153.72
403.223	165.42
403.684	160.32
404.145	150.92
404.607	151.02
405.068	148.02
405.529	158.92
405.99	173.62
406.451	168.12
406.913	154.22
407.374	149.42
407.835	152.12
408.296	149.92
408.757	161.42
409.218	171.12
409.679	164.02
410.14	160.02
410.601	164.02
411.062	172.22
411.522	175.82
411.983	177.32
412.444	156.52
412.905	162.62
413.366	163.52
413.826	184.02
414.287	205.22
414.748	240.12
415.208	224.82
415.669	197.82
416.13	187.92
416.59	183.62
417.051	188.42
417.511	200.72
417.972	216.72
418.432	225.22
418.893	260.72
419.353	239.62
419.814	184.92
420.274	165.72
420.734	161.92
421.195	184.52
421.655	180.92
422.115	177.82
422.576	172.02
423.036	180.42
423.496	187.12
423.956	196.62
424.416	207.42
424.876	244.52
425.336	238.42
425.797	244.32
426.257	232.52
426.717	215.42
427.177	217.12
427.637	205.42
428.097	212.92
428.556	225.02
429.016	247.22
429.476	238.32
429.936	245.02
430.396	250.52
430.856	265.82
431.315	288.42
431.775	313.32
432.235	342.02
432.694	319.52
433.154	330.92
433.614	346.72
434.073	305.12
434.533	255.22
434.993	248.72
435.452	257.42
435.912	268.02
436.371	264.02
436.83	256.82
437.29	237.22
437.749	221.72
438.209	215.52
438.668	246.02
439.127	252.82
439.587	240.92
440.046	223.92
440.505	233.42
440.964	255.92
441.424	290.02
441.883	284.12
442.342	233.02
442.801	206.02
443.26	200.52
443.719	199.12
444.178	202.92
444.637	195.52
445.096	197.72
445.555	202.52
446.014	203.52
446.473	205.82
446.932	212.02
447.391	200.92
447.849	208.02
448.308	200.52
448.767	210.52
449.226	220.62
449.685	217.42
450.143	232.82
450.602	223.92
451.061	211.02
451.519	209.22
451.978	211.22
452.436	216.02
452.895	223.92
453.353	234.22
453.812	215.42
454.27	221.22
454.729	221.22
455.187	216.52
455.646	220.92
456.104	226.42
456.562	225.02
457.021	235.42
457.479	239.12
457.937	248.02
458.395	235.82
458.854	226.62
459.312	229.12
459.77	245.82
460.228	235.02
460.686	221.32
461.144	226.12
461.602	220.82
462.06	220.82
462.518	232.12
462.976	226.62
463.434	235.32
463.892	242.82
464.35	253.32
464.808	273.12
465.266	244.82
465.724	240.92
466.181	254.72
466.639	248.92
467.097	261.42
467.555	274.02
468.012	274.62
468.47	289.82
468.928	304.02
469.385	314.32
469.843	319.92
470.3	318.22
470.758	330.62
471.215	344.82
471.673	359.62
472.13	363.12
472.588	373.02
473.045	334.62
473.503	343.82
473.96	350.12
474.417	374.72
474.875	388.62
475.332	427.32
475.789	421.22
476.246	426.82
476.704	439.62
477.161	461.02
477.618	468.92
478.075	502.72
478.532	558.02
478.989	620.72
479.446	722.72
479.903	703.72
480.36	734.32
480.817	782.02
481.274	884.62
481.731	975.02
482.188	1065.22
482.645	1186.12
483.102	1283.82
483.558	1396.12
484.015	1449.72
484.472	1451.22
484.929	1389.82
485.385	1342.62
485.842	1313.12
486.299	1247.02
486.755	1176.12
487.212	1001.32
487.668	842.42
488.125	769.82
488.582	727.72
489.038	686.72
489.494	662.72
489.951	635.32
490.407	603.42
490.864	596.72
491.32	599.62
491.776	594.22
492.233	594.42
492.689	557.42
493.145	554.92
493.602	554.32
494.058	563.92
494.514	563.02
494.97	578.22
495.426	585.72
495.882	562.82
496.338	564.12
496.794	581.02
497.251	573.12
497.707	583.52
498.163	580.42
498.618	592.72
499.074	594.42
499.53	610.82
499.986	619.82
500.442	594.22
500.898	568.92
501.354	575.42
501.809	592.42
502.265	594.42
502.721	603.12
503.177	614.82
503.632	604.22
504.088	612.22
504.543	652.72
504.999	647.82
505.455	602.52
505.91	574.22
506.366	586.32
506.821	573.02
507.277	573.72
507.732	575.42
508.187	566.22
508.643	570.42
509.098	579.32
509.553	599.62
510.009	610.62
510.464	606.82
510.919	634.92
511.375	638.92
511.83	654.92
512.285	665.72
512.74	695.62
513.195	713.82
513.65	701.22
514.105	707.82
514.56	707.62
515.015	729.62
515.47	737.92
515.925	738.32
516.38	722.42
516.835	737.22
517.29	717.12
517.745	705.92
518.2	701.72
518.655	691.92
519.109	674.22
519.564	680.52
520.019	665.42
520.474	668.82
520.928	662.32
521.383	658.32
521.838	645.62
522.292	640.22
522.747	646.62
523.201	642.62
523.656	624.32
524.11	624.62
524.565	632.62
525.019	623.12
525.474	631.72
525.928	637.42
526.382	629.22
526.837	629.62
527.291	646.82
527.745	636.72
528.2	635.12
528.654	628.42
529.108	626.12
529.562	625.62
530.016	625.52
530.47	633.32
530.925	623.62
531.379	622.52
531.833	642.02
532.287	631.02
532.741	638.42
533.195	637.12
533.649	650.52
534.103	642.52
534.556	638.22
535.01	645.72
535.464	646.42
535.918	653.22
536.372	650.92
536.826	656.52
537.279	643.02
537.733	653.92
538.187	647.92
538.64	646.52
539.094	655.02
539.548	660.42
540.001	652.52
540.455	640.72
540.908	656.52
541.362	663.52
541.815	670.82
542.269	676.82
542.722	691.72
543.175	692.42
543.629	691.92
544.082	703.42
544.536	699.92
544.989	699.62
545.442	716.22
545.895	707.62
546.349	712.82
546.802	713.02
547.255	719.32
547.708	722.72
548.161	729.42
548.614	738.52
549.067	749.72
549.52	730.42
549.973	725.42
550.426	718.12
550.879	715.42
551.332	720.22
551.785	717.12
552.238	720.92
552.691	730.72
553.144	758.82
553.596	764.02
554.049	773.02
554.502	808.12
554.955	820.82
555.407	810.22
555.86	806.12
556.313	798.12
556.765	788.72
557.218	791.12
557.67	792.32
558.123	782.52
558.576	782.02
559.028	787.32
559.48	787.32
559.933	780.72
560.385	752.72
560.838	715.92
561.29	707.92
561.742	697.92
562.195	678.02
562.647	680.02
563.099	688.12
563.551	690.32
564.004	708.52
564.456	689.82
564.908	680.62
565.36	669.82
565.812	661.02
566.264	638.02
566.716	644.92
567.168	644.12
567.62	634.72
568.072	630.02
568.524	610.72
568.976	607.02
569.428	597.02
569.88	597.52
570.332	603.22
570.784	596.82
571.235	601.22
571.687	608.82
572.139	617.82
572.59	628.62
573.042	625.02
573.494	633.82
573.945	628.62
574.397	608.82
574.849	607.42
575.3	608.32
575.752	595.62
576.203	587.72
576.655	602.92
577.106	594.82
577.557	578.92
578.009	593.52
578.46	589.02
578.912	585.72
579.363	574.32
579.814	588.42
580.265	582.42
580.717	581.02
581.168	590.32
581.619	595.12
582.07	598.92
582.521	589.72
582.972	588.12
583.423	584.12
583.875	595.12
584.326	605.42
584.777	645.02
585.227	719.32
585.678	787.12
586.129	871.72
586.58	941.42
587.031	1008.62
587.482	1152.82
587.933	1330.42
588.384	1141.62
588.834	851.22
589.285	703.82
589.736	685.62
590.186	674.82
590.637	673.62
591.088	648.32
591.538	642.62
591.989	632.92
592.439	632.22
592.89	621.22
593.34	611.52
593.791	611.52
594.241	614.42
594.692	610.42
595.142	609.02
595.593	605.52
596.043	616.42
596.493	622.32
596.943	619.42
597.394	622.42
597.844	623.62
598.294	625.12
598.744	659.62
599.195	664.82
599.645	699.52
600.095	738.72
600.545	789.22
600.995	829.02
601.445	891.62
601.895	936.92
602.345	979.82
602.795	958.82
603.245	919.92
603.695	874.02
604.145	823.32
604.594	782.62
605.044	747.62
605.494	691.02
605.944	646.72
606.393	645.12
606.843	623.02
607.293	632.42
607.743	627.12
608.192	642.52
608.642	646.42
609.091	646.22
609.541	657.02
609.99	654.72
610.44	649.22
610.889	618.52
611.339	607.02
611.788	591.92
612.238	596.22
612.687	617.32
613.136	615.92
613.586	627.02
614.035	629.22
614.484	640.62
614.933	647.52
615.383	635.12
615.832	632.02
616.281	618.62
616.73	587.32
617.179	572.22
617.628	556.82
618.077	543.42
618.526	538.52
618.975	528.12
619.424	522.72
619.873	521.02
620.322	522.02
620.771	511.62
621.22	510.52
621.669	494.72
622.118	499.02
622.567	487.92
623.015	486.22
623.464	479.22
623.913	472.32
624.361	457.12
624.81	462.42
625.259	471.02
625.707	472.92
626.156	483.92
626.604	488.12
627.053	470.72
627.501	469.02
627.95	470.62
628.398	487.02
628.847	481.92
629.295	484.62
629.744	490.42
630.192	484.82
630.64	467.02
631.089	474.02
631.537	492.32
631.985	491.12
632.433	500.32
632.881	511.62
633.33	553.12
633.778	539.92
634.226	471.92
634.674	473.42
635.122	479.92
635.57	497.42
636.018	530.02
636.466	487.82
636.914	467.02
637.362	480.92
637.81	486.72
638.258	484.42
638.705	477.62
639.153	500.72
639.601	512.92
640.049	539.12
640.497	562.22
640.944	581.32
641.392	539.32
641.84	518.82
642.287	484.52
642.735	476.92
643.182	475.82
643.63	474.92
644.078	481.12
644.525	487.92
644.973	497.52
645.42	497.22
645.867	517.82
646.315	538.92
646.762	548.52
647.21	574.42
647.657	597.92
648.104	626.52
648.551	647.12
648.999	703.02
649.446	753.22
649.893	833.22
650.34	952.02
650.787	1140.12
651.234	1428.72
651.682	1824.62
652.129	2504.42
652.576	3589.32
653.023	5326.12
653.47	7354.32
653.917	9306.92
654.363	10893.52
654.81	12316.82
655.257	11674.12
655.704	7570.12
656.151	4426.32
656.598	2887.22
657.044	2045.12
657.491	1567.52
657.938	1244.72
658.385	1035.72
658.831	915.22
659.278	808.72
659.724	715.72
660.171	656.72
660.618	600.02
661.064	573.32
661.511	549.92
661.957	541.22
662.404	527.62
662.85	527.72
663.296	508.02
663.743	471.52
664.189	446.02
664.635	450.62
665.082	440.52
665.528	434.92
665.974	427.12
666.42	421.12
666.867	418.22
667.313	399.02
667.759	397.92
668.205	394.32
668.651	397.92
669.097	404.42
669.543	416.02
669.989	392.52
670.435	377.22
670.881	375.62
671.327	370.42
671.773	386.62
672.219	400.82
672.665	442.82
673.11	476.52
673.556	521.32
674.002	563.12
674.448	548.22
674.893	456.52
675.339	394.02
675.785	360.62
676.23	346.72
676.676	318.92
677.122	314.02
677.567	312.42
678.013	303.22
678.458	295.32
678.904	295.72
679.349	284.92
679.794	284.02
680.24	285.12
680.685	282.42
681.131	286.52
681.576	285.62
682.021	290.72
682.466	278.12
682.912	273.62
683.357	282.82
683.802	306.72
684.247	328.52
684.692	374.22
685.137	398.22
685.583	438.62
686.028	472.92
686.473	430.62
686.918	365.82
687.363	345.62
687.807	325.42
688.252	298.12
688.697	288.62
689.142	277.62
689.587	279.52
690.032	266.12
690.477	277.02
690.921	296.12
691.366	308.92
691.811	323.22
692.255	349.02
692.7	382.62
693.145	407.32
693.589	554.92
694.034	905.12
694.478	1254.32
694.923	1446.42
695.367	1925.52
695.812	1004.52
696.256	412.62
696.701	303.92
697.145	285.42
697.59	270.32
698.034	265.12
698.478	272.12
698.922	270.22
699.367	271.92
699.811	283.92
700.255	289.42
700.699	312.22
701.143	347.02
701.588	397.82
702.032	425.12
702.476	415.22
702.92	407.42
703.364	403.82
703.808	506.72
704.252	819.32
704.696	1172.22
705.14	1393.12
705.584	1796.02
706.027	891.42
706.471	431.72
706.915	320.02
707.359	280.62
707.803	259.62
708.246	249.92
708.69	254.02
709.134	250.92
709.577	248.32
710.021	259.22
710.465	245.72
710.908	240.42
711.352	234.42
711.795	251.82
712.239	286.72
712.682	303.42
713.126	345.22
713.569	381.52
714.012	299.92
714.456	257.62
714.899	241.42
715.342	220.72
715.786	213.32
716.229	210.02
716.672	211.92
717.115	199.12
717.558	197.52
718.002	205.82
718.445	212.52
718.888	226.22
719.331	240.02
719.774	258.32
720.217	253.62
720.66	235.22
721.103	215.32
721.546	206.42
721.989	203.12
722.432	186.22
722.874	197.32
723.317	179.82
723.76	183.72
724.203	211.22
724.645	260.32
725.088	358.02
725.531	459.32
725.974	526.52
726.416	454.02
726.859	251.82
727.301	204.52
727.744	189.82
728.187	192.32
728.629	193.12
729.071	199.82
729.514	214.22
729.956	217.12
730.399	229.22
730.841	235.92
731.283	217.12
731.726	215.42
732.168	208.12
732.61	219.12
733.053	234.02
733.495	258.72
733.937	278.72
734.379	323.92
734.821	357.82
735.263	443.62
735.705	660.72
736.148	1237.62
736.59	2069.52
737.032	2567.32
737.474	2090.42
737.916	659.62
738.357	347.92
738.799	261.62
739.241	239.92
739.683	227.32
740.125	234.22
740.567	242.92
741.008	263.02
741.45	256.52
741.892	253.32
742.334	276.82
742.775	292.02
743.217	279.32
743.658	218.72
744.1	213.02
744.542	207.22
744.983	253.92
745.425	287.42
745.866	278.82
746.307	230.62
746.749	232.52
747.19	259.32
747.632	360.52
748.073	683.42
748.514	1475.42
748.956	2329.82
749.397	2921.22
749.838	2427.62
750.279	2517.42
750.72	1242.72
751.162	451.82
751.603	258.42
752.044	208.12
752.485	168.92
752.926	168.42
753.367	157.72
753.808	159.32
754.249	159.02
754.69	154.22
755.131	152.92
755.572	149.02
756.013	144.62
756.453	144.62
756.894	154.42
757.335	150.52
757.776	154.42
758.216	160.32
758.657	151.12
759.098	161.82
759.538	181.62
759.979	218.42
760.42	295.22
760.86	547.72
761.301	1419.12
761.741	3537.72
762.182	5507.32
762.622	3869.32
763.063	1088.62
763.503	443.92
763.943	281.92
764.384	274.82
764.824	328.22
765.264	360.02
765.705	248.32
766.145	167.62
766.585	154.42
767.025	144.52
767.465	142.72
767.906	191.22
768.346	252.52
768.786	277.42
769.226	212.82
769.666	250.02
770.106	477.52
770.546	1224.32
770.986	2215.62
771.426	2025.62
771.866	656.72
772.306	259.52
772.745	165.72
773.185	144.22
773.625	138.42
774.065	134.12
774.505	162.02
774.944	242.92
775.384	516.82
775.824	1004.32
776.263	989.12
776.703	420.82
777.142	176.62
777.582	126.42
778.021	114.02
778.461	117.12
778.9	112.42
779.34	104.52
779.779	88.92
780.219	90.42
780.658	92.32
781.097	88.02
781.537	84.22
781.976	89.12
782.415	82.52
782.855	78.42
783.294	86.82
783.733	85.32
784.172	88.82
784.611	83.82
785.05	89.62
785.489	92.02
785.928	99.22
786.367	95.12
786.806	90.62
787.245	106.82
787.684	110.12
788.123	121.52
788.562	100.32
789.001	102.72
789.44	98.22
789.879	94.02
790.317	95.92
790.756	104.12
791.195	99.92
791.634	117.52
792.072	168.92
792.511	278.92
792.95	788.42
793.388	1764.62
793.827	1648.12
794.265	568.22
794.704	229.52
795.142	150.82
795.581	123.72
796.019	113.42
796.458	102.92
796.896	98.72
797.334	105.52
797.773	125.32
798.211	176.12
798.649	336.62
799.087	817.22
799.526	1305.82
799.964	1646.02
800.402	1715.52
800.84	630.72
801.278	249.22
801.716	155.32
802.154	124.82
802.592	114.62
803.03	106.72
803.468	104.62
803.906	117.42
804.344	120.22
804.782	109.92
805.22	110.22
805.658	107.22
806.096	121.42
806.533	125.12
806.971	138.62
807.409	176.82
807.847	247.42
808.284	510.82
808.722	1487.12
809.16	2740.22
809.597	2529.52
810.035	4485.02
810.472	5027.52
810.91	1778.32
811.347	664.22
811.785	335.02
812.222	212.42
812.66	164.32
813.097	134.92
813.535	112.12
813.972	106.42
814.409	101.12
814.846	86.32
815.284	87.62
815.721	83.12
816.158	89.92
816.595	95.92
817.032	149.12
817.47	162.12
817.907	145.52
818.344	122.02
818.781	95.12
819.218	78.62
819.655	88.32
820.092	159.42
820.529	182.72
820.966	148.62
821.403	109.02
821.839	92.02
822.276	77.82
822.713	100.52
823.15	113.62
823.587	92.12
824.023	112.92
824.46	230.32
824.897	727.32
825.333	1141.32
825.77	486.52
826.206	186.52
826.643	109.22
827.08	87.82
827.516	59.72
827.953	67.72
828.389	62.92
828.825	50.32
829.262	52.82
829.698	46.22
830.135	52.52
830.571	51.72
831.007	50.42
831.443	51.22
831.88	43.92
832.316	49.12
832.752	51.72
833.188	55.32
833.624	55.52
834.06	50.52
834.497	54.52
834.933	57.82
835.369	56.32
835.805	55.72
836.241	67.72
836.677	63.02
837.112	71.72
837.548	82.32
837.984	104.72
838.42	166.02
838.856	390.92
839.292	1239.22
839.727	1956.52
840.163	902.72
840.599	732.22
841.034	1671.12
841.47	1843.62
841.906	669.02
842.341	270.52
842.777	186.32
843.212	260.82
843.648	264.32
844.083	131.62
844.519	75.62
844.954	61.42
845.39	46.52
845.825	46.12
846.261	48.82
846.696	46.82
847.131	41.22
847.566	49.62
848.002	42.32
848.437	43.42
848.872	45.72
849.307	47.92
849.742	67.42
850.177	138.72
850.613	450.72
851.048	737.52
851.483	325.02
851.918	117.42
852.353	70.32
852.788	49.12
853.223	41.02
853.657	47.42
854.092	37.02
854.527	32.32
854.962	30.72
855.397	33.52
855.832	36.32
856.266	34.92
856.701	27.32
857.136	29.72
857.57	30.22
858.005	35.72
858.44	43.52
858.874	30.02
859.309	47.32
859.743	29.12
860.178	35.92
860.612	34.62
861.047	42.72
861.481	52.62
861.915	53.12
862.35	45.72
862.784	27.12
863.218	31.82
863.653	25.72
864.087	41.22
864.521	43.92
864.955	54.82
865.39	131.22
865.824	145.42
866.258	89.62
866.692	135.82
867.126	154.02
867.56	91.32
867.994	45.22
868.428	31.62
868.862	36.92
869.296	49.62
869.73	46.32
870.164	45.72
870.598	40.72
871.031	28.32
871.465	24.22
871.899	25.02
872.333	20.92
872.766	27.32
873.2	18.72
873.634	28.82
874.067	28.32
874.501	20.02
874.935	26.42
875.368	23.42
875.802	21.02
876.235	15.42
876.669	15.42
877.102	17.42
877.535	23.12
877.969	16.92
878.402	21.22
878.836	14.32
879.269	17.82
879.702	20.62
880.135	13.92
880.569	20.32
881.002	23.92
881.435	15.42
881.868	12.32
882.301	15.62
882.734	9.32
883.167	18.22
883.601	12.82
884.034	16.22
884.467	12.42
884.899	18.22
885.332	13.52
885.765	11.22
886.198	12.02
886.631	14.12
887.064	14.62
887.497	18.22
887.929	25.12
888.362	10.62
888.795	11.92
889.228	13.02
889.66	15.92
890.093	7.62
890.526	12.22
890.958	17.32
891.391	9.82
891.823	14.92
892.256	14.32
892.688	12.02
893.121	9.12
893.553	12.02
893.985	12.62
894.418	10.72
894.85	13.42
895.282	19.52
895.715	12.92
896.147	13.42
896.579	15.62
897.011	7.72
897.444	11.42
897.876	7.82
898.308	13.92
898.74	11.22
899.172	10.42
899.604	18.02
900.036	21.22
900.468	16.62
900.9	13.92
901.332	18.02
901.764	9.02
902.196	16.52
902.628	12.02
903.06	14.72
903.491	26.32
903.923	17.82
904.355	19.02
904.787	24.92
905.218	15.92
905.65	12.12
906.082	11.82
906.513	9.62
906.945	12.52
907.376	8.92
907.808	21.32
908.239	16.32
908.671	11.62
909.102	21.42
909.534	25.52
909.965	38.52
910.397	74.32
910.828	263.42
911.259	409.12
911.691	182.62
912.122	88.62
912.553	41.42
912.984	27.02
913.415	18.72
913.847	14.82
914.278	14.92
914.709	13.42
915.14	15.62
915.571	12.02
916.002	9.12
916.433	15.92
916.864	12.22
917.295	8.82
917.726	14.82
918.157	9.92
918.587	26.22
919.018	14.22
919.449	17.32
919.88	14.42
920.311	17.72
920.741	35.02
921.172	140.02
921.603	118.62
922.033	62.42
922.464	32.12
922.895	15.02
923.325	20.12
923.756	15.22
924.186	7.72
924.617	25.92
925.047	26.72
925.478	42.42
925.908	35.12
926.338	16.52
926.769	8.62
927.199	12.22
927.629	4.62
928.06	14.62
928.49	12.22
928.92	9.22
929.35	8.72
929.78	7.62
930.21	-1.18
930.641	6.22
931.071	9.22
931.501	4.92
931.931	4.62
932.361	4.52
932.791	0.02
933.221	4.92
933.651	2.72
934.08	6.82
934.51	24.02
934.94	7.72
935.37	6.32
935.8	9.72
936.229	2.62
936.659	12.82
937.089	0.92
937.519	11.52
937.948	16.92
938.378	14.12
938.807	2.92
939.237	1.12
939.666	2.72
940.096	-5.18
940.525	-4.88
940.955	1.12
941.384	5.22
941.814	-3.58
942.243	-2.18
942.672	0.92
943.102	-3.38
943.531	-4.18
943.96	-0.38
944.39	-1.38
944.819	0.22
945.248	2.62
945.677	-1.58
946.106	4.22
946.535	5.42
946.964	-4.18
947.393	1.52
947.822	-2.28
948.251	-6.88
948.68	2.02
949.109	13.82
949.538	7.62
949.967	-0.28
950.396	-1.58
950.825	-5.38
951.254	0.12
951.682	-5.38
952.111	2.52
952.54	4.62
952.969	-3.88
953.397	-4.98
953.826	-3.68
954.254	-6.68
954.683	4.82
955.112	-6.18
955.54	0.92
955.969	0.72
956.397	0.52
956.826	-3.98
957.254	3.12
957.682	4.52
958.111	6.42
958.539	0.02
958.967	0.92
959.396	2.42
959.824	0.72
960.252	-2.88
960.68	-3.58
961.109	-3.58
961.537	-5.18
961.965	-3.48
962.393	6.72
962.821	-6.78
963.249	1.72
963.677	-1.18
964.105	3.52
964.533	32.82
964.961	34.22
965.389	10.92
965.817	6.82
966.245	-3.48
966.672	-2.58
967.1	-14.28
967.528	-0.08
967.956	-2.08
968.383	3.62
968.811	-2.48
969.239	-2.18
969.666	-12.18
970.094	-3.68
970.522	0.62
970.949	-0.78
971.377	-3.98
971.804	-0.48
972.232	-5.58
972.659	-6.08
973.087	-3.68
973.514	-2.48
973.941	-8.68
974.369	3.72
974.796	4.22
975.223	2.82
975.651	-3.18
976.078	3.42
976.505	-1.08
976.932	-1.38
977.359	7.72
977.786	8.42
978.214	1.62
978.641	-2.18
979.068	0.02
979.495	-4.18
979.922	-2.88
980.349	-4.38
980.776	1.32
981.202	-0.68
981.629	9.02
982.056	2.32
982.483	-0.78
982.91	-4.98
983.337	-3.38
983.763	1.02
984.19	-3.48
984.617	-4.58
985.043	-4.48
985.47	-4.28
985.897	-5.48
986.323	-12.88
986.75	6.02
987.176	-2.68
987.603	-1.18
988.029	4.72
988.456	-10.58
988.882	1.92
989.308	-3.98
989.735	-1.28
990.161	2.92
990.587	-12.18
991.014	-1.58
991.44	5.12
991.866	-8.48
992.292	-7.98
992.719	-8.58
993.145	2.92
993.571	-10.28
993.997	-4.88
994.423	0.92
994.849	-6.38
995.275	2.92
995.701	-0.68
996.127	-4.98
996.553	3.82
996.979	-2.28
997.405	-7.38
997.83	-3.78
998.256	-3.18
998.682	-8.88
999.108	-10.08
999.534	-1.08
999.959	-3.28
1000.385	-4.48
1000.811	-5.78
1001.236	-12.78
1001.662	-6.38
1002.087	-8.38
1002.513	-4.18
1002.938	-5.88
1003.364	-2.58
1003.789	1.92
1004.215	1.92
1004.64	-2.78
1005.066	1.92
1005.491	-4.98
1005.916	-6.08
1006.342	-6.18
1006.767	-15.28
1007.192	7.42
1007.617	-2.48
1008.042	-1.98
1008.468	-7.28
1008.893	-3.08
1009.318	1.52
1009.743	-5.68
1010.168	5.62
1010.593	-0.78
1011.018	-8.48
1011.443	-3.18
1011.868	1.02
1012.293	-0.98
1012.718	-9.68
1013.143	1.92
1013.567	3.42
1013.992	0.72
1014.417	-15.88
1014.842	3.82
1015.267	-6.18
1015.691	-0.38
1016.116	8.32
1016.541	5.42
1016.965	-0.18
1017.39	4.92
1017.814	-3.88
1018.239	-1.98
1018.663	-6.18
1019.088	-10.88
1019.512	-5.78
1019.937	2.02
1020.361	-7.38
1020.785	-10.58
1021.21	-5.18
1021.634	-2.08
1022.058	1.62
1022.483	-1.38
1022.907	-1.18
1023.331	-4.18
1023.755	-0.68
1024.179	-0.88
1024.604	-10.08
1025.028	-8.78
1025.452	-2.48
1025.876	-5.68
1026.3	1.02
1026.724	-7.48
1027.148	-8.08
1027.572	-9.68
1027.996	-4.18
1028.42	-6.38
1028.843	-2.08
1029.267	-7.88
1029.691	-3.68
1030.115	-7.58
1030.539	-3.58
1030.962	-6.18
1031.386	-14.38
1031.81	-4.78
1032.233	1.32
1032.657	-7.08
1033.08	-2.58
1033.504	-0.48
1033.927	-9.68
1034.351	-2.58
1034.774	-3.98
1035.198	-7.08
1035.621	-3.38
1036.045	-8.68
1036.468	-6.78
1036.891	-11.28
1037.315	-16.18
1037.738	-12.38
1038.161	-3.48
1038.584	-7.28
1039.008	-7.98
1039.431	0.52
1039.854	-0.78
1040.277	-6.48
1040.7	-12.18
1041.123	-0.88
1041.546	-5.88
1041.969	-12.98
1042.392	-4.18
1042.815	-0.08
1043.238	0.22
1043.661	1.72
1044.084	-4.98
1044.507	-6.38
1044.93	-3.48
1045.352	-3.98
1045.775	-0.38
1046.198	-0.48
1046.621	-5.58
1047.043	1.42
1047.466	9.72
1047.889	-5.78
1048.311	-2.78
1048.734	0.62
1049.156	-1.08
1049.579	-3.68
1050.001	-2.58
1050.424	0.42
1050.846	-3.68
1051.269	-5.38
1051.691	-1.88
1052.113	-6.28
1052.536	-3.68
1052.958	-1.98
1053.38	-3.48
1053.802	-9.38
1054.225	2.92
1054.647	-14.38
1055.069	-9.38
1055.491	6.02
1055.913	-10.68
1056.335	2.42
1056.757	-7.88
1057.179	-9.38
1057.601	-6.58
1058.023	-8.78
1058.445	-5.28
1058.867	-8.68
1059.289	1.32
1059.711	-6.88
1060.133	-5.78
1060.555	-6.58
1060.976	-5.08
1061.398	-4.38
1061.82	-4.68
1062.241	-9.68
1062.663	-9.08
1063.085	-8.78
1063.506	-0.68
1063.928	-4.68
1064.35	-2.48
1064.771	-10.58
1065.193	-6.08
1065.614	-6.88
1066.035	-0.28
1066.457	-4.28
1066.878	-2.78
1067.3	-7.08
1067.721	-4.38
1068.142	-10.88
1068.564	-7.38
1068.985	-3.98
1069.406	-6.38
1069.827	-8.08
1070.248	2.02
1070.67	-6.88
1071.091	-2.48
1071.512	-4.78
1071.933	-5.98
1072.354	-4.18
1072.775	-5.58
1073.196	-3.38
1073.617	-4.88
1074.038	-7.48
1074.459	-3.88
1074.88	-10.18
1075.3	0.62
1075.721	-11.58
1076.142	-0.98
1076.563	0.02
1076.983	-10.48
1077.404	-10.18
1077.825	-14.78
1078.246	-1.58
1078.666	-7.18
1079.087	-1.98
1079.507	-7.78
1079.928	0.42
1080.348	2.92
1080.769	-5.48
1081.189	-4.88
1081.61	-2.78
1082.03	-2.88
1082.451	-9.68
1082.871	1.22
1083.291	-10.68
1083.711	-12.88
1084.132	-7.98
1084.552	-7.08
1084.972	-5.88
1085.392	-10.88
1085.813	-6.68
1086.233	-5.68
1086.653	-2.48
1087.073	-4.48
1087.493	-10.68
1087.913	-2.38
1088.333	0.32
1088.753	-3.68
1089.173	3.62
1089.593	-6.48
1090.013	4.52
1090.433	2.42
1090.852	0.12
1091.272	2.52
1091.692	-2.78
1092.112	-2.78
1092.531	-8.98
1092.951	-13.88
1093.371	-1.48
1093.79	2.02
1094.21	-8.78
1094.63	-8.78
1095.049	-3.38
1095.469	1.72
1095.888	0.12
1096.308	0.02
1096.727	3.92
1097.146	-6.88
1097.566	-5.08
1097.985	-7.68
1098.405	-3.58
1098.824	-9.88
1099.243	-9.68
1099.662	-14.08
1100.082	-6.58
1100.501	1.32
1100.92	-7.08
1101.339	-4.58
1101.758	-1.78
