Data from 20171114-ORNL-Ar_H_NY_Subt18_08-07-46-721.txt Node
Date: Tue Nov 14 08:07:46 EST 2017
User: Ender
Spectrometer: HR+D1039
Trigger mode: 0
Integration Time (sec): 2.730000E-2
Scans to average: 10
Electric dark correction enabled: true
Nonlinearity correction enabled: false
Boxcar width: 0
XAxis mode: Wavelengths
Number of Pixels in Spectrum: 2048
>>>>>Begin Spectral Data<<<<<
187.836	-4.83
188.309	-4.83
188.782	-4.83
189.255	0.27
189.728	0.27
190.201	2.37
190.674	0.57
191.147	7.37
191.619	-4.13
192.092	0.17
192.565	4.47
193.038	0.87
193.511	-3.73
193.984	5.27
194.456	-1.33
194.929	-1.53
195.402	-5.83
195.874	-0.33
196.347	-0.23
196.82	-11.13
197.292	3.27
197.765	2.67
198.237	-5.63
198.71	-3.23
199.182	-4.13
199.655	3.37
200.127	5.37
200.6	-7.23
201.072	-6.93
201.544	-4.13
202.017	-7.13
202.489	2.27
202.961	1.27
203.433	-2.93
203.906	-7.93
204.378	-7.53
204.85	-0.33
205.322	-7.83
205.794	-1.83
206.266	-5.13
206.739	-6.13
207.211	1.27
207.683	-5.93
208.155	-5.93
208.627	-3.73
209.099	-1.43
209.57	-8.93
210.042	-9.33
210.514	-9.93
210.986	2.47
211.458	-8.43
211.93	2.67
212.402	0.17
212.873	-6.63
213.345	-14.63
213.817	-16.33
214.288	-8.03
214.76	-10.93
215.232	-2.73
215.703	-8.43
216.175	-7.13
216.646	-5.03
217.118	-7.43
217.589	-4.62
218.061	-8.33
218.532	-4.62
219.004	-8.93
219.475	-6.03
219.946	-4.03
220.418	-5.12
220.889	0.97
221.36	0.27
221.832	-4.73
222.303	-7.63
222.774	-3.73
223.245	-13.43
223.717	-7.33
224.188	-9.03
224.659	-11.53
225.13	-5.73
225.601	-6.03
226.072	-2.93
226.543	-1.63
227.014	-1.53
227.485	-3.93
227.956	-0.93
228.427	-6.23
228.898	3.27
229.369	-0.73
229.839	-3.73
230.31	-2.63
230.781	-1.33
231.252	2.37
231.722	-4.03
232.193	-3.03
232.664	1.27
233.135	6.67
233.605	0.38
234.076	-8.33
234.546	2.07
235.017	5.17
235.487	1.67
235.958	-2.33
236.428	-6.13
236.899	-3.62
237.369	1.88
237.84	-5.33
238.31	6.17
238.78	3.27
239.251	-0.83
239.721	-1.73
240.191	-1.62
240.662	-5.12
241.132	-2.63
241.602	-5.73
242.072	0.37
242.542	1.67
243.013	-0.13
243.483	0.37
243.953	1.27
244.423	2.27
244.893	-4.53
245.363	1.57
245.833	0.07
246.303	-6.43
246.773	2.47
247.243	1.97
247.712	-4.23
248.182	9.07
248.652	-1.93
249.122	-3.83
249.592	5.27
250.061	19.67
250.531	28.17
251.001	11.67
251.471	16.07
251.94	9.67
252.41	5.77
252.879	0.47
253.349	4.97
253.818	8.27
254.288	1.97
254.757	9.77
255.227	-0.12
255.696	0.57
256.166	3.57
256.635	4.47
257.105	5.97
257.574	9.37
258.043	5.27
258.513	10.97
258.982	9.57
259.451	1.27
259.92	4.47
260.389	3.67
260.859	8.67
261.328	9.27
261.797	12.38
262.266	5.07
262.735	10.47
263.204	5.47
263.673	4.37
264.142	12.77
264.611	-4.13
265.08	-5.43
265.549	-1.03
266.018	5.47
266.487	-5.43
266.955	0.27
267.424	1.47
267.893	7.38
268.362	0.38
268.83	2.17
269.299	12.47
269.768	3.07
270.236	2.87
270.705	-4.63
271.174	1.88
271.642	9.27
272.111	4.67
272.579	14.77
273.048	13.57
273.516	26.47
273.985	23.97
274.453	26.17
274.922	16.17
275.39	10.67
275.858	-4.03
276.327	9.67
276.795	13.07
277.263	9.17
277.731	22.07
278.2	41.97
278.668	48.47
279.136	44.47
279.604	21.17
280.072	13.77
280.54	12.47
281.008	10.57
281.477	12.97
281.945	8.87
282.413	17.27
282.881	14.07
283.348	6.88
283.816	16.57
284.284	10.97
284.752	14.17
285.22	10.77
285.688	14.77
286.156	19.97
286.623	40.67
287.091	48.57
287.559	19.47
288.026	15.07
288.494	16.27
288.962	9.17
289.429	8.17
289.897	18.47
290.364	6.27
290.832	10.77
291.3	10.47
291.767	11.27
292.234	10.57
292.702	10.77
293.169	20.97
293.637	17.87
294.104	17.47
294.571	5.67
295.039	11.57
295.506	12.07
295.973	14.27
296.44	15.17
296.908	14.47
297.375	14.77
297.842	15.67
298.309	19.97
298.776	14.57
299.243	18.77
299.71	18.47
300.177	20.97
300.644	23.67
301.111	16.88
301.578	18.77
302.045	11.97
302.512	21.17
302.979	16.27
303.446	18.97
303.913	19.67
304.379	16.17
304.846	22.88
305.313	21.67
305.78	21.47
306.246	22.77
306.713	24.77
307.18	19.77
307.646	24.97
308.113	24.17
308.579	22.17
309.046	26.07
309.512	21.47
309.979	12.27
310.445	28.37
310.912	25.77
311.378	30.07
311.845	25.47
312.311	24.07
312.777	26.57
313.244	25.67
313.71	34.77
314.176	28.07
314.642	27.27
315.109	24.97
315.575	29.47
316.041	33.67
316.507	29.27
316.973	31.37
317.439	26.27
317.905	29.17
318.371	31.77
318.837	32.67
319.303	29.07
319.769	35.07
320.235	31.47
320.701	29.27
321.167	31.57
321.633	32.27
322.099	36.97
322.564	39.27
323.03	34.07
323.496	36.07
323.962	30.27
324.427	30.07
324.893	39.97
325.359	36.37
325.824	31.37
326.29	30.57
326.755	42.57
327.221	29.07
327.686	31.57
328.152	36.67
328.617	37.87
329.083	43.77
329.548	41.17
330.014	44.67
330.479	31.37
330.944	41.67
331.41	39.87
331.875	37.07
332.34	36.57
332.805	40.87
333.271	44.27
333.736	34.47
334.201	44.07
334.666	49.17
335.131	49.87
335.596	49.97
336.061	49.67
336.526	41.97
336.991	41.88
337.456	47.17
337.921	41.97
338.386	35.97
338.851	43.87
339.316	47.67
339.781	45.57
340.246	48.37
340.711	38.87
341.175	46.97
341.64	38.77
342.105	46.07
342.569	53.47
343.034	46.77
343.499	51.87
343.963	47.67
344.428	55.47
344.893	54.97
345.357	60.77
345.822	53.87
346.286	64.47
346.751	65.57
347.215	62.07
347.679	65.97
348.144	84.67
348.608	69.07
349.073	60.77
349.537	68.77
350.001	72.87
350.465	80.47
350.93	68.47
351.394	78.87
351.858	64.47
352.322	79.97
352.786	75.77
353.25	90.87
353.715	100.97
354.179	89.57
354.643	101.57
355.107	123.07
355.571	101.07
356.035	101.37
356.498	108.37
356.962	112.07
357.426	122.67
357.89	105.67
358.354	74.67
358.818	76.97
359.281	74.97
359.745	73.47
360.209	73.77
360.673	69.17
361.136	78.57
361.6	76.37
362.064	74.27
362.527	78.27
362.991	88.87
363.454	74.57
363.918	73.57
364.381	72.57
364.845	79.67
365.308	78.87
365.772	84.87
366.235	77.37
366.698	73.97
367.162	77.47
367.625	78.27
368.088	80.77
368.552	84.07
369.015	85.47
369.478	88.67
369.941	95.57
370.404	88.37
370.867	94.57
371.331	99.47
371.794	105.17
372.257	100.67
372.72	102.57
373.183	98.77
373.646	93.27
374.109	92.38
374.572	105.67
375.035	94.77
375.497	103.47
375.96	96.37
376.423	95.47
376.886	109.47
377.349	103.97
377.811	91.97
378.274	100.97
378.737	103.07
379.199	101.57
379.662	105.47
380.125	108.38
380.587	115.77
381.05	117.47
381.512	122.67
381.975	121.87
382.437	120.17
382.9	119.87
383.362	134.47
383.825	136.17
384.287	138.67
384.75	133.37
385.212	134.07
385.674	132.47
386.136	132.67
386.599	116.07
387.061	124.88
387.523	127.67
387.985	127.87
388.447	140.47
388.91	142.07
389.372	158.88
389.834	147.17
390.296	147.17
390.758	148.47
391.22	162.27
391.682	202.87
392.144	287.17
392.606	217.17
393.068	158.47
393.529	159.37
393.991	148.77
394.453	141.87
394.915	145.47
395.377	188.47
395.838	203.27
396.3	155.77
396.762	129.88
397.224	123.57
397.685	126.87
398.147	126.47
398.608	128.57
399.07	127.07
399.531	128.17
399.993	136.47
400.454	146.67
400.916	137.37
401.377	139.07
401.839	137.67
402.3	143.57
402.762	156.67
403.223	167.47
403.684	167.37
404.145	156.87
404.607	159.07
405.068	158.67
405.529	160.67
405.99	179.87
406.451	165.87
406.913	166.57
407.374	157.47
407.835	160.77
408.296	158.38
408.757	169.07
409.218	182.87
409.679	166.27
410.14	172.97
410.601	173.97
411.062	183.57
411.522	182.97
411.983	190.37
412.444	173.57
412.905	166.47
413.366	174.67
413.826	187.57
414.287	201.87
414.748	246.57
415.208	239.37
415.669	208.17
416.13	197.97
416.59	192.57
417.051	200.57
417.511	209.37
417.972	230.77
418.432	237.17
418.893	278.07
419.353	242.08
419.814	191.47
420.274	181.27
420.734	168.57
421.195	194.67
421.655	187.88
422.115	187.87
422.576	191.17
423.036	187.37
423.496	194.17
423.956	203.38
424.416	218.47
424.876	254.77
425.336	248.57
425.797	246.38
426.257	247.88
426.717	235.97
427.177	227.87
427.637	218.57
428.097	218.27
428.556	237.77
429.016	266.07
429.476	259.47
429.936	262.67
430.396	271.87
430.856	288.67
431.315	313.27
431.775	337.87
432.235	371.37
432.694	344.07
433.154	355.77
433.614	388.97
434.073	324.17
434.533	279.97
434.993	266.07
435.452	273.67
435.912	288.97
436.371	285.27
436.83	275.77
437.29	259.87
437.749	246.07
438.209	241.87
438.668	264.97
439.127	282.98
439.587	262.58
440.046	239.17
440.505	255.08
440.964	265.77
441.424	308.88
441.883	303.97
442.342	249.27
442.801	224.77
443.26	213.17
443.719	212.37
444.178	214.57
444.637	203.17
445.096	212.77
445.555	222.47
446.014	220.88
446.473	220.27
446.932	223.57
447.391	217.37
447.849	222.38
448.308	216.17
448.767	212.47
449.226	232.67
449.685	231.07
450.143	244.27
450.602	224.47
451.061	223.77
451.519	218.47
451.978	227.17
452.436	225.87
452.895	233.97
453.353	240.27
453.812	233.17
454.27	226.07
454.729	239.88
455.187	235.97
455.646	228.38
456.104	240.87
456.562	256.88
457.021	257.27
457.479	250.47
457.937	255.07
458.395	251.38
458.854	238.67
459.312	256.48
459.77	268.87
460.228	249.07
460.686	232.87
461.144	237.47
461.602	240.47
462.06	238.57
462.518	242.67
462.976	240.87
463.434	247.07
463.892	247.48
464.35	269.57
464.808	275.48
465.266	253.67
465.724	264.27
466.181	262.17
466.639	266.47
467.097	279.17
467.555	290.57
468.012	300.87
468.47	297.27
468.928	318.47
469.385	324.97
469.843	337.07
470.3	339.27
470.758	351.57
471.215	373.77
471.673	395.27
472.13	397.97
472.588	415.07
473.045	358.88
473.503	372.47
473.96	390.57
474.417	391.67
474.875	421.67
475.332	458.98
475.789	450.38
476.246	456.57
476.704	477.88
477.161	498.87
477.618	512.37
478.075	546.58
478.532	606.07
478.989	688.27
479.446	795.47
479.903	760.08
480.36	784.07
480.817	848.27
481.274	946.07
481.731	1047.27
482.188	1140.67
482.645	1254.97
483.102	1368.28
483.558	1500.47
484.015	1570.18
484.472	1511.38
484.929	1474.67
485.385	1436.97
485.842	1383.38
486.299	1323.27
486.755	1273.17
487.212	1061.38
487.668	903.27
488.125	826.17
488.582	755.77
489.038	728.37
489.494	673.27
489.951	671.37
490.407	648.88
490.864	633.38
491.32	627.27
491.776	624.77
492.233	634.47
492.689	601.27
493.145	582.47
493.602	578.57
494.058	594.37
494.514	605.38
494.97	627.67
495.426	635.77
495.882	600.27
496.338	602.37
496.794	598.37
497.251	600.37
497.707	618.67
498.163	613.57
498.618	627.07
499.074	639.48
499.53	660.38
499.986	661.17
500.442	631.17
500.898	607.57
501.354	608.47
501.809	620.27
502.265	633.37
502.721	646.47
503.177	659.17
503.632	654.77
504.088	659.38
504.543	692.07
504.999	683.07
505.455	639.57
505.91	613.77
506.366	616.17
506.821	607.17
507.277	605.17
507.732	612.27
508.187	600.57
508.643	612.37
509.098	617.98
509.553	639.17
510.009	655.27
510.464	656.27
510.919	671.27
511.375	671.57
511.83	687.97
512.285	700.87
512.74	737.37
513.195	767.77
513.65	753.77
514.105	750.37
514.56	746.67
515.015	769.08
515.47	797.67
515.925	771.17
516.38	765.77
516.835	774.27
517.29	758.67
517.745	764.77
518.2	748.47
518.655	729.47
519.109	726.77
519.564	727.97
520.019	711.27
520.474	697.77
520.928	702.27
521.383	702.77
521.838	691.47
522.292	691.77
522.747	702.98
523.201	694.47
523.656	678.17
524.11	689.47
524.565	683.37
525.019	678.07
525.474	690.27
525.928	681.77
526.382	669.17
526.837	678.17
527.291	692.57
527.745	685.47
528.2	685.88
528.654	678.77
529.108	680.77
529.562	675.77
530.016	682.17
530.47	675.27
530.925	685.37
531.379	686.77
531.833	688.38
532.287	682.27
532.741	679.67
533.195	696.38
533.649	692.57
534.103	692.57
534.556	689.47
535.01	685.67
535.464	691.07
535.918	702.58
536.372	701.17
536.826	701.88
537.279	692.38
537.733	687.27
538.187	698.67
538.64	706.07
539.094	706.77
539.548	710.17
540.001	702.87
540.455	714.77
540.908	719.87
541.362	716.87
541.815	725.87
542.269	745.57
542.722	748.07
543.175	752.87
543.629	747.17
544.082	762.97
544.536	765.98
544.989	760.17
545.442	779.97
545.895	780.47
546.349	774.58
546.802	780.17
547.255	780.97
547.708	794.17
548.161	795.67
548.614	806.87
549.067	816.57
549.52	813.17
549.973	789.07
550.426	793.17
550.879	774.77
551.332	788.07
551.785	791.37
552.238	787.37
552.691	804.27
553.144	823.27
553.596	838.27
554.049	844.67
554.502	871.57
554.955	894.27
555.407	895.77
555.86	880.47
556.313	864.67
556.765	871.47
557.218	862.47
557.67	861.97
558.123	848.17
558.576	853.07
559.028	858.67
559.48	865.57
559.933	856.07
560.385	820.07
560.838	803.37
561.29	763.57
561.742	772.27
562.195	750.17
562.647	742.38
563.099	753.27
563.551	765.77
564.004	762.67
564.456	763.47
564.908	753.37
565.36	736.07
565.812	728.57
566.264	716.08
566.716	723.58
567.168	696.97
567.62	712.97
568.072	694.87
568.524	686.38
568.976	676.77
569.428	664.17
569.88	664.97
570.332	670.47
570.784	662.97
571.235	673.17
571.687	690.17
572.139	681.37
572.59	699.87
573.042	702.67
573.494	702.57
573.945	685.67
574.397	678.07
574.849	669.97
575.3	677.37
575.752	674.47
576.203	669.47
576.655	669.37
577.106	667.27
577.557	662.77
578.009	655.88
578.46	658.67
578.912	647.88
579.363	657.27
579.814	669.97
580.265	657.47
580.717	648.07
581.168	661.17
581.619	659.27
582.07	675.08
582.521	656.47
582.972	658.07
583.423	664.17
583.875	674.07
584.326	685.67
584.777	743.07
585.227	817.17
585.678	897.57
586.129	987.57
586.58	1054.97
587.031	1138.38
587.482	1288.77
587.933	1476.97
588.384	1272.07
588.834	956.98
589.285	793.17
589.736	767.37
590.186	760.87
590.637	749.87
591.088	732.38
591.538	724.37
591.989	728.77
592.439	719.38
592.89	700.67
593.34	694.67
593.791	705.87
594.241	696.17
594.692	696.17
595.142	683.07
595.593	679.48
596.043	701.67
596.493	707.17
596.943	696.67
597.394	705.57
597.844	711.98
598.294	717.38
598.744	737.17
599.195	771.17
599.645	800.17
600.095	846.57
600.545	906.97
600.995	974.77
601.445	1013.77
601.895	1072.27
602.345	1114.47
602.795	1085.78
603.245	1042.27
603.695	987.88
604.145	943.57
604.594	901.77
605.044	844.47
605.494	790.17
605.944	739.67
606.393	728.97
606.843	715.47
607.293	720.67
607.743	714.87
608.192	732.87
608.642	750.87
609.091	757.67
609.541	760.17
609.99	757.27
610.44	757.77
610.889	714.58
611.339	690.47
611.788	674.58
612.238	691.07
612.687	715.77
613.136	713.57
613.586	732.97
614.035	721.38
614.484	746.77
614.933	742.77
615.383	733.27
615.832	721.77
616.281	718.47
616.73	673.57
617.179	658.88
617.628	637.57
618.077	639.47
618.526	614.67
618.975	614.57
619.424	607.67
619.873	602.58
620.322	606.07
620.771	597.98
621.22	600.47
621.669	594.47
622.118	577.07
622.567	570.08
623.015	561.37
623.464	562.17
623.913	551.07
624.361	550.07
624.81	549.27
625.259	547.38
625.707	549.77
626.156	544.57
626.604	568.87
627.053	555.87
627.501	558.57
627.95	564.08
628.398	569.57
628.847	558.17
629.295	552.77
629.744	564.38
630.192	561.47
630.64	563.47
631.089	558.57
631.537	579.48
631.985	580.17
632.433	593.57
632.881	602.17
633.33	656.47
633.778	634.67
634.226	560.88
634.674	563.47
635.122	566.57
635.57	593.27
636.018	617.17
636.466	569.67
636.914	549.48
637.362	567.38
637.81	562.57
638.258	575.38
638.705	575.17
639.153	607.57
639.601	614.27
640.049	628.17
640.497	662.27
640.944	680.77
641.392	636.87
641.84	598.57
642.287	573.57
642.735	564.67
643.182	570.58
643.63	558.37
644.078	565.77
644.525	583.77
644.973	593.67
645.42	594.47
645.867	624.87
646.315	626.17
646.762	658.58
647.21	690.38
647.657	708.47
648.104	744.97
648.551	763.07
648.999	831.37
649.446	912.07
649.893	994.67
650.34	1169.67
650.787	1384.97
651.234	1719.68
651.682	2248.57
652.129	3074.67
652.576	4486.48
653.023	6589.97
653.47	8997.77
653.917	11157.17
654.363	12856.28
654.81	14177.27
655.257	13452.18
655.704	8796.07
656.151	5216.38
656.598	3346.48
657.044	2382.57
657.491	1846.57
657.938	1479.88
658.385	1235.48
658.831	1068.08
659.278	945.67
659.724	849.67
660.171	776.67
660.618	718.57
661.064	685.67
661.511	662.98
661.957	653.97
662.404	640.57
662.85	646.17
663.296	623.67
663.743	552.07
664.189	533.27
664.635	524.87
665.082	524.87
665.528	528.07
665.974	514.47
666.42	507.67
666.867	504.87
667.313	493.98
667.759	474.88
668.205	478.38
668.651	479.97
669.097	480.07
669.543	494.37
669.989	467.67
670.435	445.58
670.881	426.77
671.327	453.57
671.773	469.77
672.219	488.57
672.665	540.38
673.11	576.27
673.556	615.37
674.002	656.57
674.448	651.67
674.893	534.87
675.339	464.57
675.785	427.27
676.23	416.38
676.676	381.77
677.122	380.27
677.567	362.67
678.013	367.57
678.458	355.07
678.904	358.58
679.349	336.17
679.794	351.67
680.24	341.27
680.685	341.47
681.131	345.47
681.576	344.77
682.021	355.27
682.466	333.77
682.912	335.37
683.357	348.37
683.802	374.08
684.247	411.97
684.692	459.38
685.137	490.07
685.583	540.57
686.028	550.27
686.473	512.07
686.918	439.47
687.363	408.77
687.807	393.67
688.252	359.88
688.697	353.38
689.142	333.57
689.587	329.38
690.032	318.07
690.477	342.17
690.921	345.97
691.366	377.97
691.811	397.88
692.255	430.87
692.7	457.48
693.145	505.38
693.589	702.38
694.034	1134.67
694.478	1529.17
694.923	1706.47
695.367	2219.68
695.812	1170.77
696.256	496.57
696.701	363.57
697.145	345.07
697.59	326.87
698.034	315.37
698.478	318.77
698.922	320.97
699.367	327.17
699.811	341.67
700.255	353.08
700.699	389.37
701.143	424.17
701.588	469.47
702.032	519.98
702.476	506.47
702.92	482.47
703.364	494.87
703.808	639.77
704.252	1035.07
704.696	1444.27
705.14	1632.77
705.584	2081.47
706.027	1043.97
706.471	520.47
706.915	394.88
707.359	351.07
707.803	319.37
708.246	304.08
708.69	311.38
709.134	313.57
709.577	310.67
710.021	310.27
710.465	306.47
710.908	298.77
711.352	298.57
711.795	307.27
712.239	349.27
712.682	383.87
713.126	408.87
713.569	454.77
714.012	362.07
714.456	318.47
714.899	290.77
715.342	272.17
715.786	262.77
716.229	253.07
716.672	249.67
717.115	246.27
717.558	242.97
718.002	252.27
718.445	264.98
718.888	281.67
719.331	290.97
719.774	301.67
720.217	296.87
720.66	270.77
721.103	269.67
721.546	248.38
721.989	248.57
722.432	225.17
722.874	236.07
723.317	229.98
723.76	230.57
724.203	260.97
724.645	324.48
725.088	451.47
725.531	563.47
725.974	640.17
726.416	537.27
726.859	301.88
727.301	242.67
727.744	233.38
728.187	230.88
728.629	239.07
729.071	252.67
729.514	251.77
729.956	264.77
730.399	280.37
730.841	284.88
731.283	271.88
731.726	271.58
732.168	257.47
732.61	271.57
733.053	283.17
733.495	313.97
733.937	349.88
734.379	382.07
734.821	431.48
735.263	543.88
735.705	845.57
736.148	1597.68
736.59	2577.68
737.032	2981.18
737.474	2424.97
737.916	800.17
738.357	427.07
738.799	324.17
739.241	292.47
739.683	273.57
740.125	290.37
740.567	294.97
741.008	300.57
741.45	316.67
741.892	313.98
742.334	338.27
742.775	356.17
743.217	334.27
743.658	265.57
744.1	250.97
744.542	258.87
744.983	308.67
745.425	334.57
745.866	338.37
746.307	271.77
746.749	272.07
747.19	321.77
747.632	447.77
748.073	889.07
748.514	1871.98
748.956	2812.47
749.397	3521.47
749.838	2928.98
750.279	2886.97
750.72	1463.47
751.162	546.37
751.603	324.07
752.044	250.97
752.485	209.27
752.926	209.67
753.367	200.77
753.808	200.57
754.249	186.47
754.69	189.17
755.131	181.87
755.572	179.87
756.013	183.37
756.453	177.97
756.894	190.07
757.335	189.88
757.776	190.67
758.216	192.17
758.657	194.07
759.098	203.37
759.538	216.48
759.979	262.87
760.42	377.87
760.86	716.67
761.301	1863.77
761.741	4426.57
762.182	6248.17
762.622	4387.88
763.063	1290.67
763.503	526.57
763.943	346.67
764.384	338.88
764.824	400.47
765.264	418.07
765.705	298.07
766.145	209.07
766.585	186.27
767.025	177.47
767.465	176.67
767.906	240.17
768.346	310.77
768.786	336.27
769.226	254.37
769.666	320.77
770.106	630.47
770.546	1579.38
770.986	2589.68
771.426	2321.68
771.866	790.77
772.306	325.98
772.745	206.37
773.185	176.07
773.625	170.27
774.065	166.87
774.505	196.07
774.944	313.27
775.384	690.17
775.824	1200.88
776.263	1149.07
776.703	497.38
777.142	219.98
777.582	157.57
778.021	132.77
778.461	133.47
778.9	135.17
779.34	129.07
779.779	108.47
780.219	107.07
780.658	110.97
781.097	114.47
781.537	114.87
781.976	104.77
782.415	102.47
782.855	103.77
783.294	105.67
783.733	102.57
784.172	106.77
784.611	99.87
785.05	107.87
785.489	112.07
785.928	114.77
786.367	130.47
786.806	115.67
787.245	130.17
787.684	137.57
788.123	150.27
788.562	135.27
789.001	129.47
789.44	124.47
789.879	113.37
790.317	113.97
790.756	122.97
791.195	126.27
791.634	143.97
792.072	202.17
792.511	370.27
792.95	1012.77
793.388	2110.27
793.827	1876.07
794.265	659.47
794.704	272.17
795.142	178.17
795.581	152.27
796.019	132.57
796.458	127.57
796.896	120.57
797.334	131.77
797.773	152.97
798.211	224.17
798.649	444.77
799.087	1016.77
799.526	1588.47
799.964	1991.78
800.402	1961.57
800.84	739.57
801.278	298.87
801.716	180.57
802.154	155.37
802.592	145.97
803.03	147.07
803.468	134.67
803.906	138.97
804.344	143.37
804.782	135.07
805.22	133.07
805.658	126.67
806.096	145.27
806.533	152.67
806.971	174.87
807.409	218.07
807.847	317.07
808.284	675.27
808.722	1876.47
809.16	3235.07
809.597	3123.27
810.035	5357.27
810.472	5597.77
810.91	2032.78
811.347	771.38
811.785	402.88
812.222	247.37
812.66	193.47
813.097	151.67
813.535	140.87
813.972	125.67
814.409	119.37
814.846	109.27
815.284	110.77
815.721	99.07
816.158	103.38
816.595	116.77
817.032	179.77
817.47	190.47
817.907	165.47
818.344	139.37
818.781	113.07
819.218	104.27
819.655	125.07
820.092	183.57
820.529	210.07
820.966	177.47
821.403	129.27
821.839	108.87
822.276	102.77
822.713	118.47
823.15	131.38
823.587	115.27
824.023	149.27
824.46	302.58
824.897	909.27
825.333	1336.57
825.77	566.27
826.206	224.37
826.643	130.87
827.08	101.27
827.516	81.57
827.953	78.97
828.389	80.87
828.825	64.87
829.262	65.27
829.698	60.57
830.135	64.57
830.571	68.47
831.007	63.37
831.443	60.27
831.88	60.47
832.316	59.37
832.752	62.97
833.188	64.77
833.624	65.88
834.06	61.47
834.497	66.47
834.933	74.07
835.369	81.17
835.805	69.77
836.241	74.57
836.677	84.57
837.112	93.17
837.548	102.27
837.984	129.77
838.42	198.97
838.856	498.97
839.292	1521.07
839.727	2260.68
840.163	1052.67
840.599	930.48
841.034	2018.78
841.47	2058.67
841.906	760.38
842.341	337.27
842.777	230.38
843.212	312.57
843.648	301.17
844.083	148.57
844.519	94.38
844.954	71.27
845.39	57.87
845.825	53.57
846.261	56.57
846.696	55.37
847.131	54.47
847.566	59.37
848.002	54.87
848.437	54.87
848.872	58.17
849.307	54.97
849.742	77.97
850.177	188.47
850.613	550.77
851.048	849.17
851.483	363.47
851.918	154.87
852.353	86.97
852.788	65.87
853.223	60.97
853.657	56.87
854.092	49.77
854.527	35.17
854.962	44.37
855.397	45.37
855.832	50.37
856.266	44.97
856.701	39.07
857.136	35.67
857.57	39.88
858.005	52.67
858.44	56.07
858.874	40.57
859.309	50.67
859.743	35.67
860.178	44.57
860.612	42.47
861.047	50.87
861.481	65.77
861.915	68.88
862.35	45.47
862.784	37.37
863.218	38.47
863.653	35.57
864.087	49.57
864.521	53.17
864.955	68.27
865.39	155.97
865.824	174.27
866.258	107.97
866.692	162.97
867.126	175.87
867.56	106.57
867.994	55.97
868.428	42.97
868.862	45.97
869.296	52.07
869.73	53.87
870.164	44.57
870.598	45.67
871.031	33.57
871.465	28.87
871.899	34.97
872.333	23.47
872.766	31.57
873.2	23.27
873.634	30.57
874.067	25.77
874.501	27.77
874.935	32.17
875.368	31.37
875.802	26.47
876.235	23.37
876.669	26.97
877.102	21.97
877.535	25.47
877.969	19.97
878.402	27.57
878.836	18.77
879.269	25.17
879.702	21.47
880.135	19.17
880.569	31.67
881.002	26.97
881.435	24.77
881.868	19.07
882.301	23.27
882.734	20.07
883.167	24.67
883.601	12.37
884.034	18.07
884.467	14.67
884.899	22.17
885.332	22.47
885.765	20.07
886.198	19.47
886.631	13.77
887.064	15.37
887.497	24.77
887.929	27.97
888.362	15.87
888.795	9.37
889.228	15.07
889.66	15.87
890.093	22.57
890.526	9.47
890.958	15.77
891.391	14.38
891.823	21.17
892.256	21.87
892.688	10.47
893.121	16.67
893.553	12.77
893.985	26.67
894.418	16.67
894.85	6.37
895.282	8.17
895.715	15.37
896.147	17.38
896.579	16.97
897.011	17.97
897.444	19.07
897.876	17.27
898.308	15.97
898.74	10.27
899.172	12.77
899.604	20.57
900.036	23.67
900.468	15.77
900.9	20.27
901.332	18.17
901.764	16.17
902.196	16.88
902.628	17.77
903.06	13.17
903.491	23.97
903.923	21.07
904.355	24.57
904.787	26.67
905.218	21.88
905.65	21.17
906.082	10.17
906.513	12.27
906.945	16.57
907.376	14.37
907.808	22.67
908.239	23.97
908.671	16.37
909.102	23.47
909.534	23.97
909.965	43.87
910.397	96.67
910.828	308.37
911.259	464.77
911.691	208.37
912.122	99.47
912.553	49.27
912.984	31.57
913.415	26.27
913.847	22.07
914.278	10.97
914.709	7.77
915.14	24.88
915.571	18.17
916.002	13.47
916.433	17.47
916.864	15.07
917.295	16.77
917.726	23.87
918.157	16.17
918.587	25.87
919.018	21.27
919.449	22.47
919.88	23.77
920.311	30.77
920.741	51.87
921.172	164.27
921.603	147.07
922.033	73.57
922.464	46.88
922.895	23.87
923.325	24.27
923.756	14.47
924.186	12.88
924.617	28.88
925.047	39.97
925.478	54.27
925.908	39.77
926.338	24.67
926.769	16.47
927.199	21.57
927.629	7.07
928.06	14.37
928.49	14.77
928.92	9.97
929.35	9.97
929.78	10.67
930.21	5.17
930.641	10.37
931.071	2.47
931.501	0.57
931.931	5.17
932.361	1.37
932.791	3.37
933.221	3.47
933.651	8.38
934.08	14.17
934.51	33.67
934.94	6.37
935.37	10.17
935.8	10.27
936.229	6.87
936.659	9.17
937.089	5.47
937.519	11.87
937.948	26.87
938.378	14.57
938.807	5.27
939.237	2.47
939.666	4.17
940.096	-4.73
940.525	2.27
940.955	5.77
941.384	6.77
941.814	-7.03
942.243	-0.53
942.672	-0.03
943.102	-1.73
943.531	-3.43
943.96	5.37
944.39	2.87
944.819	-3.03
945.248	5.67
945.677	-2.23
946.106	11.07
946.535	1.27
946.964	3.87
947.393	3.47
947.822	-0.23
948.251	2.67
948.68	6.17
949.109	7.37
949.538	8.57
949.967	-0.33
950.396	-2.03
950.825	-3.93
951.254	-0.23
951.682	-3.53
952.111	1.67
952.54	-0.23
952.969	-3.73
953.397	-6.03
953.826	3.67
954.254	-4.93
954.683	7.97
955.112	-6.33
955.54	-0.62
955.969	6.07
956.397	4.27
956.826	-4.63
957.254	6.47
957.682	4.67
958.111	0.27
958.539	-2.83
958.967	1.37
959.396	5.87
959.824	-0.23
960.252	0.77
960.68	-4.13
961.109	-4.83
961.537	-4.83
961.965	-2.13
962.393	-3.03
962.821	-5.83
963.249	-2.33
963.677	5.17
964.105	1.77
964.533	41.88
964.961	30.97
965.389	25.17
965.817	9.57
966.245	1.57
966.672	-1.12
967.1	-4.53
967.528	-1.33
967.956	-1.53
968.383	2.07
968.811	1.07
969.239	-2.53
969.666	-2.63
970.094	6.57
970.522	-6.13
970.949	-2.73
971.377	2.38
971.804	-3.93
972.232	-2.23
972.659	-1.13
973.087	0.27
973.514	0.87
973.941	-7.73
974.369	-0.33
974.796	2.27
975.223	-2.53
975.651	0.57
976.078	5.67
976.505	-0.43
976.932	5.27
977.359	10.27
977.786	17.17
978.214	-0.33
978.641	-5.53
979.068	0.37
979.495	-2.13
979.922	1.17
980.349	-5.33
980.776	5.27
981.202	-3.83
981.629	3.87
982.056	0.47
982.483	-4.13
982.91	5.57
983.337	-7.93
983.763	1.67
984.19	-3.53
984.617	-7.13
985.043	-4.13
985.47	1.57
985.897	-6.63
986.323	-5.63
986.75	4.67
987.176	-5.23
987.603	-1.83
988.029	-1.53
988.456	1.27
988.882	4.47
989.308	-3.73
989.735	-1.93
990.161	1.97
990.587	-6.33
991.014	-0.03
991.44	-0.33
991.866	-1.83
992.292	-3.12
992.719	-7.43
993.145	9.77
993.571	-5.73
993.997	-3.83
994.423	1.17
994.849	-7.43
995.275	0.27
995.701	-0.53
996.127	-0.03
996.553	-0.63
996.979	-9.73
997.405	-6.93
997.83	-1.93
998.256	-7.23
998.682	-5.12
999.108	-11.63
999.534	2.97
999.959	-2.03
1000.385	-2.93
1000.811	5.57
1001.236	-9.03
1001.662	-8.03
1002.087	-7.53
1002.513	-3.03
1002.938	1.07
1003.364	-0.23
1003.789	0.17
1004.215	-3.73
1004.64	-3.13
1005.066	0.47
1005.491	-0.03
1005.916	3.17
1006.342	-4.23
1006.767	-9.13
1007.192	3.77
1007.617	-0.73
1008.042	-3.83
1008.468	-4.63
1008.893	-2.53
1009.318	-1.33
1009.743	-4.13
1010.168	2.07
1010.593	-6.73
1011.018	-9.03
1011.443	-5.83
1011.868	2.88
1012.293	-0.33
1012.718	-10.03
1013.143	0.97
1013.567	-3.33
1013.992	-8.13
1014.417	-13.83
1014.842	-0.43
1015.267	-9.93
1015.691	-4.23
1016.116	6.87
1016.541	-1.03
1016.965	4.77
1017.39	-2.33
1017.814	2.88
1018.239	0.27
1018.663	-11.23
1019.088	-10.73
1019.512	-3.63
1019.937	-3.23
1020.361	-7.83
1020.785	-4.73
1021.21	-4.33
1021.634	-1.33
1022.058	-2.93
1022.483	-1.33
1022.907	-3.93
1023.331	-9.93
1023.755	-6.13
1024.179	-0.43
1024.604	-5.23
1025.028	-8.33
1025.452	-2.13
1025.876	-1.03
1026.3	-0.93
1026.724	-10.23
1027.148	-3.03
1027.572	-13.73
1027.996	-9.13
1028.42	-4.93
1028.843	-6.63
1029.267	-2.03
1029.691	-4.73
1030.115	-8.33
1030.539	-7.93
1030.962	-11.83
1031.386	-11.23
1031.81	-2.33
1032.233	-0.43
1032.657	-6.23
1033.08	-6.73
1033.504	-5.53
1033.927	-8.53
1034.351	-1.93
1034.774	-2.23
1035.198	-4.53
1035.621	-10.33
1036.045	-8.03
1036.468	-1.93
1036.891	-10.83
1037.315	-11.43
1037.738	-5.93
1038.161	1.17
1038.584	-11.63
1039.008	1.87
1039.431	-4.73
1039.854	-3.63
1040.277	-5.73
1040.7	-12.83
1041.123	-0.83
1041.546	-4.83
1041.969	-3.83
1042.392	-5.33
1042.815	-2.33
1043.238	-5.23
1043.661	1.97
1044.084	-11.63
1044.507	-6.93
1044.93	-4.63
1045.352	-9.93
1045.775	-2.03
1046.198	-6.33
1046.621	-4.93
1047.043	0.17
1047.466	5.47
1047.889	-6.33
1048.311	-12.93
1048.734	1.47
1049.156	-10.33
1049.579	-5.63
1050.001	-5.73
1050.424	-4.83
1050.846	-0.33
1051.269	-6.23
1051.691	-11.53
1052.113	-4.63
1052.536	-6.83
1052.958	-0.23
1053.38	-1.03
1053.802	-9.73
1054.225	6.87
1054.647	-10.83
1055.069	-3.03
1055.491	0.97
1055.913	-4.53
1056.335	-0.43
1056.757	-7.33
1057.179	-8.73
1057.601	-3.63
1058.023	-6.93
1058.445	-7.33
1058.867	-5.93
1059.289	-7.83
1059.711	-7.53
1060.133	-3.73
1060.555	-2.63
1060.976	-14.53
1061.398	-5.43
1061.82	-4.53
1062.241	-7.63
1062.663	-5.53
1063.085	-4.43
1063.506	0.38
1063.928	-11.13
1064.35	-4.43
1064.771	-13.93
1065.193	-0.93
1065.614	-7.43
1066.035	-8.53
1066.457	-6.93
1066.878	-0.63
1067.3	-7.43
1067.721	-7.93
1068.142	-6.03
1068.564	-2.13
1068.985	-6.43
1069.406	-6.03
1069.827	-4.33
1070.248	-0.93
1070.67	-8.13
1071.091	-11.73
1071.512	-8.13
1071.933	-1.73
1072.354	-10.93
1072.775	-8.63
1073.196	-6.53
1073.617	-4.73
1074.038	-6.93
1074.459	-5.53
1074.88	-2.23
1075.3	-6.23
1075.721	-7.33
1076.142	-0.73
1076.563	-3.23
1076.983	-10.83
1077.404	-3.73
1077.825	-6.12
1078.246	-9.53
1078.666	-11.93
1079.087	-4.03
1079.507	-3.43
1079.928	1.77
1080.348	-5.93
1080.769	-7.83
1081.189	-5.12
1081.61	-3.93
1082.03	-3.13
1082.451	-7.43
1082.871	-10.62
1083.291	-8.33
1083.711	-12.23
1084.132	-5.33
1084.552	-4.13
1084.972	-9.33
1085.392	-7.03
1085.813	-10.33
1086.233	-13.13
1086.653	-11.33
1087.073	-4.33
1087.493	-8.83
1087.913	-2.03
1088.333	-6.83
1088.753	-7.33
1089.173	2.27
1089.593	-8.93
1090.013	0.37
1090.433	0.37
1090.852	-4.23
1091.272	-4.43
1091.692	-3.33
1092.112	-4.83
1092.531	-8.23
1092.951	-16.33
1093.371	-9.23
1093.79	-1.23
1094.21	-3.23
1094.63	-4.23
1095.049	-4.83
1095.469	-4.23
1095.888	-3.23
1096.308	0.77
1096.727	-1.83
1097.146	-9.33
1097.566	-10.63
1097.985	-8.73
1098.405	3.07
1098.824	-14.63
1099.243	-4.03
1099.662	-8.63
1100.082	-3.73
1100.501	-4.73
1100.92	-10.83
1101.339	-7.13
1101.758	-5.33
