Data from 20171114-ORNL-Ar_H_NY_Subt18_08-07-09-324.txt Node
Date: Tue Nov 14 08:07:09 EST 2017
User: Ender
Spectrometer: HR+D1039
Trigger mode: 0
Integration Time (sec): 2.730000E-2
Scans to average: 10
Electric dark correction enabled: true
Nonlinearity correction enabled: false
Boxcar width: 0
XAxis mode: Wavelengths
Number of Pixels in Spectrum: 2048
>>>>>Begin Spectral Data<<<<<
187.836	-6.34
188.309	-6.34
188.782	-6.34
189.255	0.46
189.728	0.36
190.201	1.96
190.674	3.46
191.147	3.16
191.619	-4.64
192.092	2.76
192.565	6.76
193.038	-0.94
193.511	0.66
193.984	2.86
194.456	-6.34
194.929	2.06
195.402	-2.34
195.874	-3.94
196.347	-1.64
196.82	-9.24
197.292	0.96
197.765	-2.24
198.237	-3.64
198.71	2.46
199.182	-2.04
199.655	1.26
200.127	-3.34
200.6	-0.94
201.072	2.26
201.544	-6.34
202.017	-8.64
202.489	0.26
202.961	0.16
203.433	-1.84
203.906	-3.24
204.378	-2.34
204.85	-4.04
205.322	-13.74
205.794	-6.54
206.266	-10.54
206.739	-7.84
207.211	4.46
207.683	-9.14
208.155	-3.44
208.627	-8.74
209.099	-2.54
209.57	-7.04
210.042	-3.74
210.514	-1.44
210.986	0.46
211.458	-8.24
211.93	-2.64
212.402	0.86
212.873	-6.64
213.345	-8.44
213.817	-11.74
214.288	-7.94
214.76	-14.34
215.232	-7.04
215.703	3.26
216.175	-4.54
216.646	-1.04
217.118	-8.44
217.589	-2.74
218.061	-2.84
218.532	-5.34
219.004	-4.64
219.475	-7.34
219.946	-3.54
220.418	-9.14
220.889	-0.84
221.36	0.26
221.832	-2.54
222.303	-1.94
222.774	3.06
223.245	-9.54
223.717	-5.04
224.188	-7.94
224.659	-6.04
225.13	-10.84
225.601	-2.24
226.072	1.06
226.543	3.16
227.014	3.36
227.485	-0.84
227.956	-2.84
228.427	-6.84
228.898	-0.04
229.369	3.56
229.839	-2.34
230.31	-10.14
230.781	0.06
231.252	-1.84
231.722	-2.94
232.193	-5.64
232.664	0.16
233.135	-1.54
233.605	-3.94
234.076	-9.24
234.546	-2.74
235.017	0.46
235.487	-1.74
235.958	-3.94
236.428	-6.04
236.899	-3.14
237.369	-4.54
237.84	-7.24
238.31	-1.24
238.78	1.36
239.251	-9.44
239.721	-6.74
240.191	-5.24
240.662	-1.24
241.132	-7.94
241.602	-4.54
242.072	-2.84
242.542	-4.54
243.013	-8.14
243.483	1.66
243.953	-0.74
244.423	-8.04
244.893	-3.84
245.363	1.66
245.833	-2.64
246.303	-5.14
246.773	1.26
247.243	1.26
247.712	-2.94
248.182	6.96
248.652	2.26
249.122	-4.74
249.592	-4.24
250.061	1.76
250.531	4.66
251.001	-1.24
251.471	3.16
251.94	8.56
252.41	-4.54
252.879	-10.94
253.349	7.86
253.818	0.46
254.288	0.36
254.757	4.16
255.227	-7.84
255.696	0.76
256.166	2.36
256.635	0.56
257.105	3.16
257.574	-1.04
258.043	-3.74
258.513	-4.14
258.982	-4.14
259.451	-4.54
259.92	-0.44
260.389	-0.24
260.859	13.46
261.328	7.16
261.797	-1.24
262.266	0.26
262.735	10.96
263.204	-0.04
263.673	-5.14
264.142	0.66
264.611	-10.84
265.08	-0.94
265.549	-2.04
266.018	6.06
266.487	-4.34
266.955	-6.64
267.424	-9.44
267.893	-1.14
268.362	-2.54
268.83	-5.44
269.299	7.86
269.768	-1.54
270.236	3.26
270.705	-4.64
271.174	1.76
271.642	5.56
272.111	5.66
272.579	1.66
273.048	3.16
273.516	-3.04
273.985	3.36
274.453	11.26
274.922	12.36
275.39	4.16
275.858	-4.04
276.327	0.16
276.795	12.76
277.263	-2.64
277.731	6.46
278.2	7.86
278.668	3.06
279.136	3.46
279.604	1.96
280.072	5.36
280.54	4.86
281.008	0.76
281.477	8.36
281.945	5.86
282.413	9.06
282.881	11.36
283.348	-1.44
283.816	11.56
284.284	9.56
284.752	8.86
285.22	7.26
285.688	10.86
286.156	6.96
286.623	11.76
287.091	4.16
287.559	11.16
288.026	9.76
288.494	9.76
288.962	-0.24
289.429	1.16
289.897	4.56
290.364	7.06
290.832	12.96
291.3	11.16
291.767	12.06
292.234	13.36
292.702	4.76
293.169	9.06
293.637	15.56
294.104	9.06
294.571	7.26
295.039	14.16
295.506	6.86
295.973	3.56
296.44	12.16
296.908	7.26
297.375	7.66
297.842	12.16
298.309	6.86
298.776	7.46
299.243	11.66
299.71	6.56
300.177	17.86
300.644	15.26
301.111	17.86
301.578	12.16
302.045	10.36
302.512	18.76
302.979	20.06
303.446	14.16
303.913	14.96
304.379	13.56
304.846	21.26
305.313	13.16
305.78	15.76
306.246	18.06
306.713	16.96
307.18	14.76
307.646	18.86
308.113	20.26
308.579	17.46
309.046	22.96
309.512	20.66
309.979	14.66
310.445	22.96
310.912	25.16
311.378	24.56
311.845	22.86
312.311	23.96
312.777	27.96
313.244	28.76
313.71	31.36
314.176	22.16
314.642	18.46
315.109	23.96
315.575	32.06
316.041	30.16
316.507	16.36
316.973	26.06
317.439	28.46
317.905	27.46
318.371	30.36
318.837	24.86
319.303	21.66
319.769	28.46
320.235	24.76
320.701	28.36
321.167	32.56
321.633	24.96
322.099	28.26
322.564	35.96
323.03	30.96
323.496	31.76
323.962	32.36
324.427	28.16
324.893	32.76
325.359	32.96
325.824	33.36
326.29	29.36
326.755	30.06
327.221	32.56
327.686	29.46
328.152	41.26
328.617	31.96
329.083	41.86
329.548	42.56
330.014	41.16
330.479	30.06
330.944	33.46
331.41	31.86
331.875	37.76
332.34	38.96
332.805	35.16
333.271	33.46
333.736	32.96
334.201	41.36
334.666	45.26
335.131	42.66
335.596	38.56
336.061	43.56
336.526	35.16
336.991	38.16
337.456	51.86
337.921	44.06
338.386	42.76
338.851	38.96
339.316	40.76
339.781	39.46
340.246	45.56
340.711	41.26
341.175	46.56
341.64	32.26
342.105	49.06
342.569	49.06
343.034	49.96
343.499	45.86
343.963	44.26
344.428	59.96
344.893	49.36
345.357	58.46
345.822	58.16
346.286	58.06
346.751	61.86
347.215	57.86
347.679	57.56
348.144	73.96
348.608	72.46
349.073	59.46
349.537	63.76
350.001	71.36
350.465	72.56
350.93	66.16
351.394	70.86
351.858	67.56
352.322	76.26
352.786	71.46
353.25	77.66
353.715	91.86
354.179	83.36
354.643	92.96
355.107	100.46
355.571	86.06
356.035	87.56
356.498	90.36
356.962	97.86
357.426	107.66
357.89	99.96
358.354	73.36
358.818	74.86
359.281	69.76
359.745	72.36
360.209	68.76
360.673	71.16
361.136	73.46
361.6	82.46
362.064	77.16
362.527	75.06
362.991	83.46
363.454	69.76
363.918	70.76
364.381	69.06
364.845	76.96
365.308	77.06
365.772	80.96
366.235	71.86
366.698	72.96
367.162	76.76
367.625	75.76
368.088	78.86
368.552	78.16
369.015	84.16
369.478	80.46
369.941	92.86
370.404	92.76
370.867	89.06
371.331	93.86
371.794	93.96
372.257	85.56
372.72	95.36
373.183	93.86
373.646	83.26
374.109	89.86
374.572	101.36
375.035	92.56
375.497	96.16
375.96	98.56
376.423	103.96
376.886	105.56
377.349	99.86
377.811	94.96
378.274	96.36
378.737	96.26
379.199	97.46
379.662	101.86
380.125	100.16
380.587	93.36
381.05	105.96
381.512	107.46
381.975	114.46
382.437	114.36
382.9	112.76
383.362	120.36
383.825	122.26
384.287	123.06
384.75	106.36
385.212	111.46
385.674	124.06
386.136	122.16
386.599	112.36
387.061	120.36
387.523	110.56
387.985	121.26
388.447	125.86
388.91	114.06
389.372	121.26
389.834	126.66
390.296	120.16
390.758	121.96
391.22	133.66
391.682	138.36
392.144	138.86
392.606	135.96
393.068	134.76
393.529	146.26
393.991	134.26
394.453	127.26
394.915	133.36
395.377	120.46
395.838	130.06
396.3	128.46
396.762	135.06
397.224	128.66
397.685	126.16
398.147	135.26
398.608	135.26
399.07	130.36
399.531	129.86
399.993	137.36
400.454	150.86
400.916	143.46
401.377	146.36
401.839	151.76
402.3	154.16
402.762	168.06
403.223	171.46
403.684	165.66
404.145	152.86
404.607	156.66
405.068	162.46
405.529	164.06
405.99	182.36
406.451	177.66
406.913	171.96
407.374	156.86
407.835	164.26
408.296	162.56
408.757	177.56
409.218	181.86
409.679	177.36
410.14	176.16
410.601	169.96
411.062	179.26
411.522	180.16
411.983	176.56
412.444	169.26
412.905	187.76
413.366	187.16
413.826	200.76
414.287	223.06
414.748	276.16
415.208	255.46
415.669	219.46
416.13	214.16
416.59	211.96
417.051	228.16
417.511	220.36
417.972	241.26
418.432	252.26
418.893	291.56
419.353	258.36
419.814	206.56
420.274	191.06
420.734	181.76
421.195	198.86
421.655	191.96
422.115	198.46
422.576	199.46
423.036	204.86
423.496	211.56
423.956	217.36
424.416	243.76
424.876	276.46
425.336	269.96
425.797	262.66
426.257	262.36
426.717	244.96
427.177	236.26
427.637	227.76
428.097	232.46
428.556	243.66
429.016	265.46
429.476	260.26
429.936	271.36
430.396	277.96
430.856	288.66
431.315	308.56
431.775	339.16
432.235	373.76
432.694	349.36
433.154	354.36
433.614	381.36
434.073	335.56
434.533	279.36
434.993	273.06
435.452	277.46
435.912	288.76
436.371	290.96
436.83	276.56
437.29	265.96
437.749	246.06
438.209	255.06
438.668	282.96
439.127	281.36
439.587	264.86
440.046	251.76
440.505	265.06
440.964	282.56
441.424	322.46
441.883	305.76
442.342	263.56
442.801	235.06
443.26	233.26
443.719	235.06
444.178	229.76
444.637	220.26
445.096	238.46
445.555	230.96
446.014	233.06
446.473	234.96
446.932	246.56
447.391	237.86
447.849	237.06
448.308	222.86
448.767	231.06
449.226	249.46
449.685	255.66
450.143	261.56
450.602	254.26
451.061	237.56
451.519	242.56
451.978	246.96
452.436	248.36
452.895	253.66
453.353	259.66
453.812	249.36
454.27	251.86
454.729	249.56
455.187	244.76
455.646	257.56
456.104	251.16
456.562	273.06
457.021	285.56
457.479	269.46
457.937	283.76
458.395	275.16
458.854	267.86
459.312	274.36
459.77	289.76
460.228	269.36
460.686	259.66
461.144	262.56
461.602	252.96
462.06	258.36
462.518	270.36
462.976	269.26
463.434	273.36
463.892	283.96
464.35	290.66
464.808	288.66
465.266	284.76
465.724	283.56
466.181	287.16
466.639	281.76
467.097	302.46
467.555	320.46
468.012	310.86
468.47	337.26
468.928	347.56
469.385	356.96
469.843	366.66
470.3	362.26
470.758	382.36
471.215	404.76
471.673	422.06
472.13	421.56
472.588	432.06
473.045	397.76
473.503	396.76
473.96	413.66
474.417	424.96
474.875	450.26
475.332	496.66
475.789	486.16
476.246	485.46
476.704	507.06
477.161	516.46
477.618	547.16
478.075	583.46
478.532	634.46
478.989	707.26
479.446	807.06
479.903	782.96
480.36	806.46
480.817	850.86
481.274	942.76
481.731	1039.36
482.188	1119.66
482.645	1246.26
483.102	1334.06
483.558	1456.36
484.015	1506.66
484.472	1468.46
484.929	1441.06
485.385	1386.16
485.842	1350.86
486.299	1314.16
486.755	1260.86
487.212	1077.56
487.668	921.36
488.125	849.76
488.582	791.06
489.038	757.86
489.494	725.96
489.951	706.46
490.407	695.66
490.864	670.36
491.32	661.16
491.776	667.66
492.233	674.06
492.689	640.86
493.145	632.46
493.602	627.76
494.058	645.36
494.514	631.36
494.97	663.76
495.426	676.36
495.882	647.16
496.338	642.76
496.794	641.66
497.251	652.96
497.707	658.16
498.163	656.56
498.618	674.86
499.074	668.46
499.53	698.06
499.986	695.96
500.442	663.26
500.898	652.66
501.354	651.26
501.809	658.86
502.265	661.06
502.721	660.76
503.177	667.66
503.632	672.66
504.088	677.66
504.543	693.46
504.999	716.26
505.455	693.56
505.91	662.96
506.366	664.76
506.821	663.96
507.277	666.26
507.732	665.06
508.187	673.26
508.643	673.86
509.098	673.56
509.553	687.66
510.009	705.06
510.464	711.46
510.919	728.56
511.375	730.66
511.83	751.26
512.285	767.56
512.74	796.16
513.195	817.86
513.65	799.36
514.105	798.66
514.56	820.06
515.015	823.86
515.47	834.36
515.925	818.06
516.38	813.06
516.835	839.06
517.29	815.26
517.745	822.06
518.2	803.16
518.655	793.06
519.109	787.06
519.564	782.76
520.019	760.56
520.474	758.66
520.928	765.66
521.383	755.36
521.838	756.66
522.292	743.06
522.747	749.76
523.201	742.26
523.656	731.36
524.11	735.16
524.565	729.76
525.019	727.76
525.474	739.16
525.928	740.36
526.382	736.26
526.837	735.46
527.291	740.96
527.745	740.66
528.2	741.56
528.654	722.16
529.108	723.76
529.562	725.96
530.016	729.76
530.47	728.76
530.925	724.56
531.379	729.26
531.833	737.16
532.287	734.76
532.741	737.86
533.195	749.36
533.649	741.36
534.103	753.16
534.556	735.96
535.01	751.36
535.464	745.26
535.918	753.16
536.372	744.96
536.826	756.26
537.279	741.26
537.733	751.96
538.187	752.76
538.64	746.96
539.094	762.96
539.548	765.16
540.001	761.56
540.455	763.86
540.908	771.66
541.362	769.76
541.815	784.36
542.269	803.56
542.722	802.66
543.175	807.36
543.629	811.06
544.082	827.66
544.536	827.66
544.989	826.06
545.442	839.16
545.895	844.16
546.349	843.96
546.802	830.46
547.255	843.96
547.708	853.96
548.161	854.66
548.614	863.66
549.067	873.06
549.52	868.86
549.973	866.16
550.426	861.26
550.879	848.06
551.332	850.16
551.785	852.86
552.238	853.86
552.691	864.86
553.144	884.36
553.596	893.36
554.049	921.46
554.502	935.96
554.955	957.16
555.407	953.86
555.86	942.36
556.313	938.76
556.765	937.46
557.218	936.56
557.67	925.66
558.123	918.06
558.576	919.16
559.028	924.06
559.48	930.16
559.933	914.56
560.385	882.86
560.838	861.36
561.29	848.96
561.742	830.26
562.195	807.26
562.647	800.66
563.099	817.66
563.551	818.16
564.004	828.86
564.456	808.76
564.908	799.86
565.36	785.96
565.812	770.76
566.264	759.26
566.716	751.96
567.168	737.06
567.62	744.76
568.072	741.36
568.524	733.06
568.976	731.26
569.428	720.36
569.88	713.36
570.332	716.46
570.784	725.26
571.235	725.86
571.687	731.86
572.139	736.96
572.59	755.86
573.042	751.66
573.494	753.16
573.945	746.06
574.397	727.36
574.849	727.56
575.3	726.46
575.752	720.16
576.203	714.06
576.655	717.26
577.106	714.16
577.557	701.56
578.009	710.36
578.46	704.96
578.912	696.56
579.363	700.16
579.814	705.36
580.265	702.76
580.717	703.26
581.168	709.76
581.619	710.96
582.07	720.16
582.521	720.26
582.972	699.76
583.423	710.56
583.875	708.66
584.326	725.36
584.777	733.46
585.227	750.06
585.678	765.26
586.129	773.36
586.58	794.26
587.031	811.76
587.482	847.16
587.933	873.06
588.384	858.76
588.834	820.26
589.285	813.96
589.736	809.76
590.186	812.36
590.637	808.26
591.088	785.46
591.538	767.46
591.989	763.16
592.439	760.66
592.89	749.06
593.34	740.76
593.791	733.96
594.241	734.26
594.692	730.16
595.142	727.46
595.593	728.56
596.043	734.86
596.493	732.16
596.943	744.96
597.394	764.66
597.844	751.26
598.294	770.76
598.744	790.56
599.195	824.46
599.645	857.96
600.095	906.86
600.545	965.16
600.995	1017.46
601.445	1070.16
601.895	1142.46
602.345	1189.06
602.795	1165.36
603.245	1127.66
603.695	1072.26
604.145	1010.76
604.594	955.86
605.044	917.36
605.494	841.26
605.944	803.36
606.393	777.06
606.843	765.26
607.293	768.16
607.743	768.66
608.192	773.36
608.642	783.76
609.091	794.16
609.541	787.76
609.99	795.16
610.44	786.86
610.889	752.56
611.339	723.66
611.788	711.46
612.238	725.56
612.687	724.26
613.136	723.06
613.586	731.96
614.035	723.46
614.484	740.56
614.933	746.56
615.383	730.46
615.832	735.66
616.281	730.16
616.73	698.96
617.179	677.96
617.628	661.96
618.077	660.06
618.526	646.46
618.975	644.96
619.424	643.56
619.873	640.16
620.322	641.36
620.771	630.36
621.22	626.86
621.669	624.66
622.118	616.76
622.567	606.56
623.015	591.26
623.464	590.96
623.913	587.86
624.361	573.66
624.81	580.66
625.259	578.96
625.707	576.66
626.156	589.06
626.604	596.76
627.053	584.76
627.501	597.36
627.95	600.86
628.398	610.16
628.847	599.86
629.295	598.86
629.744	594.86
630.192	594.76
630.64	580.66
631.089	575.66
631.537	562.16
631.985	555.26
632.433	553.46
632.881	543.66
633.33	554.86
633.778	541.76
634.226	551.66
634.674	554.76
635.122	564.66
635.57	573.96
636.018	584.26
636.466	580.06
636.914	586.06
637.362	591.26
637.81	602.46
638.258	607.56
638.705	604.56
639.153	650.56
639.601	641.76
640.049	662.96
640.497	708.26
640.944	731.46
641.392	672.16
641.84	639.26
642.287	614.46
642.735	585.66
643.182	580.16
643.63	577.86
644.078	583.06
644.525	590.06
644.973	599.86
645.42	617.86
645.867	635.16
646.315	656.46
646.762	676.26
647.21	704.96
647.657	726.16
648.104	760.66
648.551	776.56
648.999	831.66
649.446	910.36
649.893	994.16
650.34	1141.16
650.787	1351.66
651.234	1644.36
651.682	2140.46
652.129	2880.56
652.576	4117.76
653.023	6007.06
653.47	8126.66
653.917	10055.96
654.363	11609.26
654.81	12813.26
655.257	12152.26
655.704	8072.56
656.151	4835.66
656.598	3188.36
657.044	2288.76
657.491	1783.96
657.938	1429.66
658.385	1220.46
658.831	1066.86
659.278	953.16
659.724	853.06
660.171	786.36
660.618	731.06
661.064	696.86
661.511	675.66
661.957	657.96
662.404	645.46
662.85	660.16
663.296	636.56
663.743	578.76
664.189	553.46
664.635	543.16
665.082	550.26
665.528	539.46
665.974	533.86
666.42	521.36
666.867	523.16
667.313	502.36
667.759	480.96
668.205	470.56
668.651	466.86
669.097	464.76
669.543	452.46
669.989	461.76
670.435	466.96
670.881	459.16
671.327	461.36
671.773	488.76
672.219	515.36
672.665	572.76
673.11	607.56
673.556	650.66
674.002	696.06
674.448	679.96
674.893	579.86
675.339	501.46
675.785	466.86
676.23	431.76
676.676	418.76
677.122	410.16
677.567	394.96
678.013	387.06
678.458	376.56
678.904	378.56
679.349	370.66
679.794	370.66
680.24	371.96
680.685	366.66
681.131	363.76
681.576	365.56
682.021	366.86
682.466	366.16
682.912	362.56
683.357	371.16
683.802	393.66
684.247	422.06
684.692	472.06
685.137	517.66
685.583	555.86
686.028	589.66
686.473	541.76
686.918	466.56
687.363	435.06
687.807	414.76
688.252	390.06
688.697	365.36
689.142	345.56
689.587	350.06
690.032	341.76
690.477	359.66
690.921	371.66
691.366	399.86
691.811	424.76
692.255	452.16
692.7	479.36
693.145	527.66
693.589	740.46
694.034	1199.96
694.478	1627.06
694.923	1828.36
695.367	2385.16
695.812	1251.66
696.256	522.86
696.701	386.46
697.145	361.26
697.59	347.86
698.034	332.16
698.478	341.06
698.922	332.76
699.367	329.46
699.811	343.96
700.255	366.36
700.699	401.66
701.143	449.36
701.588	494.36
702.032	538.06
702.476	537.66
702.92	513.56
703.364	516.26
703.808	671.66
704.252	1097.66
704.696	1539.06
705.14	1755.86
705.584	2250.66
706.027	1127.96
706.471	559.16
706.915	423.36
707.359	369.06
707.803	342.06
708.246	326.26
708.69	319.66
709.134	327.86
709.577	324.76
710.021	328.46
710.465	323.56
710.908	314.26
711.352	309.16
711.795	326.56
712.239	364.66
712.682	408.16
713.126	440.76
713.569	472.26
714.012	372.76
714.456	320.46
714.899	295.66
715.342	287.06
715.786	270.86
716.229	270.46
716.672	275.16
717.115	262.86
717.558	260.86
718.002	265.46
718.445	279.46
718.888	291.86
719.331	310.06
719.774	322.26
720.217	313.76
720.66	301.86
721.103	274.36
721.546	261.26
721.989	258.16
722.432	241.86
722.874	241.86
723.317	238.86
723.76	242.16
724.203	261.16
724.645	327.86
725.088	460.06
725.531	602.96
725.974	676.36
726.416	577.66
726.859	321.86
727.301	254.66
727.744	256.76
728.187	243.66
728.629	254.26
729.071	255.26
729.514	265.26
729.956	280.36
730.399	295.56
730.841	303.86
731.283	282.46
731.726	281.86
732.168	277.96
732.61	281.06
733.053	300.16
733.495	335.76
733.937	374.86
734.379	418.46
734.821	454.76
735.263	578.86
735.705	884.26
736.148	1683.36
736.59	2748.66
737.032	3232.16
737.474	2620.16
737.916	865.06
738.357	447.26
738.799	355.86
739.241	317.86
739.683	304.06
740.125	304.96
740.567	308.66
741.008	327.06
741.45	328.66
741.892	330.96
742.334	367.06
742.775	381.76
743.217	364.06
743.658	288.46
744.1	270.36
744.542	273.16
744.983	334.96
745.425	371.46
745.866	359.26
746.307	299.16
746.749	290.56
747.19	333.76
747.632	487.96
748.073	949.26
748.514	1985.36
748.956	3016.16
749.397	3809.66
749.838	3137.56
750.279	3095.56
750.72	1580.76
751.162	585.76
751.603	342.06
752.044	267.46
752.485	232.46
752.926	222.36
753.367	217.76
753.808	204.06
754.249	206.26
754.69	195.36
755.131	189.06
755.572	183.06
756.013	191.56
756.453	196.76
756.894	196.86
757.335	201.06
757.776	216.66
758.216	207.56
758.657	204.36
759.098	205.36
759.538	234.06
759.979	287.46
760.42	403.16
760.86	762.16
761.301	1955.16
761.741	4738.26
762.182	6758.56
762.622	4791.46
763.063	1387.76
763.503	559.66
763.943	342.16
764.384	277.86
764.824	246.06
765.264	231.36
765.705	214.86
766.145	193.26
766.585	182.06
767.025	178.26
767.465	170.76
767.906	185.46
768.346	190.66
768.786	203.36
769.226	225.76
769.666	320.46
770.106	655.16
770.546	1659.46
770.986	2797.46
771.426	2500.66
771.866	833.66
772.306	343.96
772.745	214.46
773.185	174.46
773.625	157.66
774.065	154.26
774.505	169.36
774.944	213.16
775.384	375.96
775.824	604.26
776.263	587.56
776.703	286.26
777.142	163.16
777.582	142.16
778.021	129.76
778.461	127.86
778.9	129.36
779.34	134.66
779.779	120.36
780.219	115.46
780.658	109.96
781.097	109.76
781.537	120.76
781.976	110.76
782.415	106.66
782.855	104.56
783.294	106.76
783.733	106.56
784.172	109.96
784.611	107.66
785.05	108.76
785.489	118.56
785.928	123.96
786.367	124.36
786.806	122.16
787.245	144.76
787.684	146.66
788.123	158.66
788.562	143.56
789.001	134.46
789.44	131.36
789.879	125.06
790.317	124.36
790.756	132.46
791.195	130.36
791.634	150.26
792.072	217.36
792.511	390.16
792.95	1055.26
793.388	2222.86
793.827	2007.76
794.265	701.36
794.704	296.36
795.142	194.56
795.581	159.46
796.019	142.56
796.458	138.76
796.896	132.96
797.334	138.66
797.773	159.76
798.211	233.96
798.649	462.26
799.087	1082.16
799.526	1686.36
799.964	2143.76
800.402	2114.86
800.84	796.06
801.278	319.86
801.716	193.36
802.154	156.26
802.592	151.26
803.03	155.06
803.468	139.86
803.906	155.06
804.344	158.46
804.782	149.86
805.22	140.96
805.658	141.26
806.096	159.26
806.533	164.86
806.971	185.96
807.409	232.96
807.847	333.86
808.284	708.96
808.722	1998.66
809.16	3482.36
809.597	3345.86
810.035	5780.36
810.472	6105.96
810.91	2226.06
811.347	841.06
811.785	430.46
812.222	263.46
812.66	208.46
813.097	174.16
813.535	151.16
813.972	146.16
814.409	135.26
814.846	112.26
815.284	112.66
815.721	107.06
816.158	108.76
816.595	113.86
817.032	162.86
817.47	194.46
817.907	144.36
818.344	105.86
818.781	98.16
819.218	96.66
819.655	132.46
820.092	199.16
820.529	225.86
820.966	179.16
821.403	133.66
821.839	95.96
822.276	104.36
822.713	133.36
823.15	148.86
823.587	124.46
824.023	156.76
824.46	324.16
824.897	965.36
825.333	1431.06
825.77	609.26
826.206	240.56
826.643	147.36
827.08	104.76
827.516	85.36
827.953	85.36
828.389	88.96
828.825	67.36
829.262	69.66
829.698	71.46
830.135	71.86
830.571	65.66
831.007	66.46
831.443	70.76
831.88	61.96
832.316	66.16
832.752	65.76
833.188	62.96
833.624	65.86
834.06	68.16
834.497	66.66
834.933	76.36
835.369	80.66
835.805	75.76
836.241	75.06
836.677	93.46
837.112	92.36
837.548	107.96
837.984	140.96
838.42	212.16
838.856	540.76
839.292	1606.86
839.727	2449.36
840.163	1138.76
840.599	997.96
841.034	2148.76
841.47	2228.36
841.906	817.56
842.341	345.76
842.777	204.76
843.212	211.66
843.648	191.76
844.083	116.26
844.519	79.56
844.954	71.36
845.39	59.96
845.825	53.76
846.261	53.06
846.696	57.76
847.131	54.16
847.566	53.96
848.002	57.56
848.437	60.76
848.872	64.76
849.307	61.16
849.742	90.46
850.177	189.76
850.613	585.36
851.048	923.46
851.483	401.86
851.918	158.76
852.353	86.46
852.788	49.86
853.223	51.36
853.657	49.16
854.092	44.16
854.527	46.46
854.962	38.96
855.397	44.96
855.832	50.46
856.266	39.36
856.701	42.46
857.136	37.26
857.57	48.16
858.005	44.76
858.44	62.76
858.874	55.26
859.309	55.16
859.743	40.36
860.178	49.16
860.612	43.26
861.047	62.56
861.481	71.56
861.915	79.66
862.35	51.26
862.784	34.66
863.218	39.16
863.653	32.86
864.087	46.66
864.521	56.86
864.955	63.36
865.39	166.36
865.824	180.26
866.258	120.26
866.692	178.26
867.126	200.26
867.56	113.16
867.994	58.56
868.428	38.46
868.862	49.96
869.296	58.76
869.73	63.36
870.164	60.36
870.598	49.76
871.031	35.66
871.465	33.96
871.899	30.36
872.333	24.96
872.766	24.06
873.2	26.06
873.634	27.16
874.067	26.06
874.501	30.86
874.935	31.96
875.368	27.46
875.802	26.66
876.235	28.86
876.669	24.06
877.102	21.46
877.535	24.86
877.969	24.86
878.402	24.46
878.836	20.56
879.269	25.26
879.702	28.26
880.135	23.96
880.569	20.26
881.002	25.66
881.435	25.46
881.868	14.96
882.301	22.06
882.734	14.56
883.167	19.46
883.601	18.26
884.034	22.36
884.467	13.36
884.899	19.56
885.332	16.36
885.765	14.06
886.198	15.96
886.631	16.06
887.064	19.96
887.497	27.86
887.929	27.06
888.362	15.36
888.795	12.96
889.228	20.66
889.66	21.56
890.093	21.76
890.526	18.76
890.958	19.46
891.391	13.46
891.823	19.56
892.256	14.26
892.688	19.06
893.121	15.06
893.553	18.16
893.985	23.46
894.418	16.36
894.85	10.86
895.282	15.26
895.715	23.16
896.147	19.96
896.579	21.26
897.011	14.56
897.444	14.86
897.876	15.36
898.308	14.16
898.74	8.56
899.172	9.86
899.604	26.46
900.036	21.46
900.468	16.66
900.9	16.96
901.332	19.26
901.764	12.26
902.196	19.36
902.628	16.36
903.06	19.66
903.491	28.86
903.923	26.66
904.355	20.56
904.787	28.36
905.218	21.06
905.65	15.56
906.082	18.06
906.513	12.56
906.945	21.96
907.376	16.86
907.808	19.06
908.239	22.46
908.671	16.66
909.102	26.36
909.534	26.36
909.965	46.46
910.397	102.76
910.828	338.56
911.259	499.26
911.691	228.56
912.122	114.96
912.553	60.86
912.984	37.16
913.415	22.86
913.847	21.06
914.278	13.16
914.709	19.86
915.14	16.16
915.571	21.46
916.002	15.46
916.433	20.56
916.864	20.46
917.295	12.36
917.726	23.66
918.157	18.46
918.587	32.56
919.018	26.96
919.449	23.56
919.88	20.26
920.311	33.96
920.741	49.86
921.172	172.46
921.603	159.86
922.033	79.66
922.464	50.76
922.895	24.26
923.325	24.36
923.756	16.16
924.186	13.06
924.617	12.76
925.047	20.46
925.478	23.56
925.908	21.26
926.338	12.46
926.769	9.36
927.199	19.16
927.629	4.26
928.06	13.66
928.49	8.56
928.92	15.36
929.35	13.56
929.78	9.76
930.21	10.26
930.641	6.46
931.071	9.46
931.501	4.06
931.931	6.56
932.361	5.46
932.791	4.16
933.221	9.26
933.651	1.16
934.08	20.36
934.51	29.86
934.94	8.56
935.37	16.46
935.8	10.56
936.229	9.66
936.659	6.46
937.089	1.66
937.519	12.56
937.948	26.06
938.378	24.26
938.807	1.06
939.237	4.26
939.666	4.66
940.096	1.06
940.525	7.06
940.955	-3.44
941.384	5.96
941.814	-5.04
942.243	-3.74
942.672	1.06
943.102	-1.34
943.531	-0.34
943.96	8.66
944.39	4.76
944.819	1.66
945.248	1.26
945.677	2.36
946.106	4.26
946.535	12.06
946.964	1.46
947.393	7.46
947.822	-1.64
948.251	-6.74
948.68	4.96
949.109	5.96
949.538	7.56
949.967	2.36
950.396	5.56
950.825	2.36
951.254	4.56
951.682	-6.84
952.111	3.76
952.54	9.16
952.969	-6.24
953.397	-4.34
953.826	1.76
954.254	-8.24
954.683	1.16
955.112	-3.24
955.54	-0.24
955.969	-3.24
956.397	1.66
956.826	-4.24
957.254	-0.04
957.682	1.56
958.111	3.16
958.539	-5.54
958.967	6.86
959.396	3.46
959.824	0.76
960.252	8.36
960.68	1.46
961.109	-7.14
961.537	-0.04
961.965	-1.64
962.393	-2.14
962.821	4.26
963.249	-0.74
963.677	2.46
964.105	9.76
964.533	49.16
964.961	44.76
965.389	25.26
965.817	13.06
966.245	1.76
966.672	2.16
967.1	-5.74
967.528	-1.94
967.956	-3.84
968.383	-1.54
968.811	2.96
969.239	-0.04
969.666	-2.74
970.094	-5.24
970.522	3.06
970.949	-3.54
971.377	-3.04
971.804	1.66
972.232	-6.84
972.659	-5.24
973.087	-5.24
973.514	-3.54
973.941	-5.74
974.369	4.16
974.796	1.56
975.223	0.76
975.651	-4.34
976.078	5.66
976.505	-0.74
976.932	9.06
977.359	19.96
977.786	17.56
978.214	-1.24
978.641	-2.44
979.068	-1.64
979.495	-5.54
979.922	-2.44
980.349	-4.74
980.776	0.46
981.202	1.56
981.629	8.06
982.056	4.16
982.483	-0.24
982.91	1.06
983.337	-9.04
983.763	3.46
984.19	-0.94
984.617	-0.24
985.043	-4.24
985.47	-4.94
985.897	-4.44
986.323	-6.44
986.75	0.66
987.176	-3.94
987.603	-4.64
988.029	3.86
988.456	-3.34
988.882	0.16
989.308	-8.64
989.735	-5.94
990.161	-0.04
990.587	-2.24
991.014	-0.24
991.44	5.26
991.866	-4.84
992.292	-4.44
992.719	-5.44
993.145	6.96
993.571	-9.54
993.997	-2.94
994.423	0.56
994.849	-6.14
995.275	3.86
995.701	0.36
996.127	-2.34
996.553	2.86
996.979	-4.64
997.405	-2.14
997.83	-8.94
998.256	-6.74
998.682	-9.54
999.108	-10.44
999.534	-3.84
999.959	0.26
1000.385	-6.14
1000.811	3.76
1001.236	-10.14
1001.662	-8.14
1002.087	-9.94
1002.513	0.56
1002.938	-2.54
1003.364	-6.34
1003.789	1.16
1004.215	2.06
1004.64	-3.64
1005.066	6.66
1005.491	-2.44
1005.916	0.26
1006.342	-0.24
1006.767	-4.34
1007.192	7.36
1007.617	-6.54
1008.042	-3.24
1008.468	-6.24
1008.893	-4.64
1009.318	-1.34
1009.743	-6.14
1010.168	-1.64
1010.593	5.46
1011.018	-4.94
1011.443	-1.94
1011.868	0.66
1012.293	-3.94
1012.718	-4.94
1013.143	-2.44
1013.567	-0.44
1013.992	-5.54
1014.417	-7.94
1014.842	-3.94
1015.267	-8.04
1015.691	-2.94
1016.116	5.16
1016.541	-3.04
1016.965	4.96
1017.39	-2.54
1017.814	3.46
1018.239	1.66
1018.663	-1.64
1019.088	-9.84
1019.512	-7.64
1019.937	1.16
1020.361	-7.04
1020.785	-13.64
1021.21	-2.34
1021.634	-4.84
1022.058	1.16
1022.483	2.46
1022.907	-5.64
1023.331	-3.34
1023.755	-2.74
1024.179	-0.74
1024.604	-7.74
1025.028	-12.94
1025.452	-4.44
1025.876	-0.14
1026.3	-3.64
1026.724	-10.64
1027.148	-5.44
1027.572	-6.94
1027.996	-4.54
1028.42	-1.04
1028.843	-8.24
1029.267	-1.84
1029.691	0.16
1030.115	-9.94
1030.539	-7.64
1030.962	-7.54
1031.386	-15.14
1031.81	4.36
1032.233	-2.54
1032.657	0.06
1033.08	-5.04
1033.504	-6.54
1033.927	-6.04
1034.351	-5.44
1034.774	-5.14
1035.198	-5.54
1035.621	-6.74
1036.045	-4.74
1036.468	-0.34
1036.891	-9.64
1037.315	-10.84
1037.738	-15.54
1038.161	-0.14
1038.584	-5.14
1039.008	-9.54
1039.431	1.96
1039.854	0.56
1040.277	-7.64
1040.7	-13.24
1041.123	1.16
1041.546	-9.64
1041.969	-2.84
1042.392	-5.54
1042.815	-1.44
1043.238	3.76
1043.661	1.86
1044.084	-4.84
1044.507	-5.64
1044.93	-5.54
1045.352	-4.84
1045.775	-6.44
1046.198	-4.74
1046.621	-8.24
1047.043	-1.74
1047.466	4.06
1047.889	-1.94
1048.311	-3.84
1048.734	-9.54
1049.156	-6.84
1049.579	-4.04
1050.001	-5.34
1050.424	-0.84
1050.846	0.36
1051.269	-1.54
1051.691	-4.04
1052.113	-3.14
1052.536	-1.34
1052.958	1.56
1053.38	-9.94
1053.802	-11.34
1054.225	-2.04
1054.647	-8.24
1055.069	-4.04
1055.491	-0.64
1055.913	-5.24
1056.335	1.56
1056.757	-3.54
1057.179	-6.34
1057.601	-0.44
1058.023	-5.04
1058.445	-6.44
1058.867	-1.94
1059.289	-6.04
1059.711	-4.64
1060.133	-2.94
1060.555	-7.94
1060.976	1.16
1061.398	-5.84
1061.82	-3.74
1062.241	-1.34
1062.663	-4.14
1063.085	-6.84
1063.506	-3.24
1063.928	-10.54
1064.35	0.76
1064.771	-10.14
1065.193	-1.44
1065.614	-11.34
1066.035	-2.94
1066.457	-1.84
1066.878	-1.34
1067.3	-1.94
1067.721	-4.64
1068.142	-8.04
1068.564	-2.04
1068.985	-10.34
1069.406	-5.84
1069.827	-3.44
1070.248	-4.54
1070.67	-13.84
1071.091	-7.84
1071.512	-5.94
1071.933	-1.94
1072.354	-4.94
1072.775	-5.54
1073.196	-4.04
1073.617	-2.44
1074.038	-10.04
1074.459	-2.24
1074.88	-10.94
1075.3	1.66
1075.721	-9.54
1076.142	7.76
1076.563	-4.44
1076.983	-12.84
1077.404	-5.94
1077.825	-11.84
1078.246	-2.04
1078.666	-7.74
1079.087	-3.24
1079.507	-6.54
1079.928	-0.44
1080.348	-4.44
1080.769	-6.64
1081.189	3.36
1081.61	-1.44
1082.03	-4.04
1082.451	-6.54
1082.871	-5.34
1083.291	-8.04
1083.711	-13.84
1084.132	-11.94
1084.552	-5.04
1084.972	-4.14
1085.392	-16.04
1085.813	-12.44
1086.233	-8.24
1086.653	-7.74
1087.073	-0.54
1087.493	-4.74
1087.913	-3.24
1088.333	-6.14
1088.753	1.96
1089.173	-4.74
1089.593	-0.94
1090.013	-3.74
1090.433	-0.04
1090.852	-6.74
1091.272	-4.44
1091.692	-8.24
1092.112	-9.34
1092.531	-8.74
1092.951	-11.24
1093.371	0.16
1093.79	0.46
1094.21	-4.64
1094.63	-5.94
1095.049	-6.14
1095.469	-1.84
1095.888	-2.34
1096.308	5.86
1096.727	3.36
1097.146	-7.74
1097.566	0.86
1097.985	-1.14
1098.405	-0.44
1098.824	-9.64
1099.243	-4.94
1099.662	-2.54
1100.082	-9.94
1100.501	-1.94
1100.92	-5.64
1101.339	-7.04
1101.758	-8.34
