Data from 20171114-ORNL-Ar_H_NY_Subt18_08-05-28-874.txt Node
Date: Tue Nov 14 08:05:28 EST 2017
User: Ender
Spectrometer: HR+D1039
Trigger mode: 0
Integration Time (sec): 2.730000E-2
Scans to average: 10
Electric dark correction enabled: true
Nonlinearity correction enabled: false
Boxcar width: 0
XAxis mode: Wavelengths
Number of Pixels in Spectrum: 2048
>>>>>Begin Spectral Data<<<<<
187.836	-0.44
188.309	-0.44
188.782	-0.44
189.255	2.86
189.728	-1.64
190.201	4.86
190.674	-4.74
191.147	3.66
191.619	-5.24
192.092	0.16
192.565	6.76
193.038	3.66
193.511	-2.04
193.984	0.56
194.456	-3.74
194.929	2.26
195.402	-6.04
195.874	-0.94
196.347	1.06
196.82	0.36
197.292	3.26
197.765	2.06
198.237	-8.24
198.71	3.36
199.182	-4.44
199.655	-0.94
200.127	5.86
200.6	-2.04
201.072	-4.04
201.544	-2.14
202.017	-4.64
202.489	2.76
202.961	2.26
203.433	-0.44
203.906	-6.84
204.378	-9.04
204.85	-0.04
205.322	-10.64
205.794	-5.54
206.266	-2.84
206.739	-6.04
207.211	1.96
207.683	-3.54
208.155	-6.24
208.627	-6.74
209.099	-5.04
209.57	-8.84
210.042	-6.14
210.514	-4.44
210.986	-2.24
211.458	-7.64
211.93	-5.64
212.402	1.96
212.873	-8.64
213.345	-14.24
213.817	-9.94
214.288	-7.64
214.76	-1.54
215.232	-5.24
215.703	-3.74
216.175	-7.64
216.646	-8.84
217.118	-7.74
217.589	-2.64
218.061	-1.44
218.532	-4.14
219.004	-0.94
219.475	-3.64
219.946	2.16
220.418	-6.64
220.889	2.76
221.36	0.06
221.832	-3.44
222.303	-6.14
222.774	0.36
223.245	-9.54
223.717	-5.34
224.188	-5.54
224.659	-8.74
225.13	-2.74
225.601	-3.54
226.072	-0.44
226.543	0.36
227.014	-0.34
227.485	0.06
227.956	-6.14
228.427	-5.84
228.898	5.66
229.369	3.36
229.839	-2.24
230.31	-3.94
230.781	-0.14
231.252	-2.64
231.722	0.36
232.193	-6.94
232.664	1.56
233.135	1.86
233.605	-0.84
234.076	-5.34
234.546	-0.14
235.017	4.06
235.487	-2.64
235.958	-0.94
236.428	-6.54
236.899	11.16
237.369	5.56
237.84	-1.74
238.31	6.46
238.78	0.86
239.251	4.06
239.721	5.36
240.191	1.76
240.662	-1.34
241.132	0.56
241.602	1.96
242.072	4.36
242.542	4.36
243.013	-1.14
243.483	1.36
243.953	3.56
244.423	0.46
244.893	0.96
245.363	6.96
245.833	5.06
246.303	-2.84
246.773	3.96
247.243	6.66
247.712	1.06
248.182	6.76
248.652	0.06
249.122	-3.54
249.592	16.36
250.061	17.06
250.531	29.56
251.001	20.46
251.471	14.76
251.94	18.36
252.41	5.66
252.879	5.06
253.349	11.06
253.818	8.76
254.288	4.96
254.757	7.76
255.227	-2.24
255.696	1.66
256.166	8.96
256.635	6.86
257.105	12.96
257.574	9.16
258.043	8.96
258.513	14.46
258.982	16.36
259.451	12.36
259.92	16.76
260.389	15.56
260.859	11.76
261.328	13.86
261.797	13.46
262.266	12.96
262.735	13.86
263.204	8.36
263.673	5.86
264.142	11.26
264.611	-3.74
265.08	5.66
265.549	-1.64
266.018	10.36
266.487	3.26
266.955	-0.84
267.424	-0.34
267.893	3.96
268.362	3.86
268.83	6.06
269.299	13.66
269.768	8.66
270.236	11.46
270.705	2.96
271.174	14.46
271.642	8.76
272.111	8.26
272.579	15.36
273.048	20.76
273.516	26.16
273.985	25.26
274.453	15.86
274.922	21.36
275.39	9.86
275.858	10.66
276.327	15.86
276.795	19.36
277.263	6.76
277.731	31.06
278.2	53.86
278.668	58.16
279.136	56.26
279.604	24.16
280.072	22.56
280.54	11.26
281.008	10.56
281.477	13.36
281.945	12.96
282.413	17.86
282.881	18.66
283.348	13.16
283.816	16.56
284.284	18.06
284.752	21.06
285.22	15.36
285.688	17.96
286.156	22.16
286.623	43.16
287.091	52.56
287.559	25.96
288.026	17.06
288.494	18.76
288.962	5.76
289.429	12.16
289.897	16.26
290.364	16.56
290.832	15.26
291.3	10.96
291.767	18.06
292.234	24.26
292.702	11.56
293.169	25.16
293.637	28.96
294.104	22.36
294.571	14.46
295.039	18.16
295.506	12.76
295.973	18.66
296.44	18.66
296.908	25.56
297.375	17.46
297.842	23.66
298.309	21.86
298.776	18.46
299.243	27.36
299.71	15.16
300.177	26.06
300.644	21.56
301.111	20.16
301.578	20.86
302.045	16.36
302.512	28.56
302.979	27.16
303.446	26.06
303.913	19.26
304.379	27.06
304.846	29.46
305.313	26.96
305.78	26.86
306.246	30.76
306.713	30.06
307.18	26.36
307.646	32.96
308.113	32.56
308.579	28.86
309.046	25.46
309.512	26.36
309.979	24.46
310.445	34.16
310.912	32.36
311.378	32.26
311.845	40.76
312.311	31.86
312.777	36.36
313.244	33.16
313.71	44.46
314.176	33.66
314.642	42.16
315.109	36.36
315.575	39.76
316.041	36.96
316.507	36.56
316.973	38.86
317.439	40.36
317.905	40.26
318.371	34.46
318.837	38.96
319.303	39.36
319.769	36.86
320.235	41.06
320.701	37.36
321.167	38.96
321.633	35.56
322.099	44.36
322.564	51.26
323.03	39.56
323.496	44.26
323.962	49.96
324.427	39.76
324.893	49.66
325.359	42.06
325.824	40.56
326.29	38.76
326.755	38.36
327.221	41.96
327.686	46.56
328.152	48.56
328.617	41.96
329.083	44.26
329.548	55.16
330.014	53.56
330.479	44.06
330.944	50.46
331.41	46.06
331.875	47.86
332.34	46.56
332.805	48.26
333.271	48.86
333.736	50.06
334.201	54.06
334.666	56.86
335.131	57.76
335.596	58.06
336.061	51.16
336.526	44.86
336.991	49.86
337.456	62.56
337.921	53.66
338.386	45.66
338.851	50.46
339.316	46.56
339.781	55.66
340.246	55.56
340.711	51.06
341.175	58.96
341.64	49.96
342.105	53.56
342.569	60.76
343.034	63.76
343.499	61.56
343.963	51.76
344.428	62.86
344.893	64.66
345.357	61.06
345.822	65.36
346.286	70.06
346.751	76.36
347.215	72.26
347.679	77.86
348.144	100.46
348.608	90.26
349.073	78.76
349.537	76.86
350.001	84.76
350.465	97.26
350.93	83.86
351.394	80.76
351.858	75.26
352.322	90.36
352.786	84.96
353.25	103.76
353.715	121.96
354.179	101.06
354.643	122.66
355.107	131.36
355.571	113.86
356.035	108.96
356.498	120.36
356.962	130.66
357.426	135.26
357.89	116.46
358.354	89.96
358.818	85.76
359.281	95.06
359.745	84.96
360.209	79.16
360.673	80.46
361.136	90.06
361.6	85.86
362.064	83.86
362.527	85.06
362.991	94.56
363.454	88.16
363.918	76.36
364.381	79.96
364.845	84.76
365.308	85.66
365.772	93.26
366.235	92.96
366.698	84.56
367.162	99.66
367.625	87.86
368.088	91.66
368.552	85.86
369.015	85.06
369.478	95.66
369.941	104.86
370.404	96.26
370.867	111.76
371.331	111.16
371.794	116.56
372.257	111.56
372.72	119.36
373.183	108.36
373.646	113.56
374.109	105.46
374.572	112.36
375.035	112.46
375.497	113.46
375.96	112.66
376.423	100.66
376.886	116.46
377.349	110.86
377.811	108.96
378.274	111.16
378.737	106.46
379.199	113.26
379.662	116.96
380.125	125.26
380.587	122.86
381.05	128.86
381.512	130.26
381.975	137.06
382.437	134.26
382.9	125.76
383.362	134.26
383.825	149.36
384.287	152.86
384.75	138.46
385.212	139.86
385.674	141.06
386.136	140.26
386.599	131.16
387.061	127.96
387.523	132.66
387.985	131.06
388.447	149.66
388.91	143.36
389.372	154.36
389.834	152.86
390.296	143.86
390.758	150.26
391.22	168.26
391.682	204.46
392.144	291.06
392.606	229.06
393.068	162.06
393.529	173.96
393.991	159.36
394.453	144.66
394.915	156.16
395.377	190.36
395.838	211.96
396.3	151.96
396.762	141.76
397.224	140.96
397.685	128.56
398.147	132.16
398.608	129.76
399.07	130.36
399.531	130.46
399.993	146.86
400.454	143.26
400.916	151.86
401.377	155.96
401.839	158.46
402.3	150.26
402.762	168.66
403.223	183.66
403.684	172.86
404.145	165.96
404.607	165.46
405.068	163.46
405.529	170.86
405.99	191.46
406.451	185.06
406.913	175.66
407.374	165.36
407.835	162.66
408.296	170.06
408.757	171.36
409.218	189.36
409.679	183.26
410.14	172.76
410.601	177.26
411.062	187.26
411.522	190.36
411.983	190.16
412.444	176.86
412.905	181.06
413.366	179.46
413.826	193.66
414.287	214.06
414.748	261.96
415.208	250.66
415.669	210.76
416.13	205.96
416.59	209.66
417.051	212.36
417.511	211.46
417.972	235.46
418.432	246.66
418.893	293.66
419.353	258.16
419.814	200.86
420.274	185.26
420.734	188.36
421.195	195.06
421.655	197.26
422.115	193.86
422.576	194.76
423.036	201.16
423.496	213.06
423.956	222.06
424.416	229.66
424.876	270.96
425.336	269.06
425.797	268.56
426.257	257.86
426.717	242.66
427.177	238.86
427.637	228.86
428.097	232.76
428.556	250.76
429.016	272.06
429.476	262.26
429.936	276.06
430.396	281.46
430.856	298.56
431.315	321.26
431.775	353.86
432.235	382.06
432.694	352.26
433.154	372.36
433.614	394.16
434.073	342.46
434.533	290.46
434.993	272.56
435.452	288.46
435.912	296.66
436.371	289.56
436.83	294.26
437.29	273.56
437.749	245.86
438.209	247.26
438.668	276.56
439.127	290.96
439.587	264.36
440.046	255.86
440.505	270.76
440.964	283.56
441.424	330.06
441.883	308.26
442.342	264.86
442.801	229.26
443.26	225.16
443.719	223.76
444.178	224.06
444.637	209.96
445.096	218.66
445.555	223.96
446.014	226.56
446.473	227.76
446.932	232.56
447.391	224.76
447.849	228.36
448.308	220.16
448.767	225.46
449.226	233.16
449.685	232.66
450.143	251.66
450.602	244.16
451.061	233.06
451.519	230.76
451.978	235.86
452.436	232.36
452.895	240.96
453.353	256.36
453.812	239.56
454.27	243.76
454.729	236.76
455.187	241.06
455.646	254.46
456.104	253.26
456.562	264.66
457.021	271.96
457.479	265.46
457.937	272.46
458.395	264.36
458.854	256.56
459.312	254.76
459.77	275.76
460.228	260.96
460.686	248.46
461.144	251.16
461.602	245.76
462.06	243.06
462.518	253.76
462.976	260.16
463.434	260.96
463.892	267.36
464.35	285.26
464.808	291.46
465.266	265.06
465.724	270.16
466.181	267.66
466.639	275.06
467.097	283.56
467.555	303.56
468.012	308.96
468.47	317.66
468.928	327.56
469.385	348.66
469.843	356.46
470.3	354.36
470.758	367.36
471.215	393.56
471.673	417.46
472.13	413.36
472.588	419.86
473.045	375.36
473.503	371.66
473.96	403.06
474.417	404.06
474.875	437.06
475.332	480.26
475.789	468.06
476.246	475.16
476.704	490.66
477.161	517.86
477.618	529.56
478.075	570.06
478.532	621.66
478.989	700.06
479.446	818.16
479.903	782.26
480.36	817.86
480.817	870.86
481.274	971.36
481.731	1086.36
482.188	1183.76
482.645	1317.06
483.102	1399.46
483.558	1549.06
484.015	1615.06
484.472	1586.96
484.929	1537.86
485.385	1476.76
485.842	1430.46
486.299	1378.96
486.755	1309.96
487.212	1114.86
487.668	933.46
488.125	861.76
488.582	796.26
489.038	753.56
489.494	718.46
489.951	695.36
490.407	673.96
490.864	655.46
491.32	652.96
491.776	652.66
492.233	661.56
492.689	618.76
493.145	606.96
493.602	597.86
494.058	615.26
494.514	615.16
494.97	642.16
495.426	660.56
495.882	630.76
496.338	630.16
496.794	627.06
497.251	634.86
497.707	652.26
498.163	643.26
498.618	652.96
499.074	651.96
499.53	684.16
499.986	686.26
500.442	662.56
500.898	630.66
501.354	631.56
501.809	633.26
502.265	649.66
502.721	666.16
503.177	672.26
503.632	674.96
504.088	682.56
504.543	723.16
504.999	716.46
505.455	660.06
505.91	638.36
506.366	638.06
506.821	630.66
507.277	626.06
507.732	631.16
508.187	623.86
508.643	630.46
509.098	642.46
509.553	660.16
510.009	661.06
510.464	672.56
510.919	690.86
511.375	704.76
511.83	713.66
512.285	726.56
512.74	761.06
513.195	794.66
513.65	782.46
514.105	778.66
514.56	778.76
515.015	803.36
515.47	812.96
515.925	805.96
516.38	795.16
516.835	809.86
517.29	803.86
517.745	782.16
518.2	771.56
518.655	747.06
519.109	752.86
519.564	757.66
520.019	742.26
520.474	725.56
520.928	730.46
521.383	737.16
521.838	712.96
522.292	717.96
522.747	719.36
523.201	719.86
523.656	699.76
524.11	694.66
524.565	691.16
525.019	698.26
525.474	697.36
525.928	711.56
526.382	697.46
526.837	703.86
527.291	706.36
527.745	700.36
528.2	712.56
528.654	690.56
529.108	697.96
529.562	697.66
530.016	688.86
530.47	703.16
530.925	700.46
531.379	705.36
531.833	716.66
532.287	713.96
532.741	724.16
533.195	712.96
533.649	714.06
534.103	735.86
534.556	711.36
535.01	722.56
535.464	718.96
535.918	725.86
536.372	722.46
536.826	728.66
537.279	718.96
537.733	714.16
538.187	724.46
538.64	720.46
539.094	731.36
539.548	731.26
540.001	725.06
540.455	721.96
540.908	726.06
541.362	744.36
541.815	750.36
542.269	762.96
542.722	771.66
543.175	774.56
543.629	777.16
544.082	797.56
544.536	795.66
544.989	782.66
545.442	788.26
545.895	795.66
546.349	794.76
546.802	788.66
547.255	796.86
547.708	807.76
548.161	812.56
548.614	823.16
549.067	830.96
549.52	817.96
549.973	818.26
550.426	802.96
550.879	798.26
551.332	803.96
551.785	808.46
552.238	814.86
552.691	821.76
553.144	839.86
553.596	853.36
554.049	877.06
554.502	897.26
554.955	930.96
555.407	906.76
555.86	914.06
556.313	893.96
556.765	876.56
557.218	895.46
557.67	888.46
558.123	882.36
558.576	880.36
559.028	891.26
559.48	889.76
559.933	884.76
560.385	829.26
560.838	800.96
561.29	780.56
561.742	777.96
562.195	751.56
562.647	769.96
563.099	770.76
563.551	771.96
564.004	783.06
564.456	771.06
564.908	763.06
565.36	741.56
565.812	722.26
566.264	738.76
566.716	720.66
567.168	713.96
567.62	717.76
568.072	700.16
568.524	702.66
568.976	691.76
569.428	672.96
569.88	677.16
570.332	683.26
570.784	672.76
571.235	684.06
571.687	691.26
572.139	698.26
572.59	711.26
573.042	709.26
573.494	713.56
573.945	704.96
574.397	686.86
574.849	695.76
575.3	696.06
575.752	695.66
576.203	680.16
576.655	692.76
577.106	668.66
577.557	659.76
578.009	665.06
578.46	665.86
578.912	657.56
579.363	668.96
579.814	665.96
580.265	671.86
580.717	672.76
581.168	667.06
581.619	679.76
582.07	679.36
582.521	673.96
582.972	668.56
583.423	685.96
583.875	675.86
584.326	696.66
584.777	744.46
585.227	806.76
585.678	898.36
586.129	975.86
586.58	1041.96
587.031	1123.66
587.482	1267.06
587.933	1436.76
588.384	1264.16
588.834	960.56
589.285	790.06
589.736	783.76
590.186	766.46
590.637	756.86
591.088	740.26
591.538	728.86
591.989	718.66
592.439	715.06
592.89	702.06
593.34	702.06
593.791	703.76
594.241	695.56
594.692	703.36
595.142	690.76
595.593	693.96
596.043	701.46
596.493	704.36
596.943	700.06
597.394	711.76
597.844	704.86
598.294	717.56
598.744	733.36
599.195	762.66
599.645	802.06
600.095	853.16
600.545	897.36
600.995	956.16
601.445	1014.66
601.895	1067.86
602.345	1119.06
602.795	1102.86
603.245	1060.56
603.695	992.26
604.145	946.76
604.594	897.56
605.044	857.16
605.494	788.56
605.944	743.16
606.393	716.06
606.843	718.56
607.293	718.06
607.743	720.06
608.192	726.16
608.642	742.76
609.091	747.96
609.541	756.06
609.99	754.86
610.44	758.96
610.889	707.26
611.339	688.26
611.788	668.46
612.238	684.86
612.687	705.96
613.136	707.66
613.586	712.86
614.035	726.06
614.484	737.26
614.933	748.46
615.383	740.76
615.832	720.16
616.281	707.66
616.73	670.06
617.179	643.76
617.628	637.16
618.077	623.36
618.526	619.66
618.975	609.96
619.424	601.06
619.873	602.26
620.322	599.56
620.771	591.76
621.22	594.96
621.669	582.76
622.118	579.56
622.567	565.76
623.015	568.36
623.464	562.06
623.913	551.66
624.361	544.76
624.81	545.26
625.259	543.46
625.707	540.56
626.156	536.66
626.604	549.46
627.053	549.56
627.501	550.76
627.95	557.36
628.398	560.76
628.847	561.46
629.295	564.26
629.744	557.66
630.192	553.96
630.64	552.26
631.089	551.46
631.537	558.16
631.985	564.56
632.433	575.96
632.881	590.46
633.33	630.16
633.778	614.36
634.226	544.96
634.674	555.06
635.122	559.66
635.57	576.46
636.018	609.16
636.466	559.86
636.914	545.46
637.362	567.96
637.81	556.26
638.258	559.76
638.705	568.26
639.153	592.56
639.601	605.46
640.049	625.66
640.497	651.76
640.944	674.76
641.392	626.66
641.84	587.86
642.287	581.96
642.735	544.76
643.182	556.66
643.63	553.76
644.078	567.76
644.525	570.76
644.973	581.56
645.42	587.56
645.867	606.96
646.315	614.56
646.762	640.26
647.21	667.16
647.657	698.56
648.104	729.26
648.551	741.06
648.999	800.16
649.446	879.76
649.893	970.96
650.34	1111.86
650.787	1337.06
651.234	1653.06
651.682	2158.96
652.129	2944.56
652.576	4222.36
653.023	6258.06
653.47	8563.76
653.917	10752.76
654.363	12531.66
654.81	13924.76
655.257	13233.36
655.704	8669.86
656.151	5119.46
656.598	3317.16
657.044	2348.36
657.491	1801.56
657.938	1446.86
658.385	1207.96
658.831	1043.76
659.278	929.36
659.724	828.06
660.171	767.56
660.618	696.76
661.064	667.46
661.511	648.76
661.957	634.06
662.404	623.06
662.85	626.56
663.296	597.96
663.743	546.76
664.189	518.86
664.635	512.06
665.082	502.76
665.528	511.46
665.974	507.46
666.42	487.66
666.867	492.96
667.313	465.96
667.759	460.86
668.205	457.76
668.651	469.16
669.097	467.46
669.543	477.06
669.989	456.96
670.435	431.96
670.881	434.96
671.327	435.36
671.773	451.76
672.219	476.36
672.665	528.76
673.11	552.66
673.556	615.76
674.002	645.36
674.448	638.76
674.893	521.26
675.339	461.56
675.785	431.06
676.23	402.76
676.676	377.06
677.122	368.16
677.567	361.16
678.013	346.16
678.458	347.86
678.904	342.96
679.349	329.86
679.794	338.46
680.24	338.56
680.685	329.26
681.131	327.66
681.576	344.06
682.021	347.36
682.466	334.26
682.912	331.26
683.357	335.06
683.802	362.36
684.247	394.86
684.692	424.86
685.137	470.36
685.583	518.06
686.028	536.96
686.473	490.76
686.918	426.66
687.363	399.36
687.807	377.76
688.252	353.46
688.697	343.36
689.142	324.46
689.587	318.66
690.032	311.76
690.477	323.56
690.921	333.06
691.366	369.16
691.811	382.46
692.255	408.76
692.7	441.36
693.145	477.26
693.589	649.06
694.034	1044.76
694.478	1451.16
694.923	1657.36
695.367	2187.66
695.812	1145.56
696.256	476.86
696.701	354.26
697.145	335.56
697.59	313.46
698.034	299.66
698.478	316.46
698.922	310.46
699.367	316.46
699.811	323.06
700.255	339.76
700.699	369.96
701.143	405.96
701.588	454.06
702.032	498.46
702.476	494.46
702.92	465.96
703.364	467.06
703.808	588.66
704.252	971.16
704.696	1369.86
705.14	1604.76
705.584	2056.26
706.027	1022.36
706.471	505.76
706.915	386.56
707.359	337.16
707.803	306.76
708.246	289.76
708.69	297.76
709.134	303.56
709.577	299.16
710.021	305.76
710.465	291.36
710.908	286.76
711.352	291.46
711.795	297.76
712.239	330.56
712.682	364.06
713.126	394.46
713.569	438.26
714.012	356.36
714.456	310.76
714.899	284.56
715.342	255.36
715.786	246.86
716.229	239.76
716.672	242.86
717.115	234.96
717.558	241.36
718.002	240.66
718.445	242.76
718.888	267.26
719.331	280.06
719.774	289.66
720.217	291.56
720.66	273.76
721.103	259.26
721.546	241.96
721.989	238.36
722.432	218.26
722.874	228.96
723.317	220.86
723.76	231.56
724.203	239.96
724.645	300.26
725.088	420.26
725.531	544.66
725.974	623.06
726.416	521.96
726.859	291.16
727.301	234.06
727.744	221.86
728.187	219.56
728.629	230.36
729.071	229.36
729.514	254.16
729.956	257.26
730.399	274.66
730.841	268.26
731.283	257.76
731.726	257.26
732.168	244.86
732.61	248.76
733.053	278.56
733.495	291.76
733.937	335.16
734.379	380.06
734.821	413.06
735.263	512.46
735.705	779.06
736.148	1465.56
736.59	2417.26
737.032	2931.26
737.474	2387.66
737.916	763.66
738.357	401.96
738.799	312.16
739.241	280.96
739.683	258.56
740.125	278.66
740.567	283.56
741.008	297.76
741.45	299.86
741.892	301.06
742.334	327.96
742.775	344.26
743.217	321.56
743.658	258.66
744.1	237.66
744.542	246.36
744.983	287.56
745.425	320.56
745.866	333.06
746.307	272.46
746.749	258.96
747.19	304.76
747.632	425.46
748.073	802.56
748.514	1723.56
748.956	2703.26
749.397	3384.36
749.838	2799.76
750.279	2848.76
750.72	1435.06
751.162	518.96
751.603	310.16
752.044	242.16
752.485	209.06
752.926	195.06
753.367	195.46
753.808	183.36
754.249	179.16
754.69	175.06
755.131	180.56
755.572	169.56
756.013	163.16
756.453	171.36
756.894	175.96
757.335	177.76
757.776	190.26
758.216	186.46
758.657	191.66
759.098	194.36
759.538	216.66
759.979	244.66
760.42	349.36
760.86	649.06
761.301	1667.66
761.741	4109.26
762.182	6181.86
762.622	4365.16
763.063	1236.06
763.503	502.26
763.943	330.96
764.384	319.76
764.824	378.86
765.264	415.26
765.705	288.56
766.145	198.16
766.585	185.36
767.025	167.46
767.465	177.36
767.906	222.86
768.346	292.26
768.786	319.76
769.226	237.96
769.666	292.96
770.106	565.36
770.546	1427.16
770.986	2517.46
771.426	2282.06
771.866	759.96
772.306	314.66
772.745	195.36
773.185	164.96
773.625	159.46
774.065	152.16
774.505	184.86
774.944	281.16
775.384	603.56
775.824	1131.86
776.263	1109.96
776.703	471.76
777.142	209.86
777.582	148.16
778.021	130.76
778.461	134.86
778.9	134.66
779.34	123.56
779.779	106.26
780.219	103.46
780.658	96.26
781.097	104.56
781.537	110.66
781.976	101.16
782.415	99.06
782.855	102.66
783.294	99.06
783.733	102.26
784.172	109.36
784.611	97.16
785.05	107.66
785.489	107.26
785.928	112.86
786.367	116.46
786.806	111.96
787.245	127.96
787.684	123.46
788.123	140.36
788.562	127.76
789.001	120.86
789.44	113.76
789.879	116.96
790.317	116.76
790.756	119.66
791.195	123.76
791.634	139.66
792.072	188.76
792.511	341.76
792.95	918.56
793.388	2008.26
793.827	1854.36
794.265	639.66
794.704	262.96
795.142	175.06
795.581	144.06
796.019	124.86
796.458	126.56
796.896	117.36
797.334	121.36
797.773	142.36
798.211	202.96
798.649	400.06
799.087	951.66
799.526	1490.06
799.964	1884.86
800.402	1938.56
800.84	733.06
801.278	282.36
801.716	177.76
802.154	145.66
802.592	140.86
803.03	131.66
803.468	125.96
803.906	139.06
804.344	138.76
804.782	133.16
805.22	128.46
805.658	119.46
806.096	135.96
806.533	146.96
806.971	163.06
807.409	204.66
807.847	296.96
808.284	603.16
808.722	1716.06
809.16	3115.66
809.597	2893.26
810.035	5072.46
810.472	5561.96
810.91	1989.76
811.347	750.56
811.785	382.06
812.222	239.76
812.66	187.16
813.097	157.16
813.535	135.86
813.972	122.56
814.409	110.36
814.846	101.76
815.284	103.06
815.721	99.66
816.158	101.46
816.595	113.16
817.032	161.36
817.47	192.46
817.907	162.36
818.344	136.16
818.781	111.96
819.218	96.06
819.655	114.86
820.092	173.46
820.529	206.66
820.966	165.76
821.403	130.56
821.839	107.46
822.276	95.96
822.713	117.36
823.15	124.16
823.587	111.16
824.023	148.26
824.46	275.26
824.897	828.56
825.333	1300.66
825.77	552.76
826.206	217.36
826.643	126.36
827.08	89.56
827.516	80.46
827.953	74.76
828.389	76.56
828.825	67.56
829.262	65.66
829.698	61.36
830.135	56.06
830.571	57.46
831.007	52.66
831.443	61.86
831.88	56.76
832.316	60.36
832.752	57.46
833.188	61.96
833.624	61.76
834.06	57.76
834.497	65.06
834.933	69.66
835.369	69.16
835.805	66.76
836.241	73.66
836.677	79.96
837.112	87.46
837.548	96.96
837.984	120.96
838.42	188.56
838.856	452.96
839.292	1403.56
839.727	2201.86
840.163	1009.16
840.599	853.96
841.034	1910.26
841.47	2043.46
841.906	739.46
842.341	316.16
842.777	212.56
843.212	294.36
843.648	294.06
844.083	145.46
844.519	84.46
844.954	72.06
845.39	56.76
845.825	54.86
846.261	59.06
846.696	49.96
847.131	55.56
847.566	56.36
848.002	54.36
848.437	54.06
848.872	60.86
849.307	55.56
849.742	78.16
850.177	163.16
850.613	510.86
851.048	836.86
851.483	366.16
851.918	146.56
852.353	76.36
852.788	59.16
853.223	55.46
853.657	53.56
854.092	39.36
854.527	38.96
854.962	34.76
855.397	35.06
855.832	46.36
856.266	33.46
856.701	33.66
857.136	36.06
857.57	43.36
858.005	48.46
858.44	56.66
858.874	39.86
859.309	49.86
859.743	38.46
860.178	44.26
860.612	41.26
861.047	48.86
861.481	63.66
861.915	68.86
862.35	49.26
862.784	39.96
863.218	38.06
863.653	28.36
864.087	38.86
864.521	53.86
864.955	67.26
865.39	146.56
865.824	161.36
866.258	111.56
866.692	153.26
867.126	172.16
867.56	99.86
867.994	54.76
868.428	34.66
868.862	41.56
869.296	51.36
869.73	57.26
870.164	47.76
870.598	46.36
871.031	38.76
871.465	27.86
871.899	31.06
872.333	26.36
872.766	27.36
873.2	28.26
873.634	25.16
874.067	30.36
874.501	24.96
874.935	32.66
875.368	27.16
875.802	26.66
876.235	24.46
876.669	22.86
877.102	22.16
877.535	20.26
877.969	19.56
878.402	26.66
878.836	20.46
879.269	18.06
879.702	27.56
880.135	24.16
880.569	24.56
881.002	28.86
881.435	16.36
881.868	15.66
882.301	22.66
882.734	16.36
883.167	22.36
883.601	21.26
884.034	20.46
884.467	13.06
884.899	22.76
885.332	19.56
885.765	16.36
886.198	14.96
886.631	18.86
887.064	20.86
887.497	22.06
887.929	26.76
888.362	11.66
888.795	6.46
889.228	18.26
889.66	22.56
890.093	10.26
890.526	15.26
890.958	10.36
891.391	13.76
891.823	20.76
892.256	15.86
892.688	13.76
893.121	16.16
893.553	13.56
893.985	19.16
894.418	14.06
894.85	11.16
895.282	13.26
895.715	14.46
896.147	14.96
896.579	12.36
897.011	16.66
897.444	13.76
897.876	10.46
898.308	17.06
898.74	18.46
899.172	9.46
899.604	25.56
900.036	21.16
900.468	15.26
900.9	7.76
901.332	20.66
901.764	8.96
902.196	21.36
902.628	17.76
903.06	15.76
903.491	27.66
903.923	23.26
904.355	26.86
904.787	22.36
905.218	27.76
905.65	19.06
906.082	13.56
906.513	12.26
906.945	16.76
907.376	17.46
907.808	14.56
908.239	17.26
908.671	15.36
909.102	19.26
909.534	26.76
909.965	42.26
910.397	86.86
910.828	292.76
911.259	450.26
911.691	206.46
912.122	102.26
912.553	46.06
912.984	31.46
913.415	26.36
913.847	31.26
914.278	14.06
914.709	15.66
915.14	16.26
915.571	11.66
916.002	13.86
916.433	15.46
916.864	17.26
917.295	11.96
917.726	13.06
918.157	14.06
918.587	27.16
919.018	20.06
919.449	24.66
919.88	15.96
920.311	33.76
920.741	45.46
921.172	149.96
921.603	144.76
922.033	67.36
922.464	52.66
922.895	18.16
923.325	19.26
923.756	13.76
924.186	14.66
924.617	23.16
925.047	40.56
925.478	48.96
925.908	41.76
926.338	22.56
926.769	17.86
927.199	20.36
927.629	12.16
928.06	17.56
928.49	16.46
928.92	14.16
929.35	14.06
929.78	12.46
930.21	8.26
930.641	5.66
931.071	10.46
931.501	0.96
931.931	4.36
932.361	13.06
932.791	-3.24
933.221	4.06
933.651	5.06
934.08	17.56
934.51	27.26
934.94	9.76
935.37	4.46
935.8	9.46
936.229	7.66
936.659	12.26
937.089	4.36
937.519	8.36
937.948	19.76
938.378	19.06
938.807	11.16
939.237	6.26
939.666	8.86
940.096	-0.84
940.525	7.06
940.955	5.76
941.384	-0.54
941.814	-2.44
942.243	-5.04
942.672	5.56
943.102	-6.54
943.531	-4.74
943.96	6.96
944.39	0.96
944.819	0.56
945.248	1.16
945.677	4.36
946.106	8.76
946.535	4.96
946.964	-2.84
947.393	3.66
947.822	-0.84
948.251	-6.04
948.68	-0.74
949.109	0.86
949.538	6.16
949.967	1.66
950.396	2.36
950.825	0.96
951.254	-0.04
951.682	-5.34
952.111	6.26
952.54	7.86
952.969	-0.64
953.397	-4.84
953.826	2.96
954.254	-2.44
954.683	3.96
955.112	-1.14
955.54	3.66
955.969	7.66
956.397	2.26
956.826	-2.94
957.254	6.16
957.682	-1.04
958.111	2.06
958.539	-0.74
958.967	2.56
959.396	2.26
959.824	1.76
960.252	8.46
960.68	-6.34
961.109	-1.74
961.537	-7.94
961.965	-0.34
962.393	2.46
962.821	-5.04
963.249	1.76
963.677	-0.54
964.105	11.36
964.533	42.86
964.961	41.46
965.389	18.66
965.817	10.26
966.245	-0.04
966.672	0.26
967.1	-6.64
967.528	-0.24
967.956	-1.24
968.383	3.86
968.811	-3.34
969.239	-1.14
969.666	1.36
970.094	0.46
970.522	-4.74
970.949	-1.34
971.377	-5.84
971.804	-1.84
972.232	-7.84
972.659	2.36
973.087	-6.94
973.514	1.66
973.941	-5.84
974.369	1.96
974.796	-3.14
975.223	1.36
975.651	-1.64
976.078	-1.44
976.505	0.86
976.932	0.56
977.359	10.96
977.786	9.66
978.214	0.46
978.641	-2.34
979.068	-2.34
979.495	-5.84
979.922	0.26
980.349	1.66
980.776	2.16
981.202	-1.44
981.629	5.96
982.056	2.06
982.483	1.16
982.91	2.36
983.337	-7.14
983.763	6.46
984.19	-5.54
984.617	-5.54
985.043	-12.34
985.47	-4.84
985.897	-1.84
986.323	-4.54
986.75	4.66
987.176	9.06
987.603	-0.34
988.029	-2.94
988.456	-3.54
988.882	5.36
989.308	-7.14
989.735	-3.54
990.161	-0.84
990.587	-7.84
991.014	-1.84
991.44	12.76
991.866	-1.84
992.292	-4.94
992.719	-3.74
993.145	4.26
993.571	-11.74
993.997	-8.14
994.423	0.36
994.849	-4.04
995.275	1.26
995.701	-0.44
996.127	-3.34
996.553	3.76
996.979	-0.64
997.405	-1.74
997.83	-9.44
998.256	-1.74
998.682	-6.94
999.108	-8.14
999.534	-3.24
999.959	-7.14
1000.385	-4.74
1000.811	-3.94
1001.236	-6.44
1001.662	-6.24
1002.087	-8.34
1002.513	-2.94
1002.938	-1.14
1003.364	-0.14
1003.789	0.46
1004.215	4.06
1004.64	0.06
1005.066	2.66
1005.491	-3.64
1005.916	-1.44
1006.342	-8.24
1006.767	-4.54
1007.192	4.06
1007.617	-7.24
1008.042	-2.44
1008.468	-5.74
1008.893	-1.24
1009.318	-3.34
1009.743	4.86
1010.168	7.76
1010.593	1.86
1011.018	-3.94
1011.443	0.56
1011.868	1.06
1012.293	-5.54
1012.718	-5.04
1013.143	0.96
1013.567	3.06
1013.992	1.96
1014.417	-16.04
1014.842	3.66
1015.267	-8.94
1015.691	-2.14
1016.116	3.16
1016.541	-0.84
1016.965	2.66
1017.39	3.26
1017.814	0.06
1018.239	-0.64
1018.663	-9.44
1019.088	-8.34
1019.512	-5.74
1019.937	-1.34
1020.361	-1.24
1020.785	-9.94
1021.21	-4.14
1021.634	-4.44
1022.058	-2.24
1022.483	0.66
1022.907	-7.64
1023.331	-2.74
1023.755	-1.84
1024.179	-4.74
1024.604	-1.94
1025.028	-2.24
1025.452	-5.54
1025.876	-0.54
1026.3	-0.04
1026.724	-10.34
1027.148	-7.74
1027.572	-9.14
1027.996	-1.84
1028.42	-5.74
1028.843	-5.34
1029.267	-7.84
1029.691	1.16
1030.115	-10.34
1030.539	-6.64
1030.962	-10.94
1031.386	-8.34
1031.81	3.16
1032.233	-0.84
1032.657	-1.24
1033.08	-4.84
1033.504	0.26
1033.927	-3.24
1034.351	-1.84
1034.774	-3.64
1035.198	-3.04
1035.621	-5.74
1036.045	-6.64
1036.468	5.76
1036.891	-16.14
1037.315	-3.54
1037.738	-12.14
1038.161	0.26
1038.584	-7.44
1039.008	-5.34
1039.431	-4.84
1039.854	-2.74
1040.277	-10.24
1040.7	-5.04
1041.123	7.96
1041.546	-10.84
1041.969	-5.74
1042.392	-3.34
1042.815	-3.34
1043.238	6.66
1043.661	3.96
1044.084	-5.04
1044.507	-4.64
1044.93	-2.14
1045.352	-3.34
1045.775	-3.14
1046.198	-3.34
1046.621	2.46
1047.043	-0.04
1047.466	7.96
1047.889	-5.74
1048.311	-2.54
1048.734	0.66
1049.156	1.36
1049.579	-3.64
1050.001	-7.64
1050.424	2.76
1050.846	-4.94
1051.269	-8.84
1051.691	-6.24
1052.113	-10.94
1052.536	-0.04
1052.958	-2.34
1053.38	-3.14
1053.802	-6.14
1054.225	-2.24
1054.647	-6.94
1055.069	-5.84
1055.491	0.56
1055.913	-4.44
1056.335	4.06
1056.757	-1.54
1057.179	-5.14
1057.601	-0.74
1058.023	-0.74
1058.445	-11.24
1058.867	-5.74
1059.289	-3.74
1059.711	-6.14
1060.133	0.46
1060.555	-1.74
1060.976	-5.44
1061.398	0.36
1061.82	-7.64
1062.241	-1.74
1062.663	-6.04
1063.085	-1.94
1063.506	-4.94
1063.928	-0.94
1064.35	2.16
1064.771	-13.54
1065.193	-2.64
1065.614	-8.34
1066.035	0.36
1066.457	-5.24
1066.878	2.16
1067.3	-0.64
1067.721	-2.14
1068.142	-1.34
1068.564	2.56
1068.985	-4.04
1069.406	-4.64
1069.827	-9.54
1070.248	-4.14
1070.67	-4.94
1071.091	-2.64
1071.512	-1.94
1071.933	-4.04
1072.354	-5.74
1072.775	-5.54
1073.196	-11.24
1073.617	-5.54
1074.038	-10.14
1074.459	-2.94
1074.88	-9.64
1075.3	-0.14
1075.721	-7.84
1076.142	5.46
1076.563	-2.74
1076.983	-14.14
1077.404	-3.54
1077.825	-3.84
1078.246	0.16
1078.666	-11.54
1079.087	-0.64
1079.507	-8.44
1079.928	-1.14
1080.348	-7.14
1080.769	-2.64
1081.189	-4.54
1081.61	1.46
1082.03	-2.74
1082.451	-8.14
1082.871	-5.94
1083.291	-11.34
1083.711	-4.44
1084.132	-9.24
1084.552	1.96
1084.972	-3.34
1085.392	-4.54
1085.813	-7.74
1086.233	-8.64
1086.653	-4.04
1087.073	-3.74
1087.493	-2.94
1087.913	-5.44
1088.333	-6.84
1088.753	-9.14
1089.173	-1.14
1089.593	-3.04
1090.013	1.86
1090.433	-0.64
1090.852	-2.74
1091.272	1.06
1091.692	1.46
1092.112	-7.14
1092.531	-11.44
1092.951	-16.14
1093.371	-5.54
1093.79	-1.94
1094.21	-5.34
1094.63	-7.94
1095.049	-3.14
1095.469	-2.04
1095.888	-4.84
1096.308	-1.14
1096.727	5.46
1097.146	-11.44
1097.566	-6.04
1097.985	-4.34
1098.405	-3.14
1098.824	-4.34
1099.243	-0.14
1099.662	-6.54
1100.082	-2.34
1100.501	-4.44
1100.92	-8.84
1101.339	-4.84
1101.758	-9.54
