Data from 20171114-ORNL-Ar_H_NY_Subt18_08-07-44-811.txt Node
Date: Tue Nov 14 08:07:44 EST 2017
User: Ender
Spectrometer: HR+D1039
Trigger mode: 0
Integration Time (sec): 2.730000E-2
Scans to average: 10
Electric dark correction enabled: true
Nonlinearity correction enabled: false
Boxcar width: 0
XAxis mode: Wavelengths
Number of Pixels in Spectrum: 2048
>>>>>Begin Spectral Data<<<<<
187.836	1.28
188.309	1.28
188.782	1.28
189.255	-1.92
189.728	-2.42
190.201	4.48
190.674	-2.22
191.147	3.88
191.619	-5.12
192.092	4.48
192.565	3.68
193.038	-0.22
193.511	3.48
193.984	-0.12
194.456	-0.02
194.929	-4.42
195.402	-6.42
195.874	1.58
196.347	2.88
196.82	-4.82
197.292	4.88
197.765	2.58
198.237	-6.82
198.71	2.78
199.182	-1.92
199.655	-0.92
200.127	2.38
200.6	0.78
201.072	-3.62
201.544	-5.82
202.017	1.18
202.489	1.48
202.961	2.98
203.433	-3.02
203.906	-9.02
204.378	-4.82
204.85	-2.22
205.322	-10.62
205.794	-0.12
206.266	-5.72
206.739	-8.92
207.211	2.78
207.683	-8.52
208.155	-8.12
208.627	-3.62
209.099	-1.22
209.57	-9.52
210.042	-4.02
210.514	-5.92
210.986	5.38
211.458	-4.62
211.93	3.38
212.402	-1.12
212.873	-6.92
213.345	-4.82
213.817	-9.72
214.288	-0.92
214.76	-12.12
215.232	-6.22
215.703	-4.92
216.175	-1.42
216.646	-5.92
217.118	-4.82
217.589	-7.42
218.061	-3.72
218.532	-8.02
219.004	-1.62
219.475	-9.52
219.946	-1.72
220.418	-9.62
220.889	-1.22
221.36	-1.22
221.832	-3.32
222.303	-5.72
222.774	0.68
223.245	-4.72
223.717	-4.82
224.188	-1.02
224.659	-4.72
225.13	-9.72
225.601	-9.22
226.072	-4.02
226.543	-2.82
227.014	5.38
227.485	-5.22
227.956	-8.92
228.427	-3.92
228.898	3.68
229.369	7.98
229.839	1.48
230.31	-6.12
230.781	-1.42
231.252	-2.82
231.722	-2.22
232.193	-1.82
232.664	-0.92
233.135	2.58
233.605	-0.32
234.076	-9.32
234.546	-1.52
235.017	0.68
235.487	3.48
235.958	-1.02
236.428	-3.42
236.899	-1.92
237.369	1.28
237.84	-2.92
238.31	0.48
238.78	0.48
239.251	0.38
239.721	7.38
240.191	3.18
240.662	2.68
241.132	1.58
241.602	-0.42
242.072	2.28
242.542	3.48
243.013	2.48
243.483	2.28
243.953	3.88
244.423	2.48
244.893	-2.22
245.363	-2.82
245.833	0.48
246.303	-1.82
246.773	3.88
247.243	2.28
247.712	-0.82
248.182	6.58
248.652	2.28
249.122	-3.02
249.592	11.48
250.061	18.88
250.531	29.28
251.001	9.58
251.471	22.28
251.94	17.68
252.41	5.68
252.879	-6.52
253.349	13.68
253.818	2.88
254.288	5.58
254.757	7.08
255.227	3.08
255.696	3.28
256.166	8.68
256.635	0.88
257.105	-0.22
257.574	4.08
258.043	1.98
258.513	10.18
258.982	14.58
259.451	1.98
259.92	10.58
260.389	-0.42
260.859	16.18
261.328	11.28
261.797	16.18
262.266	9.28
262.735	9.98
263.204	0.08
263.673	4.98
264.142	-1.12
264.611	-0.42
265.08	4.38
265.549	-1.02
266.018	5.98
266.487	-3.72
266.955	-3.92
267.424	0.98
267.893	7.48
268.362	1.78
268.83	4.48
269.299	12.98
269.768	2.68
270.236	5.38
270.705	3.08
271.174	2.78
271.642	10.38
272.111	3.98
272.579	10.58
273.048	14.58
273.516	24.68
273.985	22.48
274.453	19.18
274.922	16.08
275.39	10.98
275.858	-0.52
276.327	7.78
276.795	17.28
277.263	8.58
277.731	25.58
278.2	51.38
278.668	51.38
279.136	40.68
279.604	19.58
280.072	14.68
280.54	10.78
281.008	6.68
281.477	18.08
281.945	13.08
282.413	10.38
282.881	18.58
283.348	6.28
283.816	18.68
284.284	5.58
284.752	21.58
285.22	10.08
285.688	18.08
286.156	13.78
286.623	35.68
287.091	44.68
287.559	23.58
288.026	12.38
288.494	16.68
288.962	-1.52
289.429	8.28
289.897	13.48
290.364	13.48
290.832	15.68
291.3	13.38
291.767	12.68
292.234	15.58
292.702	6.78
293.169	17.48
293.637	19.08
294.104	18.68
294.571	5.08
295.039	5.38
295.506	11.38
295.973	11.98
296.44	15.78
296.908	22.58
297.375	20.18
297.842	16.78
298.309	13.28
298.776	8.18
299.243	9.98
299.71	15.68
300.177	19.18
300.644	29.08
301.111	12.08
301.578	22.38
302.045	13.98
302.512	25.08
302.979	15.98
303.446	17.78
303.913	14.78
304.379	17.98
304.846	25.78
305.313	22.58
305.78	20.48
306.246	23.18
306.713	24.38
307.18	24.68
307.646	21.08
308.113	29.48
308.579	17.08
309.046	23.78
309.512	21.38
309.979	17.88
310.445	21.78
310.912	27.28
311.378	24.88
311.845	21.98
312.311	27.38
312.777	20.58
313.244	27.78
313.71	34.98
314.176	25.28
314.642	24.78
315.109	28.78
315.575	33.38
316.041	34.68
316.507	28.38
316.973	24.68
317.439	29.58
317.905	32.38
318.371	29.78
318.837	25.18
319.303	33.38
319.769	28.78
320.235	29.38
320.701	29.08
321.167	31.78
321.633	31.18
322.099	29.38
322.564	40.48
323.03	35.98
323.496	36.38
323.962	36.88
324.427	35.88
324.893	39.48
325.359	30.98
325.824	37.48
326.29	34.28
326.755	35.08
327.221	31.48
327.686	33.48
328.152	39.38
328.617	37.88
329.083	41.98
329.548	46.58
330.014	50.28
330.479	30.78
330.944	37.78
331.41	37.38
331.875	38.28
332.34	44.28
332.805	41.38
333.271	38.28
333.736	40.08
334.201	49.78
334.666	44.58
335.131	50.78
335.596	48.18
336.061	50.48
336.526	34.98
336.991	40.48
337.456	47.08
337.921	43.88
338.386	41.18
338.851	43.78
339.316	45.28
339.781	39.88
340.246	51.88
340.711	39.88
341.175	48.38
341.64	44.58
342.105	46.48
342.569	47.68
343.034	54.88
343.499	45.78
343.963	42.38
344.428	55.78
344.893	54.28
345.357	51.58
345.822	55.48
346.286	56.18
346.751	66.98
347.215	57.18
347.679	68.08
348.144	88.18
348.608	81.78
349.073	58.98
349.537	66.48
350.001	69.98
350.465	79.78
350.93	75.78
351.394	67.58
351.858	64.98
352.322	79.88
352.786	75.18
353.25	89.98
353.715	102.48
354.179	92.28
354.643	101.08
355.107	116.78
355.571	93.68
356.035	91.48
356.498	108.58
356.962	113.98
357.426	121.98
357.89	107.78
358.354	84.48
358.818	77.38
359.281	67.78
359.745	69.68
360.209	72.38
360.673	67.58
361.136	76.78
361.6	78.48
362.064	76.78
362.527	77.98
362.991	83.78
363.454	70.98
363.918	74.68
364.381	74.68
364.845	75.58
365.308	83.88
365.772	74.38
366.235	79.98
366.698	76.68
367.162	82.78
367.625	76.18
368.088	85.08
368.552	81.68
369.015	84.78
369.478	91.38
369.941	93.78
370.404	96.78
370.867	98.88
371.331	100.88
371.794	108.58
372.257	104.08
372.72	104.58
373.183	101.08
373.646	98.48
374.109	91.58
374.572	100.58
375.035	97.58
375.497	100.38
375.96	101.88
376.423	94.48
376.886	108.58
377.349	102.58
377.811	92.48
378.274	93.98
378.737	102.28
379.199	111.08
379.662	108.98
380.125	112.88
380.587	107.88
381.05	112.28
381.512	119.98
381.975	125.28
382.437	120.38
382.9	120.68
383.362	119.18
383.825	130.68
384.287	137.98
384.75	133.88
385.212	134.68
385.674	135.08
386.136	135.78
386.599	122.38
387.061	123.08
387.523	123.68
387.985	126.38
388.447	136.58
388.91	140.78
389.372	153.18
389.834	143.68
390.296	135.18
390.758	151.38
391.22	161.08
391.682	201.88
392.144	280.88
392.606	221.18
393.068	158.78
393.529	163.08
393.991	142.98
394.453	144.28
394.915	150.98
395.377	177.38
395.838	203.28
396.3	145.18
396.762	135.98
397.224	131.28
397.685	124.18
398.147	127.58
398.608	123.68
399.07	119.88
399.531	130.98
399.993	130.88
400.454	141.88
400.916	136.78
401.377	129.68
401.839	144.28
402.3	146.98
402.762	157.88
403.223	167.38
403.684	164.08
404.145	153.98
404.607	155.88
405.068	149.48
405.529	162.68
405.99	180.68
406.451	170.68
406.913	165.98
407.374	153.18
407.835	154.58
408.296	151.88
408.757	155.18
409.218	180.48
409.679	174.58
410.14	170.18
410.601	172.08
411.062	176.98
411.522	179.98
411.983	179.18
412.444	162.58
412.905	176.48
413.366	173.58
413.826	181.78
414.287	206.38
414.748	246.98
415.208	234.38
415.669	199.88
416.13	202.08
416.59	186.28
417.051	212.38
417.511	212.68
417.972	225.68
418.432	228.38
418.893	271.28
419.353	239.28
419.814	196.38
420.274	174.38
420.734	174.58
421.195	193.58
421.655	189.88
422.115	186.28
422.576	190.98
423.036	187.48
423.496	198.68
423.956	201.78
424.416	221.08
424.876	252.88
425.336	246.98
425.797	256.58
426.257	246.48
426.717	226.58
427.177	222.78
427.637	215.88
428.097	222.88
428.556	231.68
429.016	265.58
429.476	253.18
429.936	267.28
430.396	274.98
430.856	279.48
431.315	302.88
431.775	341.18
432.235	367.28
432.694	336.68
433.154	350.38
433.614	377.48
434.073	326.28
434.533	272.48
434.993	260.38
435.452	279.58
435.912	286.38
436.371	275.28
436.83	275.28
437.29	265.28
437.749	243.68
438.209	239.48
438.668	265.68
439.127	283.18
439.587	260.38
440.046	243.88
440.505	249.08
440.964	274.58
441.424	311.88
441.883	305.98
442.342	250.18
442.801	217.38
443.26	214.18
443.719	214.58
444.178	211.78
444.637	203.18
445.096	214.08
445.555	218.28
446.014	218.78
446.473	218.68
446.932	221.78
447.391	215.18
447.849	223.18
448.308	212.78
448.767	205.88
449.226	226.38
449.685	226.78
450.143	237.78
450.602	227.48
451.061	218.28
451.519	223.38
451.978	224.28
452.436	231.98
452.895	235.08
453.353	245.58
453.812	226.98
454.27	230.88
454.729	235.18
455.187	231.68
455.646	240.68
456.104	245.18
456.562	252.78
457.021	255.48
457.479	247.88
457.937	266.18
458.395	252.88
458.854	242.18
459.312	251.08
459.77	263.88
460.228	245.48
460.686	234.08
461.144	242.58
461.602	232.48
462.06	235.38
462.518	247.28
462.976	247.18
463.434	252.48
463.892	259.48
464.35	268.98
464.808	277.48
465.266	254.08
465.724	269.58
466.181	266.18
466.639	267.48
467.097	278.88
467.555	285.98
468.012	293.68
468.47	303.28
468.928	322.48
469.385	333.68
469.843	333.38
470.3	333.58
470.758	355.08
471.215	374.18
471.673	401.38
472.13	399.98
472.588	407.58
473.045	364.88
473.503	374.48
473.96	378.38
474.417	390.08
474.875	424.48
475.332	454.18
475.789	454.38
476.246	459.28
476.704	472.28
477.161	494.38
477.618	514.08
478.075	556.58
478.532	598.78
478.989	675.68
479.446	788.98
479.903	753.88
480.36	786.88
480.817	842.38
481.274	940.88
481.731	1044.18
482.188	1126.98
482.645	1249.48
483.102	1345.28
483.558	1489.48
484.015	1527.28
484.472	1503.88
484.929	1461.98
485.385	1418.68
485.842	1385.48
486.299	1321.58
486.755	1251.88
487.212	1058.28
487.668	881.68
488.125	829.08
488.582	744.38
489.038	724.88
489.494	696.08
489.951	666.18
490.407	646.38
490.864	625.38
491.32	631.88
491.776	622.98
492.233	636.08
492.689	590.58
493.145	598.38
493.602	594.58
494.058	607.28
494.514	606.18
494.97	623.68
495.426	637.08
495.882	608.88
496.338	601.68
496.794	598.48
497.251	603.08
497.707	609.48
498.163	615.48
498.618	629.28
499.074	624.08
499.53	665.58
499.986	661.88
500.442	643.08
500.898	615.18
501.354	609.18
501.809	628.08
502.265	631.28
502.721	645.68
503.177	654.08
503.632	648.08
504.088	662.88
504.543	697.18
504.999	691.98
505.455	638.28
505.91	612.78
506.366	624.38
506.821	612.48
507.277	617.18
507.732	607.28
508.187	614.88
508.643	628.78
509.098	621.28
509.553	640.48
510.009	644.78
510.464	665.28
510.919	674.58
511.375	683.08
511.83	691.88
512.285	703.98
512.74	744.58
513.195	760.68
513.65	764.78
514.105	754.28
514.56	753.08
515.015	769.38
515.47	782.98
515.925	758.48
516.38	766.98
516.835	784.38
517.29	760.68
517.745	765.78
518.2	730.18
518.655	731.98
519.109	738.48
519.564	714.28
520.019	721.68
520.474	711.78
520.928	708.98
521.383	706.98
521.838	708.88
522.292	692.68
522.747	691.28
523.201	685.28
523.656	682.78
524.11	686.68
524.565	679.48
525.019	682.98
525.474	680.68
525.928	693.78
526.382	686.58
526.837	681.58
527.291	701.18
527.745	676.98
528.2	679.68
528.654	673.68
529.108	677.78
529.562	685.98
530.016	677.08
530.47	688.98
530.925	685.08
531.379	685.28
531.833	681.98
532.287	686.48
532.741	688.78
533.195	688.38
533.649	703.18
534.103	701.28
534.556	698.98
535.01	697.88
535.464	696.18
535.918	706.58
536.372	703.18
536.826	706.08
537.279	693.08
537.733	704.78
538.187	697.98
538.64	701.18
539.094	721.38
539.548	711.78
540.001	715.88
540.455	712.98
540.908	722.48
541.362	735.88
541.815	729.48
542.269	744.28
542.722	749.28
543.175	763.68
543.629	752.58
544.082	762.98
544.536	776.28
544.989	775.18
545.442	781.18
545.895	783.48
546.349	784.18
546.802	768.18
547.255	789.58
547.708	796.78
548.161	798.98
548.614	808.18
549.067	811.18
549.52	804.38
549.973	795.38
550.426	800.58
550.879	790.08
551.332	799.08
551.785	785.98
552.238	799.08
552.691	804.68
553.144	826.38
553.596	831.18
554.049	839.78
554.502	879.68
554.955	900.48
555.407	897.48
555.86	899.98
556.313	881.68
556.765	865.28
557.218	879.78
557.67	867.18
558.123	866.88
558.576	862.08
559.028	860.28
559.48	872.58
559.933	849.38
560.385	831.08
560.838	795.68
561.29	785.98
561.742	781.08
562.195	757.48
562.647	753.48
563.099	769.78
563.551	764.38
564.004	774.98
564.456	752.48
564.908	750.48
565.36	731.18
565.812	724.68
566.264	716.28
566.716	715.98
567.168	708.58
567.62	711.28
568.072	690.78
568.524	693.38
568.976	683.28
569.428	672.78
569.88	672.18
570.332	674.78
570.784	673.38
571.235	669.48
571.687	685.38
572.139	693.28
572.59	705.88
573.042	694.58
573.494	700.58
573.945	703.88
574.397	682.48
574.849	681.88
575.3	678.88
575.752	684.58
576.203	673.58
576.655	679.68
577.106	662.88
577.557	645.78
578.009	658.98
578.46	656.58
578.912	661.18
579.363	657.38
579.814	667.08
580.265	658.78
580.717	655.38
581.168	658.88
581.619	667.28
582.07	680.98
582.521	668.98
582.972	675.78
583.423	676.38
583.875	678.98
584.326	695.08
584.777	735.98
585.227	810.58
585.678	894.78
586.129	977.88
586.58	1049.38
587.031	1126.98
587.482	1271.28
587.933	1448.28
588.384	1250.88
588.834	961.18
589.285	797.08
589.736	771.78
590.186	765.98
590.637	769.38
591.088	739.28
591.538	734.48
591.989	725.98
592.439	720.38
592.89	713.78
593.34	698.28
593.791	708.58
594.241	697.08
594.692	707.08
595.142	691.68
595.593	700.28
596.043	701.48
596.493	705.48
596.943	716.08
597.394	718.88
597.844	708.68
598.294	719.98
598.744	749.08
599.195	766.18
599.645	803.88
600.095	857.18
600.545	901.28
600.995	955.38
601.445	1017.08
601.895	1070.08
602.345	1121.78
602.795	1102.58
603.245	1053.38
603.695	1002.98
604.145	949.78
604.594	904.78
605.044	861.58
605.494	798.48
605.944	741.18
606.393	731.18
606.843	717.88
607.293	723.78
607.743	727.08
608.192	732.18
608.642	757.08
609.091	766.18
609.541	768.28
609.99	772.98
610.44	770.88
610.889	721.18
611.339	701.08
611.788	679.68
612.238	698.28
612.687	714.48
613.136	713.58
613.586	727.18
614.035	733.18
614.484	746.38
614.933	753.58
615.383	736.48
615.832	738.28
616.281	727.18
616.73	681.28
617.179	665.68
617.628	644.48
618.077	626.38
618.526	618.18
618.975	614.58
619.424	613.08
619.873	605.48
620.322	615.78
620.771	606.58
621.22	602.08
621.669	591.28
622.118	589.08
622.567	576.98
623.015	570.08
623.464	573.88
623.913	560.38
624.361	545.78
624.81	546.18
625.259	545.28
625.707	552.38
626.156	555.28
626.604	565.18
627.053	557.18
627.501	562.78
627.95	566.28
628.398	580.68
628.847	565.78
629.295	571.88
629.744	564.08
630.192	569.68
630.64	571.18
631.089	565.78
631.537	569.18
631.985	582.48
632.433	603.58
632.881	611.98
633.33	655.68
633.778	642.18
634.226	569.78
634.674	568.48
635.122	565.98
635.57	601.18
636.018	625.58
636.466	584.98
636.914	548.08
637.362	568.98
637.81	572.68
638.258	577.98
638.705	585.58
639.153	612.98
639.601	616.68
640.049	635.68
640.497	668.28
640.944	688.18
641.392	644.88
641.84	613.08
642.287	589.28
642.735	564.88
643.182	577.98
643.63	559.78
644.078	567.38
644.525	585.38
644.973	586.98
645.42	610.78
645.867	618.38
646.315	632.18
646.762	656.18
647.21	697.98
647.657	708.38
648.104	748.78
648.551	770.38
648.999	837.58
649.446	902.38
649.893	991.78
650.34	1145.78
650.787	1393.58
651.234	1718.98
651.682	2235.38
652.129	3083.18
652.576	4435.18
653.023	6537.18
653.47	8925.68
653.917	11063.08
654.363	12715.78
654.81	14048.38
655.257	13328.08
655.704	8705.28
656.151	5149.78
656.598	3372.58
657.044	2373.28
657.491	1829.18
657.938	1469.48
658.385	1226.78
658.831	1057.08
659.278	959.28
659.724	854.98
660.171	783.98
660.618	719.68
661.064	683.48
661.511	673.28
661.957	648.08
662.404	642.98
662.85	651.28
663.296	615.98
663.743	556.78
664.189	548.28
664.635	528.88
665.082	524.88
665.528	526.18
665.974	524.78
666.42	505.58
666.867	503.28
667.313	487.98
667.759	479.88
668.205	479.38
668.651	476.08
669.097	479.78
669.543	498.88
669.989	461.78
670.435	456.78
670.881	444.68
671.327	448.08
671.773	466.08
672.219	494.58
672.665	546.88
673.11	583.58
673.556	622.48
674.002	664.88
674.448	648.68
674.893	540.88
675.339	474.48
675.785	432.78
676.23	414.88
676.676	387.18
677.122	377.68
677.567	366.28
678.013	368.98
678.458	361.28
678.904	359.58
679.349	349.08
679.794	345.18
680.24	348.48
680.685	347.38
681.131	352.78
681.576	342.68
682.021	360.88
682.466	343.68
682.912	345.68
683.357	352.88
683.802	381.98
684.247	412.88
684.692	448.28
685.137	488.98
685.583	535.98
686.028	552.48
686.473	516.08
686.918	447.08
687.363	422.28
687.807	397.18
688.252	367.68
688.697	353.98
689.142	336.28
689.587	329.28
690.032	321.78
690.477	350.68
690.921	352.28
691.366	371.78
691.811	392.88
692.255	426.18
692.7	460.98
693.145	494.38
693.589	697.48
694.034	1144.38
694.478	1544.98
694.923	1728.58
695.367	2224.78
695.812	1178.88
696.256	497.48
696.701	376.68
697.145	338.68
697.59	325.98
698.034	329.18
698.478	331.18
698.922	320.98
699.367	327.78
699.811	339.48
700.255	351.48
700.699	383.18
701.143	420.48
701.588	479.98
702.032	513.18
702.476	512.18
702.92	486.58
703.364	497.78
703.808	643.78
704.252	1045.58
704.696	1450.18
705.14	1666.08
705.584	2104.28
706.027	1057.28
706.471	520.58
706.915	398.58
707.359	353.18
707.803	309.78
708.246	307.88
708.69	307.58
709.134	311.48
709.577	310.48
710.021	305.58
710.465	306.98
710.908	307.98
711.352	294.68
711.795	310.38
712.239	348.18
712.682	381.28
713.126	411.98
713.569	458.28
714.012	371.58
714.456	313.18
714.899	289.18
715.342	270.18
715.786	251.68
716.229	259.08
716.672	252.88
717.115	257.28
717.558	248.48
718.002	245.88
718.445	264.08
718.888	284.18
719.331	300.68
719.774	299.68
720.217	302.58
720.66	283.88
721.103	270.18
721.546	247.68
721.989	254.08
722.432	237.28
722.874	231.78
723.317	229.78
723.76	230.88
724.203	252.78
724.645	322.48
725.088	446.08
725.531	568.68
725.974	627.88
726.416	537.68
726.859	304.28
727.301	252.18
727.744	235.88
728.187	229.58
728.629	231.98
729.071	241.58
729.514	257.88
729.956	272.28
730.399	280.58
730.841	292.28
731.283	274.08
731.726	268.58
732.168	258.18
732.61	268.48
733.053	288.18
733.495	323.18
733.937	359.68
734.379	400.18
734.821	438.98
735.263	548.18
735.705	845.58
736.148	1601.88
736.59	2560.98
737.032	2994.38
737.474	2462.38
737.916	812.68
738.357	426.08
738.799	325.48
739.241	306.18
739.683	280.58
740.125	295.78
740.567	293.78
741.008	318.68
741.45	317.38
741.892	312.48
742.334	340.68
742.775	357.68
743.217	344.08
743.658	271.58
744.1	255.18
744.542	260.08
744.983	312.68
745.425	342.78
745.866	341.28
746.307	285.68
746.749	285.68
747.19	326.48
747.632	462.38
748.073	894.98
748.514	1872.28
748.956	2831.98
749.397	3562.68
749.838	2960.48
750.279	2908.98
750.72	1482.28
751.162	539.48
751.603	317.38
752.044	261.18
752.485	216.68
752.926	213.18
753.367	200.58
753.808	193.98
754.249	188.18
754.69	187.28
755.131	184.98
755.572	180.88
756.013	181.28
756.453	179.68
756.894	189.48
757.335	193.78
757.776	196.38
758.216	197.88
758.657	196.48
759.098	199.28
759.538	228.98
759.979	273.48
760.42	377.68
760.86	724.08
761.301	1869.78
761.741	4439.18
762.182	6278.18
762.622	4418.38
763.063	1296.18
763.503	535.58
763.943	348.28
764.384	335.28
764.824	398.38
765.264	419.68
765.705	302.08
766.145	212.38
766.585	188.78
767.025	176.58
767.465	187.28
767.906	233.08
768.346	304.38
768.786	333.58
769.226	258.18
769.666	320.18
770.106	635.48
770.546	1587.98
770.986	2614.48
771.426	2318.38
771.866	782.78
772.306	325.88
772.745	211.48
773.185	168.38
773.625	173.08
774.065	167.38
774.505	196.08
774.944	309.58
775.384	662.98
775.824	1154.88
776.263	1112.98
776.703	482.68
777.142	214.18
777.582	160.38
778.021	139.98
778.461	148.98
778.9	141.58
779.34	131.98
779.779	111.68
780.219	107.28
780.658	109.98
781.097	109.78
781.537	114.68
781.976	98.38
782.415	106.78
782.855	96.48
783.294	104.18
783.733	106.78
784.172	105.28
784.611	110.68
785.05	109.08
785.489	110.58
785.928	117.88
786.367	122.08
786.806	112.88
787.245	130.78
787.684	136.68
788.123	146.58
788.562	135.18
789.001	123.88
789.44	115.78
789.879	117.88
790.317	117.88
790.756	126.78
791.195	126.68
791.634	147.48
792.072	206.58
792.511	374.98
792.95	1030.08
793.388	2130.68
793.827	1901.58
794.265	671.68
794.704	281.48
795.142	181.38
795.581	151.78
796.019	133.08
796.458	131.28
796.896	121.98
797.334	131.78
797.773	155.08
798.211	216.88
798.649	449.98
799.087	1023.58
799.526	1593.98
799.964	2011.08
800.402	1978.78
800.84	755.58
801.278	305.98
801.716	182.48
802.154	159.58
802.592	150.78
803.03	139.08
803.468	134.78
803.906	146.38
804.344	147.28
804.782	138.08
805.22	129.98
805.658	129.28
806.096	145.78
806.533	153.58
806.971	175.48
807.409	217.58
807.847	325.78
808.284	681.88
808.722	1886.38
809.16	3268.08
809.597	3133.18
810.035	5407.68
810.472	5624.58
810.91	2056.98
811.347	794.48
811.785	397.48
812.222	253.48
812.66	188.18
813.097	168.68
813.535	134.68
813.972	134.48
814.409	121.18
814.846	113.48
815.284	106.08
815.721	101.28
816.158	104.48
816.595	126.28
817.032	174.98
817.47	191.98
817.907	159.28
818.344	143.58
818.781	118.48
819.218	105.18
819.655	121.18
820.092	189.78
820.529	206.58
820.966	180.08
821.403	130.38
821.839	106.98
822.276	100.78
822.713	125.08
823.15	135.98
823.587	117.08
824.023	146.78
824.46	302.98
824.897	903.08
825.333	1333.48
825.77	568.08
826.206	222.28
826.643	134.98
827.08	102.08
827.516	80.38
827.953	77.18
828.389	76.08
828.825	68.58
829.262	71.68
829.698	62.08
830.135	68.58
830.571	64.78
831.007	69.48
831.443	66.08
831.88	62.48
832.316	60.18
832.752	62.28
833.188	68.28
833.624	71.38
834.06	69.18
834.497	70.68
834.933	78.38
835.369	77.58
835.805	71.88
836.241	83.48
836.677	81.48
837.112	89.68
837.548	105.28
837.984	135.18
838.42	206.18
838.856	502.78
839.292	1515.88
839.727	2267.68
840.163	1064.18
840.599	933.18
841.034	2035.58
841.47	2066.68
841.906	767.18
842.341	343.58
842.777	226.88
843.212	299.08
843.648	289.88
844.083	146.88
844.519	98.28
844.954	74.48
845.39	58.38
845.825	57.28
846.261	66.98
846.696	49.28
847.131	52.88
847.566	58.98
848.002	53.98
848.437	59.68
848.872	66.38
849.307	64.78
849.742	79.98
850.177	184.68
850.613	551.08
851.048	866.38
851.483	369.88
851.918	155.68
852.353	89.18
852.788	66.68
853.223	58.68
853.657	65.28
854.092	47.28
854.527	37.58
854.962	44.38
855.397	42.08
855.832	58.68
856.266	41.08
856.701	45.18
857.136	43.18
857.57	41.78
858.005	47.68
858.44	60.08
858.874	45.28
859.309	49.68
859.743	33.38
860.178	46.48
860.612	37.28
861.047	51.88
861.481	64.38
861.915	65.38
862.35	46.98
862.784	38.38
863.218	39.58
863.653	38.08
864.087	43.98
864.521	52.28
864.955	74.98
865.39	156.68
865.824	170.58
866.258	110.78
866.692	163.48
867.126	171.18
867.56	102.88
867.994	51.88
868.428	39.98
868.862	48.38
869.296	52.98
869.73	53.68
870.164	51.18
870.598	46.28
871.031	39.58
871.465	32.08
871.899	28.18
872.333	24.28
872.766	30.08
873.2	22.08
873.634	28.78
874.067	30.48
874.501	33.28
874.935	28.88
875.368	36.98
875.802	25.88
876.235	23.38
876.669	31.58
877.102	20.48
877.535	25.78
877.969	16.58
878.402	27.68
878.836	16.28
879.269	23.68
879.702	23.08
880.135	28.78
880.569	22.98
881.002	23.88
881.435	23.48
881.868	16.88
882.301	22.88
882.734	19.38
883.167	23.28
883.601	23.38
884.034	25.88
884.467	12.18
884.899	15.58
885.332	19.78
885.765	15.48
886.198	18.78
886.631	13.18
887.064	17.88
887.497	18.18
887.929	24.68
888.362	17.68
888.795	13.88
889.228	16.18
889.66	16.38
890.093	18.08
890.526	13.38
890.958	13.68
891.391	17.18
891.823	24.88
892.256	11.28
892.688	12.48
893.121	17.18
893.553	16.98
893.985	26.68
894.418	19.08
894.85	20.88
895.282	17.78
895.715	13.88
896.147	18.08
896.579	15.18
897.011	15.88
897.444	22.28
897.876	14.68
898.308	16.68
898.74	18.88
899.172	8.78
899.604	22.28
900.036	21.08
900.468	13.48
900.9	12.18
901.332	19.38
901.764	16.48
902.196	22.08
902.628	26.68
903.06	15.98
903.491	25.48
903.923	21.48
904.355	17.78
904.787	24.78
905.218	22.38
905.65	20.18
906.082	10.18
906.513	17.98
906.945	13.78
907.376	14.18
907.808	18.88
908.239	19.78
908.671	20.38
909.102	20.98
909.534	24.78
909.965	44.28
910.397	97.48
910.828	310.68
911.259	469.98
911.691	215.18
912.122	105.98
912.553	52.28
912.984	33.48
913.415	25.58
913.847	26.18
914.278	19.68
914.709	14.98
915.14	25.88
915.571	15.68
916.002	13.68
916.433	16.88
916.864	14.68
917.295	13.88
917.726	21.88
918.157	15.28
918.587	28.58
919.018	20.18
919.449	24.28
919.88	22.08
920.311	29.38
920.741	43.68
921.172	172.08
921.603	149.98
922.033	71.38
922.464	44.88
922.895	25.18
923.325	16.58
923.756	13.98
924.186	16.78
924.617	30.78
925.047	39.88
925.478	47.08
925.908	48.38
926.338	23.38
926.769	16.98
927.199	23.28
927.629	5.18
928.06	18.08
928.49	11.08
928.92	18.58
929.35	14.08
929.78	13.28
930.21	4.58
930.641	6.78
931.071	7.58
931.501	5.78
931.931	10.18
932.361	7.68
932.791	6.28
933.221	7.28
933.651	4.98
934.08	19.88
934.51	29.68
934.94	8.68
935.37	9.58
935.8	10.78
936.229	7.18
936.659	8.38
937.089	3.98
937.519	9.58
937.948	24.98
938.378	14.78
938.807	7.78
939.237	0.88
939.666	12.08
940.096	-3.02
940.525	6.78
940.955	6.28
941.384	7.08
941.814	-3.92
942.243	4.18
942.672	0.78
943.102	-6.92
943.531	-1.52
943.96	4.18
944.39	5.08
944.819	1.88
945.248	10.18
945.677	-0.22
946.106	4.88
946.535	4.48
946.964	3.08
947.393	5.38
947.822	4.88
948.251	-1.22
948.68	6.08
949.109	8.18
949.538	4.18
949.967	4.38
950.396	4.38
950.825	2.58
951.254	-1.02
951.682	-5.32
952.111	1.28
952.54	6.58
952.969	-0.02
953.397	-8.82
953.826	-0.22
954.254	-7.82
954.683	-0.32
955.112	-5.42
955.54	-6.72
955.969	-2.82
956.397	-2.42
956.826	-1.92
957.254	5.08
957.682	5.88
958.111	8.18
958.539	0.78
958.967	-0.12
959.396	-3.02
959.824	0.08
960.252	5.08
960.68	-5.82
961.109	-1.62
961.537	-3.22
961.965	1.98
962.393	5.38
962.821	-0.92
963.249	6.78
963.677	3.28
964.105	8.28
964.533	43.98
964.961	37.58
965.389	22.58
965.817	10.78
966.245	1.98
966.672	1.68
967.1	-8.82
967.528	-5.62
967.956	-2.52
968.383	3.38
968.811	1.78
969.239	-6.22
969.666	-5.62
970.094	4.18
970.522	2.68
970.949	3.98
971.377	-7.92
971.804	2.08
972.232	-1.12
972.659	-7.22
973.087	3.18
973.514	-4.42
973.941	0.78
974.369	0.08
974.796	-2.02
975.223	-2.02
975.651	-3.82
976.078	9.38
976.505	-1.02
976.932	4.98
977.359	15.88
977.786	13.78
978.214	1.98
978.641	-2.92
979.068	-1.62
979.495	-2.12
979.922	0.08
980.349	-1.42
980.776	8.48
981.202	-0.42
981.629	1.38
982.056	3.38
982.483	-1.22
982.91	-1.72
983.337	-8.72
983.763	3.88
984.19	-5.12
984.617	-1.02
985.043	-13.02
985.47	-0.22
985.897	-4.32
986.323	-4.12
986.75	5.98
987.176	2.18
987.603	1.38
988.029	-3.72
988.456	-4.52
988.882	-0.52
989.308	-4.62
989.735	-5.92
990.161	2.78
990.587	1.48
991.014	0.18
991.44	6.78
991.866	-4.42
992.292	-2.92
992.719	-2.22
993.145	-0.92
993.571	-8.62
993.997	-2.42
994.423	-1.32
994.849	0.98
995.275	1.98
995.701	1.98
996.127	0.28
996.553	5.98
996.979	-2.52
997.405	0.38
997.83	-7.12
998.256	-6.72
998.682	-5.82
999.108	-7.42
999.534	0.98
999.959	-3.82
1000.385	-2.92
1000.811	0.48
1001.236	-8.02
1001.662	-7.12
1002.087	-5.22
1002.513	3.58
1002.938	3.78
1003.364	-5.32
1003.789	4.78
1004.215	6.88
1004.64	1.38
1005.066	-3.92
1005.491	2.78
1005.916	-5.12
1006.342	-9.02
1006.767	-6.62
1007.192	3.08
1007.617	-8.42
1008.042	-2.92
1008.468	-2.02
1008.893	-4.22
1009.318	3.28
1009.743	-3.32
1010.168	2.38
1010.593	-5.02
1011.018	-9.42
1011.443	-1.82
1011.868	5.68
1012.293	-2.12
1012.718	-8.52
1013.143	2.88
1013.567	-1.32
1013.992	0.08
1014.417	-10.62
1014.842	3.48
1015.267	-4.72
1015.691	-8.52
1016.116	6.08
1016.541	-0.52
1016.965	0.98
1017.39	-4.22
1017.814	-4.42
1018.239	-5.62
1018.663	-12.02
1019.088	-12.22
1019.512	-1.92
1019.937	-1.72
1020.361	-2.62
1020.785	-5.12
1021.21	-0.82
1021.634	0.58
1022.058	-4.02
1022.483	3.38
1022.907	-4.52
1023.331	-7.22
1023.755	-1.22
1024.179	0.58
1024.604	-3.22
1025.028	-7.72
1025.452	-0.42
1025.876	-1.62
1026.3	2.98
1026.724	-8.62
1027.148	-5.92
1027.572	-4.62
1027.996	-5.52
1028.42	-1.82
1028.843	-2.22
1029.267	-1.32
1029.691	-8.02
1030.115	-5.42
1030.539	-5.82
1030.962	-8.02
1031.386	-10.62
1031.81	-0.72
1032.233	-2.42
1032.657	3.08
1033.08	-1.72
1033.504	-4.92
1033.927	-5.92
1034.351	1.48
1034.774	1.08
1035.198	-0.22
1035.621	-0.52
1036.045	-1.72
1036.468	-1.82
1036.891	-8.72
1037.315	-3.32
1037.738	-12.22
1038.161	1.08
1038.584	-11.22
1039.008	-9.42
1039.431	-5.12
1039.854	1.78
1040.277	-7.92
1040.7	-7.82
1041.123	-3.72
1041.546	-0.62
1041.969	-2.72
1042.392	-5.92
1042.815	-3.32
1043.238	-2.82
1043.661	-1.12
1044.084	-6.52
1044.507	-3.32
1044.93	-2.82
1045.352	-9.62
1045.775	-1.12
1046.198	1.88
1046.621	-3.52
1047.043	-0.92
1047.466	5.28
1047.889	-5.22
1048.311	-4.72
1048.734	-1.12
1049.156	1.08
1049.579	-3.92
1050.001	-5.02
1050.424	1.38
1050.846	-7.92
1051.269	-3.22
1051.691	-8.62
1052.113	-8.22
1052.536	-0.42
1052.958	-3.72
1053.38	-6.62
1053.802	-13.72
1054.225	-3.82
1054.647	-10.02
1055.069	-6.92
1055.491	2.28
1055.913	-0.62
1056.335	-0.72
1056.757	-0.52
1057.179	-8.02
1057.601	-1.22
1058.023	-2.22
1058.445	-7.62
1058.867	-0.72
1059.289	-5.72
1059.711	0.58
1060.133	-3.02
1060.555	-0.22
1060.976	-3.32
1061.398	-4.12
1061.82	-8.22
1062.241	-7.32
1062.663	-6.12
1063.085	-5.82
1063.506	4.48
1063.928	0.28
1064.35	4.68
1064.771	-14.82
1065.193	-4.12
1065.614	-10.62
1066.035	-4.92
1066.457	-2.42
1066.878	-0.32
1067.3	-5.52
1067.721	-4.42
1068.142	-8.62
1068.564	-3.02
1068.985	-0.72
1069.406	-5.02
1069.827	-8.42
1070.248	-4.02
1070.67	-5.52
1071.091	-1.12
1071.512	-6.42
1071.933	-7.02
1072.354	-5.22
1072.775	-5.32
1073.196	-4.72
1073.617	-7.52
1074.038	-10.62
1074.459	-5.02
1074.88	-6.52
1075.3	1.18
1075.721	-4.92
1076.142	-1.22
1076.563	-2.52
1076.983	-12.22
1077.404	-9.82
1077.825	-7.92
1078.246	-6.52
1078.666	-9.32
1079.087	-4.82
1079.507	-2.22
1079.928	-6.92
1080.348	-1.42
1080.769	-4.82
1081.189	-1.62
1081.61	2.58
1082.03	-3.52
1082.451	-6.52
1082.871	-5.22
1083.291	-5.22
1083.711	-7.32
1084.132	-5.12
1084.552	-11.62
1084.972	-2.02
1085.392	-7.42
1085.813	-11.92
1086.233	-2.72
1086.653	-8.12
1087.073	-6.72
1087.493	-15.42
1087.913	-5.52
1088.333	-5.62
1088.753	-2.32
1089.173	4.28
1089.593	1.78
1090.013	4.48
1090.433	-5.82
1090.852	1.08
1091.272	-2.52
1091.692	1.08
1092.112	-2.62
1092.531	-2.12
1092.951	-8.52
1093.371	-3.52
1093.79	4.08
1094.21	-6.32
1094.63	-5.52
1095.049	-11.22
1095.469	0.48
1095.888	-1.42
1096.308	4.28
1096.727	2.18
1097.146	-2.82
1097.566	-0.72
1097.985	-6.62
1098.405	-1.32
1098.824	-7.22
1099.243	-7.12
1099.662	-13.92
1100.082	-6.52
1100.501	-2.02
1100.92	-6.02
1101.339	-2.12
1101.758	-0.52
