Data from 20171114-ORNL-Ar_H_NY_Subt18_08-05-50-161.txt Node
Date: Tue Nov 14 08:05:50 EST 2017
User: Ender
Spectrometer: HR+D1039
Trigger mode: 0
Integration Time (sec): 2.730000E-2
Scans to average: 10
Electric dark correction enabled: true
Nonlinearity correction enabled: false
Boxcar width: 0
XAxis mode: Wavelengths
Number of Pixels in Spectrum: 2048
>>>>>Begin Spectral Data<<<<<
187.836	-0.43
188.309	-0.43
188.782	-0.43
189.255	2.47
189.728	-7.03
190.201	4.77
190.674	-4.63
191.147	6.17
191.619	-7.53
192.092	3.97
192.565	8.67
193.038	2.67
193.511	1.17
193.984	-0.33
194.456	-1.73
194.929	-4.33
195.402	-2.43
195.874	-1.43
196.347	1.37
196.82	-6.53
197.292	5.17
197.765	0.87
198.237	0.97
198.71	4.07
199.182	-5.63
199.655	3.17
200.127	1.77
200.6	-6.23
201.072	-2.13
201.544	-2.03
202.017	-2.03
202.489	8.17
202.961	-3.03
203.433	-4.43
203.906	-4.43
204.378	-9.53
204.85	2.07
205.322	-9.53
205.794	-4.63
206.266	-4.33
206.739	-10.13
207.211	4.27
207.683	-8.63
208.155	-4.63
208.627	-2.53
209.099	-2.23
209.57	-9.43
210.042	0.67
210.514	-1.73
210.986	-0.53
211.458	-8.63
211.93	-4.73
212.402	-3.43
212.873	-9.43
213.345	-8.53
213.817	-8.33
214.288	-5.13
214.76	-7.03
215.232	-2.03
215.703	-3.13
216.175	-1.83
216.646	-0.23
217.118	-4.03
217.589	-4.63
218.061	-4.83
218.532	-9.03
219.004	-0.63
219.475	2.67
219.946	-1.73
220.418	-0.73
220.889	-4.23
221.36	-3.83
221.832	-3.63
222.303	-3.93
222.774	-4.73
223.245	-10.03
223.717	-9.33
224.188	-5.33
224.659	-4.73
225.13	-7.93
225.601	2.57
226.072	0.87
226.543	-1.83
227.014	-0.23
227.485	-4.93
227.956	-8.43
228.427	-2.43
228.898	-1.83
229.369	6.47
229.839	-2.33
230.31	-4.23
230.781	-1.53
231.252	-3.33
231.722	-6.43
232.193	-2.63
232.664	-0.13
233.135	-1.03
233.605	-1.03
234.076	-8.63
234.546	-0.73
235.017	8.97
235.487	-0.93
235.958	-1.63
236.428	-2.33
236.899	0.37
237.369	1.27
237.84	-4.43
238.31	8.87
238.78	3.47
239.251	5.27
239.721	-1.53
240.191	0.37
240.662	-2.33
241.132	0.87
241.602	3.67
242.072	-0.63
242.542	9.67
243.013	0.27
243.483	3.37
243.953	2.87
244.423	-1.03
244.893	-4.43
245.363	1.37
245.833	-0.93
246.303	-4.83
246.773	9.77
247.243	-0.23
247.712	7.97
248.182	8.57
248.652	4.77
249.122	2.67
249.592	11.27
250.061	24.07
250.531	27.07
251.001	19.37
251.471	18.97
251.94	18.77
252.41	4.87
252.879	1.07
253.349	14.57
253.818	10.27
254.288	3.47
254.757	0.47
255.227	3.67
255.696	4.17
256.166	8.47
256.635	5.97
257.105	5.07
257.574	9.67
258.043	2.47
258.513	16.47
258.982	14.47
259.451	9.57
259.92	16.37
260.389	12.07
260.859	20.87
261.328	15.27
261.797	12.47
262.266	6.67
262.735	8.17
263.204	8.27
263.673	2.97
264.142	4.87
264.611	0.17
265.08	1.27
265.549	2.67
266.018	10.77
266.487	-6.83
266.955	-0.83
267.424	1.87
267.893	7.37
268.362	5.57
268.83	6.77
269.299	11.77
269.768	5.07
270.236	7.27
270.705	6.07
271.174	4.67
271.642	6.37
272.111	14.47
272.579	18.67
273.048	25.27
273.516	29.07
273.985	28.27
274.453	27.47
274.922	24.67
275.39	18.07
275.858	4.47
276.327	15.57
276.795	18.87
277.263	12.77
277.731	32.27
278.2	53.77
278.668	64.97
279.136	49.67
279.604	24.37
280.072	10.67
280.54	14.57
281.008	10.37
281.477	17.47
281.945	5.07
282.413	17.57
282.881	16.37
283.348	11.47
283.816	13.77
284.284	17.97
284.752	21.37
285.22	13.97
285.688	21.17
286.156	24.97
286.623	45.17
287.091	54.97
287.559	31.37
288.026	19.37
288.494	19.97
288.962	8.27
289.429	13.17
289.897	23.67
290.364	15.47
290.832	19.07
291.3	15.77
291.767	14.77
292.234	21.87
292.702	16.87
293.169	19.47
293.637	19.97
294.104	28.97
294.571	7.17
295.039	14.37
295.506	9.77
295.973	14.07
296.44	12.57
296.908	16.67
297.375	20.27
297.842	20.97
298.309	20.17
298.776	16.37
299.243	23.77
299.71	16.07
300.177	17.67
300.644	19.77
301.111	19.87
301.578	24.27
302.045	19.97
302.512	26.67
302.979	30.37
303.446	23.57
303.913	25.27
304.379	17.27
304.846	29.97
305.313	29.27
305.78	23.87
306.246	25.77
306.713	29.77
307.18	25.17
307.646	29.47
308.113	31.37
308.579	27.67
309.046	32.57
309.512	24.07
309.979	21.17
310.445	33.37
310.912	33.47
311.378	30.27
311.845	34.57
312.311	26.47
312.777	32.67
313.244	36.17
313.71	42.27
314.176	32.07
314.642	27.67
315.109	35.67
315.575	35.07
316.041	44.77
316.507	35.37
316.973	41.57
317.439	31.87
317.905	34.57
318.371	40.37
318.837	38.17
319.303	36.27
319.769	31.97
320.235	31.07
320.701	35.67
321.167	36.17
321.633	36.27
322.099	38.77
322.564	45.87
323.03	42.07
323.496	42.97
323.962	41.17
324.427	41.57
324.893	41.57
325.359	37.67
325.824	36.87
326.29	44.87
326.755	45.57
327.221	42.87
327.686	36.37
328.152	47.77
328.617	45.57
329.083	45.77
329.548	52.87
330.014	46.37
330.479	40.67
330.944	46.57
331.41	44.27
331.875	48.87
332.34	44.87
332.805	46.07
333.271	51.47
333.736	49.87
334.201	56.07
334.666	49.37
335.131	52.17
335.596	53.87
336.061	52.07
336.526	38.77
336.991	51.57
337.456	60.87
337.921	49.67
338.386	46.87
338.851	49.17
339.316	48.47
339.781	48.97
340.246	50.47
340.711	50.07
341.175	53.37
341.64	52.47
342.105	52.97
342.569	54.97
343.034	60.27
343.499	58.77
343.963	51.37
344.428	61.87
344.893	68.67
345.357	62.47
345.822	63.27
346.286	72.47
346.751	81.37
347.215	71.47
347.679	77.87
348.144	95.27
348.608	87.97
349.073	73.87
349.537	77.27
350.001	76.97
350.465	88.47
350.93	89.27
351.394	85.47
351.858	76.97
352.322	90.27
352.786	85.87
353.25	100.27
353.715	114.47
354.179	97.57
354.643	124.87
355.107	127.77
355.571	110.17
356.035	100.97
356.498	117.37
356.962	123.87
357.426	129.57
357.89	114.77
358.354	92.77
358.818	83.17
359.281	79.77
359.745	76.87
360.209	77.17
360.673	81.27
361.136	83.87
361.6	82.77
362.064	89.07
362.527	88.07
362.991	95.07
363.454	83.57
363.918	80.17
364.381	76.77
364.845	82.67
365.308	85.87
365.772	88.17
366.235	89.67
366.698	88.37
367.162	85.97
367.625	85.47
368.088	86.27
368.552	95.27
369.015	90.77
369.478	95.27
369.941	105.07
370.404	97.67
370.867	104.97
371.331	110.27
371.794	120.37
372.257	108.57
372.72	124.37
373.183	115.67
373.646	111.37
374.109	105.97
374.572	109.47
375.035	114.67
375.497	115.87
375.96	114.37
376.423	108.67
376.886	115.57
377.349	114.57
377.811	110.87
378.274	107.77
378.737	109.77
379.199	114.57
379.662	112.77
380.125	121.27
380.587	125.07
381.05	123.27
381.512	125.67
381.975	141.27
382.437	130.17
382.9	125.57
383.362	133.37
383.825	145.77
384.287	142.67
384.75	144.07
385.212	142.47
385.674	146.07
386.136	140.77
386.599	130.57
387.061	130.37
387.523	129.07
387.985	140.37
388.447	145.17
388.91	144.37
389.372	161.87
389.834	158.17
390.296	149.37
390.758	158.37
391.22	172.07
391.682	213.57
392.144	300.07
392.606	229.37
393.068	174.67
393.529	171.47
393.991	156.27
394.453	151.27
394.915	163.37
395.377	194.77
395.838	221.17
396.3	157.97
396.762	145.87
397.224	145.87
397.685	135.37
398.147	129.87
398.608	133.47
399.07	128.77
399.531	142.17
399.993	145.47
400.454	157.17
400.916	151.37
401.377	149.47
401.839	161.77
402.3	153.37
402.762	170.27
403.223	185.07
403.684	182.57
404.145	164.57
404.607	165.47
405.068	166.87
405.529	174.57
405.99	193.97
406.451	176.67
406.913	174.37
407.374	166.97
407.835	160.97
408.296	165.07
408.757	176.17
409.218	183.87
409.679	183.07
410.14	180.87
410.601	179.67
411.062	191.57
411.522	191.37
411.983	195.87
412.444	183.57
412.905	183.07
413.366	186.97
413.826	205.17
414.287	215.67
414.748	265.77
415.208	258.07
415.669	215.57
416.13	210.97
416.59	209.97
417.051	217.97
417.511	222.77
417.972	244.57
418.432	246.77
418.893	291.27
419.353	252.17
419.814	197.87
420.274	183.07
420.734	185.27
421.195	208.57
421.655	195.27
422.115	199.87
422.576	198.27
423.036	204.17
423.496	211.57
423.956	222.27
424.416	227.67
424.876	267.07
425.336	263.87
425.797	259.47
426.257	258.17
426.717	244.87
427.177	235.77
427.637	232.17
428.097	238.17
428.556	249.97
429.016	283.87
429.476	267.77
429.936	274.67
430.396	279.97
430.856	298.47
431.315	317.87
431.775	365.77
432.235	393.97
432.694	362.17
433.154	376.97
433.614	398.17
434.073	348.47
434.533	289.27
434.993	279.37
435.452	290.67
435.912	301.37
436.371	291.97
436.83	289.67
437.29	282.17
437.749	253.57
438.209	254.77
438.668	279.77
439.127	292.27
439.587	266.87
440.046	256.57
440.505	271.47
440.964	279.97
441.424	328.57
441.883	318.47
442.342	274.07
442.801	228.07
443.26	228.07
443.719	232.57
444.178	226.27
444.637	220.67
445.096	223.97
445.555	230.47
446.014	227.17
446.473	233.77
446.932	241.07
447.391	229.67
447.849	230.47
448.308	214.17
448.767	229.07
449.226	244.47
449.685	241.87
450.143	249.87
450.602	236.77
451.061	234.07
451.519	241.47
451.978	248.97
452.436	244.07
452.895	244.17
453.353	254.47
453.812	248.57
454.27	251.87
454.729	242.47
455.187	253.17
455.646	251.97
456.104	251.37
456.562	266.27
457.021	278.27
457.479	267.57
457.937	278.77
458.395	275.07
458.854	246.77
459.312	259.17
459.77	279.67
460.228	259.17
460.686	249.97
461.144	249.47
461.602	250.27
462.06	247.37
462.518	258.37
462.976	259.07
463.434	263.67
463.892	272.17
464.35	285.77
464.808	298.67
465.266	277.37
465.724	278.77
466.181	282.37
466.639	281.87
467.097	287.37
467.555	296.47
468.012	308.17
468.47	318.67
468.928	340.37
469.385	358.37
469.843	358.27
470.3	355.87
470.758	368.57
471.215	399.87
471.673	425.37
472.13	422.67
472.588	425.87
473.045	384.97
473.503	389.77
473.96	403.17
474.417	423.27
474.875	437.77
475.332	488.47
475.789	472.97
476.246	477.27
476.704	500.07
477.161	524.77
477.618	542.47
478.075	582.27
478.532	631.97
478.989	702.57
479.446	835.17
479.903	803.47
480.36	827.47
480.817	882.67
481.274	992.37
481.731	1097.77
482.188	1200.57
482.645	1335.97
483.102	1442.97
483.558	1581.37
484.015	1644.27
484.472	1603.67
484.929	1550.77
485.385	1505.77
485.842	1467.37
486.299	1404.47
486.755	1329.07
487.212	1119.57
487.668	960.77
488.125	867.27
488.582	793.57
489.038	766.07
489.494	733.57
489.951	712.87
490.407	680.27
490.864	669.77
491.32	670.17
491.776	656.77
492.233	658.37
492.689	626.07
493.145	626.87
493.602	618.07
494.058	632.47
494.514	627.77
494.97	649.37
495.426	670.07
495.882	635.67
496.338	635.37
496.794	636.37
497.251	633.77
497.707	659.57
498.163	661.17
498.618	663.97
499.074	663.07
499.53	705.77
499.986	698.67
500.442	678.07
500.898	653.17
501.354	641.77
501.809	652.77
502.265	667.47
502.721	679.47
503.177	687.77
503.632	685.67
504.088	690.27
504.543	725.37
504.999	735.77
505.455	666.57
505.91	654.67
506.366	649.87
506.821	644.37
507.277	650.27
507.732	642.37
508.187	641.57
508.643	643.77
509.098	646.97
509.553	675.07
510.009	677.87
510.464	687.97
510.919	703.47
511.375	715.07
511.83	721.47
512.285	741.97
512.74	780.37
513.195	812.67
513.65	796.27
514.105	790.47
514.56	798.57
515.015	808.87
515.47	824.07
515.925	821.97
516.38	815.17
516.835	810.57
517.29	798.27
517.745	788.37
518.2	787.37
518.655	768.07
519.109	767.97
519.564	761.37
520.019	757.57
520.474	749.27
520.928	745.47
521.383	745.07
521.838	722.87
522.292	734.47
522.747	723.27
523.201	719.17
523.656	720.67
524.11	707.07
524.565	702.37
525.019	707.87
525.474	720.77
525.928	716.07
526.382	717.77
526.837	719.37
527.291	713.07
527.745	714.27
528.2	719.27
528.654	709.07
529.108	706.97
529.562	704.87
530.016	708.17
530.47	710.57
530.925	703.67
531.379	707.17
531.833	724.07
532.287	718.57
532.741	721.77
533.195	718.57
533.649	740.07
534.103	731.07
534.556	727.57
535.01	721.97
535.464	721.07
535.918	733.67
536.372	742.77
536.826	736.37
537.279	723.07
537.733	729.47
538.187	731.77
538.64	738.17
539.094	743.97
539.548	747.27
540.001	740.17
540.455	736.47
540.908	746.17
541.362	757.67
541.815	767.87
542.269	776.57
542.722	779.67
543.175	778.47
543.629	789.17
544.082	803.87
544.536	807.17
544.989	798.37
545.442	806.17
545.895	802.57
546.349	809.47
546.802	804.67
547.255	819.97
547.708	823.27
548.161	835.07
548.614	835.47
549.067	853.47
549.52	835.37
549.973	830.27
550.426	820.37
550.879	814.47
551.332	809.57
551.785	825.17
552.238	829.77
552.691	835.97
553.144	851.27
553.596	865.17
554.049	879.37
554.502	912.97
554.955	928.77
555.407	921.97
555.86	918.97
556.313	923.07
556.765	898.97
557.218	901.97
557.67	904.37
558.123	898.27
558.576	886.57
559.028	890.57
559.48	895.57
559.933	894.37
560.385	852.17
560.838	813.27
561.29	804.37
561.742	791.77
562.195	776.47
562.647	776.17
563.099	795.07
563.551	781.37
564.004	806.47
564.456	784.57
564.908	767.97
565.36	759.57
565.812	739.67
566.264	733.87
566.716	737.37
567.168	725.37
567.62	726.57
568.072	710.07
568.524	703.27
568.976	704.17
569.428	682.27
569.88	688.17
570.332	699.17
570.784	699.07
571.235	695.97
571.687	704.67
572.139	724.17
572.59	726.67
573.042	729.37
573.494	721.57
573.945	720.17
574.397	690.97
574.849	696.47
575.3	704.97
575.752	698.87
576.203	695.97
576.655	702.47
577.106	681.47
577.557	678.57
578.009	680.87
578.46	675.67
578.912	682.07
579.363	676.57
579.814	674.17
580.265	672.17
580.717	688.27
581.168	673.07
581.619	678.27
582.07	687.47
582.521	683.67
582.972	684.97
583.423	691.07
583.875	693.77
584.326	715.57
584.777	760.27
585.227	825.87
585.678	915.07
586.129	1012.77
586.58	1065.97
587.031	1158.87
587.482	1294.87
587.933	1496.67
588.384	1309.67
588.834	980.37
589.285	805.87
589.736	790.47
590.186	779.97
590.637	775.27
591.088	753.37
591.538	747.67
591.989	743.37
592.439	730.07
592.89	730.27
593.34	718.77
593.791	716.17
594.241	711.27
594.692	714.47
595.142	707.37
595.593	713.77
596.043	716.77
596.493	721.57
596.943	727.17
597.394	728.17
597.844	716.37
598.294	739.67
598.744	758.57
599.195	792.27
599.645	823.47
600.095	863.77
600.545	922.47
600.995	965.77
601.445	1032.27
601.895	1090.37
602.345	1151.27
602.795	1118.07
603.245	1073.77
603.695	1013.77
604.145	963.27
604.594	925.77
605.044	878.07
605.494	806.77
605.944	759.77
606.393	748.97
606.843	729.97
607.293	736.87
607.743	745.37
608.192	744.37
608.642	761.17
609.091	775.57
609.541	775.37
609.99	770.67
610.44	768.77
610.889	731.17
611.339	701.87
611.788	686.27
612.238	713.27
612.687	730.47
613.136	718.37
613.586	742.27
614.035	737.47
614.484	760.27
614.933	755.07
615.383	749.47
615.832	747.27
616.281	729.77
616.73	686.87
617.179	671.17
617.628	655.07
618.077	643.27
618.526	625.87
618.975	614.67
619.424	615.77
619.873	612.27
620.322	613.97
620.771	607.47
621.22	608.27
621.669	600.87
622.118	592.57
622.567	585.77
623.015	559.27
623.464	576.87
623.913	560.77
624.361	558.47
624.81	550.37
625.259	554.77
625.707	557.87
626.156	547.57
626.604	566.27
627.053	564.67
627.501	564.87
627.95	565.17
628.398	577.77
628.847	569.97
629.295	573.67
629.744	583.77
630.192	565.27
630.64	574.77
631.089	567.87
631.537	576.07
631.985	585.77
632.433	602.27
632.881	598.87
633.33	650.87
633.778	631.97
634.226	567.47
634.674	571.47
635.122	576.27
635.57	591.07
636.018	630.77
636.466	577.57
636.914	553.67
637.362	572.47
637.81	565.17
638.258	583.67
638.705	565.87
639.153	613.57
639.601	610.27
640.049	637.77
640.497	673.37
640.944	685.77
641.392	635.67
641.84	609.47
642.287	586.07
642.735	570.47
643.182	572.47
643.63	573.67
644.078	579.47
644.525	587.77
644.973	595.17
645.42	605.67
645.867	617.57
646.315	643.67
646.762	668.57
647.21	691.37
647.657	706.97
648.104	744.27
648.551	773.67
648.999	833.97
649.446	907.37
649.893	994.57
650.34	1156.87
650.787	1380.77
651.234	1690.87
651.682	2218.87
652.129	3028.97
652.576	4370.27
653.023	6459.27
653.47	8891.27
653.917	11112.57
654.363	12876.17
654.81	14253.87
655.257	13596.67
655.704	8891.37
656.151	5261.47
656.598	3398.17
657.044	2424.57
657.491	1853.07
657.938	1486.27
658.385	1233.67
658.831	1073.97
659.278	960.67
659.724	858.97
660.171	786.67
660.618	720.67
661.064	683.27
661.511	667.37
661.957	650.47
662.404	633.47
662.85	651.47
663.296	617.37
663.743	557.87
664.189	541.07
664.635	534.57
665.082	520.97
665.528	519.37
665.974	512.07
666.42	497.47
666.867	499.77
667.313	481.37
667.759	477.37
668.205	477.17
668.651	486.77
669.097	482.87
669.543	488.47
669.989	457.07
670.435	445.77
670.881	437.87
671.327	442.47
671.773	463.87
672.219	491.27
672.665	538.37
673.11	579.07
673.556	608.47
674.002	657.97
674.448	640.77
674.893	540.17
675.339	468.07
675.785	439.37
676.23	409.27
676.676	388.57
677.122	373.37
677.567	364.77
678.013	360.87
678.458	361.57
678.904	356.97
679.349	341.47
679.794	346.57
680.24	343.27
680.685	336.47
681.131	349.07
681.576	350.07
682.021	351.07
682.466	343.57
682.912	343.57
683.357	349.57
683.802	379.17
684.247	402.77
684.692	451.07
685.137	479.17
685.583	528.67
686.028	549.67
686.473	512.87
686.918	430.77
687.363	404.77
687.807	388.47
688.252	359.27
688.697	351.77
689.142	338.97
689.587	321.17
690.032	316.87
690.477	341.17
690.921	341.47
691.366	375.07
691.811	401.97
692.255	427.17
692.7	452.87
693.145	486.47
693.589	676.47
694.034	1092.87
694.478	1504.97
694.923	1707.37
695.367	2242.17
695.812	1177.27
696.256	487.97
696.701	360.57
697.145	331.87
697.59	330.37
698.034	316.87
698.478	328.77
698.922	316.87
699.367	318.47
699.811	336.27
700.255	352.17
700.699	378.47
701.143	416.07
701.588	468.37
702.032	507.17
702.476	504.87
702.92	481.37
703.364	479.87
703.808	620.67
704.252	999.37
704.696	1411.47
705.14	1639.77
705.584	2108.37
706.027	1043.87
706.471	514.47
706.915	390.57
707.359	336.47
707.803	311.87
708.246	302.97
708.69	307.07
709.134	308.27
709.577	300.07
710.021	311.27
710.465	303.87
710.908	303.37
711.352	291.77
711.795	305.17
712.239	339.97
712.682	379.07
713.126	413.07
713.569	463.57
714.012	358.87
714.456	319.27
714.899	293.97
715.342	269.67
715.786	260.97
716.229	260.77
716.672	253.07
717.115	246.97
717.558	246.17
718.002	247.57
718.445	255.17
718.888	282.77
719.331	291.07
719.774	298.17
720.217	300.47
720.66	274.07
721.103	262.07
721.546	248.57
721.989	239.37
722.432	231.47
722.874	232.97
723.317	224.07
723.76	234.67
724.203	254.47
724.645	307.67
725.088	425.17
725.531	561.77
725.974	633.47
726.416	536.47
726.859	297.57
727.301	243.27
727.744	234.27
728.187	229.07
728.629	229.77
729.071	240.27
729.514	255.47
729.956	263.47
730.399	279.97
730.841	281.87
731.283	262.47
731.726	257.87
732.168	260.37
732.61	256.57
733.053	274.27
733.495	307.77
733.937	342.67
734.379	391.77
734.821	419.07
735.263	526.17
735.705	799.57
736.148	1527.07
736.59	2502.97
737.032	3015.57
737.474	2461.37
737.916	797.87
738.357	417.07
738.799	314.97
739.241	295.97
739.683	278.47
740.125	288.17
740.567	293.07
741.008	306.57
741.45	311.77
741.892	305.37
742.334	337.17
742.775	352.97
743.217	327.47
743.658	263.27
744.1	253.27
744.542	253.27
744.983	306.77
745.425	336.37
745.866	332.07
746.307	280.77
746.749	275.07
747.19	315.07
747.632	442.67
748.073	839.87
748.514	1780.17
748.956	2783.67
749.397	3473.17
749.838	2890.57
750.279	2898.57
750.72	1468.77
751.162	536.07
751.603	305.17
752.044	248.07
752.485	214.17
752.926	204.77
753.367	194.97
753.808	186.47
754.249	191.17
754.69	178.97
755.131	181.67
755.572	179.07
756.013	174.87
756.453	173.37
756.894	184.77
757.335	184.17
757.776	195.87
758.216	195.17
758.657	192.17
759.098	200.87
759.538	218.67
759.979	265.57
760.42	357.27
760.86	670.37
761.301	1735.67
761.741	4252.37
762.182	6342.67
762.622	4476.67
763.063	1275.07
763.503	517.47
763.943	339.97
764.384	330.67
764.824	391.97
765.264	441.67
765.705	305.07
766.145	202.37
766.585	187.17
767.025	178.57
767.465	177.77
767.906	231.47
768.346	309.17
768.786	344.77
769.226	253.57
769.666	310.47
770.106	593.17
770.546	1489.07
770.986	2616.37
771.426	2341.77
771.866	778.47
772.306	329.27
772.745	202.07
773.185	176.87
773.625	163.47
774.065	162.57
774.505	196.57
774.944	292.47
775.384	623.27
775.824	1148.77
776.263	1129.57
776.703	480.97
777.142	213.37
777.582	154.17
778.021	136.77
778.461	133.87
778.9	139.37
779.34	128.97
779.779	113.87
780.219	110.17
780.658	110.77
781.097	108.17
781.537	108.87
781.976	109.37
782.415	101.87
782.855	100.87
783.294	101.67
783.733	109.97
784.172	107.57
784.611	102.47
785.05	102.47
785.489	109.87
785.928	118.07
786.367	120.57
786.806	117.67
787.245	125.97
787.684	132.07
788.123	144.17
788.562	135.27
789.001	122.27
789.44	120.17
789.879	117.17
790.317	119.17
790.756	123.27
791.195	123.47
791.634	140.47
792.072	191.17
792.511	349.37
792.95	957.47
793.388	2072.47
793.827	1920.57
794.265	663.07
794.704	265.77
795.142	178.27
795.581	147.77
796.019	134.97
796.458	120.17
796.896	115.97
797.334	128.67
797.773	149.07
798.211	198.77
798.649	416.77
799.087	990.27
799.526	1545.37
799.964	1940.67
800.402	1982.17
800.84	740.57
801.278	288.97
801.716	178.07
802.154	143.17
802.592	139.27
803.03	135.67
803.468	128.77
803.906	142.37
804.344	145.97
804.782	137.57
805.22	135.37
805.658	126.17
806.096	143.07
806.533	149.87
806.971	168.77
807.409	213.27
807.847	301.77
808.284	632.47
808.722	1788.87
809.16	3225.07
809.597	3005.17
810.035	5228.17
810.472	5692.27
810.91	2041.77
811.347	771.27
811.785	394.27
812.222	255.37
812.66	193.67
813.097	168.27
813.535	137.27
813.972	123.77
814.409	115.37
814.846	110.47
815.284	110.37
815.721	103.67
816.158	101.07
816.595	115.77
817.032	172.77
817.47	191.67
817.907	168.77
818.344	146.47
818.781	111.37
819.218	97.77
819.655	120.87
820.092	184.97
820.529	208.87
820.966	174.77
821.403	139.47
821.839	106.67
822.276	106.07
822.713	117.67
823.15	123.77
823.587	114.77
824.023	144.67
824.46	283.17
824.897	859.17
825.333	1319.77
825.77	568.67
826.206	217.87
826.643	130.67
827.08	100.47
827.516	79.27
827.953	75.47
828.389	75.67
828.825	68.57
829.262	60.47
829.698	55.27
830.135	67.77
830.571	60.67
831.007	58.17
831.443	62.77
831.88	60.47
832.316	55.87
832.752	62.87
833.188	64.17
833.624	61.87
834.06	67.67
834.497	64.97
834.933	67.07
835.369	73.17
835.805	67.17
836.241	69.67
836.677	81.47
837.112	88.37
837.548	95.37
837.984	124.57
838.42	196.47
838.856	463.87
839.292	1451.27
839.727	2256.47
840.163	1052.57
840.599	888.97
841.034	1966.57
841.47	2095.37
841.906	762.47
842.341	319.17
842.777	218.17
843.212	295.07
843.648	298.17
844.083	141.47
844.519	97.67
844.954	73.67
845.39	56.57
845.825	58.97
846.261	56.97
846.696	51.17
847.131	49.97
847.566	61.77
848.002	49.07
848.437	54.07
848.872	59.97
849.307	57.67
849.742	82.07
850.177	170.87
850.613	535.57
851.048	859.87
851.483	373.27
851.918	150.07
852.353	79.27
852.788	57.97
853.223	51.57
853.657	52.47
854.092	44.17
854.527	37.27
854.962	40.17
855.397	45.67
855.832	42.87
856.266	45.77
856.701	38.67
857.136	42.37
857.57	37.17
858.005	45.37
858.44	57.37
858.874	42.97
859.309	47.67
859.743	40.07
860.178	44.77
860.612	41.07
861.047	47.17
861.481	63.47
861.915	69.47
862.35	44.77
862.784	35.87
863.218	35.57
863.653	32.67
864.087	44.27
864.521	49.47
864.955	64.17
865.39	148.57
865.824	168.17
866.258	113.17
866.692	153.87
867.126	173.87
867.56	96.87
867.994	47.77
868.428	35.27
868.862	54.07
869.296	53.77
869.73	59.77
870.164	52.87
870.598	47.67
871.031	38.27
871.465	29.77
871.899	31.57
872.333	26.07
872.766	27.07
873.2	18.37
873.634	30.47
874.067	26.97
874.501	19.57
874.935	29.37
875.368	29.97
875.802	30.17
876.235	26.47
876.669	29.27
877.102	20.77
877.535	26.27
877.969	20.27
878.402	20.87
878.836	15.07
879.269	25.87
879.702	27.67
880.135	22.97
880.569	25.87
881.002	25.77
881.435	25.07
881.868	14.67
882.301	20.97
882.734	20.67
883.167	21.27
883.601	14.67
884.034	18.77
884.467	14.97
884.899	21.87
885.332	14.17
885.765	10.87
886.198	14.67
886.631	17.37
887.064	17.97
887.497	16.67
887.929	23.87
888.362	14.37
888.795	11.67
889.228	16.57
889.66	22.87
890.093	18.77
890.526	8.27
890.958	15.47
891.391	23.17
891.823	25.47
892.256	18.27
892.688	14.67
893.121	16.07
893.553	16.07
893.985	24.47
894.418	19.17
894.85	11.27
895.282	17.37
895.715	23.27
896.147	17.27
896.579	14.37
897.011	14.97
897.444	16.37
897.876	15.97
898.308	17.27
898.74	14.77
899.172	17.67
899.604	23.47
900.036	15.47
900.468	6.77
900.9	17.77
901.332	19.57
901.764	12.77
902.196	23.17
902.628	16.57
903.06	16.67
903.491	25.67
903.923	22.37
904.355	12.77
904.787	25.87
905.218	24.57
905.65	19.87
906.082	9.17
906.513	7.97
906.945	11.77
907.376	18.17
907.808	19.27
908.239	23.87
908.671	17.67
909.102	20.47
909.534	24.07
909.965	48.77
910.397	91.97
910.828	301.67
911.259	465.27
911.691	213.57
912.122	109.97
912.553	49.57
912.984	33.37
913.415	25.47
913.847	22.47
914.278	15.27
914.709	17.37
915.14	18.17
915.571	18.27
916.002	6.47
916.433	16.67
916.864	19.37
917.295	14.27
917.726	20.47
918.157	18.77
918.587	26.07
919.018	21.77
919.449	16.77
919.88	23.77
920.311	26.17
920.741	44.07
921.172	164.37
921.603	149.37
922.033	68.97
922.464	42.27
922.895	25.47
923.325	20.97
923.756	10.27
924.186	22.27
924.617	23.37
925.047	43.97
925.478	45.77
925.908	38.27
926.338	19.27
926.769	15.67
927.199	22.67
927.629	10.57
928.06	16.57
928.49	19.47
928.92	15.67
929.35	6.77
929.78	12.87
930.21	5.77
930.641	7.77
931.071	10.47
931.501	5.87
931.931	12.67
932.361	9.77
932.791	2.37
933.221	5.17
933.651	5.07
934.08	19.47
934.51	28.87
934.94	14.07
935.37	12.97
935.8	12.37
936.229	5.17
936.659	13.27
937.089	7.17
937.519	14.27
937.948	22.67
938.378	13.57
938.807	1.67
939.237	-0.53
939.666	8.17
940.096	-8.13
940.525	0.37
940.955	1.17
941.384	0.87
941.814	-0.83
942.243	-5.63
942.672	0.47
943.102	-2.63
943.531	-0.93
943.96	6.87
944.39	4.07
944.819	1.67
945.248	6.47
945.677	2.67
946.106	3.37
946.535	2.37
946.964	-1.63
947.393	3.57
947.822	3.47
948.251	-3.43
948.68	3.77
949.109	5.27
949.538	2.07
949.967	-0.23
950.396	0.17
950.825	-4.03
951.254	5.17
951.682	-7.23
952.111	6.47
952.54	3.97
952.969	-5.13
953.397	-7.13
953.826	1.27
954.254	-5.03
954.683	1.87
955.112	-1.03
955.54	-0.23
955.969	0.27
956.397	1.07
956.826	0.87
957.254	-0.13
957.682	2.07
958.111	0.17
958.539	-1.53
958.967	2.97
959.396	-4.93
959.824	-0.93
960.252	1.47
960.68	-6.63
961.109	0.77
961.537	-1.83
961.965	-1.63
962.393	-1.03
962.821	1.97
963.249	2.87
963.677	5.47
964.105	2.67
964.533	39.47
964.961	35.07
965.389	18.37
965.817	2.27
966.245	3.27
966.672	-6.33
967.1	-4.33
967.528	-0.43
967.956	-0.93
968.383	1.07
968.811	-0.73
969.239	1.87
969.666	-7.33
970.094	-0.83
970.522	3.77
970.949	-4.23
971.377	-3.93
971.804	0.47
972.232	-4.43
972.659	5.77
973.087	-3.03
973.514	-2.13
973.941	-2.63
974.369	5.77
974.796	2.77
975.223	-1.13
975.651	3.47
976.078	2.37
976.505	-1.33
976.932	9.87
977.359	17.67
977.786	11.77
978.214	4.17
978.641	-4.53
979.068	-7.03
979.495	-2.03
979.922	-1.13
980.349	-2.93
980.776	3.67
981.202	0.27
981.629	3.27
982.056	2.37
982.483	-7.93
982.91	0.27
983.337	-5.03
983.763	-1.83
984.19	-4.53
984.617	-5.83
985.043	-0.33
985.47	-0.13
985.897	-5.33
986.323	-5.33
986.75	3.07
987.176	-5.73
987.603	-3.03
988.029	-2.83
988.456	1.27
988.882	3.47
989.308	-9.43
989.735	-6.23
990.161	5.67
990.587	-8.83
991.014	1.97
991.44	0.27
991.866	-0.53
992.292	-0.43
992.719	-8.43
993.145	4.47
993.571	-7.93
993.997	-0.83
994.423	3.67
994.849	-5.03
995.275	4.67
995.701	4.07
996.127	-3.23
996.553	0.47
996.979	7.57
997.405	1.77
997.83	-5.63
998.256	-4.43
998.682	-0.93
999.108	-7.53
999.534	-1.43
999.959	-0.33
1000.385	-6.83
1000.811	1.57
1001.236	-8.13
1001.662	-2.53
1002.087	-8.63
1002.513	2.87
1002.938	-1.03
1003.364	-2.73
1003.789	-0.43
1004.215	1.07
1004.64	6.87
1005.066	4.27
1005.491	2.47
1005.916	1.77
1006.342	-5.13
1006.767	-11.73
1007.192	10.57
1007.617	-2.43
1008.042	-5.03
1008.468	-6.63
1008.893	-0.03
1009.318	3.97
1009.743	-3.23
1010.168	2.27
1010.593	-0.33
1011.018	-1.13
1011.443	-1.73
1011.868	-1.43
1012.293	-3.23
1012.718	-3.23
1013.143	2.07
1013.567	-1.03
1013.992	-2.63
1014.417	-10.73
1014.842	-0.43
1015.267	-11.93
1015.691	-3.43
1016.116	4.47
1016.541	-2.23
1016.965	3.57
1017.39	4.17
1017.814	-2.03
1018.239	-3.13
1018.663	-12.03
1019.088	-10.03
1019.512	-1.53
1019.937	-3.13
1020.361	-1.23
1020.785	-12.93
1021.21	-5.33
1021.634	-4.23
1022.058	-0.03
1022.483	6.27
1022.907	-3.63
1023.331	-6.03
1023.755	-2.43
1024.179	-1.23
1024.604	-6.63
1025.028	-8.73
1025.452	-4.13
1025.876	-4.63
1026.3	-4.93
1026.724	-6.93
1027.148	-0.53
1027.572	-6.03
1027.996	-4.33
1028.42	-1.33
1028.843	-0.33
1029.267	-3.73
1029.691	-6.63
1030.115	-4.63
1030.539	-3.33
1030.962	-0.43
1031.386	-13.93
1031.81	-0.43
1032.233	-2.63
1032.657	-4.23
1033.08	-0.43
1033.504	-4.63
1033.927	-0.93
1034.351	-2.53
1034.774	-6.53
1035.198	-0.83
1035.621	-7.13
1036.045	-9.83
1036.468	-5.23
1036.891	-14.33
1037.315	-16.73
1037.738	-4.93
1038.161	-1.03
1038.584	-5.03
1039.008	-6.83
1039.431	-2.33
1039.854	-3.33
1040.277	-10.33
1040.7	-14.63
1041.123	-5.03
1041.546	-6.63
1041.969	-5.43
1042.392	-5.13
1042.815	-3.73
1043.238	2.67
1043.661	4.17
1044.084	-12.53
1044.507	-4.33
1044.93	-8.63
1045.352	-5.73
1045.775	-3.33
1046.198	-5.63
1046.621	-2.93
1047.043	-2.33
1047.466	1.67
1047.889	-7.03
1048.311	-7.83
1048.734	-6.33
1049.156	-2.93
1049.579	-8.83
1050.001	-1.73
1050.424	-1.43
1050.846	-1.83
1051.269	-5.63
1051.691	-4.63
1052.113	-4.73
1052.536	-7.23
1052.958	-0.43
1053.38	-4.63
1053.802	-9.23
1054.225	3.17
1054.647	-2.53
1055.069	-8.63
1055.491	-1.93
1055.913	-8.23
1056.335	-4.33
1056.757	-2.53
1057.179	-6.93
1057.601	-7.53
1058.023	-1.03
1058.445	-6.03
1058.867	0.67
1059.289	-2.93
1059.711	-4.73
1060.133	-2.23
1060.555	-5.33
1060.976	-8.03
1061.398	-6.83
1061.82	-6.13
1062.241	-5.53
1062.663	-7.43
1063.085	-3.83
1063.506	0.17
1063.928	-5.73
1064.35	-0.33
1064.771	-10.83
1065.193	-8.73
1065.614	-10.63
1066.035	-2.73
1066.457	-7.63
1066.878	-10.03
1067.3	-8.03
1067.721	-1.23
1068.142	-3.33
1068.564	-1.73
1068.985	-6.73
1069.406	0.07
1069.827	-5.93
1070.248	1.37
1070.67	-9.83
1071.091	-11.53
1071.512	-3.73
1071.933	-5.33
1072.354	-5.03
1072.775	-1.43
1073.196	-5.03
1073.617	-7.63
1074.038	-10.83
1074.459	-3.73
1074.88	-10.43
1075.3	-5.23
1075.721	-11.73
1076.142	-0.23
1076.563	-4.03
1076.983	-11.93
1077.404	-2.73
1077.825	-1.73
1078.246	-2.63
1078.666	-13.13
1079.087	-5.83
1079.507	-5.13
1079.928	-3.53
1080.348	-2.83
1080.769	-8.93
1081.189	-2.73
1081.61	-6.23
1082.03	-3.53
1082.451	-3.53
1082.871	-5.33
1083.291	-2.63
1083.711	-8.53
1084.132	-5.43
1084.552	-6.53
1084.972	-8.73
1085.392	-5.23
1085.813	-9.73
1086.233	-6.53
1086.653	-7.43
1087.073	-2.43
1087.493	-6.13
1087.913	-8.33
1088.333	-3.83
1088.753	-6.23
1089.173	-2.23
1089.593	-1.93
1090.013	3.87
1090.433	-5.53
1090.852	-0.03
1091.272	-2.13
1091.692	-2.93
1092.112	-7.43
1092.531	-13.73
1092.951	-14.63
1093.371	-1.73
1093.79	-2.73
1094.21	-4.13
1094.63	-8.73
1095.049	-10.13
1095.469	-2.83
1095.888	-5.53
1096.308	3.47
1096.727	4.57
1097.146	-6.83
1097.566	-0.93
1097.985	-4.13
1098.405	-3.73
1098.824	-0.53
1099.243	-10.13
1099.662	-7.43
1100.082	-3.23
1100.501	-3.93
1100.92	-3.33
1101.339	-5.63
1101.758	-4.23
