Data from 20171114-ORNL-Ar_H_NY_Subt18_08-06-54-856.txt Node
Date: Tue Nov 14 08:06:54 EST 2017
User: Ender
Spectrometer: HR+D1039
Trigger mode: 0
Integration Time (sec): 2.730000E-2
Scans to average: 10
Electric dark correction enabled: true
Nonlinearity correction enabled: false
Boxcar width: 0
XAxis mode: Wavelengths
Number of Pixels in Spectrum: 2048
>>>>>Begin Spectral Data<<<<<
187.836	-5.84
188.309	-5.84
188.782	-5.84
189.255	3.56
189.728	-0.44
190.201	6.66
190.674	0.76
191.147	3.86
191.619	-8.84
192.092	5.76
192.565	0.36
193.038	-1.84
193.511	-0.04
193.984	-1.54
194.456	0.96
194.929	1.66
195.402	-4.44
195.874	-0.64
196.347	-1.54
196.82	-6.24
197.292	7.16
197.765	1.26
198.237	-3.94
198.71	0.16
199.182	-3.64
199.655	4.76
200.127	5.16
200.6	0.06
201.072	-1.24
201.544	0.46
202.017	-2.34
202.489	5.46
202.961	-4.84
203.433	-4.14
203.906	-5.84
204.378	-3.54
204.85	1.36
205.322	-10.04
205.794	5.16
206.266	-5.44
206.739	-3.24
207.211	5.76
207.683	-0.14
208.155	-8.24
208.627	-4.14
209.099	-1.54
209.57	-6.44
210.042	-2.34
210.514	-0.24
210.986	1.16
211.458	-10.34
211.93	1.76
212.402	4.16
212.873	-6.64
213.345	-10.64
213.817	-10.24
214.288	-1.74
214.76	-11.94
215.232	0.16
215.703	-2.74
216.175	3.76
216.646	-4.04
217.118	-6.84
217.589	-4.44
218.061	-0.04
218.532	-0.54
219.004	-5.34
219.475	-4.84
219.946	-2.74
220.418	-4.54
220.889	1.56
221.36	-0.54
221.832	-10.34
222.303	-8.94
222.774	3.76
223.245	-6.44
223.717	-0.14
224.188	-4.44
224.659	-4.04
225.13	-8.54
225.601	-7.34
226.072	5.66
226.543	4.16
227.014	1.76
227.485	-1.74
227.956	-2.84
228.427	-3.64
228.898	-0.24
229.369	8.96
229.839	-5.64
230.31	-7.64
230.781	-2.34
231.252	-5.14
231.722	-6.94
232.193	-2.94
232.664	0.96
233.135	-4.64
233.605	-2.04
234.076	-2.84
234.546	1.96
235.017	2.66
235.487	5.86
235.958	-6.04
236.428	-7.34
236.899	-1.54
237.369	-1.64
237.84	-6.64
238.31	-2.04
238.78	-1.34
239.251	-6.34
239.721	-5.64
240.191	0.46
240.662	-4.04
241.132	-0.14
241.602	-6.04
242.072	-3.14
242.542	-1.64
243.013	-4.74
243.483	4.36
243.953	3.86
244.423	-5.44
244.893	-8.74
245.363	0.86
245.833	-2.64
246.303	-1.04
246.773	0.66
247.243	-3.84
247.712	-0.74
248.182	0.06
248.652	4.56
249.122	-12.04
249.592	-3.84
250.061	2.36
250.531	8.36
251.001	-5.14
251.471	5.66
251.94	8.56
252.41	-3.04
252.879	-3.74
253.349	7.36
253.818	6.36
254.288	2.16
254.757	-3.54
255.227	-1.24
255.696	-2.14
256.166	4.96
256.635	1.56
257.105	4.06
257.574	2.86
258.043	1.66
258.513	-1.84
258.982	-5.74
259.451	-9.44
259.92	0.36
260.389	0.46
260.859	6.26
261.328	6.56
261.797	5.36
262.266	-2.04
262.735	6.46
263.204	1.56
263.673	-1.04
264.142	6.36
264.611	-7.94
265.08	-0.14
265.549	-2.54
266.018	0.56
266.487	-8.34
266.955	-5.94
267.424	-4.04
267.893	2.56
268.362	-0.04
268.83	2.76
269.299	9.76
269.768	4.36
270.236	6.86
270.705	-0.04
271.174	4.96
271.642	5.36
272.111	4.56
272.579	3.86
273.048	4.66
273.516	3.06
273.985	2.56
274.453	7.06
274.922	8.56
275.39	4.86
275.858	-2.54
276.327	9.76
276.795	16.46
277.263	7.46
277.731	16.86
278.2	9.86
278.668	6.06
279.136	10.76
279.604	4.46
280.072	2.86
280.54	4.86
281.008	5.26
281.477	12.06
281.945	4.96
282.413	7.26
282.881	11.46
283.348	1.96
283.816	13.26
284.284	11.46
284.752	17.06
285.22	6.36
285.688	12.56
286.156	10.56
286.623	16.96
287.091	16.26
287.559	13.76
288.026	9.86
288.494	14.76
288.962	3.16
289.429	4.06
289.897	16.56
290.364	8.96
290.832	15.56
291.3	12.06
291.767	11.36
292.234	14.66
292.702	5.16
293.169	15.86
293.637	15.66
294.104	14.26
294.571	0.36
295.039	5.26
295.506	8.46
295.973	16.06
296.44	14.36
296.908	11.26
297.375	13.96
297.842	13.56
298.309	10.26
298.776	9.96
299.243	16.56
299.71	10.86
300.177	18.16
300.644	13.76
301.111	15.46
301.578	21.26
302.045	9.96
302.512	17.26
302.979	19.56
303.446	14.16
303.913	19.96
304.379	16.16
304.846	19.86
305.313	18.96
305.78	20.86
306.246	22.56
306.713	17.86
307.18	27.06
307.646	26.36
308.113	28.06
308.579	20.16
309.046	20.46
309.512	26.66
309.979	18.76
310.445	24.56
310.912	26.66
311.378	32.56
311.845	26.16
312.311	31.06
312.777	30.46
313.244	34.46
313.71	37.16
314.176	24.86
314.642	23.26
315.109	26.66
315.575	31.06
316.041	40.96
316.507	26.56
316.973	34.66
317.439	29.56
317.905	35.36
318.371	35.56
318.837	26.56
319.303	28.36
319.769	29.56
320.235	26.06
320.701	32.86
321.167	33.46
321.633	30.76
322.099	30.56
322.564	32.86
323.03	26.16
323.496	25.46
323.962	34.16
324.427	35.26
324.893	36.26
325.359	34.56
325.824	40.96
326.29	35.46
326.755	34.96
327.221	39.36
327.686	37.06
328.152	43.06
328.617	39.86
329.083	41.36
329.548	45.66
330.014	48.36
330.479	29.66
330.944	36.06
331.41	38.06
331.875	41.16
332.34	39.66
332.805	39.16
333.271	44.06
333.736	34.66
334.201	46.16
334.666	43.26
335.131	44.96
335.596	41.46
336.061	41.26
336.526	37.86
336.991	46.86
337.456	51.86
337.921	47.76
338.386	44.46
338.851	36.66
339.316	39.56
339.781	45.26
340.246	53.26
340.711	41.46
341.175	47.46
341.64	47.96
342.105	47.86
342.569	48.96
343.034	53.66
343.499	52.76
343.963	47.66
344.428	59.06
344.893	59.06
345.357	59.26
345.822	54.76
346.286	66.56
346.751	67.66
347.215	56.86
347.679	64.46
348.144	89.66
348.608	78.76
349.073	55.66
349.537	70.86
350.001	76.56
350.465	84.86
350.93	77.76
351.394	77.36
351.858	72.36
352.322	83.66
352.786	73.56
353.25	89.16
353.715	99.66
354.179	89.96
354.643	109.26
355.107	109.56
355.571	95.06
356.035	88.96
356.498	101.06
356.962	101.46
357.426	108.36
357.89	99.26
358.354	80.76
358.818	80.16
359.281	74.06
359.745	72.06
360.209	64.26
360.673	71.76
361.136	75.26
361.6	73.76
362.064	80.46
362.527	80.26
362.991	91.16
363.454	82.96
363.918	71.96
364.381	76.76
364.845	82.86
365.308	86.96
365.772	79.76
366.235	85.46
366.698	80.66
367.162	83.96
367.625	76.36
368.088	83.36
368.552	80.76
369.015	85.06
369.478	92.26
369.941	92.66
370.404	83.76
370.867	86.96
371.331	90.36
371.794	105.56
372.257	94.16
372.72	100.16
373.183	96.26
373.646	91.36
374.109	97.46
374.572	98.26
375.035	99.56
375.497	98.76
375.96	103.36
376.423	102.26
376.886	108.76
377.349	106.66
377.811	96.76
378.274	95.26
378.737	102.26
379.199	105.56
379.662	104.06
380.125	103.36
380.587	99.86
381.05	99.96
381.512	117.26
381.975	117.06
382.437	114.96
382.9	113.16
383.362	119.66
383.825	122.66
384.287	123.36
384.75	115.46
385.212	119.96
385.674	130.66
386.136	134.26
386.599	120.16
387.061	119.16
387.523	116.46
387.985	125.16
388.447	125.56
388.91	127.06
389.372	123.56
389.834	129.06
390.296	120.86
390.758	130.26
391.22	130.76
391.682	148.26
392.144	151.16
392.606	140.96
393.068	139.76
393.529	143.36
393.991	139.36
394.453	129.76
394.915	132.96
395.377	132.06
395.838	134.76
396.3	136.96
396.762	138.06
397.224	135.86
397.685	119.86
398.147	134.76
398.608	132.36
399.07	128.16
399.531	143.06
399.993	145.86
400.454	156.16
400.916	145.46
401.377	147.06
401.839	151.76
402.3	151.06
402.762	170.26
403.223	182.66
403.684	165.26
404.145	162.36
404.607	158.16
405.068	160.46
405.529	158.96
405.99	177.26
406.451	176.56
406.913	172.06
407.374	160.96
407.835	163.86
408.296	175.36
408.757	182.36
409.218	184.96
409.679	174.86
410.14	178.76
410.601	179.06
411.062	184.76
411.522	181.76
411.983	180.76
412.444	171.36
412.905	181.76
413.366	187.76
413.826	198.66
414.287	232.66
414.748	279.26
415.208	257.96
415.669	215.36
416.13	215.56
416.59	205.76
417.051	224.36
417.511	224.96
417.972	246.06
418.432	252.06
418.893	296.36
419.353	261.36
419.814	203.96
420.274	197.66
420.734	188.36
421.195	201.06
421.655	197.56
422.115	203.36
422.576	204.26
423.036	213.46
423.496	212.16
423.956	221.36
424.416	236.46
424.876	273.66
425.336	272.46
425.797	274.06
426.257	265.76
426.717	242.76
427.177	239.66
427.637	222.96
428.097	242.66
428.556	246.16
429.016	272.76
429.476	263.96
429.936	279.96
430.396	283.66
430.856	292.96
431.315	311.86
431.775	350.06
432.235	382.66
432.694	352.56
433.154	367.66
433.614	387.06
434.073	342.46
434.533	292.16
434.993	266.36
435.452	280.46
435.912	289.96
436.371	295.06
436.83	281.86
437.29	268.06
437.749	254.56
438.209	259.56
438.668	272.76
439.127	297.76
439.587	264.56
440.046	250.26
440.505	269.96
440.964	284.06
441.424	328.86
441.883	311.16
442.342	269.46
442.801	239.76
443.26	231.46
443.719	236.46
444.178	232.46
444.637	224.26
445.096	236.76
445.555	234.26
446.014	234.56
446.473	240.66
446.932	250.26
447.391	238.06
447.849	249.16
448.308	226.76
448.767	240.96
449.226	254.56
449.685	250.06
450.143	264.16
450.602	251.06
451.061	241.86
451.519	245.06
451.978	247.66
452.436	244.66
452.895	253.76
453.353	260.66
453.812	259.56
454.27	259.46
454.729	255.86
455.187	250.56
455.646	256.06
456.104	260.06
456.562	277.36
457.021	278.46
457.479	273.66
457.937	290.76
458.395	283.06
458.854	265.36
459.312	266.76
459.77	292.36
460.228	272.36
460.686	265.56
461.144	265.66
461.602	260.16
462.06	259.96
462.518	270.26
462.976	267.36
463.434	276.76
463.892	273.26
464.35	290.06
464.808	308.06
465.266	285.96
465.724	286.26
466.181	302.56
466.639	289.16
467.097	306.96
467.555	321.36
468.012	324.56
468.47	332.56
468.928	349.56
469.385	356.66
469.843	368.16
470.3	369.76
470.758	383.96
471.215	404.16
471.673	432.26
472.13	426.66
472.588	438.96
473.045	396.36
473.503	412.46
473.96	414.86
474.417	428.16
474.875	458.36
475.332	493.46
475.789	479.36
476.246	483.76
476.704	507.76
477.161	530.96
477.618	555.56
478.075	580.06
478.532	631.96
478.989	699.56
479.446	821.96
479.903	775.96
480.36	809.46
480.817	862.16
481.274	955.26
481.731	1054.36
482.188	1126.96
482.645	1253.06
483.102	1346.76
483.558	1466.06
484.015	1506.76
484.472	1480.96
484.929	1440.66
485.385	1379.06
485.842	1355.36
486.299	1311.66
486.755	1287.46
487.212	1076.26
487.668	934.76
488.125	863.86
488.582	795.66
489.038	765.56
489.494	728.06
489.951	709.26
490.407	695.56
490.864	666.46
491.32	666.26
491.776	673.16
492.233	675.36
492.689	636.66
493.145	642.66
493.602	631.66
494.058	651.46
494.514	648.76
494.97	671.56
495.426	677.96
495.882	657.46
496.338	653.66
496.794	657.36
497.251	648.26
497.707	675.56
498.163	665.76
498.618	677.06
499.074	671.16
499.53	701.26
499.986	707.56
500.442	682.86
500.898	651.76
501.354	645.56
501.809	656.56
502.265	655.26
502.721	674.26
503.177	675.36
503.632	671.26
504.088	682.06
504.543	704.36
504.999	726.56
505.455	696.16
505.91	674.76
506.366	681.76
506.821	674.46
507.277	661.46
507.732	669.26
508.187	669.16
508.643	686.26
509.098	683.86
509.553	694.66
510.009	713.46
510.464	708.76
510.919	737.66
511.375	737.06
511.83	749.56
512.285	768.56
512.74	801.26
513.195	832.86
513.65	816.16
514.105	807.76
514.56	807.56
515.015	833.66
515.47	844.46
515.925	822.86
516.38	835.76
516.835	839.36
517.29	821.56
517.745	831.56
518.2	819.56
518.655	790.56
519.109	794.56
519.564	794.56
520.019	779.66
520.474	779.96
520.928	771.96
521.383	760.76
521.838	751.56
522.292	759.16
522.747	753.36
523.201	750.86
523.656	757.26
524.11	730.16
524.565	729.16
525.019	733.16
525.474	737.96
525.928	738.16
526.382	738.96
526.837	743.86
527.291	746.56
527.745	747.26
528.2	742.46
528.654	730.86
529.108	734.56
529.562	744.16
530.016	732.06
530.47	733.16
530.925	731.26
531.379	738.26
531.833	741.16
532.287	745.26
532.741	746.36
533.195	745.66
533.649	747.86
534.103	758.66
534.556	750.96
535.01	748.76
535.464	748.96
535.918	751.06
536.372	766.06
536.826	756.06
537.279	742.26
537.733	761.86
538.187	749.06
538.64	752.56
539.094	764.06
539.548	776.96
540.001	768.76
540.455	764.56
540.908	769.46
541.362	784.86
541.815	786.16
542.269	802.16
542.722	812.96
543.175	819.16
543.629	806.56
544.082	829.86
544.536	842.06
544.989	828.16
545.442	847.56
545.895	838.46
546.349	848.76
546.802	838.66
547.255	839.56
547.708	852.96
548.161	873.26
548.614	868.06
549.067	886.06
549.52	863.86
549.973	870.86
550.426	859.66
550.879	842.66
551.332	855.56
551.785	862.16
552.238	864.26
552.691	880.06
553.144	891.06
553.596	901.26
554.049	913.26
554.502	948.56
554.955	981.96
555.407	970.46
555.86	962.16
556.313	956.26
556.765	938.06
557.218	942.36
557.67	934.86
558.123	927.46
558.576	919.66
559.028	936.86
559.48	934.76
559.933	940.36
560.385	890.76
560.838	865.46
561.29	840.56
561.742	837.06
562.195	805.16
562.647	810.86
563.099	829.16
563.551	821.76
564.004	830.76
564.456	815.96
564.908	810.36
565.36	789.86
565.812	766.86
566.264	770.76
566.716	760.16
567.168	751.56
567.62	756.86
568.072	741.66
568.524	732.06
568.976	730.26
569.428	721.26
569.88	723.16
570.332	733.86
570.784	726.76
571.235	729.46
571.687	737.76
572.139	741.66
572.59	757.66
573.042	754.36
573.494	755.16
573.945	748.36
574.397	733.36
574.849	728.76
575.3	734.66
575.752	730.06
576.203	720.56
576.655	728.46
577.106	715.56
577.557	704.46
578.009	711.26
578.46	707.26
578.912	705.56
579.363	700.46
579.814	702.36
580.265	707.16
580.717	708.46
581.168	708.56
581.619	721.56
582.07	722.36
582.521	722.36
582.972	709.66
583.423	713.26
583.875	711.96
584.326	719.46
584.777	738.86
585.227	753.96
585.678	777.46
586.129	784.66
586.58	816.86
587.031	829.36
587.482	869.76
587.933	885.56
588.384	866.36
588.834	832.06
589.285	813.16
589.736	811.86
590.186	811.96
590.637	811.36
591.088	783.16
591.538	789.66
591.989	774.86
592.439	763.56
592.89	764.66
593.34	751.16
593.791	759.26
594.241	744.06
594.692	742.16
595.142	733.66
595.593	734.36
596.043	736.46
596.493	743.26
596.943	739.06
597.394	758.66
597.844	754.26
598.294	769.96
598.744	804.46
599.195	822.76
599.645	866.76
600.095	908.06
600.545	973.46
600.995	1022.66
601.445	1077.06
601.895	1145.36
602.345	1185.06
602.795	1189.26
603.245	1136.26
603.695	1069.86
604.145	1022.26
604.594	969.66
605.044	911.26
605.494	861.16
605.944	805.36
606.393	785.26
606.843	762.86
607.293	773.16
607.743	764.96
608.192	780.96
608.642	792.26
609.091	788.96
609.541	815.56
609.99	801.26
610.44	796.76
610.889	748.06
611.339	728.86
611.788	715.96
612.238	724.76
612.687	739.66
613.136	734.26
613.586	739.56
614.035	730.46
614.484	738.16
614.933	742.16
615.383	738.76
615.832	740.46
616.281	736.96
616.73	703.46
617.179	685.36
617.628	671.76
618.077	658.36
618.526	651.66
618.975	633.96
619.424	641.66
619.873	640.56
620.322	637.86
620.771	633.36
621.22	624.76
621.669	619.96
622.118	618.06
622.567	606.26
623.015	599.56
623.464	604.26
623.913	582.06
624.361	576.46
624.81	584.46
625.259	585.26
625.707	590.26
626.156	587.76
626.604	594.36
627.053	597.26
627.501	591.96
627.95	596.86
628.398	619.46
628.847	602.36
629.295	603.16
629.744	610.76
630.192	594.66
630.64	592.06
631.089	567.26
631.537	566.56
631.985	555.76
632.433	556.16
632.881	552.96
633.33	562.06
633.778	550.36
634.226	550.16
634.674	566.46
635.122	567.86
635.57	572.66
636.018	587.66
636.466	581.16
636.914	582.56
637.362	602.66
637.81	608.76
638.258	603.76
638.705	605.86
639.153	650.36
639.601	644.06
640.049	665.56
640.497	702.06
640.944	728.96
641.392	676.46
641.84	648.36
642.287	610.96
642.735	597.56
643.182	592.86
643.63	585.76
644.078	588.96
644.525	599.86
644.973	605.16
645.42	611.26
645.867	639.66
646.315	659.46
646.762	682.66
647.21	699.86
647.657	733.76
648.104	759.56
648.551	776.66
648.999	844.66
649.446	917.16
649.893	996.06
650.34	1145.86
650.787	1359.16
651.234	1667.66
651.682	2141.66
652.129	2911.76
652.576	4095.06
653.023	6005.76
653.47	8153.06
653.917	10110.46
654.363	11671.36
654.81	12862.86
655.257	12221.06
655.704	8071.76
656.151	4877.36
656.598	3214.36
657.044	2294.56
657.491	1781.36
657.938	1444.16
658.385	1226.46
658.831	1069.46
659.278	958.06
659.724	852.26
660.171	790.56
660.618	724.56
661.064	696.56
661.511	678.26
661.957	662.06
662.404	667.26
662.85	663.36
663.296	632.96
663.743	578.46
664.189	560.76
664.635	551.96
665.082	555.36
665.528	543.96
665.974	535.36
666.42	523.76
666.867	523.96
667.313	497.36
667.759	488.76
668.205	472.96
668.651	469.66
669.097	468.16
669.543	455.36
669.989	461.36
670.435	467.36
670.881	464.06
671.327	460.06
671.773	487.96
672.219	511.36
672.665	577.56
673.11	612.96
673.556	659.06
674.002	694.36
674.448	680.46
674.893	583.26
675.339	502.36
675.785	457.16
676.23	441.66
676.676	409.76
677.122	407.16
677.567	388.26
678.013	385.36
678.458	380.26
678.904	382.46
679.349	365.56
679.794	380.86
680.24	367.96
680.685	369.66
681.131	362.66
681.576	358.36
682.021	372.76
682.466	368.96
682.912	369.96
683.357	368.06
683.802	399.86
684.247	424.66
684.692	476.06
685.137	518.96
685.583	560.76
686.028	602.06
686.473	548.46
686.918	472.36
687.363	438.96
687.807	412.76
688.252	374.16
688.697	382.26
689.142	357.16
689.587	355.26
690.032	337.86
690.477	353.76
690.921	374.26
691.366	404.26
691.811	425.76
692.255	450.26
692.7	479.66
693.145	533.16
693.589	734.86
694.034	1209.46
694.478	1636.16
694.923	1824.56
695.367	2393.96
695.812	1263.06
696.256	526.36
696.701	397.86
697.145	364.66
697.59	341.36
698.034	338.26
698.478	347.46
698.922	342.46
699.367	329.86
699.811	340.26
700.255	373.06
700.699	405.36
701.143	447.56
701.588	490.86
702.032	544.86
702.476	543.16
702.92	516.26
703.364	520.46
703.808	671.06
704.252	1098.76
704.696	1541.16
705.14	1765.86
705.584	2243.86
706.027	1131.26
706.471	556.76
706.915	417.06
707.359	368.26
707.803	339.06
708.246	325.16
708.69	327.16
709.134	327.86
709.577	321.76
710.021	325.96
710.465	317.86
710.908	311.46
711.352	309.86
711.795	331.16
712.239	366.16
712.682	403.36
713.126	433.46
713.569	486.76
714.012	369.56
714.456	311.66
714.899	300.66
715.342	282.76
715.786	273.86
716.229	269.56
716.672	271.26
717.115	265.66
717.558	257.26
718.002	262.26
718.445	273.76
718.888	298.76
719.331	299.16
719.774	329.86
720.217	317.66
720.66	299.26
721.103	279.16
721.546	262.06
721.989	264.86
722.432	245.86
722.874	246.06
723.317	235.16
723.76	244.66
724.203	263.76
724.645	342.86
725.088	462.36
725.531	606.46
725.974	685.46
726.416	583.46
726.859	315.56
727.301	258.66
727.744	250.26
728.187	241.26
728.629	250.26
729.071	260.76
729.514	268.86
729.956	288.26
730.399	298.56
730.841	298.36
731.283	290.56
731.726	289.26
732.168	268.86
732.61	288.66
733.053	299.46
733.495	336.66
733.937	376.76
734.379	428.36
734.821	459.86
735.263	569.46
735.705	892.56
736.148	1686.36
736.59	2751.96
737.032	3244.76
737.474	2626.06
737.916	859.16
738.357	457.46
738.799	346.06
739.241	317.16
739.683	297.76
740.125	304.36
740.567	316.86
741.008	331.36
741.45	334.16
741.892	338.26
742.334	367.86
742.775	382.56
743.217	363.46
743.658	287.76
744.1	275.06
744.542	283.26
744.983	336.06
745.425	369.76
745.866	376.56
746.307	298.16
746.749	291.96
747.19	342.76
747.632	485.46
748.073	937.76
748.514	1987.06
748.956	3013.16
749.397	3799.76
749.838	3162.86
750.279	3134.76
750.72	1597.36
751.162	580.36
751.603	339.76
752.044	273.76
752.485	235.56
752.926	222.16
753.367	217.16
753.808	204.96
754.249	199.36
754.69	205.66
755.131	196.86
755.572	190.86
756.013	191.06
756.453	194.96
756.894	200.56
757.335	201.76
757.776	204.56
758.216	206.56
758.657	215.96
759.098	209.46
759.538	239.06
759.979	284.26
760.42	395.76
760.86	754.96
761.301	1951.46
761.741	4723.06
762.182	6819.76
762.622	4812.46
763.063	1390.36
763.503	564.96
763.943	344.46
764.384	286.16
764.824	260.96
765.264	245.86
765.705	227.76
766.145	199.46
766.585	186.46
767.025	169.06
767.465	170.96
767.906	181.96
768.346	206.76
768.786	211.76
769.226	225.56
769.666	327.46
770.106	652.06
770.546	1643.76
770.986	2793.56
771.426	2508.36
771.866	840.16
772.306	350.76
772.745	213.96
773.185	175.46
773.625	163.76
774.065	153.56
774.505	167.06
774.944	214.66
775.384	376.06
775.824	615.76
776.263	600.06
776.703	295.86
777.142	171.66
777.582	139.36
778.021	127.46
778.461	133.66
778.9	141.16
779.34	128.26
779.779	124.46
780.219	117.36
780.658	102.06
781.097	118.66
781.537	118.06
781.976	112.26
782.415	113.16
782.855	107.06
783.294	110.26
783.733	115.96
784.172	124.56
784.611	108.16
785.05	118.96
785.489	115.76
785.928	127.36
786.367	120.66
786.806	123.16
787.245	137.26
787.684	147.26
788.123	159.86
788.562	139.76
789.001	133.96
789.44	131.96
789.879	129.26
790.317	121.56
790.756	142.36
791.195	139.06
791.634	155.06
792.072	218.36
792.511	375.36
792.95	1057.76
793.388	2235.96
793.827	2018.46
794.265	710.16
794.704	300.66
795.142	194.26
795.581	156.06
796.019	143.96
796.458	132.96
796.896	130.56
797.334	140.36
797.773	170.16
798.211	231.56
798.649	467.06
799.087	1086.96
799.526	1679.66
799.964	2134.76
800.402	2118.16
800.84	807.86
801.278	317.66
801.716	198.36
802.154	164.16
802.592	152.76
803.03	147.06
803.468	144.86
803.906	152.46
804.344	154.76
804.782	145.66
805.22	141.46
805.658	138.76
806.096	157.76
806.533	164.86
806.971	178.86
807.409	231.46
807.847	341.76
808.284	700.06
808.722	1990.76
809.16	3505.26
809.597	3344.16
810.035	5762.96
810.472	6128.96
810.91	2224.26
811.347	855.76
811.785	435.86
812.222	278.96
812.66	212.26
813.097	176.76
813.535	152.06
813.972	142.16
814.409	134.26
814.846	109.66
815.284	112.56
815.721	101.96
816.158	105.46
816.595	114.26
817.032	168.96
817.47	193.86
817.907	147.36
818.344	106.56
818.781	105.06
819.218	103.76
819.655	133.86
820.092	199.46
820.529	230.46
820.966	176.16
821.403	136.36
821.839	109.66
822.276	102.16
822.713	126.36
823.15	143.26
823.587	124.66
824.023	159.56
824.46	324.26
824.897	953.16
825.333	1420.76
825.77	609.76
826.206	247.06
826.643	150.26
827.08	100.66
827.516	87.66
827.953	82.16
828.389	82.96
828.825	74.06
829.262	74.36
829.698	63.86
830.135	69.66
830.571	65.66
831.007	67.76
831.443	68.66
831.88	59.16
832.316	60.36
832.752	73.16
833.188	72.96
833.624	62.06
834.06	76.06
834.497	74.96
834.933	76.96
835.369	74.56
835.805	75.36
836.241	80.06
836.677	81.86
837.112	94.76
837.548	108.56
837.984	142.16
838.42	210.46
838.856	528.06
839.292	1593.76
839.727	2425.76
840.163	1137.86
840.599	976.66
841.034	2146.06
841.47	2249.26
841.906	824.86
842.341	348.26
842.777	217.16
843.212	215.66
843.648	196.16
844.083	118.76
844.519	86.46
844.954	82.26
845.39	60.36
845.825	62.56
846.261	59.16
846.696	60.86
847.131	54.06
847.566	63.36
848.002	55.56
848.437	59.26
848.872	68.56
849.307	63.96
849.742	90.96
850.177	192.26
850.613	580.86
851.048	924.06
851.483	407.86
851.918	166.06
852.353	85.16
852.788	57.66
853.223	53.46
853.657	55.26
854.092	50.06
854.527	44.16
854.962	38.96
855.397	48.26
855.832	53.36
856.266	45.96
856.701	47.46
857.136	39.86
857.57	50.16
858.005	58.36
858.44	65.86
858.874	48.26
859.309	55.06
859.743	46.16
860.178	45.16
860.612	45.16
861.047	55.06
861.481	76.26
861.915	76.16
862.35	53.76
862.784	33.16
863.218	33.56
863.653	35.06
864.087	45.76
864.521	56.76
864.955	66.86
865.39	158.06
865.824	180.26
866.258	125.46
866.692	175.56
867.126	197.46
867.56	110.66
867.994	57.16
868.428	44.76
868.862	57.16
869.296	63.66
869.73	58.46
870.164	63.46
870.598	53.06
871.031	39.16
871.465	32.36
871.899	32.96
872.333	30.86
872.766	26.56
873.2	25.76
873.634	26.26
874.067	25.06
874.501	24.16
874.935	36.36
875.368	29.46
875.802	33.16
876.235	19.16
876.669	31.86
877.102	28.56
877.535	33.06
877.969	22.36
878.402	25.16
878.836	23.86
879.269	19.66
879.702	24.66
880.135	24.46
880.569	16.86
881.002	26.26
881.435	16.76
881.868	23.26
882.301	18.76
882.734	19.66
883.167	22.06
883.601	21.86
884.034	23.96
884.467	14.26
884.899	19.76
885.332	14.76
885.765	20.56
886.198	13.16
886.631	22.16
887.064	18.26
887.497	23.06
887.929	21.06
888.362	7.16
888.795	18.66
889.228	25.96
889.66	21.16
890.093	12.86
890.526	19.56
890.958	15.56
891.391	18.86
891.823	20.06
892.256	17.06
892.688	12.36
893.121	19.36
893.553	19.16
893.985	22.96
894.418	22.66
894.85	12.86
895.282	16.26
895.715	15.86
896.147	17.56
896.579	16.56
897.011	17.96
897.444	15.56
897.876	9.86
898.308	17.16
898.74	6.46
899.172	12.26
899.604	23.76
900.036	26.66
900.468	17.66
900.9	10.16
901.332	21.06
901.764	22.26
902.196	21.16
902.628	18.66
903.06	21.96
903.491	34.76
903.923	22.56
904.355	22.06
904.787	24.06
905.218	24.46
905.65	17.66
906.082	15.06
906.513	9.86
906.945	17.26
907.376	10.86
907.808	26.76
908.239	17.76
908.671	17.86
909.102	26.16
909.534	25.06
909.965	58.06
910.397	102.36
910.828	335.06
911.259	503.36
911.691	231.06
912.122	110.26
912.553	57.56
912.984	38.76
913.415	28.86
913.847	29.86
914.278	15.96
914.709	16.16
915.14	19.06
915.571	19.76
916.002	14.56
916.433	16.56
916.864	19.46
917.295	16.66
917.726	18.96
918.157	18.46
918.587	31.56
919.018	24.86
919.449	24.16
919.88	32.06
920.311	35.06
920.741	53.76
921.172	184.06
921.603	164.36
922.033	77.86
922.464	48.16
922.895	23.86
923.325	26.96
923.756	11.96
924.186	17.36
924.617	18.46
925.047	25.36
925.478	30.26
925.908	24.36
926.338	17.56
926.769	11.76
927.199	13.06
927.629	13.06
928.06	17.06
928.49	16.86
928.92	10.86
929.35	10.66
929.78	12.76
930.21	14.56
930.641	11.96
931.071	14.56
931.501	3.36
931.931	5.86
932.361	8.96
932.791	2.06
933.221	6.26
933.651	8.86
934.08	24.16
934.51	32.66
934.94	11.66
935.37	15.56
935.8	8.06
936.229	6.76
936.659	8.06
937.089	5.36
937.519	13.86
937.948	26.56
938.378	18.76
938.807	11.16
939.237	5.26
939.666	11.16
940.096	-1.94
940.525	-0.94
940.955	8.06
941.384	0.36
941.814	2.66
942.243	3.46
942.672	7.56
943.102	2.46
943.531	4.96
943.96	3.86
944.39	6.96
944.819	3.16
945.248	0.86
945.677	-0.24
946.106	5.66
946.535	10.06
946.964	-2.84
947.393	5.86
947.822	-4.04
948.251	-3.04
948.68	5.46
949.109	2.66
949.538	3.16
949.967	-2.34
950.396	4.36
950.825	-4.94
951.254	4.46
951.682	-6.64
952.111	4.06
952.54	9.06
952.969	-6.64
953.397	-2.94
953.826	-0.84
954.254	-2.94
954.683	2.06
955.112	-1.64
955.54	6.46
955.969	2.36
956.397	5.96
956.826	-5.44
957.254	5.56
957.682	-1.34
958.111	2.76
958.539	-2.54
958.967	0.86
959.396	-3.84
959.824	1.66
960.252	1.16
960.68	-5.54
961.109	1.06
961.537	-3.54
961.965	2.76
962.393	1.36
962.821	-5.74
963.249	-0.24
963.677	4.46
964.105	5.66
964.533	51.86
964.961	49.76
965.389	25.56
965.817	12.36
966.245	1.86
966.672	2.06
967.1	-4.44
967.528	1.96
967.956	-0.64
968.383	1.66
968.811	-5.14
969.239	0.96
969.666	-6.94
970.094	-3.44
970.522	8.56
970.949	-1.74
971.377	-2.34
971.804	-10.54
972.232	4.16
972.659	0.66
973.087	0.06
973.514	-1.14
973.941	-5.94
974.369	5.96
974.796	-1.14
975.223	1.36
975.651	0.26
976.078	-2.14
976.505	-1.04
976.932	4.26
977.359	14.36
977.786	18.46
978.214	0.86
978.641	-1.04
979.068	5.26
979.495	-3.94
979.922	-2.34
980.349	1.06
980.776	2.36
981.202	-0.24
981.629	0.76
982.056	4.26
982.483	-1.94
982.91	2.86
983.337	-5.24
983.763	-0.64
984.19	-4.24
984.617	-5.34
985.043	-5.84
985.47	-3.84
985.897	0.26
986.323	-2.14
986.75	1.66
987.176	0.06
987.603	0.66
988.029	-2.44
988.456	-4.24
988.882	0.86
989.308	-5.64
989.735	-6.74
990.161	2.46
990.587	1.36
991.014	0.96
991.44	10.96
991.866	1.16
992.292	-0.24
992.719	-1.24
993.145	5.16
993.571	-8.34
993.997	-5.44
994.423	1.16
994.849	-2.34
995.275	-0.54
995.701	2.96
996.127	2.16
996.553	0.26
996.979	-3.04
997.405	-0.54
997.83	-3.44
998.256	-5.04
998.682	-6.04
999.108	-3.74
999.534	-0.14
999.959	-1.54
1000.385	-3.04
1000.811	-2.44
1001.236	-7.84
1001.662	-4.44
1002.087	0.26
1002.513	1.86
1002.938	6.66
1003.364	-1.94
1003.789	1.76
1004.215	6.96
1004.64	-1.24
1005.066	5.26
1005.491	0.46
1005.916	0.16
1006.342	-4.64
1006.767	-3.44
1007.192	5.96
1007.617	-9.34
1008.042	-5.34
1008.468	-5.84
1008.893	-1.44
1009.318	-2.44
1009.743	2.46
1010.168	-0.94
1010.593	-0.44
1011.018	-8.74
1011.443	2.06
1011.868	-2.04
1012.293	-4.44
1012.718	-4.94
1013.143	0.66
1013.567	2.96
1013.992	-1.04
1014.417	-6.64
1014.842	1.26
1015.267	-1.84
1015.691	-6.64
1016.116	5.06
1016.541	6.26
1016.965	4.96
1017.39	2.96
1017.814	4.16
1018.239	4.66
1018.663	-8.44
1019.088	-10.44
1019.512	1.46
1019.937	-1.74
1020.361	-2.14
1020.785	-10.84
1021.21	3.76
1021.634	-1.44
1022.058	4.36
1022.483	2.86
1022.907	-3.44
1023.331	-1.34
1023.755	-1.74
1024.179	-1.74
1024.604	-7.34
1025.028	-0.54
1025.452	-4.64
1025.876	-0.74
1026.3	3.56
1026.724	-3.94
1027.148	-5.24
1027.572	-5.84
1027.996	-1.54
1028.42	3.66
1028.843	-2.24
1029.267	-2.54
1029.691	-2.04
1030.115	-4.04
1030.539	-5.84
1030.962	-6.94
1031.386	-10.74
1031.81	-2.14
1032.233	-0.64
1032.657	2.86
1033.08	0.56
1033.504	2.16
1033.927	-4.94
1034.351	2.46
1034.774	-4.44
1035.198	-0.04
1035.621	-3.44
1036.045	-8.64
1036.468	2.36
1036.891	-10.34
1037.315	-7.44
1037.738	-11.84
1038.161	3.66
1038.584	-2.24
1039.008	-5.54
1039.431	-5.44
1039.854	-5.64
1040.277	-5.54
1040.7	-9.04
1041.123	7.06
1041.546	-8.54
1041.969	-1.94
1042.392	-2.64
1042.815	-4.34
1043.238	3.06
1043.661	2.56
1044.084	-3.34
1044.507	-5.74
1044.93	-3.74
1045.352	-5.14
1045.775	0.06
1046.198	-0.54
1046.621	1.16
1047.043	-0.54
1047.466	6.26
1047.889	-4.44
1048.311	-3.54
1048.734	-3.64
1049.156	-9.74
1049.579	-5.84
1050.001	-5.74
1050.424	2.46
1050.846	-5.54
1051.269	0.66
1051.691	-3.84
1052.113	-9.44
1052.536	-6.94
1052.958	-4.64
1053.38	-2.34
1053.802	-12.34
1054.225	3.76
1054.647	-4.54
1055.069	-5.54
1055.491	3.36
1055.913	-9.14
1056.335	1.16
1056.757	-2.04
1057.179	-6.94
1057.601	-10.54
1058.023	-2.94
1058.445	-2.04
1058.867	2.36
1059.289	-6.14
1059.711	-0.34
1060.133	-5.54
1060.555	-3.94
1060.976	-5.74
1061.398	-9.34
1061.82	-0.94
1062.241	-7.54
1062.663	-7.74
1063.085	-4.64
1063.506	-3.44
1063.928	-2.04
1064.35	-4.94
1064.771	-18.14
1065.193	-5.84
1065.614	-14.84
1066.035	-3.64
1066.457	-4.84
1066.878	-0.04
1067.3	-5.54
1067.721	-2.74
1068.142	-2.54
1068.564	-2.74
1068.985	-7.14
1069.406	-1.64
1069.827	-5.44
1070.248	-2.84
1070.67	-3.44
1071.091	-8.04
1071.512	-6.14
1071.933	-3.84
1072.354	-6.44
1072.775	-4.04
1073.196	-4.04
1073.617	-5.24
1074.038	-7.94
1074.459	-4.44
1074.88	-6.04
1075.3	-1.94
1075.721	-5.74
1076.142	0.96
1076.563	0.66
1076.983	-8.54
1077.404	-4.24
1077.825	-6.54
1078.246	-3.34
1078.666	-6.14
1079.087	-1.44
1079.507	-3.74
1079.928	3.46
1080.348	-2.04
1080.769	-4.04
1081.189	0.06
1081.61	-5.84
1082.03	-4.04
1082.451	-8.14
1082.871	-4.14
1083.291	-2.34
1083.711	-8.54
1084.132	-5.24
1084.552	-6.14
1084.972	-0.94
1085.392	-9.94
1085.813	-11.94
1086.233	-3.04
1086.653	-10.64
1087.073	-3.84
1087.493	-10.14
1087.913	-8.44
1088.333	3.76
1088.753	-6.64
1089.173	0.96
1089.593	-1.34
1090.013	0.76
1090.433	1.06
1090.852	-4.74
1091.272	3.86
1091.692	-4.14
1092.112	-6.14
1092.531	-9.74
1092.951	-7.74
1093.371	1.26
1093.79	1.06
1094.21	-3.34
1094.63	-3.24
1095.049	-1.04
1095.469	4.16
1095.888	-3.34
1096.308	-1.74
1096.727	7.76
1097.146	-6.44
1097.566	-0.24
1097.985	-7.24
1098.405	-1.04
1098.824	-6.14
1099.243	-4.74
1099.662	-5.84
1100.082	-8.04
1100.501	-4.84
1100.92	-5.64
1101.339	-5.94
1101.758	-3.04
