Data from 20171114-ORNL-Ar_H_NY_Subt18_08-08-29-033.txt Node
Date: Tue Nov 14 08:08:29 EST 2017
User: Ender
Spectrometer: HR+D1039
Trigger mode: 0
Integration Time (sec): 2.730000E-2
Scans to average: 10
Electric dark correction enabled: true
Nonlinearity correction enabled: false
Boxcar width: 0
XAxis mode: Wavelengths
Number of Pixels in Spectrum: 2048
>>>>>Begin Spectral Data<<<<<
187.836	-7.61
188.309	-7.61
188.782	-7.61
189.255	1.79
189.728	-4.01
190.201	-0.01
190.674	10.39
191.147	5.89
191.619	-8.11
192.092	2.19
192.565	5.59
193.038	0.99
193.511	5.49
193.984	-5.21
194.456	-3.11
194.929	0.09
195.402	-4.91
195.874	0.49
196.347	-4.21
196.82	-5.71
197.292	11.59
197.765	2.49
198.237	-2.51
198.71	2.19
199.182	0.19
199.655	4.19
200.127	1.19
200.6	-3.31
201.072	-1.01
201.544	-9.51
202.017	0.79
202.489	3.09
202.961	1.39
203.433	-3.01
203.906	-6.11
204.378	-4.31
204.85	-4.91
205.322	-8.71
205.794	-1.71
206.266	-1.41
206.739	-5.11
207.211	3.49
207.683	-6.41
208.155	-5.81
208.627	-10.51
209.099	-4.61
209.57	-6.71
210.042	-0.41
210.514	-7.01
210.986	3.49
211.458	-5.51
211.93	-9.01
212.402	3.39
212.873	-2.81
213.345	-7.51
213.817	-15.61
214.288	-7.41
214.76	-16.61
215.232	-4.21
215.703	-1.41
216.175	-1.71
216.646	-4.41
217.118	-4.51
217.589	-9.31
218.061	2.29
218.532	-3.01
219.004	0.99
219.475	-8.01
219.946	-1.91
220.418	-6.01
220.889	1.19
221.36	-6.01
221.832	-5.71
222.303	-7.51
222.774	-2.01
223.245	-5.11
223.717	-4.51
224.188	-5.61
224.659	-7.51
225.13	-6.11
225.601	-1.01
226.072	-1.01
226.543	1.59
227.014	0.69
227.485	-1.61
227.956	-6.71
228.427	-2.71
228.898	1.89
229.369	7.59
229.839	-6.41
230.31	-3.61
230.781	2.89
231.252	0.59
231.722	-7.91
232.193	-3.61
232.664	-4.11
233.135	-7.11
233.605	-1.31
234.076	-5.81
234.546	-6.61
235.017	1.39
235.487	-3.31
235.958	-1.61
236.428	-8.91
236.899	1.59
237.369	-0.41
237.84	0.59
238.31	3.59
238.78	-6.51
239.251	-5.41
239.721	-0.21
240.191	-0.51
240.662	-5.31
241.132	-4.51
241.602	-9.31
242.072	-0.11
242.542	5.09
243.013	-5.21
243.483	1.99
243.953	-2.71
244.423	-1.81
244.893	-3.61
245.363	5.39
245.833	-1.11
246.303	-0.81
246.773	3.39
247.243	2.89
247.712	-0.61
248.182	3.09
248.652	5.79
249.122	-8.21
249.592	1.29
250.061	6.59
250.531	15.89
251.001	-0.11
251.471	7.59
251.94	9.09
252.41	6.49
252.879	0.09
253.349	6.39
253.818	5.79
254.288	-2.61
254.757	-0.11
255.227	-0.81
255.696	2.09
256.166	5.09
256.635	5.99
257.105	3.19
257.574	3.89
258.043	0.49
258.513	-3.51
258.982	4.89
259.451	-2.81
259.92	1.79
260.389	2.79
260.859	4.79
261.328	5.99
261.797	2.19
262.266	3.69
262.735	6.49
263.204	0.39
263.673	1.49
264.142	5.09
264.611	-1.31
265.08	-3.01
265.549	2.19
266.018	6.49
266.487	1.69
266.955	-4.21
267.424	0.49
267.893	4.89
268.362	0.89
268.83	4.39
269.299	9.59
269.768	6.19
270.236	2.89
270.705	4.09
271.174	5.29
271.642	6.39
272.111	7.89
272.579	5.99
273.048	4.19
273.516	2.89
273.985	5.49
274.453	10.19
274.922	7.39
275.39	4.39
275.858	0.09
276.327	10.69
276.795	12.79
277.263	6.59
277.731	14.49
278.2	17.19
278.668	12.39
279.136	14.99
279.604	12.99
280.072	11.19
280.54	8.89
281.008	4.69
281.477	11.49
281.945	12.39
282.413	9.99
282.881	10.39
283.348	5.49
283.816	9.39
284.284	10.99
284.752	12.29
285.22	12.49
285.688	7.89
286.156	7.29
286.623	18.49
287.091	14.29
287.559	9.99
288.026	9.69
288.494	12.59
288.962	1.39
289.429	3.49
289.897	11.39
290.364	17.49
290.832	14.89
291.3	16.69
291.767	19.49
292.234	12.79
292.702	9.39
293.169	13.49
293.637	21.69
294.104	19.69
294.571	9.69
295.039	12.59
295.506	11.89
295.973	18.99
296.44	14.69
296.908	9.69
297.375	14.89
297.842	15.39
298.309	16.59
298.776	14.79
299.243	21.19
299.71	6.09
300.177	17.89
300.644	16.09
301.111	15.39
301.578	18.39
302.045	20.29
302.512	23.39
302.979	19.59
303.446	16.89
303.913	14.89
304.379	19.29
304.846	24.09
305.313	26.49
305.78	17.39
306.246	25.69
306.713	25.29
307.18	21.39
307.646	27.69
308.113	29.99
308.579	24.79
309.046	22.59
309.512	24.29
309.979	17.69
310.445	28.09
310.912	19.79
311.378	32.59
311.845	32.69
312.311	27.89
312.777	28.89
313.244	33.99
313.71	38.69
314.176	33.89
314.642	31.59
315.109	27.79
315.575	33.59
316.041	34.99
316.507	26.39
316.973	29.89
317.439	27.59
317.905	30.39
318.371	32.49
318.837	29.09
319.303	25.39
319.769	33.69
320.235	32.29
320.701	27.79
321.167	36.59
321.633	25.59
322.099	37.19
322.564	39.29
323.03	34.29
323.496	37.59
323.962	39.09
324.427	39.79
324.893	37.99
325.359	35.59
325.824	34.99
326.29	35.49
326.755	34.49
327.221	34.89
327.686	30.99
328.152	44.79
328.617	37.29
329.083	41.09
329.548	42.99
330.014	42.99
330.479	39.69
330.944	39.99
331.41	38.19
331.875	39.99
332.34	40.09
332.805	36.09
333.271	37.29
333.736	42.99
334.201	45.09
334.666	42.49
335.131	47.69
335.596	46.69
336.061	43.59
336.526	40.39
336.991	42.59
337.456	54.79
337.921	46.79
338.386	37.59
338.851	45.09
339.316	42.29
339.781	46.19
340.246	47.29
340.711	42.69
341.175	49.99
341.64	43.79
342.105	50.69
342.569	51.49
343.034	50.69
343.499	51.39
343.963	55.69
344.428	62.79
344.893	54.69
345.357	60.29
345.822	58.39
346.286	61.59
346.751	72.09
347.215	67.39
347.679	68.89
348.144	93.79
348.608	77.49
349.073	66.79
349.537	74.19
350.001	80.89
350.465	90.39
350.93	79.09
351.394	75.39
351.858	72.39
352.322	86.59
352.786	90.09
353.25	93.09
353.715	107.49
354.179	101.49
354.643	117.99
355.107	126.99
355.571	98.29
356.035	98.79
356.498	113.89
356.962	117.69
357.426	127.19
357.89	118.29
358.354	92.09
358.818	79.49
359.281	72.59
359.745	74.89
360.209	74.59
360.673	73.39
361.136	72.29
361.6	90.19
362.064	81.79
362.527	83.19
362.991	88.89
363.454	80.19
363.918	76.99
364.381	77.69
364.845	77.59
365.308	86.59
365.772	87.99
366.235	81.09
366.698	80.79
367.162	84.89
367.625	87.29
368.088	85.79
368.552	85.99
369.015	86.79
369.478	93.09
369.941	92.29
370.404	87.89
370.867	104.39
371.331	107.29
371.794	109.19
372.257	94.59
372.72	105.09
373.183	98.19
373.646	91.59
374.109	99.19
374.572	101.69
375.035	102.89
375.497	106.19
375.96	104.89
376.423	108.99
376.886	112.79
377.349	112.59
377.811	102.79
378.274	103.59
378.737	107.69
379.199	109.09
379.662	103.59
380.125	110.09
380.587	109.59
381.05	112.49
381.512	117.49
381.975	122.29
382.437	122.29
382.9	122.09
383.362	132.59
383.825	129.59
384.287	125.59
384.75	114.89
385.212	123.99
385.674	132.39
386.136	129.99
386.599	124.59
387.061	123.09
387.523	123.29
387.985	126.69
388.447	132.09
388.91	127.49
389.372	128.29
389.834	130.39
390.296	129.19
390.758	137.39
391.22	141.59
391.682	159.49
392.144	173.29
392.606	161.09
393.068	143.79
393.529	160.79
393.991	145.69
394.453	133.69
394.915	137.79
395.377	140.59
395.838	152.89
396.3	129.49
396.762	141.69
397.224	138.49
397.685	133.19
398.147	136.79
398.608	133.19
399.07	138.29
399.531	140.19
399.993	153.39
400.454	157.69
400.916	156.79
401.377	146.09
401.839	156.89
402.3	156.69
402.762	164.19
403.223	176.19
403.684	166.99
404.145	161.69
404.607	162.79
405.068	165.39
405.529	171.19
405.99	189.79
406.451	175.99
406.913	176.39
407.374	161.79
407.835	160.19
408.296	164.59
408.757	171.49
409.218	190.19
409.679	187.29
410.14	174.39
410.601	180.39
411.062	183.49
411.522	187.29
411.983	180.89
412.444	180.89
412.905	182.29
413.366	185.09
413.826	198.19
414.287	215.19
414.748	268.69
415.208	256.29
415.669	217.09
416.13	214.69
416.59	209.79
417.051	217.89
417.511	227.89
417.972	242.59
418.432	255.69
418.893	296.69
419.353	253.19
419.814	209.29
420.274	188.09
420.734	192.99
421.195	209.39
421.655	209.49
422.115	205.89
422.576	202.49
423.036	207.99
423.496	219.89
423.956	228.49
424.416	233.89
424.876	269.99
425.336	271.49
425.797	271.19
426.257	264.89
426.717	244.99
427.177	235.39
427.637	229.29
428.097	242.59
428.556	247.49
429.016	277.69
429.476	267.59
429.936	283.09
430.396	288.69
430.856	291.99
431.315	317.69
431.775	349.29
432.235	375.99
432.694	358.59
433.154	370.69
433.614	403.29
434.073	347.19
434.533	286.39
434.993	282.59
435.452	291.19
435.912	295.29
436.371	297.09
436.83	287.49
437.29	274.29
437.749	249.59
438.209	256.69
438.668	277.99
439.127	292.89
439.587	273.99
440.046	256.39
440.505	274.89
440.964	289.99
441.424	340.69
441.883	324.39
442.342	272.29
442.801	236.59
443.26	229.89
443.719	233.69
444.178	231.99
444.637	222.09
445.096	233.89
445.555	232.39
446.014	233.69
446.473	237.49
446.932	243.59
447.391	237.69
447.849	239.49
448.308	231.29
448.767	236.99
449.226	245.69
449.685	247.09
450.143	257.59
450.602	247.89
451.061	236.69
451.519	239.99
451.978	244.09
452.436	239.49
452.895	252.19
453.353	256.29
453.812	254.69
454.27	244.19
454.729	250.09
455.187	248.99
455.646	255.09
456.104	259.19
456.562	277.99
457.021	283.39
457.479	276.99
457.937	282.89
458.395	268.29
458.854	257.79
459.312	260.79
459.77	291.59
460.228	258.19
460.686	253.99
461.144	265.29
461.602	256.39
462.06	256.49
462.518	275.69
462.976	262.49
463.434	274.49
463.892	277.19
464.35	283.09
464.808	299.09
465.266	279.39
465.724	289.89
466.181	287.39
466.639	286.59
467.097	302.09
467.555	312.29
468.012	320.29
468.47	318.99
468.928	343.99
469.385	356.69
469.843	362.69
470.3	367.79
470.758	375.89
471.215	401.19
471.673	426.49
472.13	431.69
472.588	431.59
473.045	384.69
473.503	392.49
473.96	409.39
474.417	418.99
474.875	448.29
475.332	490.09
475.789	477.99
476.246	477.79
476.704	503.19
477.161	522.19
477.618	540.39
478.075	572.19
478.532	630.49
478.989	697.09
479.446	815.29
479.903	769.49
480.36	799.19
480.817	839.69
481.274	940.49
481.731	1033.79
482.188	1113.99
482.645	1232.79
483.102	1328.99
483.558	1440.29
484.015	1483.89
484.472	1447.19
484.929	1401.79
485.385	1361.99
485.842	1329.09
486.299	1293.79
486.755	1258.89
487.212	1059.09
487.668	898.59
488.125	843.09
488.582	780.09
489.038	748.79
489.494	714.19
489.951	684.49
490.407	674.09
490.864	656.69
491.32	658.09
491.776	656.19
492.233	662.39
492.689	630.29
493.145	622.39
493.602	618.09
494.058	634.29
494.514	626.69
494.97	645.29
495.426	658.49
495.882	639.09
496.338	623.99
496.794	629.09
497.251	618.29
497.707	645.19
498.163	651.29
498.618	650.79
499.074	654.39
499.53	682.29
499.986	681.49
500.442	657.99
500.898	634.29
501.354	628.99
501.809	643.29
502.265	634.89
502.721	651.09
503.177	662.19
503.632	661.19
504.088	665.29
504.543	675.69
504.999	710.89
505.455	683.69
505.91	656.09
506.366	654.49
506.821	646.69
507.277	656.79
507.732	646.69
508.187	649.19
508.643	651.39
509.098	656.99
509.553	670.59
510.009	686.29
510.464	685.69
510.919	704.79
511.375	714.19
511.83	717.49
512.285	736.49
512.74	777.69
513.195	807.49
513.65	785.09
514.105	775.69
514.56	785.99
515.015	803.39
515.47	822.39
515.925	802.89
516.38	795.89
516.835	804.69
517.29	795.89
517.745	788.29
518.2	784.89
518.655	756.69
519.109	755.49
519.564	758.39
520.019	741.79
520.474	740.99
520.928	738.99
521.383	735.89
521.838	729.89
522.292	726.69
522.747	731.19
523.201	732.99
523.656	720.89
524.11	710.59
524.565	710.09
525.019	710.29
525.474	718.59
525.928	713.89
526.382	710.79
526.837	708.39
527.291	721.89
527.745	714.19
528.2	716.09
528.654	706.19
529.108	698.89
529.562	714.49
530.016	707.79
530.47	707.59
530.925	696.69
531.379	704.69
531.833	722.49
532.287	715.39
532.741	715.89
533.195	714.29
533.649	729.49
534.103	721.59
534.556	723.89
535.01	727.59
535.464	711.39
535.918	730.39
536.372	733.99
536.826	724.19
537.279	716.89
537.733	726.29
538.187	720.49
538.64	736.49
539.094	738.69
539.548	749.19
540.001	744.49
540.455	739.59
540.908	752.49
541.362	753.29
541.815	765.59
542.269	773.19
542.722	772.09
543.175	779.59
543.629	786.49
544.082	796.19
544.536	814.59
544.989	797.89
545.442	815.29
545.895	817.99
546.349	819.09
546.802	814.39
547.255	822.49
547.708	822.19
548.161	830.89
548.614	849.99
549.067	849.69
549.52	836.49
549.973	823.39
550.426	829.19
550.879	813.49
551.332	815.09
551.785	827.59
552.238	829.79
552.691	843.89
553.144	861.09
553.596	863.79
554.049	880.69
554.502	902.89
554.955	936.89
555.407	927.09
555.86	917.09
556.313	919.49
556.765	902.29
557.218	908.89
557.67	890.99
558.123	889.69
558.576	891.79
559.028	893.79
559.48	902.69
559.933	886.19
560.385	861.49
560.838	829.39
561.29	808.89
561.742	816.79
562.195	793.69
562.647	774.99
563.099	804.29
563.551	798.29
564.004	803.29
564.456	790.79
564.908	770.39
565.36	770.19
565.812	748.89
566.264	742.19
566.716	737.19
567.168	728.69
567.62	726.49
568.072	720.29
568.524	709.09
568.976	703.39
569.428	700.09
569.88	692.29
570.332	708.89
570.784	696.29
571.235	701.79
571.687	722.69
572.139	726.69
572.59	734.89
573.042	738.79
573.494	728.29
573.945	717.59
574.397	703.79
574.849	708.39
575.3	716.39
575.752	705.69
576.203	692.59
576.655	696.79
577.106	685.89
577.557	688.39
578.009	684.69
578.46	680.19
578.912	688.99
579.363	692.39
579.814	679.89
580.265	678.39
580.717	687.49
581.168	684.99
581.619	700.99
582.07	705.99
582.521	689.89
582.972	680.89
583.423	697.49
583.875	688.69
584.326	701.49
584.777	718.09
585.227	747.49
585.678	775.29
586.129	801.69
586.58	831.89
587.031	860.19
587.482	910.09
587.933	960.79
588.384	904.39
588.834	835.19
589.285	794.79
589.736	798.39
590.186	788.19
590.637	786.19
591.088	763.49
591.538	760.39
591.989	747.99
592.439	746.39
592.89	736.89
593.34	729.09
593.791	719.39
594.241	716.69
594.692	723.49
595.142	709.29
595.593	716.59
596.043	725.79
596.493	726.59
596.943	719.09
597.394	736.89
597.844	734.79
598.294	747.69
598.744	774.99
599.195	798.99
599.645	841.49
600.095	878.89
600.545	943.69
600.995	996.59
601.445	1042.49
601.895	1116.79
602.345	1166.89
602.795	1137.19
603.245	1084.39
603.695	1046.59
604.145	980.49
604.594	929.19
605.044	880.19
605.494	832.09
605.944	767.99
606.393	764.19
606.843	745.39
607.293	752.79
607.743	745.49
608.192	762.69
608.642	774.59
609.091	774.19
609.541	787.99
609.99	786.69
610.44	781.59
610.889	737.09
611.339	714.79
611.788	695.69
612.238	715.79
612.687	723.49
613.136	716.69
613.586	734.89
614.035	726.69
614.484	735.59
614.933	724.39
615.383	716.79
615.832	727.19
616.281	721.49
616.73	692.89
617.179	671.79
617.628	665.79
618.077	657.19
618.526	636.49
618.975	627.69
619.424	633.39
619.873	624.29
620.322	632.09
620.771	614.39
621.22	617.09
621.669	612.99
622.118	605.19
622.567	593.69
623.015	582.09
623.464	585.39
623.913	577.79
624.361	564.69
624.81	564.49
625.259	565.79
625.707	571.49
626.156	566.69
626.604	583.79
627.053	577.29
627.501	573.49
627.95	585.99
628.398	596.69
628.847	575.89
629.295	579.49
629.744	591.19
630.192	581.79
630.64	582.19
631.089	562.59
631.537	557.09
631.985	549.29
632.433	557.19
632.881	545.99
633.33	559.49
633.778	546.79
634.226	534.79
634.674	555.19
635.122	558.89
635.57	565.99
636.018	587.99
636.466	570.99
636.914	566.69
637.362	594.89
637.81	598.29
638.258	598.59
638.705	600.09
639.153	624.99
639.601	628.39
640.049	651.59
640.497	682.39
640.944	718.39
641.392	653.79
641.84	617.29
642.287	598.59
642.735	574.69
643.182	577.39
643.63	574.29
644.078	577.09
644.525	593.79
644.973	590.59
645.42	601.79
645.867	619.49
646.315	645.79
646.762	671.79
647.21	696.39
647.657	717.49
648.104	754.69
648.551	769.39
648.999	830.19
649.446	904.59
649.893	998.99
650.34	1117.59
650.787	1349.59
651.234	1671.79
651.682	2144.79
652.129	2927.89
652.576	4151.69
653.023	6062.59
653.47	8155.39
653.917	10071.89
654.363	11514.69
654.81	12671.89
655.257	11986.79
655.704	7966.59
656.151	4819.89
656.598	3167.19
657.044	2274.69
657.491	1753.39
657.938	1425.19
658.385	1201.29
658.831	1045.99
659.278	949.09
659.724	847.79
660.171	785.39
660.618	714.49
661.064	685.69
661.511	665.19
661.957	656.49
662.404	643.19
662.85	657.79
663.296	635.29
663.743	573.39
664.189	542.89
664.635	548.39
665.082	544.69
665.528	538.69
665.974	528.99
666.42	521.29
666.867	516.59
667.313	496.09
667.759	485.19
668.205	465.59
668.651	461.49
669.097	472.49
669.543	461.89
669.989	461.79
670.435	449.39
670.881	459.69
671.327	463.79
671.773	479.39
672.219	506.79
672.665	568.99
673.11	595.79
673.556	649.79
674.002	679.29
674.448	675.99
674.893	571.99
675.339	493.59
675.785	461.79
676.23	436.49
676.676	403.19
677.122	399.79
677.567	388.19
678.013	384.89
678.458	372.29
678.904	372.79
679.349	361.59
679.794	368.69
680.24	366.39
680.685	361.79
681.131	365.89
681.576	356.59
682.021	368.59
682.466	359.59
682.912	363.79
683.357	368.29
683.802	401.99
684.247	433.69
684.692	472.69
685.137	518.49
685.583	549.79
686.028	580.69
686.473	531.29
686.918	460.99
687.363	438.19
687.807	415.49
688.252	383.39
688.697	367.09
689.142	353.89
689.587	343.39
690.032	335.69
690.477	354.59
690.921	379.39
691.366	403.89
691.811	413.29
692.255	438.89
692.7	481.19
693.145	526.29
693.589	747.59
694.034	1198.99
694.478	1610.39
694.923	1793.39
695.367	2299.69
695.812	1237.89
696.256	516.49
696.701	385.09
697.145	354.39
697.59	345.69
698.034	325.09
698.478	336.69
698.922	325.59
699.367	322.59
699.811	343.29
700.255	356.39
700.699	392.09
701.143	447.29
701.588	491.89
702.032	537.39
702.476	531.99
702.92	510.89
703.364	519.69
703.808	674.29
704.252	1099.69
704.696	1509.19
705.14	1722.19
705.584	2165.59
706.027	1099.29
706.471	545.29
706.915	410.59
707.359	355.19
707.803	338.29
708.246	321.09
708.69	326.19
709.134	321.79
709.577	320.99
710.021	326.59
710.465	314.89
710.908	311.49
711.352	316.29
711.795	319.49
712.239	368.79
712.682	395.89
713.126	429.79
713.569	463.79
714.012	370.49
714.456	309.89
714.899	305.29
715.342	279.09
715.786	272.69
716.229	267.29
716.672	263.99
717.115	263.49
717.558	262.59
718.002	257.09
718.445	274.39
718.888	303.49
719.331	306.29
719.774	319.29
720.217	313.59
720.66	296.39
721.103	279.59
721.546	258.49
721.989	257.19
722.432	240.49
722.874	242.99
723.317	237.69
723.76	237.49
724.203	265.19
724.645	327.89
725.088	468.29
725.531	575.39
725.974	661.19
726.416	567.39
726.859	315.79
727.301	258.99
727.744	247.29
728.187	245.89
728.629	250.39
729.071	253.19
729.514	269.79
729.956	279.39
730.399	295.99
730.841	296.19
731.283	283.19
731.726	281.99
732.168	274.49
732.61	280.69
733.053	296.99
733.495	330.79
733.937	373.19
734.379	416.39
734.821	456.99
735.263	570.49
735.705	903.09
736.148	1698.69
736.59	2706.39
737.032	3110.99
737.474	2559.09
737.916	842.69
738.357	449.89
738.799	343.29
739.241	308.09
739.683	291.09
740.125	300.69
740.567	309.19
741.008	327.49
741.45	331.69
741.892	338.29
742.334	363.19
742.775	378.39
743.217	359.69
743.658	280.59
744.1	268.99
744.542	276.09
744.983	329.99
745.425	360.79
745.866	362.19
746.307	293.59
746.749	295.69
747.19	338.99
747.632	484.19
748.073	954.39
748.514	1993.69
748.956	2978.39
749.397	3731.69
749.838	3095.19
750.279	3007.69
750.72	1553.59
751.162	574.39
751.603	340.69
752.044	263.09
752.485	235.69
752.926	221.09
753.367	203.39
753.808	197.09
754.249	201.79
754.69	193.49
755.131	184.29
755.572	187.19
756.013	189.09
756.453	192.39
756.894	195.29
757.335	204.59
757.776	205.89
758.216	201.39
758.657	202.89
759.098	205.49
759.538	238.59
759.979	284.29
760.42	403.49
760.86	763.19
761.301	1995.39
761.741	4669.79
762.182	6534.89
762.622	4650.59
763.063	1363.19
763.503	550.39
763.943	334.69
764.384	301.09
764.824	284.99
765.264	271.79
765.705	234.29
766.145	195.49
766.585	184.59
767.025	174.69
767.465	170.19
767.906	191.19
768.346	222.79
768.786	238.29
769.226	233.59
769.666	326.09
770.106	673.69
770.546	1672.29
770.986	2700.99
771.426	2408.49
771.866	832.39
772.306	345.89
772.745	212.19
773.185	168.79
773.625	169.59
774.065	152.79
774.505	174.39
774.944	224.19
775.384	415.19
775.824	662.79
776.263	633.99
776.703	314.89
777.142	170.29
777.582	142.99
778.021	132.39
778.461	133.79
778.9	131.19
779.34	125.19
779.779	118.19
780.219	115.09
780.658	110.99
781.097	114.89
781.537	113.89
781.976	110.29
782.415	104.29
782.855	110.59
783.294	109.19
783.733	111.99
784.172	112.79
784.611	107.99
785.05	114.39
785.489	121.59
785.928	123.39
786.367	127.09
786.806	120.49
787.245	131.49
787.684	142.89
788.123	151.09
788.562	137.19
789.001	130.29
789.44	120.99
789.879	121.39
790.317	128.39
790.756	132.59
791.195	134.19
791.634	156.09
792.072	216.79
792.511	384.59
792.95	1077.19
793.388	2177.09
793.827	1934.89
794.265	690.29
794.704	292.19
795.142	192.29
795.581	155.89
796.019	139.49
796.458	131.19
796.896	133.89
797.334	139.99
797.773	163.29
798.211	239.49
798.649	482.89
799.087	1084.49
799.526	1690.19
799.964	2094.99
800.402	2052.69
800.84	791.49
801.278	315.09
801.716	196.69
802.154	164.79
802.592	148.09
803.03	142.89
803.468	141.29
803.906	156.09
804.344	160.19
804.782	148.39
805.22	134.59
805.658	139.79
806.096	158.49
806.533	174.79
806.971	183.19
807.409	233.59
807.847	337.89
808.284	724.59
808.722	1992.29
809.16	3365.49
809.597	3324.99
810.035	5655.09
810.472	5852.39
810.91	2151.79
811.347	831.99
811.785	428.49
812.222	261.79
812.66	203.19
813.097	173.29
813.535	149.69
813.972	138.29
814.409	122.99
814.846	116.49
815.284	107.59
815.721	105.49
816.158	104.49
816.595	111.19
817.032	160.39
817.47	189.19
817.907	143.69
818.344	109.99
818.781	105.39
819.218	105.99
819.655	132.39
820.092	192.89
820.529	217.89
820.966	175.99
821.403	136.79
821.839	109.09
822.276	104.79
822.713	128.89
823.15	139.69
823.587	122.89
824.023	156.79
824.46	332.79
824.897	940.69
825.333	1382.19
825.77	603.79
826.206	236.69
826.643	143.89
827.08	108.99
827.516	88.09
827.953	79.69
828.389	82.99
828.825	70.99
829.262	76.89
829.698	62.39
830.135	61.89
830.571	64.89
831.007	67.39
831.443	66.19
831.88	54.19
832.316	61.19
832.752	68.69
833.188	64.89
833.624	69.29
834.06	70.59
834.497	65.79
834.933	64.49
835.369	74.79
835.805	69.19
836.241	76.19
836.677	85.19
837.112	91.69
837.548	107.59
837.984	148.29
838.42	212.79
838.856	536.69
839.292	1592.49
839.727	2339.49
840.163	1119.49
840.599	995.69
841.034	2127.49
841.47	2160.79
841.906	806.29
842.341	347.19
842.777	215.09
843.212	212.69
843.648	202.79
844.083	118.39
844.519	92.09
844.954	71.79
845.39	54.19
845.825	59.29
846.261	64.39
846.696	55.49
847.131	54.79
847.566	64.39
848.002	60.59
848.437	59.49
848.872	66.19
849.307	62.49
849.742	87.09
850.177	205.59
850.613	593.69
851.048	900.29
851.483	395.69
851.918	164.69
852.353	87.89
852.788	60.79
853.223	57.29
853.657	63.59
854.092	49.49
854.527	43.19
854.962	45.49
855.397	45.79
855.832	55.99
856.266	45.99
856.701	45.09
857.136	36.69
857.57	46.09
858.005	52.19
858.44	64.49
858.874	41.59
859.309	52.99
859.743	37.29
860.178	47.99
860.612	45.19
861.047	56.99
861.481	70.79
861.915	72.69
862.35	46.29
862.784	38.09
863.218	40.99
863.653	35.19
864.087	45.59
864.521	55.29
864.955	69.89
865.39	161.09
865.824	177.49
866.258	121.79
866.692	177.99
867.126	186.09
867.56	108.89
867.994	52.59
868.428	42.29
868.862	51.89
869.296	55.79
869.73	62.39
870.164	60.39
870.598	53.39
871.031	40.29
871.465	36.39
871.899	29.49
872.333	23.69
872.766	28.29
873.2	23.59
873.634	23.89
874.067	23.79
874.501	27.69
874.935	35.99
875.368	30.09
875.802	31.19
876.235	28.59
876.669	25.69
877.102	24.09
877.535	25.89
877.969	22.19
878.402	23.49
878.836	13.29
879.269	20.79
879.702	26.19
880.135	19.79
880.569	19.69
881.002	28.29
881.435	25.99
881.868	20.49
882.301	20.89
882.734	15.49
883.167	29.09
883.601	16.69
884.034	24.29
884.467	15.89
884.899	21.89
885.332	18.79
885.765	22.59
886.198	13.79
886.631	17.39
887.064	17.19
887.497	20.09
887.929	24.99
888.362	16.09
888.795	18.59
889.228	16.89
889.66	25.09
890.093	21.09
890.526	13.59
890.958	20.79
891.391	22.39
891.823	23.89
892.256	10.39
892.688	13.89
893.121	18.19
893.553	15.19
893.985	24.39
894.418	21.69
894.85	14.29
895.282	21.59
895.715	18.89
896.147	18.39
896.579	18.99
897.011	16.69
897.444	19.79
897.876	14.99
898.308	15.49
898.74	15.99
899.172	15.59
899.604	25.99
900.036	21.99
900.468	18.49
900.9	18.49
901.332	17.29
901.764	12.39
902.196	15.69
902.628	14.09
903.06	15.79
903.491	31.09
903.923	23.39
904.355	22.89
904.787	24.39
905.218	28.99
905.65	21.19
906.082	15.79
906.513	11.09
906.945	13.59
907.376	11.39
907.808	14.99
908.239	20.49
908.671	15.59
909.102	25.29
909.534	26.29
909.965	55.39
910.397	97.49
910.828	330.69
911.259	475.49
911.691	223.89
912.122	117.59
912.553	50.79
912.984	36.39
913.415	33.59
913.847	26.09
914.278	19.49
914.709	12.69
915.14	17.39
915.571	20.79
916.002	9.99
916.433	22.89
916.864	18.59
917.295	8.99
917.726	22.39
918.157	15.49
918.587	26.69
919.018	23.99
919.449	28.79
919.88	26.79
920.311	31.49
920.741	53.89
921.172	172.59
921.603	154.29
922.033	73.69
922.464	44.89
922.895	19.69
923.325	16.49
923.756	13.89
924.186	10.69
924.617	26.89
925.047	18.29
925.478	24.09
925.908	24.29
926.338	13.29
926.769	7.19
927.199	15.49
927.629	10.09
928.06	18.49
928.49	17.39
928.92	13.69
929.35	9.89
929.78	12.09
930.21	6.39
930.641	6.89
931.071	7.79
931.501	7.89
931.931	10.09
932.361	11.79
932.791	4.09
933.221	7.99
933.651	-0.01
934.08	12.19
934.51	27.69
934.94	13.69
935.37	13.59
935.8	12.09
936.229	6.99
936.659	4.49
937.089	3.49
937.519	14.29
937.948	27.59
938.378	24.09
938.807	2.09
939.237	6.99
939.666	7.09
940.096	-2.71
940.525	1.09
940.955	2.99
941.384	6.19
941.814	4.39
942.243	-4.91
942.672	3.39
943.102	-0.61
943.531	0.79
943.96	0.99
944.39	2.89
944.819	9.39
945.248	3.69
945.677	-1.91
946.106	2.09
946.535	5.69
946.964	1.69
947.393	2.19
947.822	3.59
948.251	-6.81
948.68	-1.81
949.109	3.59
949.538	5.19
949.967	-0.51
950.396	1.99
950.825	-1.01
951.254	3.09
951.682	-3.91
952.111	0.79
952.54	8.79
952.969	-5.91
953.397	-6.41
953.826	-1.61
954.254	-6.01
954.683	4.09
955.112	-6.21
955.54	0.59
955.969	1.19
956.397	0.59
956.826	-5.41
957.254	-0.51
957.682	2.79
958.111	4.59
958.539	1.19
958.967	2.29
959.396	0.59
959.824	-4.51
960.252	4.49
960.68	-1.01
961.109	6.09
961.537	-6.51
961.965	3.59
962.393	0.49
962.821	-5.91
963.249	-0.51
963.677	11.09
964.105	7.49
964.533	41.99
964.961	41.29
965.389	19.69
965.817	9.79
966.245	12.09
966.672	-2.91
967.1	-6.31
967.528	0.49
967.956	-1.31
968.383	-0.71
968.811	0.09
969.239	0.49
969.666	-6.31
970.094	0.09
970.522	8.19
970.949	-5.21
971.377	-1.31
971.804	-0.01
972.232	-0.21
972.659	2.19
973.087	0.09
973.514	-5.01
973.941	-8.41
974.369	2.69
974.796	-3.01
975.223	-2.71
975.651	-0.91
976.078	3.39
976.505	0.59
976.932	3.09
977.359	17.99
977.786	12.09
978.214	-2.71
978.641	-2.71
979.068	-8.21
979.495	-3.11
979.922	1.19
980.349	-3.61
980.776	3.89
981.202	-9.01
981.629	5.69
982.056	5.59
982.483	-5.41
982.91	-0.11
983.337	-8.91
983.763	2.49
984.19	0.59
984.617	-3.11
985.043	-9.11
985.47	-2.61
985.897	-3.61
986.323	-8.31
986.75	-0.91
987.176	0.89
987.603	-1.21
988.029	-4.01
988.456	-4.01
988.882	-1.41
989.308	-1.81
989.735	-8.41
990.161	0.69
990.587	-3.91
991.014	0.09
991.44	9.99
991.866	3.19
992.292	2.99
992.719	-0.21
993.145	0.29
993.571	-8.11
993.997	-3.31
994.423	-4.51
994.849	-5.81
995.275	1.39
995.701	1.19
996.127	-0.01
996.553	0.99
996.979	-1.41
997.405	0.39
997.83	-9.61
998.256	-9.11
998.682	-3.91
999.108	-11.31
999.534	-3.61
999.959	0.09
1000.385	-8.81
1000.811	-1.01
1001.236	-8.51
1001.662	-9.81
1002.087	-4.51
1002.513	-3.81
1002.938	-0.51
1003.364	0.09
1003.789	-2.71
1004.215	8.49
1004.64	-3.41
1005.066	-2.11
1005.491	-5.01
1005.916	-2.91
1006.342	-5.21
1006.767	-6.01
1007.192	7.79
1007.617	-2.41
1008.042	-1.31
1008.468	-3.41
1008.893	-6.61
1009.318	-1.21
1009.743	-2.41
1010.168	3.59
1010.593	-4.21
1011.018	-10.71
1011.443	-4.11
1011.868	6.59
1012.293	-7.21
1012.718	-8.41
1013.143	-1.01
1013.567	-4.31
1013.992	-5.81
1014.417	-13.21
1014.842	4.09
1015.267	-2.01
1015.691	-4.91
1016.116	6.59
1016.541	-0.41
1016.965	-2.01
1017.39	5.19
1017.814	-0.01
1018.239	-5.31
1018.663	-7.71
1019.088	-11.01
1019.512	-4.61
1019.937	-0.51
1020.361	-5.41
1020.785	-8.11
1021.21	-1.41
1021.634	-2.11
1022.058	2.29
1022.483	4.99
1022.907	-0.21
1023.331	-4.31
1023.755	0.29
1024.179	-0.11
1024.604	-6.51
1025.028	-2.51
1025.452	-0.61
1025.876	-9.51
1026.3	-1.01
1026.724	-14.61
1027.148	5.29
1027.572	-7.11
1027.996	-1.31
1028.42	-0.51
1028.843	-1.31
1029.267	-8.01
1029.691	-4.71
1030.115	-8.51
1030.539	-10.21
1030.962	-4.91
1031.386	-14.01
1031.81	-4.11
1032.233	2.09
1032.657	-5.31
1033.08	1.49
1033.504	-3.91
1033.927	-7.61
1034.351	-7.71
1034.774	-7.41
1035.198	1.29
1035.621	-8.71
1036.045	-7.31
1036.468	4.99
1036.891	-8.71
1037.315	-9.41
1037.738	-15.91
1038.161	-0.31
1038.584	-7.31
1039.008	-8.61
1039.431	-3.61
1039.854	0.79
1040.277	-1.61
1040.7	-8.31
1041.123	-6.81
1041.546	-7.21
1041.969	-4.81
1042.392	-3.71
1042.815	-1.21
1043.238	1.59
1043.661	0.29
1044.084	-11.81
1044.507	-6.41
1044.93	-6.81
1045.352	-1.61
1045.775	-6.11
1046.198	-6.11
1046.621	-6.31
1047.043	2.19
1047.466	3.99
1047.889	-3.21
1048.311	-11.61
1048.734	-4.31
1049.156	-1.51
1049.579	-3.41
1050.001	-3.01
1050.424	-2.51
1050.846	-8.01
1051.269	-6.51
1051.691	-3.41
1052.113	-4.41
1052.536	0.19
1052.958	1.59
1053.38	-11.11
1053.802	-6.51
1054.225	0.19
1054.647	-8.81
1055.069	-5.71
1055.491	-1.51
1055.913	-5.11
1056.335	-6.41
1056.757	-2.01
1057.179	-2.81
1057.601	-1.21
1058.023	-5.21
1058.445	-4.81
1058.867	-6.41
1059.289	-2.51
1059.711	-2.51
1060.133	-0.51
1060.555	-9.51
1060.976	-7.31
1061.398	-10.81
1061.82	-7.31
1062.241	-1.71
1062.663	-11.21
1063.085	-2.61
1063.506	6.09
1063.928	-9.91
1064.35	0.39
1064.771	-14.91
1065.193	-1.61
1065.614	-4.81
1066.035	-2.61
1066.457	-3.21
1066.878	4.09
1067.3	-2.01
1067.721	-4.31
1068.142	-6.41
1068.564	-4.11
1068.985	-5.71
1069.406	-7.21
1069.827	-2.11
1070.248	-1.31
1070.67	-10.31
1071.091	-1.21
1071.512	-1.41
1071.933	-5.21
1072.354	-13.51
1072.775	-9.81
1073.196	-8.91
1073.617	-5.61
1074.038	-4.11
1074.459	0.09
1074.88	-2.71
1075.3	-2.61
1075.721	-5.11
1076.142	0.79
1076.563	-0.71
1076.983	-12.21
1077.404	-8.01
1077.825	-11.61
1078.246	-8.21
1078.666	-9.21
1079.087	-7.31
1079.507	-3.01
1079.928	-3.01
1080.348	-1.21
1080.769	-7.81
1081.189	2.59
1081.61	1.59
1082.03	-7.41
1082.451	-12.21
1082.871	-6.51
1083.291	-9.21
1083.711	-5.91
1084.132	-5.91
1084.552	-6.41
1084.972	1.89
1085.392	-10.81
1085.813	-7.91
1086.233	-8.61
1086.653	-7.61
1087.073	2.69
1087.493	-10.31
1087.913	-5.71
1088.333	-7.01
1088.753	-8.11
1089.173	3.49
1089.593	-3.11
1090.013	0.69
1090.433	-0.71
1090.852	-6.01
1091.272	-0.41
1091.692	-1.61
1092.112	-5.81
1092.531	-12.31
1092.951	-12.81
1093.371	-3.41
1093.79	0.79
1094.21	-3.91
1094.63	-2.51
1095.049	-10.31
1095.469	0.89
1095.888	-2.11
1096.308	4.89
1096.727	6.09
1097.146	-1.11
1097.566	-4.91
1097.985	-0.41
1098.405	-3.51
1098.824	-5.81
1099.243	1.39
1099.662	-7.01
1100.082	-2.31
1100.501	-3.31
1100.92	-4.31
1101.339	-1.21
1101.758	-7.31
