Data from 20171114-ORNL-Ar_H_NY_Subt18_08-07-40-170.txt Node
Date: Tue Nov 14 08:07:40 EST 2017
User: Ender
Spectrometer: HR+D1039
Trigger mode: 0
Integration Time (sec): 2.730000E-2
Scans to average: 10
Electric dark correction enabled: true
Nonlinearity correction enabled: false
Boxcar width: 0
XAxis mode: Wavelengths
Number of Pixels in Spectrum: 2048
>>>>>Begin Spectral Data<<<<<
187.836	0.41
188.309	0.41
188.782	0.41
189.255	-1.49
189.728	-1.89
190.201	7.41
190.674	1.01
191.147	-4.79
191.619	-7.29
192.092	2.11
192.565	5.71
193.038	-3.29
193.511	3.11
193.984	0.11
194.456	-1.79
194.929	2.11
195.402	-2.19
195.874	0.71
196.347	-5.59
196.82	-6.09
197.292	4.41
197.765	-1.39
198.237	-2.09
198.71	3.81
199.182	0.71
199.655	-0.09
200.127	5.71
200.6	-1.79
201.072	-0.19
201.544	-2.79
202.017	-1.79
202.489	0.41
202.961	-0.79
203.433	-0.49
203.906	-1.29
204.378	-5.09
204.85	-4.39
205.322	-7.19
205.794	-0.19
206.266	-0.19
206.739	-9.39
207.211	0.41
207.683	-4.19
208.155	-8.79
208.627	-11.19
209.099	-5.49
209.57	-11.49
210.042	-8.29
210.514	3.01
210.986	0.01
211.458	-6.79
211.93	1.91
212.402	2.51
212.873	-2.09
213.345	-10.49
213.817	-17.79
214.288	-3.59
214.76	-7.79
215.232	-0.79
215.703	0.91
216.175	-8.49
216.646	-9.99
217.118	-7.99
217.589	-3.99
218.061	-4.89
218.532	-5.99
219.004	-3.99
219.475	-2.59
219.946	0.81
220.418	-6.69
220.889	3.11
221.36	1.81
221.832	-5.49
222.303	-4.69
222.774	-1.99
223.245	-8.49
223.717	-8.09
224.188	-7.99
224.659	-10.29
225.13	-10.19
225.601	0.51
226.072	-1.49
226.543	1.61
227.014	-1.99
227.485	-6.99
227.956	-5.19
228.427	-9.39
228.898	-1.49
229.369	3.11
229.839	-0.39
230.31	-9.79
230.781	4.11
231.252	-4.39
231.722	-4.29
232.193	-2.49
232.664	-0.89
233.135	-0.29
233.605	-8.59
234.076	-7.89
234.546	3.71
235.017	7.91
235.487	5.01
235.958	-0.59
236.428	-2.69
236.899	3.31
237.369	4.71
237.84	0.81
238.31	8.91
238.78	-2.09
239.251	-1.99
239.721	3.71
240.191	0.91
240.662	-3.29
241.132	-3.89
241.602	2.41
242.072	-3.49
242.542	5.41
243.013	1.51
243.483	7.51
243.953	-1.79
244.423	1.41
244.893	-4.49
245.363	5.41
245.833	-0.19
246.303	-0.99
246.773	12.91
247.243	1.81
247.712	0.41
248.182	5.61
248.652	5.31
249.122	-1.69
249.592	8.91
250.061	16.81
250.531	32.01
251.001	11.31
251.471	16.31
251.94	21.01
252.41	10.91
252.879	-0.89
253.349	10.61
253.818	6.81
254.288	-0.39
254.757	2.81
255.227	4.61
255.696	1.91
256.166	6.61
256.635	8.11
257.105	8.81
257.574	6.81
258.043	11.61
258.513	14.61
258.982	12.31
259.451	14.81
259.92	13.21
260.389	6.11
260.859	13.21
261.328	9.31
261.797	11.71
262.266	8.21
262.735	7.01
263.204	4.91
263.673	5.71
264.142	3.41
264.611	-3.69
265.08	1.81
265.549	2.31
266.018	10.31
266.487	1.41
266.955	-0.09
267.424	-1.39
267.893	11.11
268.362	4.51
268.83	-2.69
269.299	8.41
269.768	-2.39
270.236	8.51
270.705	2.11
271.174	1.11
271.642	8.21
272.111	5.21
272.579	15.11
273.048	23.01
273.516	27.51
273.985	27.21
274.453	22.51
274.922	15.51
275.39	10.61
275.858	-3.09
276.327	9.71
276.795	17.71
277.263	10.31
277.731	28.01
278.2	48.81
278.668	55.31
279.136	44.81
279.604	22.01
280.072	12.31
280.54	10.61
281.008	5.51
281.477	14.11
281.945	12.31
282.413	14.61
282.881	14.41
283.348	8.81
283.816	11.31
284.284	9.21
284.752	21.01
285.22	5.91
285.688	20.31
286.156	14.81
286.623	39.01
287.091	48.01
287.559	27.31
288.026	15.71
288.494	17.81
288.962	3.41
289.429	8.41
289.897	16.91
290.364	13.91
290.832	20.11
291.3	12.71
291.767	17.91
292.234	19.51
292.702	12.11
293.169	18.31
293.637	18.91
294.104	15.61
294.571	2.91
295.039	11.61
295.506	10.51
295.973	17.41
296.44	19.61
296.908	17.21
297.375	21.81
297.842	17.01
298.309	12.21
298.776	12.61
299.243	17.31
299.71	3.51
300.177	24.31
300.644	22.91
301.111	19.51
301.578	19.61
302.045	13.81
302.512	24.11
302.979	15.41
303.446	22.41
303.913	14.41
304.379	20.81
304.846	28.51
305.313	27.41
305.78	20.91
306.246	25.91
306.713	27.71
307.18	25.31
307.646	28.41
308.113	27.71
308.579	22.21
309.046	28.71
309.512	20.81
309.979	21.31
310.445	20.21
310.912	23.01
311.378	29.01
311.845	28.51
312.311	23.81
312.777	25.01
313.244	33.21
313.71	32.51
314.176	24.01
314.642	27.91
315.109	21.91
315.575	29.01
316.041	35.41
316.507	22.91
316.973	38.41
317.439	27.81
317.905	32.41
318.371	29.81
318.837	33.41
319.303	28.81
319.769	30.51
320.235	30.41
320.701	27.51
321.167	38.41
321.633	31.21
322.099	44.01
322.564	43.01
323.03	36.81
323.496	39.91
323.962	40.61
324.427	34.81
324.893	37.31
325.359	35.21
325.824	30.71
326.29	35.51
326.755	32.41
327.221	32.71
327.686	33.81
328.152	48.41
328.617	39.91
329.083	43.21
329.548	48.41
330.014	43.21
330.479	35.91
330.944	40.31
331.41	41.21
331.875	43.31
332.34	43.81
332.805	42.61
333.271	41.21
333.736	42.71
334.201	50.81
334.666	48.91
335.131	49.91
335.596	40.61
336.061	47.21
336.526	45.21
336.991	47.31
337.456	54.21
337.921	40.61
338.386	36.61
338.851	46.01
339.316	43.11
339.781	46.41
340.246	48.21
340.711	38.71
341.175	47.11
341.64	40.61
342.105	50.51
342.569	47.61
343.034	52.91
343.499	50.71
343.963	53.01
344.428	56.41
344.893	51.21
345.357	58.91
345.822	59.91
346.286	61.41
346.751	66.91
347.215	65.51
347.679	65.41
348.144	85.31
348.608	78.51
349.073	61.21
349.537	66.21
350.001	67.41
350.465	87.21
350.93	64.81
351.394	77.01
351.858	65.11
352.322	79.11
352.786	78.01
353.25	89.31
353.715	97.11
354.179	79.81
354.643	110.81
355.107	114.61
355.571	96.01
356.035	92.51
356.498	105.61
356.962	110.61
357.426	116.31
357.89	100.71
358.354	79.61
358.818	78.41
359.281	74.71
359.745	72.41
360.209	75.71
360.673	72.21
361.136	77.71
361.6	77.71
362.064	83.11
362.527	75.81
362.991	88.01
363.454	76.71
363.918	80.11
364.381	71.31
364.845	77.71
365.308	74.01
365.772	88.21
366.235	74.21
366.698	78.31
367.162	88.21
367.625	83.21
368.088	81.71
368.552	76.31
369.015	88.01
369.478	90.41
369.941	90.01
370.404	84.91
370.867	98.21
371.331	98.01
371.794	99.61
372.257	102.61
372.72	109.61
373.183	106.01
373.646	102.91
374.109	98.11
374.572	110.51
375.035	101.41
375.497	106.01
375.96	98.51
376.423	103.01
376.886	100.11
377.349	103.51
377.811	92.61
378.274	93.61
378.737	108.11
379.199	100.01
379.662	108.41
380.125	105.11
380.587	107.11
381.05	113.31
381.512	121.81
381.975	134.71
382.437	126.91
382.9	123.81
383.362	121.81
383.825	136.91
384.287	137.61
384.75	132.21
385.212	129.01
385.674	137.41
386.136	128.01
386.599	120.11
387.061	121.71
387.523	125.01
387.985	130.21
388.447	135.31
388.91	142.01
389.372	151.91
389.834	147.31
390.296	141.21
390.758	158.41
391.22	164.31
391.682	209.31
392.144	308.31
392.606	227.41
393.068	154.61
393.529	158.91
393.991	147.41
394.453	143.81
394.915	150.41
395.377	186.01
395.838	212.61
396.3	148.71
396.762	139.31
397.224	129.01
397.685	119.71
398.147	123.21
398.608	126.61
399.07	123.81
399.531	130.11
399.993	136.61
400.454	142.91
400.916	136.51
401.377	139.61
401.839	146.01
402.3	141.51
402.762	160.81
403.223	179.41
403.684	160.01
404.145	152.01
404.607	162.21
405.068	153.21
405.529	158.51
405.99	177.71
406.451	173.01
406.913	172.41
407.374	155.91
407.835	158.21
408.296	157.01
408.757	167.71
409.218	181.91
409.679	169.51
410.14	169.01
410.601	173.11
411.062	176.81
411.522	182.61
411.983	185.61
412.444	167.51
412.905	176.01
413.366	179.31
413.826	184.61
414.287	207.21
414.748	248.61
415.208	238.31
415.669	206.21
416.13	201.51
416.59	194.71
417.051	203.01
417.511	210.41
417.972	227.01
418.432	231.51
418.893	275.71
419.353	237.21
419.814	197.81
420.274	172.81
420.734	176.41
421.195	187.81
421.655	190.41
422.115	191.21
422.576	186.41
423.036	189.41
423.496	198.31
423.956	214.01
424.416	223.31
424.876	256.21
425.336	258.01
425.797	258.91
426.257	244.91
426.717	230.41
427.177	230.71
427.637	213.51
428.097	227.81
428.556	234.21
429.016	271.31
429.476	260.51
429.936	273.41
430.396	275.71
430.856	292.21
431.315	308.11
431.775	339.51
432.235	376.81
432.694	339.41
433.154	352.51
433.614	387.51
434.073	327.91
434.533	277.21
434.993	271.11
435.452	272.11
435.912	282.41
436.371	282.91
436.83	273.21
437.29	259.41
437.749	236.01
438.209	243.91
438.668	269.11
439.127	279.21
439.587	260.11
440.046	235.81
440.505	256.51
440.964	267.81
441.424	311.31
441.883	302.01
442.342	251.21
442.801	220.31
443.26	216.91
443.719	212.01
444.178	213.81
444.637	203.91
445.096	215.61
445.555	215.91
446.014	218.31
446.473	223.51
446.932	222.41
447.391	222.51
447.849	226.11
448.308	211.81
448.767	219.61
449.226	223.81
449.685	232.41
450.143	237.21
450.602	232.81
451.061	225.31
451.519	229.41
451.978	229.11
452.436	232.01
452.895	233.41
453.353	250.41
453.812	231.61
454.27	231.01
454.729	230.21
455.187	234.61
455.646	238.91
456.104	243.91
456.562	254.51
457.021	265.51
457.479	253.81
457.937	270.61
458.395	256.71
458.854	246.21
459.312	253.31
459.77	268.51
460.228	247.91
460.686	235.21
461.144	241.61
461.602	235.21
462.06	241.61
462.518	248.21
462.976	244.81
463.434	253.21
463.892	250.11
464.35	268.91
464.808	280.11
465.266	262.41
465.724	261.11
466.181	268.61
466.639	264.11
467.097	278.21
467.555	291.51
468.012	298.01
468.47	306.31
468.928	314.91
469.385	337.71
469.843	332.61
470.3	342.51
470.758	351.71
471.215	371.81
471.673	398.31
472.13	395.91
472.588	416.21
473.045	371.41
473.503	366.21
473.96	387.91
474.417	394.81
474.875	421.31
475.332	464.01
475.789	447.51
476.246	468.31
476.704	486.91
477.161	490.11
477.618	525.01
478.075	549.11
478.532	609.61
478.989	681.11
479.446	786.21
479.903	759.31
480.36	801.21
480.817	862.51
481.274	957.81
481.731	1059.81
482.188	1142.51
482.645	1283.41
483.102	1382.41
483.558	1510.51
484.015	1591.21
484.472	1551.11
484.929	1504.61
485.385	1452.41
485.842	1414.71
486.299	1337.51
486.755	1270.51
487.212	1081.81
487.668	909.01
488.125	836.01
488.582	766.71
489.038	739.51
489.494	683.71
489.951	668.91
490.407	656.91
490.864	643.71
491.32	628.21
491.776	631.41
492.233	633.51
492.689	593.51
493.145	597.01
493.602	580.81
494.058	604.11
494.514	599.31
494.97	629.01
495.426	643.81
495.882	607.71
496.338	606.31
496.794	609.01
497.251	610.61
497.707	619.41
498.163	630.61
498.618	630.71
499.074	631.41
499.53	664.11
499.986	667.11
500.442	635.11
500.898	624.41
501.354	621.81
501.809	615.51
502.265	627.31
502.721	654.81
503.177	662.81
503.632	653.01
504.088	664.91
504.543	701.81
504.999	703.71
505.455	643.11
505.91	629.11
506.366	618.21
506.821	613.21
507.277	612.01
507.732	612.51
508.187	615.81
508.643	621.61
509.098	620.11
509.553	647.21
510.009	645.41
510.464	655.41
510.919	667.31
511.375	682.01
511.83	690.01
512.285	709.11
512.74	743.11
513.195	760.41
513.65	759.31
514.105	752.71
514.56	758.81
515.015	775.11
515.47	794.01
515.925	778.51
516.38	768.51
516.835	773.01
517.29	765.71
517.745	760.11
518.2	745.91
518.655	750.11
519.109	730.81
519.564	731.11
520.019	730.31
520.474	713.71
520.928	710.41
521.383	704.51
521.838	703.41
522.292	692.81
522.747	700.21
523.201	685.91
523.656	689.01
524.11	683.41
524.565	691.81
525.019	685.61
525.474	698.31
525.928	689.71
526.382	695.31
526.837	685.61
527.291	695.91
527.745	686.11
528.2	689.81
528.654	681.41
529.108	674.91
529.562	669.61
530.016	675.11
530.47	678.01
530.925	675.11
531.379	679.71
531.833	702.11
532.287	695.81
532.741	696.71
533.195	691.41
533.649	700.51
534.103	706.21
534.556	694.11
535.01	712.11
535.464	692.51
535.918	713.11
536.372	713.61
536.826	709.51
537.279	692.81
537.733	706.41
538.187	704.81
538.64	702.41
539.094	712.91
539.548	711.61
540.001	719.01
540.455	704.51
540.908	730.61
541.362	727.01
541.815	734.21
542.269	754.41
542.722	752.81
543.175	754.11
543.629	761.21
544.082	774.41
544.536	778.01
544.989	770.91
545.442	789.71
545.895	776.91
546.349	764.91
546.802	770.51
547.255	788.31
547.708	795.51
548.161	806.91
548.614	815.31
549.067	815.71
549.52	809.01
549.973	798.51
550.426	790.71
550.879	781.11
551.332	790.91
551.785	803.01
552.238	804.21
552.691	808.51
553.144	830.31
553.596	837.91
554.049	858.81
554.502	884.91
554.955	895.01
555.407	891.41
555.86	885.11
556.313	885.21
556.765	865.61
557.218	869.51
557.67	871.31
558.123	867.51
558.576	865.51
559.028	867.11
559.48	867.11
559.933	858.11
560.385	836.21
560.838	802.41
561.29	784.41
561.742	766.41
562.195	753.71
562.647	752.31
563.099	751.71
563.551	762.01
564.004	790.81
564.456	765.61
564.908	747.11
565.36	743.31
565.812	721.01
566.264	722.21
566.716	716.31
567.168	705.51
567.62	713.71
568.072	704.61
568.524	691.11
568.976	685.31
569.428	673.31
569.88	669.91
570.332	674.11
570.784	675.41
571.235	677.31
571.687	687.21
572.139	687.01
572.59	699.51
573.042	701.71
573.494	699.81
573.945	694.21
574.397	675.71
574.849	681.91
575.3	676.11
575.752	676.01
576.203	663.81
576.655	671.41
577.106	665.41
577.557	656.71
578.009	664.21
578.46	661.31
578.912	648.41
579.363	659.21
579.814	662.91
580.265	655.01
580.717	662.91
581.168	654.41
581.619	671.31
582.07	676.81
582.521	667.21
582.972	663.61
583.423	668.71
583.875	673.31
584.326	702.71
584.777	758.01
585.227	836.21
585.678	930.81
586.129	1015.01
586.58	1106.61
587.031	1184.71
587.482	1322.91
587.933	1532.71
588.384	1333.41
588.834	985.81
589.285	812.61
589.736	783.61
590.186	772.91
590.637	764.01
591.088	736.71
591.538	731.81
591.989	727.41
592.439	724.31
592.89	718.01
593.34	708.11
593.791	708.01
594.241	700.61
594.692	711.31
595.142	705.31
595.593	698.41
596.043	704.81
596.493	714.81
596.943	714.31
597.394	725.11
597.844	719.21
598.294	726.01
598.744	753.71
599.195	758.41
599.645	814.81
600.095	856.01
600.545	911.91
600.995	962.71
601.445	1023.71
601.895	1085.71
602.345	1127.01
602.795	1098.41
603.245	1059.61
603.695	996.81
604.145	951.41
604.594	899.01
605.044	844.91
605.494	798.71
605.944	750.11
606.393	741.41
606.843	725.21
607.293	734.91
607.743	726.91
608.192	752.31
608.642	760.71
609.091	765.81
609.541	771.21
609.99	769.01
610.44	768.21
610.889	732.41
611.339	693.21
611.788	687.91
612.238	689.01
612.687	717.81
613.136	717.01
613.586	730.11
614.035	732.41
614.484	757.01
614.933	760.61
615.383	750.31
615.832	739.61
616.281	722.11
616.73	682.41
617.179	661.51
617.628	655.61
618.077	641.41
618.526	625.51
618.975	616.71
619.424	607.11
619.873	612.31
620.322	612.11
620.771	601.01
621.22	601.21
621.669	585.91
622.118	584.41
622.567	581.61
623.015	564.11
623.464	557.41
623.913	559.41
624.361	552.41
624.81	549.71
625.259	549.01
625.707	551.91
626.156	543.21
626.604	560.11
627.053	565.91
627.501	563.91
627.95	569.21
628.398	575.11
628.847	560.41
629.295	562.01
629.744	569.81
630.192	562.31
630.64	569.31
631.089	563.51
631.537	583.11
631.985	587.31
632.433	607.71
632.881	612.01
633.33	661.91
633.778	651.81
634.226	567.71
634.674	565.01
635.122	577.31
635.57	603.81
636.018	619.31
636.466	579.81
636.914	553.41
637.362	571.61
637.81	567.81
638.258	571.91
638.705	573.81
639.153	615.41
639.601	620.31
640.049	640.01
640.497	668.11
640.944	692.31
641.392	636.31
641.84	617.81
642.287	581.21
642.735	566.51
643.182	569.21
643.63	568.51
644.078	578.11
644.525	588.21
644.973	600.01
645.42	601.71
645.867	624.31
646.315	638.01
646.762	653.71
647.21	685.41
647.657	713.71
648.104	754.81
648.551	772.21
648.999	836.71
649.446	924.71
649.893	1016.31
650.34	1158.71
650.787	1400.11
651.234	1741.71
651.682	2273.41
652.129	3159.91
652.576	4565.91
653.023	6715.31
653.47	9180.41
653.917	11387.11
654.363	13104.81
654.81	14453.01
655.257	13749.81
655.704	8959.71
656.151	5292.61
656.598	3421.81
657.044	2424.11
657.491	1864.41
657.938	1486.71
658.385	1230.01
658.831	1081.81
659.278	960.81
659.724	860.51
660.171	790.21
660.618	716.11
661.064	686.11
661.511	671.01
661.957	661.11
662.404	640.31
662.85	645.71
663.296	619.91
663.743	566.61
664.189	545.51
664.635	535.81
665.082	527.21
665.528	526.41
665.974	528.71
666.42	508.91
666.867	499.91
667.313	490.11
667.759	481.01
668.205	484.71
668.651	480.91
669.097	491.41
669.543	507.71
669.989	472.91
670.435	445.71
670.881	446.01
671.327	450.51
671.773	468.21
672.219	489.51
672.665	544.11
673.11	583.71
673.556	617.31
674.002	657.51
674.448	655.91
674.893	552.21
675.339	475.21
675.785	445.91
676.23	420.81
676.676	384.71
677.122	382.81
677.567	366.71
678.013	370.51
678.458	354.51
678.904	358.11
679.349	345.91
679.794	355.41
680.24	350.01
680.685	349.41
681.131	348.71
681.576	341.21
682.021	355.91
682.466	346.61
682.912	351.91
683.357	349.11
683.802	379.51
684.247	410.61
684.692	453.61
685.137	488.11
685.583	526.51
686.028	556.11
686.473	519.91
686.918	445.61
687.363	412.41
687.807	383.41
688.252	355.81
688.697	357.31
689.142	341.31
689.587	330.71
690.032	332.51
690.477	337.91
690.921	346.11
691.366	378.71
691.811	404.31
692.255	421.31
692.7	465.01
693.145	504.91
693.589	714.01
694.034	1142.91
694.478	1524.01
694.923	1719.11
695.367	2241.81
695.812	1187.81
696.256	495.81
696.701	370.01
697.145	343.51
697.59	329.31
698.034	320.91
698.478	328.41
698.922	324.01
699.367	325.31
699.811	336.91
700.255	354.01
700.699	387.71
701.143	429.21
701.588	478.21
702.032	515.81
702.476	509.31
702.92	484.31
703.364	484.71
703.808	637.71
704.252	1047.41
704.696	1446.91
705.14	1671.11
705.584	2097.51
706.027	1046.41
706.471	524.01
706.915	391.51
707.359	352.31
707.803	321.71
708.246	310.81
708.69	317.51
709.134	316.11
709.577	317.51
710.021	318.21
710.465	312.81
710.908	299.51
711.352	299.11
711.795	306.71
712.239	360.01
712.682	395.01
713.126	418.31
713.569	461.01
714.012	372.91
714.456	326.91
714.899	305.01
715.342	276.71
715.786	267.61
716.229	255.41
716.672	256.31
717.115	254.41
717.558	247.91
718.002	248.61
718.445	268.21
718.888	295.31
719.331	295.41
719.774	311.71
720.217	299.41
720.66	281.41
721.103	268.81
721.546	255.51
721.989	249.01
722.432	228.21
722.874	239.11
723.317	233.71
723.76	240.31
724.203	259.81
724.645	316.51
725.088	455.71
725.531	574.11
725.974	641.61
726.416	547.41
726.859	309.31
727.301	242.51
727.744	240.91
728.187	238.31
728.629	245.01
729.071	245.21
729.514	253.31
729.956	278.11
730.399	286.21
730.841	282.91
731.283	271.91
731.726	267.81
732.168	267.41
732.61	264.71
733.053	291.51
733.495	315.01
733.937	355.21
734.379	404.31
734.821	435.61
735.263	547.81
735.705	839.71
736.148	1596.91
736.59	2590.21
737.032	3000.91
737.474	2454.81
737.916	805.71
738.357	420.31
738.799	326.51
739.241	292.41
739.683	285.51
740.125	297.71
740.567	296.51
741.008	318.11
741.45	312.61
741.892	323.71
742.334	341.61
742.775	358.91
743.217	338.11
743.658	273.11
744.1	256.41
744.542	263.61
744.983	316.01
745.425	334.51
745.866	337.71
746.307	278.41
746.749	278.11
747.19	325.91
747.632	469.51
748.073	899.01
748.514	1883.31
748.956	2828.61
749.397	3552.71
749.838	2933.11
750.279	2916.51
750.72	1478.31
751.162	551.01
751.603	324.31
752.044	252.31
752.485	217.61
752.926	207.81
753.367	202.11
753.808	194.41
754.249	188.51
754.69	180.91
755.131	184.51
755.572	187.51
756.013	184.11
756.453	187.81
756.894	188.91
757.335	190.61
757.776	189.51
758.216	193.81
758.657	203.41
759.098	198.41
759.538	223.81
759.979	272.61
760.42	378.01
760.86	719.51
761.301	1870.61
761.741	4456.71
762.182	6341.61
762.622	4445.61
763.063	1292.71
763.503	538.71
763.943	356.31
764.384	345.41
764.824	415.61
765.264	468.21
765.705	316.11
766.145	217.71
766.585	188.71
767.025	185.01
767.465	190.01
767.906	254.01
768.346	330.81
768.786	348.51
769.226	263.21
769.666	327.31
770.106	642.51
770.546	1580.91
770.986	2624.41
771.426	2312.71
771.866	782.81
772.306	330.01
772.745	216.11
773.185	173.81
773.625	172.91
774.065	164.71
774.505	203.71
774.944	315.31
775.384	698.51
775.824	1250.71
776.263	1217.51
776.703	519.01
777.142	228.11
777.582	159.51
778.021	142.91
778.461	141.31
778.9	139.71
779.34	132.11
779.779	115.51
780.219	111.11
780.658	112.41
781.097	115.31
781.537	113.11
781.976	105.81
782.415	106.01
782.855	102.61
783.294	105.71
783.733	108.11
784.172	114.21
784.611	108.61
785.05	110.81
785.489	111.91
785.928	119.41
786.367	114.81
786.806	125.11
787.245	132.21
787.684	137.71
788.123	156.81
788.562	133.01
789.001	133.11
789.44	125.41
789.879	116.01
790.317	118.61
790.756	128.41
791.195	130.71
791.634	148.41
792.072	208.01
792.511	372.11
792.95	1026.11
793.388	2124.71
793.827	1901.41
794.265	679.31
794.704	279.41
795.142	184.01
795.581	151.31
796.019	138.51
796.458	123.31
796.896	125.91
797.334	131.61
797.773	161.21
798.211	227.21
798.649	450.41
799.087	1028.11
799.526	1590.61
799.964	1997.11
800.402	1970.11
800.84	741.61
801.278	296.51
801.716	182.01
802.154	150.71
802.592	143.91
803.03	142.61
803.468	131.11
803.906	148.01
804.344	143.11
804.782	140.81
805.22	138.41
805.658	129.21
806.096	145.71
806.533	154.01
806.971	176.01
807.409	217.71
807.847	320.61
808.284	685.01
808.722	1893.51
809.16	3257.81
809.597	3157.11
810.035	5418.91
810.472	5650.01
810.91	2052.81
811.347	785.51
811.785	407.61
812.222	256.01
812.66	201.41
813.097	166.91
813.535	138.31
813.972	122.81
814.409	119.01
814.846	111.31
815.284	107.61
815.721	106.31
816.158	107.71
816.595	123.81
817.032	180.31
817.47	199.11
817.907	168.61
818.344	156.41
818.781	115.31
819.218	104.21
819.655	129.01
820.092	183.61
820.529	210.11
820.966	175.61
821.403	134.41
821.839	110.61
822.276	106.01
822.713	128.81
823.15	135.01
823.587	115.21
824.023	149.41
824.46	309.61
824.897	911.71
825.333	1340.91
825.77	581.51
826.206	229.31
826.643	139.21
827.08	105.21
827.516	89.91
827.953	75.21
828.389	85.71
828.825	72.61
829.262	67.81
829.698	67.51
830.135	62.11
830.571	63.51
831.007	65.31
831.443	67.91
831.88	63.91
832.316	58.41
832.752	62.11
833.188	68.11
833.624	67.61
834.06	61.91
834.497	72.21
834.933	73.51
835.369	77.61
835.805	64.51
836.241	81.41
836.677	77.01
837.112	89.71
837.548	109.21
837.984	132.61
838.42	198.31
838.856	506.81
839.292	1517.91
839.727	2261.31
840.163	1050.91
840.599	933.51
841.034	2028.71
841.47	2080.81
841.906	776.91
842.341	328.91
842.777	233.51
843.212	328.41
843.648	319.01
844.083	148.01
844.519	96.81
844.954	84.31
845.39	60.11
845.825	63.91
846.261	57.21
846.696	58.91
847.131	59.31
847.566	56.61
848.002	58.51
848.437	59.21
848.872	53.51
849.307	59.81
849.742	88.11
850.177	185.21
850.613	564.51
851.048	865.91
851.483	369.11
851.918	152.21
852.353	85.81
852.788	60.81
853.223	53.91
853.657	53.01
854.092	42.91
854.527	34.21
854.962	41.81
855.397	41.71
855.832	47.71
856.266	44.91
856.701	45.21
857.136	38.41
857.57	43.11
858.005	47.91
858.44	64.81
858.874	46.61
859.309	56.21
859.743	37.61
860.178	49.01
860.612	40.61
861.047	48.91
861.481	69.01
861.915	71.41
862.35	46.21
862.784	37.21
863.218	40.41
863.653	38.31
864.087	43.71
864.521	64.81
864.955	76.21
865.39	157.11
865.824	173.11
866.258	118.81
866.692	165.51
867.126	170.61
867.56	104.21
867.994	50.91
868.428	40.91
868.862	52.31
869.296	61.41
869.73	60.91
870.164	51.91
870.598	48.51
871.031	40.41
871.465	28.21
871.899	28.61
872.333	29.51
872.766	27.31
873.2	19.31
873.634	29.71
874.067	25.31
874.501	24.41
874.935	32.81
875.368	30.81
875.802	27.91
876.235	21.31
876.669	28.41
877.102	24.91
877.535	30.01
877.969	31.31
878.402	26.51
878.836	19.31
879.269	26.01
879.702	25.21
880.135	24.71
880.569	24.21
881.002	32.71
881.435	22.41
881.868	16.91
882.301	24.51
882.734	12.91
883.167	20.41
883.601	18.51
884.034	23.91
884.467	11.31
884.899	26.21
885.332	19.31
885.765	18.51
886.198	15.51
886.631	17.71
887.064	20.51
887.497	20.21
887.929	27.11
888.362	19.11
888.795	16.71
889.228	16.31
889.66	23.71
890.093	17.41
890.526	18.41
890.958	13.11
891.391	17.71
891.823	25.61
892.256	12.81
892.688	11.71
893.121	12.71
893.553	18.41
893.985	25.81
894.418	20.41
894.85	13.61
895.282	23.81
895.715	21.41
896.147	18.31
896.579	18.91
897.011	18.51
897.444	21.51
897.876	19.21
898.308	23.51
898.74	18.71
899.172	14.01
899.604	20.61
900.036	19.11
900.468	15.31
900.9	15.21
901.332	16.01
901.764	12.51
902.196	19.41
902.628	13.51
903.06	23.71
903.491	28.41
903.923	23.91
904.355	18.51
904.787	23.41
905.218	25.91
905.65	19.31
906.082	17.81
906.513	17.01
906.945	14.31
907.376	11.61
907.808	20.41
908.239	20.61
908.671	17.01
909.102	21.71
909.534	24.61
909.965	50.11
910.397	102.91
910.828	315.31
911.259	470.91
911.691	213.41
912.122	111.21
912.553	51.41
912.984	40.21
913.415	26.71
913.847	27.71
914.278	17.31
914.709	18.41
915.14	21.11
915.571	20.71
916.002	14.91
916.433	20.41
916.864	17.61
917.295	9.41
917.726	14.71
918.157	15.01
918.587	25.01
919.018	22.71
919.449	24.01
919.88	27.41
920.311	31.01
920.741	42.31
921.172	161.81
921.603	155.21
922.033	71.51
922.464	47.61
922.895	20.51
923.325	18.71
923.756	17.41
924.186	15.51
924.617	27.71
925.047	45.61
925.478	61.31
925.908	48.41
926.338	34.11
926.769	18.41
927.199	25.51
927.629	11.11
928.06	17.21
928.49	20.21
928.92	15.21
929.35	15.01
929.78	11.41
930.21	9.91
930.641	5.91
931.071	4.61
931.501	4.21
931.931	12.31
932.361	7.01
932.791	-0.39
933.221	7.01
933.651	7.01
934.08	17.01
934.51	29.31
934.94	11.91
935.37	6.01
935.8	9.01
936.229	5.01
936.659	9.61
937.089	3.81
937.519	10.51
937.948	27.41
938.378	16.41
938.807	9.31
939.237	8.01
939.666	-1.49
940.096	0.41
940.525	4.91
940.955	6.61
941.384	2.71
941.814	1.31
942.243	-1.09
942.672	8.41
943.102	-5.09
943.531	0.01
943.96	4.71
944.39	1.61
944.819	5.91
945.248	-3.69
945.677	5.41
946.106	2.81
946.535	5.51
946.964	5.31
947.393	1.01
947.822	0.91
948.251	-2.19
948.68	5.31
949.109	5.71
949.538	7.41
949.967	-0.39
950.396	1.51
950.825	1.41
951.254	2.11
951.682	-6.39
952.111	4.51
952.54	3.41
952.969	-4.39
953.397	-5.59
953.826	0.31
954.254	0.41
954.683	3.41
955.112	-3.69
955.54	3.41
955.969	-0.19
956.397	4.11
956.826	-3.19
957.254	6.71
957.682	1.31
958.111	3.71
958.539	3.21
958.967	5.01
959.396	-0.29
959.824	1.41
960.252	3.21
960.68	-4.89
961.109	-0.39
961.537	-7.09
961.965	-1.39
962.393	3.61
962.821	-3.39
963.249	6.31
963.677	6.61
964.105	14.01
964.533	51.81
964.961	45.71
965.389	24.01
965.817	10.81
966.245	0.81
966.672	3.21
967.1	-3.99
967.528	-1.39
967.956	0.51
968.383	-2.09
968.811	-2.99
969.239	-1.29
969.666	-6.29
970.094	3.31
970.522	-0.99
970.949	-2.09
971.377	-10.19
971.804	3.21
972.232	-0.49
972.659	2.51
973.087	-5.39
973.514	-3.49
973.941	-7.49
974.369	7.21
974.796	0.71
975.223	-3.69
975.651	1.31
976.078	10.01
976.505	3.11
976.932	4.31
977.359	14.01
977.786	19.11
978.214	2.21
978.641	-9.09
979.068	-4.39
979.495	-5.99
979.922	-4.59
980.349	-3.29
980.776	-2.59
981.202	-1.69
981.629	1.41
982.056	0.11
982.483	-0.29
982.91	2.51
983.337	-3.99
983.763	5.81
984.19	-0.79
984.617	-7.49
985.043	-2.39
985.47	0.61
985.897	-4.89
986.323	-6.49
986.75	2.31
987.176	-4.89
987.603	-1.09
988.029	0.91
988.456	-4.59
988.882	0.71
989.308	-1.29
989.735	-2.29
990.161	3.11
990.587	-8.79
991.014	7.01
991.44	3.61
991.866	-4.99
992.292	-3.59
992.719	-2.79
993.145	5.01
993.571	-4.69
993.997	-5.69
994.423	-1.79
994.849	-1.89
995.275	-1.89
995.701	0.81
996.127	-7.49
996.553	-0.49
996.979	-0.89
997.405	3.31
997.83	-6.59
998.256	-5.29
998.682	-4.79
999.108	-6.89
999.534	-0.19
999.959	-0.09
1000.385	-6.69
1000.811	-3.39
1001.236	-5.19
1001.662	-8.59
1002.087	-9.59
1002.513	-0.79
1002.938	-0.19
1003.364	-4.69
1003.789	0.81
1004.215	4.91
1004.64	-0.49
1005.066	3.01
1005.491	-0.79
1005.916	-1.59
1006.342	3.41
1006.767	-7.69
1007.192	6.91
1007.617	-0.89
1008.042	-3.59
1008.468	-9.09
1008.893	-0.29
1009.318	-1.79
1009.743	-3.99
1010.168	3.41
1010.593	-0.69
1011.018	-8.09
1011.443	-4.29
1011.868	-0.79
1012.293	-0.69
1012.718	-2.79
1013.143	-5.09
1013.567	1.61
1013.992	-2.39
1014.417	-6.59
1014.842	0.01
1015.267	-0.99
1015.691	1.61
1016.116	1.01
1016.541	-1.39
1016.965	0.01
1017.39	5.51
1017.814	-4.49
1018.239	-0.69
1018.663	-6.19
1019.088	-14.19
1019.512	0.41
1019.937	0.71
1020.361	-2.39
1020.785	-11.89
1021.21	-1.19
1021.634	-1.89
1022.058	-3.19
1022.483	2.01
1022.907	-2.19
1023.331	-6.39
1023.755	-2.49
1024.179	-2.49
1024.604	-11.09
1025.028	-1.39
1025.452	-3.39
1025.876	-3.79
1026.3	0.51
1026.724	-4.89
1027.148	-1.59
1027.572	-8.89
1027.996	-4.19
1028.42	1.01
1028.843	0.61
1029.267	-0.49
1029.691	-2.79
1030.115	-4.19
1030.539	-8.39
1030.962	2.51
1031.386	-11.79
1031.81	-1.99
1032.233	1.81
1032.657	-2.69
1033.08	-1.89
1033.504	-3.99
1033.927	-6.69
1034.351	-0.89
1034.774	-0.99
1035.198	-2.79
1035.621	-3.49
1036.045	-9.49
1036.468	6.61
1036.891	-8.49
1037.315	-9.19
1037.738	-12.89
1038.161	1.91
1038.584	-4.49
1039.008	-6.79
1039.431	-2.29
1039.854	1.21
1040.277	-9.99
1040.7	-13.69
1041.123	-1.89
1041.546	-4.89
1041.969	-4.69
1042.392	-1.99
1042.815	0.01
1043.238	2.01
1043.661	-2.79
1044.084	-3.79
1044.507	-10.29
1044.93	-6.19
1045.352	-6.59
1045.775	-3.79
1046.198	3.81
1046.621	-0.19
1047.043	-0.29
1047.466	11.91
1047.889	1.11
1048.311	-8.49
1048.734	-1.59
1049.156	-2.59
1049.579	-5.19
1050.001	-4.69
1050.424	-1.39
1050.846	-1.99
1051.269	-1.79
1051.691	-3.09
1052.113	-11.29
1052.536	-2.09
1052.958	-4.19
1053.38	-0.29
1053.802	-6.69
1054.225	1.61
1054.647	-3.69
1055.069	-6.69
1055.491	3.31
1055.913	-8.49
1056.335	-2.09
1056.757	-8.89
1057.179	-9.09
1057.601	-4.39
1058.023	-3.59
1058.445	-3.19
1058.867	-9.99
1059.289	-2.39
1059.711	-5.79
1060.133	-1.09
1060.555	-9.79
1060.976	-8.49
1061.398	-5.29
1061.82	-7.89
1062.241	-1.49
1062.663	-3.29
1063.085	-6.29
1063.506	0.51
1063.928	-0.89
1064.35	-1.99
1064.771	-7.59
1065.193	-3.89
1065.614	-7.59
1066.035	-1.69
1066.457	-7.59
1066.878	1.81
1067.3	-5.99
1067.721	-4.39
1068.142	-7.49
1068.564	-2.79
1068.985	-0.79
1069.406	-7.79
1069.827	-3.49
1070.248	-4.89
1070.67	-7.49
1071.091	-13.69
1071.512	0.71
1071.933	-8.79
1072.354	-6.59
1072.775	-3.09
1073.196	-7.69
1073.617	-3.39
1074.038	-4.99
1074.459	-0.59
1074.88	-7.99
1075.3	1.51
1075.721	-6.59
1076.142	4.21
1076.563	-3.39
1076.983	-8.29
1077.404	-3.59
1077.825	-14.39
1078.246	-6.99
1078.666	-6.69
1079.087	-4.59
1079.507	-5.69
1079.928	1.11
1080.348	3.81
1080.769	-6.79
1081.189	-4.09
1081.61	0.11
1082.03	-3.59
1082.451	-11.39
1082.871	-2.89
1083.291	-3.79
1083.711	-6.89
1084.132	-7.69
1084.552	-5.09
1084.972	3.41
1085.392	-8.19
1085.813	-10.49
1086.233	-9.69
1086.653	-5.19
1087.073	-0.29
1087.493	-3.19
1087.913	-6.39
1088.333	-8.49
1088.753	-4.79
1089.173	3.31
1089.593	-0.29
1090.013	-5.79
1090.433	-7.79
1090.852	-3.99
1091.272	-4.89
1091.692	-6.39
1092.112	-1.59
1092.531	-9.49
1092.951	-11.19
1093.371	-3.39
1093.79	-1.59
1094.21	-3.49
1094.63	-10.09
1095.049	-3.89
1095.469	-3.19
1095.888	-2.99
1096.308	5.31
1096.727	1.21
1097.146	-7.89
1097.566	-4.09
1097.985	-5.29
1098.405	-1.09
1098.824	-5.99
1099.243	-9.39
1099.662	-10.09
1100.082	-2.89
1100.501	-0.99
1100.92	-0.69
1101.339	-12.09
1101.758	-2.99
