Data from 20171114-ORNL-Ar_H_NY_Subt18_08-05-54-801.txt Node
Date: Tue Nov 14 08:05:54 EST 2017
User: Ender
Spectrometer: HR+D1039
Trigger mode: 0
Integration Time (sec): 2.730000E-2
Scans to average: 10
Electric dark correction enabled: true
Nonlinearity correction enabled: false
Boxcar width: 0
XAxis mode: Wavelengths
Number of Pixels in Spectrum: 2048
>>>>>Begin Spectral Data<<<<<
187.836	-2.62
188.309	-2.62
188.782	-2.62
189.255	1.18
189.728	-0.42
190.201	5.98
190.674	-2.32
191.147	-1.12
191.619	-7.02
192.092	1.38
192.565	6.08
193.038	0.08
193.511	3.28
193.984	1.38
194.456	-2.42
194.929	1.88
195.402	2.68
195.874	-8.02
196.347	2.28
196.82	-4.82
197.292	7.68
197.765	2.08
198.237	-10.82
198.71	2.78
199.182	-0.62
199.655	-2.52
200.127	4.78
200.6	-4.32
201.072	0.08
201.544	-6.12
202.017	-3.12
202.489	2.08
202.961	-4.42
203.433	-1.52
203.906	-4.32
204.378	-7.82
204.85	-0.52
205.322	-8.42
205.794	-0.42
206.266	-1.32
206.739	-8.72
207.211	1.98
207.683	-12.82
208.155	0.38
208.627	-2.62
209.099	-5.32
209.57	-7.22
210.042	-4.32
210.514	0.78
210.986	-3.42
211.458	-9.92
211.93	-2.92
212.402	2.28
212.873	-10.62
213.345	-7.72
213.817	-9.32
214.288	-4.12
214.76	-10.22
215.232	-8.32
215.703	0.08
216.175	-1.42
216.646	-2.12
217.118	-8.02
217.589	-5.82
218.061	-1.32
218.532	-6.22
219.004	-2.42
219.475	-3.72
219.946	-2.72
220.418	-6.02
220.889	0.28
221.36	1.98
221.832	-5.32
222.303	-10.82
222.774	-2.82
223.245	-9.02
223.717	-5.52
224.188	-5.22
224.659	-7.92
225.13	-4.42
225.601	1.38
226.072	1.28
226.543	0.58
227.014	-1.82
227.485	3.48
227.956	-2.82
228.427	2.48
228.898	4.88
229.369	5.08
229.839	-3.32
230.31	-5.02
230.781	0.98
231.252	1.58
231.722	-2.12
232.193	-0.82
232.664	0.28
233.135	-0.52
233.605	-0.52
234.076	-6.62
234.546	-0.82
235.017	0.58
235.487	0.18
235.958	-6.02
236.428	-0.42
236.899	2.18
237.369	2.78
237.84	-0.92
238.31	8.08
238.78	0.88
239.251	-5.42
239.721	2.68
240.191	-5.12
240.662	-1.62
241.132	0.18
241.602	-2.62
242.072	6.48
242.542	9.18
243.013	1.98
243.483	8.78
243.953	-0.12
244.423	1.68
244.893	1.78
245.363	8.98
245.833	3.58
246.303	0.18
246.773	5.78
247.243	2.48
247.712	3.68
248.182	10.08
248.652	6.68
249.122	-4.42
249.592	18.18
250.061	22.18
250.531	33.78
251.001	17.18
251.471	18.48
251.94	17.98
252.41	6.38
252.879	-3.12
253.349	10.88
253.818	12.28
254.288	7.68
254.757	9.58
255.227	1.18
255.696	5.88
256.166	6.28
256.635	8.68
257.105	10.78
257.574	4.78
258.043	10.78
258.513	7.48
258.982	15.18
259.451	10.08
259.92	11.18
260.389	8.38
260.859	18.78
261.328	11.28
261.797	15.18
262.266	11.88
262.735	10.78
263.204	6.78
263.673	-2.52
264.142	5.68
264.611	-2.02
265.08	-3.82
265.549	-4.42
266.018	7.18
266.487	-2.82
266.955	-4.22
267.424	1.28
267.893	10.88
268.362	2.48
268.83	5.08
269.299	12.68
269.768	5.28
270.236	3.28
270.705	1.18
271.174	2.88
271.642	12.68
272.111	9.18
272.579	14.18
273.048	25.28
273.516	27.38
273.985	23.58
274.453	25.28
274.922	20.68
275.39	11.18
275.858	5.68
276.327	10.68
276.795	15.58
277.263	11.28
277.731	32.18
278.2	52.88
278.668	58.38
279.136	49.38
279.604	20.58
280.072	12.48
280.54	15.38
281.008	16.68
281.477	11.88
281.945	13.88
282.413	13.58
282.881	15.78
283.348	13.68
283.816	19.18
284.284	18.08
284.752	15.18
285.22	14.78
285.688	16.08
286.156	19.18
286.623	44.18
287.091	46.28
287.559	25.98
288.026	16.88
288.494	20.98
288.962	8.98
289.429	12.78
289.897	17.88
290.364	10.58
290.832	19.48
291.3	15.68
291.767	19.88
292.234	21.08
292.702	13.28
293.169	15.98
293.637	24.18
294.104	23.08
294.571	10.68
295.039	13.58
295.506	14.98
295.973	26.38
296.44	19.58
296.908	23.08
297.375	21.18
297.842	19.78
298.309	20.68
298.776	14.38
299.243	18.48
299.71	18.68
300.177	25.28
300.644	22.38
301.111	19.88
301.578	26.68
302.045	19.38
302.512	24.08
302.979	31.78
303.446	25.18
303.913	26.38
304.379	15.28
304.846	20.78
305.313	27.08
305.78	18.38
306.246	21.98
306.713	31.68
307.18	32.18
307.646	32.88
308.113	28.68
308.579	24.38
309.046	29.08
309.512	33.28
309.979	17.28
310.445	31.18
310.912	31.88
311.378	33.48
311.845	28.78
312.311	26.58
312.777	33.48
313.244	32.28
313.71	38.68
314.176	31.98
314.642	33.38
315.109	34.48
315.575	36.08
316.041	36.68
316.507	35.98
316.973	42.08
317.439	36.88
317.905	38.18
318.371	37.78
318.837	33.58
319.303	40.88
319.769	33.68
320.235	31.18
320.701	37.68
321.167	33.28
321.633	29.58
322.099	41.68
322.564	46.58
323.03	38.98
323.496	32.08
323.962	46.18
324.427	29.88
324.893	42.08
325.359	36.68
325.824	37.48
326.29	38.88
326.755	38.78
327.221	40.78
327.686	37.38
328.152	49.68
328.617	37.28
329.083	50.28
329.548	39.88
330.014	47.78
330.479	40.68
330.944	46.88
331.41	43.18
331.875	43.58
332.34	45.28
332.805	44.78
333.271	53.78
333.736	42.38
334.201	51.78
334.666	53.38
335.131	54.28
335.596	51.28
336.061	52.58
336.526	41.18
336.991	49.48
337.456	59.98
337.921	52.18
338.386	49.08
338.851	49.48
339.316	46.18
339.781	48.98
340.246	51.58
340.711	50.68
341.175	53.28
341.64	46.58
342.105	49.48
342.569	55.68
343.034	53.98
343.499	60.08
343.963	58.78
344.428	63.18
344.893	63.68
345.357	57.58
345.822	64.88
346.286	65.38
346.751	75.98
347.215	70.18
347.679	73.08
348.144	102.38
348.608	83.08
349.073	76.68
349.537	78.38
350.001	79.58
350.465	88.28
350.93	82.68
351.394	81.38
351.858	68.18
352.322	88.98
352.786	88.88
353.25	106.28
353.715	111.38
354.179	100.38
354.643	121.28
355.107	132.98
355.571	110.18
356.035	113.78
356.498	118.28
356.962	127.58
357.426	127.78
357.89	114.38
358.354	87.38
358.818	85.48
359.281	80.68
359.745	75.18
360.209	76.58
360.673	75.58
361.136	83.58
361.6	86.18
362.064	84.88
362.527	92.18
362.991	87.48
363.454	80.48
363.918	73.28
364.381	78.68
364.845	77.78
365.308	78.28
365.772	88.68
366.235	85.98
366.698	87.08
367.162	85.58
367.625	88.68
368.088	95.78
368.552	94.38
369.015	85.38
369.478	95.18
369.941	102.98
370.404	93.38
370.867	101.88
371.331	109.08
371.794	110.88
372.257	109.68
372.72	120.18
373.183	112.38
373.646	99.68
374.109	102.98
374.572	104.08
375.035	110.48
375.497	106.18
375.96	103.38
376.423	104.68
376.886	113.48
377.349	110.98
377.811	107.38
378.274	107.38
378.737	99.88
379.199	113.78
379.662	112.48
380.125	120.18
380.587	114.58
381.05	119.58
381.512	127.38
381.975	129.28
382.437	130.68
382.9	125.88
383.362	139.08
383.825	138.88
384.287	145.38
384.75	140.78
385.212	140.98
385.674	141.58
386.136	140.28
386.599	118.08
387.061	126.18
387.523	133.38
387.985	143.18
388.447	142.38
388.91	140.28
389.372	156.58
389.834	152.28
390.296	153.18
390.758	156.28
391.22	170.98
391.682	206.68
392.144	285.48
392.606	220.48
393.068	167.78
393.529	176.58
393.991	151.48
394.453	155.78
394.915	157.68
395.377	183.78
395.838	213.68
396.3	159.08
396.762	148.68
397.224	137.98
397.685	131.28
398.147	129.98
398.608	129.88
399.07	128.98
399.531	137.08
399.993	138.18
400.454	149.18
400.916	152.28
401.377	144.88
401.839	151.78
402.3	152.48
402.762	167.58
403.223	186.88
403.684	172.18
404.145	161.48
404.607	161.48
405.068	170.78
405.529	168.48
405.99	197.28
406.451	180.48
406.913	174.78
407.374	161.98
407.835	160.18
408.296	173.08
408.757	167.98
409.218	189.78
409.679	177.98
410.14	179.38
410.601	176.48
411.062	179.58
411.522	192.18
411.983	181.78
412.444	183.08
412.905	183.58
413.366	187.88
413.826	192.28
414.287	214.78
414.748	267.98
415.208	251.88
415.669	210.28
416.13	210.58
416.59	198.48
417.051	210.48
417.511	214.48
417.972	232.28
418.432	245.78
418.893	286.48
419.353	248.98
419.814	196.58
420.274	186.88
420.734	185.98
421.195	199.68
421.655	196.28
422.115	199.18
422.576	190.98
423.036	200.58
423.496	211.08
423.956	213.58
424.416	232.58
424.876	265.88
425.336	262.78
425.797	258.18
426.257	256.58
426.717	239.68
427.177	235.48
427.637	229.38
428.097	236.48
428.556	248.78
429.016	266.88
429.476	272.08
429.936	276.78
430.396	283.68
430.856	300.98
431.315	316.48
431.775	355.08
432.235	378.78
432.694	359.88
433.154	361.78
433.614	389.18
434.073	343.28
434.533	282.48
434.993	274.28
435.452	283.38
435.912	298.78
436.371	292.18
436.83	279.38
437.29	272.48
437.749	245.58
438.209	247.08
438.668	274.18
439.127	288.68
439.587	268.88
440.046	251.08
440.505	259.88
440.964	284.28
441.424	331.78
441.883	313.78
442.342	257.18
442.801	229.28
443.26	220.18
443.719	229.48
444.178	225.08
444.637	207.18
445.096	220.08
445.555	222.48
446.014	224.78
446.473	232.28
446.932	228.28
447.391	225.98
447.849	228.68
448.308	218.78
448.767	222.08
449.226	236.18
449.685	235.98
450.143	252.08
450.602	242.28
451.061	226.68
451.519	235.48
451.978	223.88
452.436	229.68
452.895	243.88
453.353	252.98
453.812	248.58
454.27	235.38
454.729	244.08
455.187	241.18
455.646	248.68
456.104	246.78
456.562	265.48
457.021	262.38
457.479	272.08
457.937	277.78
458.395	267.98
458.854	262.18
459.312	259.68
459.77	278.18
460.228	255.58
460.686	245.68
461.144	242.68
461.602	241.88
462.06	240.58
462.518	251.38
462.976	262.18
463.434	256.88
463.892	269.08
464.35	275.18
464.808	281.88
465.266	269.08
465.724	275.28
466.181	268.38
466.639	275.28
467.097	284.28
467.555	296.18
468.012	308.68
468.47	310.08
468.928	334.48
469.385	340.08
469.843	360.18
470.3	351.28
470.758	362.18
471.215	391.88
471.673	411.58
472.13	409.68
472.588	421.78
473.045	371.08
473.503	385.38
473.96	396.68
474.417	402.48
474.875	440.18
475.332	483.78
475.789	466.58
476.246	475.28
476.704	487.68
477.161	516.08
477.618	534.48
478.075	577.68
478.532	626.28
478.989	712.38
479.446	821.38
479.903	774.58
480.36	815.78
480.817	876.78
481.274	978.48
481.731	1081.68
482.188	1180.68
482.645	1312.88
483.102	1431.38
483.558	1559.28
484.015	1607.38
484.472	1585.18
484.929	1535.68
485.385	1481.98
485.842	1443.28
486.299	1394.58
486.755	1311.48
487.212	1108.48
487.668	937.08
488.125	868.78
488.582	790.08
489.038	759.88
489.494	727.48
489.951	696.88
490.407	680.48
490.864	657.78
491.32	651.38
491.776	648.48
492.233	655.88
492.689	615.28
493.145	606.58
493.602	603.78
494.058	616.88
494.514	628.68
494.97	643.98
495.426	661.68
495.882	628.68
496.338	619.28
496.794	639.18
497.251	634.08
497.707	638.38
498.163	641.28
498.618	650.68
499.074	650.38
499.53	690.38
499.986	694.08
500.442	664.78
500.898	643.88
501.354	632.68
501.809	643.48
502.265	644.28
502.721	669.08
503.177	683.08
503.632	665.28
504.088	684.18
504.543	713.28
504.999	723.98
505.455	667.38
505.91	636.58
506.366	635.88
506.821	633.18
507.277	638.78
507.732	635.98
508.187	630.58
508.643	637.08
509.098	630.88
509.553	663.78
510.009	673.48
510.464	672.88
510.919	696.28
511.375	695.98
511.83	717.88
512.285	734.08
512.74	776.18
513.195	795.38
513.65	784.88
514.105	776.58
514.56	783.08
515.015	800.78
515.47	815.58
515.925	795.88
516.38	796.08
516.835	801.48
517.29	785.28
517.745	787.88
518.2	786.88
518.655	753.18
519.109	752.08
519.564	748.78
520.019	740.18
520.474	732.88
520.928	734.28
521.383	731.28
521.838	719.88
522.292	717.68
522.747	716.98
523.201	709.58
523.656	708.18
524.11	699.28
524.565	693.38
525.019	705.38
525.474	708.98
525.928	711.88
526.382	703.98
526.837	703.88
527.291	710.78
527.745	710.28
528.2	712.08
528.654	703.68
529.108	698.88
529.562	688.08
530.016	695.88
530.47	703.38
530.925	700.98
531.379	709.78
531.833	702.38
532.287	706.18
532.741	716.08
533.195	718.78
533.649	723.28
534.103	727.98
534.556	715.68
535.01	719.88
535.464	712.98
535.918	731.68
536.372	717.08
536.826	726.18
537.279	720.58
537.733	722.28
538.187	727.58
538.64	728.38
539.094	733.88
539.548	746.98
540.001	734.78
540.455	729.38
540.908	736.98
541.362	744.58
541.815	759.48
542.269	777.28
542.722	764.88
543.175	772.28
543.629	773.78
544.082	795.28
544.536	790.78
544.989	796.08
545.442	795.68
545.895	793.88
546.349	809.58
546.802	802.38
547.255	807.08
547.708	816.48
548.161	813.88
548.614	848.48
549.067	835.08
549.52	835.08
549.973	815.58
550.426	808.18
550.879	793.58
551.332	806.48
551.785	813.98
552.238	816.38
552.691	825.68
553.144	837.38
553.596	851.28
554.049	869.38
554.502	901.58
554.955	917.88
555.407	910.58
555.86	912.48
556.313	900.48
556.765	897.68
557.218	899.88
557.67	894.48
558.123	884.18
558.576	873.38
559.028	887.68
559.48	887.28
559.933	875.58
560.385	844.58
560.838	824.48
561.29	793.18
561.742	784.18
562.195	774.78
562.647	767.58
563.099	783.28
563.551	776.98
564.004	790.58
564.456	773.68
564.908	766.88
565.36	745.78
565.812	735.38
566.264	728.28
566.716	727.68
567.168	710.88
567.62	723.38
568.072	712.98
568.524	696.08
568.976	691.98
569.428	676.78
569.88	670.68
570.332	680.28
570.784	690.18
571.235	680.88
571.687	696.18
572.139	707.48
572.59	715.28
573.042	708.58
573.494	718.48
573.945	709.48
574.397	680.98
574.849	708.48
575.3	694.78
575.752	688.58
576.203	686.18
576.655	684.58
577.106	677.38
577.557	671.98
578.009	670.98
578.46	665.78
578.912	665.28
579.363	668.08
579.814	677.28
580.265	660.28
580.717	671.98
581.168	666.78
581.619	697.28
582.07	696.88
582.521	672.18
582.972	680.08
583.423	678.18
583.875	675.58
584.326	702.78
584.777	745.88
585.227	820.98
585.678	900.88
586.129	1001.18
586.58	1056.28
587.031	1135.78
587.482	1288.48
587.933	1474.88
588.384	1263.58
588.834	975.38
589.285	804.58
589.736	787.88
590.186	764.68
590.637	761.58
591.088	740.38
591.538	732.38
591.989	735.78
592.439	724.78
592.89	726.18
593.34	713.28
593.791	712.48
594.241	711.38
594.692	698.88
595.142	706.78
595.593	700.08
596.043	708.58
596.493	711.08
596.943	714.88
597.394	726.18
597.844	703.58
598.294	731.18
598.744	751.88
599.195	777.68
599.645	819.68
600.095	855.28
600.545	904.58
600.995	967.48
601.445	1022.58
601.895	1081.88
602.345	1130.78
602.795	1112.28
603.245	1062.58
603.695	1011.88
604.145	961.38
604.594	910.68
605.044	859.28
605.494	805.98
605.944	752.68
606.393	748.78
606.843	731.98
607.293	732.88
607.743	726.28
608.192	736.78
608.642	748.88
609.091	765.28
609.541	767.58
609.99	772.18
610.44	768.28
610.889	716.58
611.339	701.58
611.788	691.88
612.238	705.98
612.687	718.18
613.136	715.48
613.586	728.18
614.035	732.08
614.484	765.38
614.933	761.78
615.383	742.98
615.832	736.88
616.281	725.88
616.73	688.98
617.179	658.08
617.628	645.18
618.077	637.38
618.526	624.38
618.975	602.98
619.424	607.48
619.873	608.88
620.322	611.48
620.771	608.98
621.22	604.78
621.669	593.68
622.118	585.28
622.567	573.98
623.015	569.38
623.464	571.38
623.913	556.78
624.361	551.58
624.81	555.58
625.259	552.28
625.707	553.48
626.156	551.28
626.604	557.48
627.053	555.38
627.501	561.68
627.95	562.78
628.398	576.78
628.847	565.48
629.295	564.68
629.744	577.78
630.192	567.38
630.64	564.38
631.089	566.38
631.537	578.28
631.985	588.78
632.433	586.98
632.881	593.68
633.33	656.48
633.778	631.38
634.226	561.48
634.674	566.48
635.122	569.38
635.57	586.88
636.018	620.48
636.466	577.08
636.914	548.58
637.362	570.08
637.81	568.88
638.258	574.18
638.705	567.98
639.153	600.98
639.601	602.88
640.049	638.78
640.497	659.88
640.944	675.58
641.392	627.28
641.84	598.38
642.287	581.38
642.735	558.68
643.182	564.78
643.63	559.88
644.078	570.88
644.525	587.58
644.973	585.68
645.42	603.08
645.867	621.88
646.315	628.68
646.762	656.68
647.21	681.48
647.657	701.38
648.104	744.88
648.551	761.68
648.999	820.38
649.446	903.68
649.893	988.68
650.34	1140.08
650.787	1377.68
651.234	1700.78
651.682	2210.68
652.129	3038.38
652.576	4347.98
653.023	6451.98
653.47	8853.98
653.917	11106.38
654.363	12823.88
654.81	14254.28
655.257	13547.08
655.704	8888.18
656.151	5226.08
656.598	3418.08
657.044	2396.68
657.491	1846.38
657.938	1474.08
658.385	1232.38
658.831	1076.88
659.278	946.88
659.724	846.18
660.171	780.38
660.618	714.78
661.064	679.88
661.511	654.58
661.957	648.18
662.404	623.88
662.85	647.28
663.296	613.48
663.743	558.68
664.189	527.88
664.635	523.28
665.082	517.58
665.528	520.88
665.974	512.08
666.42	508.78
666.867	504.88
667.313	476.18
667.759	473.38
668.205	470.88
668.651	467.18
669.097	474.98
669.543	489.68
669.989	463.78
670.435	443.28
670.881	438.88
671.327	438.08
671.773	463.58
672.219	472.98
672.665	527.18
673.11	573.58
673.556	610.18
674.002	656.98
674.448	639.18
674.893	544.88
675.339	469.78
675.785	426.58
676.23	411.08
676.676	391.88
677.122	373.28
677.567	362.08
678.013	361.58
678.458	355.88
678.904	362.08
679.349	345.38
679.794	350.88
680.24	351.38
680.685	342.68
681.131	345.38
681.576	348.28
682.021	350.58
682.466	338.98
682.912	341.18
683.357	341.08
683.802	377.48
684.247	398.68
684.692	442.78
685.137	482.58
685.583	526.98
686.028	549.08
686.473	502.08
686.918	434.58
687.363	407.88
687.807	388.88
688.252	363.48
688.697	349.38
689.142	334.58
689.587	326.38
690.032	324.28
690.477	336.18
690.921	344.38
691.366	360.18
691.811	393.68
692.255	423.78
692.7	449.18
693.145	485.38
693.589	663.08
694.034	1088.18
694.478	1480.58
694.923	1703.28
695.367	2224.08
695.812	1176.38
696.256	484.58
696.701	363.08
697.145	332.88
697.59	318.78
698.034	315.38
698.478	327.98
698.922	324.18
699.367	320.38
699.811	335.88
700.255	347.98
700.699	372.98
701.143	422.08
701.588	455.78
702.032	499.48
702.476	501.08
702.92	472.18
703.364	478.58
703.808	613.28
704.252	998.88
704.696	1405.28
705.14	1640.38
705.584	2081.28
706.027	1032.98
706.471	509.38
706.915	390.68
707.359	345.58
707.803	312.88
708.246	302.18
708.69	304.08
709.134	311.48
709.577	306.98
710.021	313.58
710.465	294.48
710.908	291.68
711.352	289.48
711.795	303.88
712.239	338.38
712.682	371.38
713.126	410.28
713.569	454.08
714.012	361.48
714.456	315.78
714.899	287.38
715.342	264.88
715.786	257.88
716.229	253.28
716.672	248.18
717.115	246.48
717.558	245.28
718.002	248.78
718.445	253.08
718.888	276.58
719.331	287.48
719.774	299.28
720.217	294.28
720.66	269.68
721.103	253.48
721.546	244.88
721.989	247.58
722.432	220.68
722.874	233.18
723.317	226.08
723.76	225.88
724.203	249.38
724.645	302.08
725.088	425.98
725.531	549.88
725.974	633.38
726.416	541.98
726.859	296.38
727.301	238.38
727.744	231.48
728.187	222.38
728.629	226.48
729.071	241.18
729.514	256.78
729.956	262.98
730.399	272.28
730.841	292.58
731.283	267.48
731.726	258.68
732.168	257.68
732.61	261.48
733.053	276.18
733.495	303.98
733.937	338.98
734.379	379.88
734.821	414.38
735.263	522.68
735.705	799.78
736.148	1516.78
736.59	2485.28
737.032	2993.38
737.474	2439.78
737.916	787.28
738.357	410.78
738.799	324.08
739.241	290.48
739.683	273.88
740.125	281.68
740.567	286.28
741.008	309.58
741.45	312.78
741.892	310.78
742.334	338.18
742.775	351.08
743.217	331.98
743.658	264.48
744.1	242.78
744.542	250.38
744.983	298.98
745.425	341.48
745.866	338.48
746.307	272.88
746.749	277.18
747.19	313.88
747.632	431.38
748.073	837.88
748.514	1768.18
748.956	2790.68
749.397	3453.28
749.838	2867.38
750.279	2879.08
750.72	1464.28
751.162	523.28
751.603	318.88
752.044	247.18
752.485	207.68
752.926	205.48
753.367	195.18
753.808	189.18
754.249	182.38
754.69	186.48
755.131	179.48
755.572	176.18
756.013	174.78
756.453	180.28
756.894	180.88
757.335	183.28
757.776	182.58
758.216	190.58
758.657	191.48
759.098	195.28
759.538	219.58
759.979	254.88
760.42	357.88
760.86	674.78
761.301	1707.18
761.741	4242.08
762.182	6263.08
762.622	4442.78
763.063	1269.98
763.503	526.48
763.943	338.88
764.384	321.18
764.824	378.48
765.264	410.28
765.705	291.58
766.145	203.78
766.585	185.68
767.025	165.48
767.465	182.88
767.906	237.78
768.346	305.38
768.786	323.28
769.226	260.58
769.666	311.38
770.106	585.68
770.546	1473.98
770.986	2572.58
771.426	2311.18
771.866	765.88
772.306	314.08
772.745	206.78
773.185	162.38
773.625	160.08
774.065	162.08
774.505	193.28
774.944	300.08
775.384	641.38
775.824	1166.08
776.263	1154.38
776.703	486.88
777.142	216.48
777.582	155.18
778.021	137.28
778.461	140.88
778.9	135.18
779.34	125.68
779.779	112.28
780.219	110.88
780.658	103.78
781.097	95.38
781.537	109.18
781.976	104.88
782.415	105.88
782.855	105.28
783.294	98.98
783.733	105.88
784.172	104.58
784.611	99.38
785.05	101.48
785.489	109.28
785.928	114.18
786.367	117.38
786.806	117.48
787.245	127.68
787.684	132.48
788.123	148.18
788.562	127.98
789.001	128.38
789.44	123.78
789.879	116.78
790.317	114.98
790.756	127.28
791.195	122.48
791.634	140.78
792.072	196.48
792.511	357.88
792.95	951.08
793.388	2071.18
793.827	1897.28
794.265	654.98
794.704	269.38
795.142	180.08
795.581	144.68
796.019	132.78
796.458	129.68
796.896	120.48
797.334	125.98
797.773	150.98
798.211	206.88
798.649	408.48
799.087	969.68
799.526	1536.58
799.964	1935.88
800.402	1961.38
800.84	739.58
801.278	297.68
801.716	185.28
802.154	149.28
802.592	144.18
803.03	140.58
803.468	131.48
803.906	140.58
804.344	148.58
804.782	138.08
805.22	129.48
805.658	123.38
806.096	141.08
806.533	155.38
806.971	162.58
807.409	203.08
807.847	294.18
808.284	621.38
808.722	1772.78
809.16	3181.58
809.597	2989.58
810.035	5210.08
810.472	5672.08
810.91	2030.48
811.347	764.88
811.785	390.98
812.222	246.98
812.66	187.48
813.097	156.58
813.535	141.88
813.972	129.28
814.409	116.18
814.846	104.88
815.284	107.68
815.721	107.08
816.158	99.38
816.595	120.68
817.032	167.28
817.47	184.08
817.907	172.48
818.344	148.48
818.781	110.88
819.218	102.78
819.655	117.98
820.092	181.48
820.529	211.18
820.966	169.48
821.403	127.68
821.839	108.48
822.276	105.28
822.713	122.78
823.15	127.58
823.587	116.68
824.023	145.78
824.46	281.28
824.897	852.58
825.333	1325.68
825.77	574.98
826.206	221.58
826.643	135.88
827.08	97.28
827.516	82.68
827.953	71.98
828.389	80.98
828.825	73.88
829.262	64.28
829.698	58.58
830.135	60.58
830.571	59.88
831.007	67.18
831.443	61.58
831.88	57.38
832.316	66.68
832.752	62.08
833.188	58.28
833.624	61.48
834.06	71.88
834.497	63.38
834.933	69.78
835.369	78.08
835.805	69.18
836.241	75.18
836.677	74.38
837.112	86.68
837.548	100.98
837.984	125.78
838.42	187.68
838.856	475.58
839.292	1447.28
839.727	2264.88
840.163	1046.58
840.599	885.58
841.034	1938.28
841.47	2078.58
841.906	758.48
842.341	325.08
842.777	222.88
843.212	306.78
843.648	297.28
844.083	139.98
844.519	98.08
844.954	81.28
845.39	58.68
845.825	64.48
846.261	56.28
846.696	54.98
847.131	54.38
847.566	57.18
848.002	51.48
848.437	55.38
848.872	63.68
849.307	59.98
849.742	78.28
850.177	167.58
850.613	530.18
851.048	859.98
851.483	372.18
851.918	148.98
852.353	87.28
852.788	59.38
853.223	59.38
853.657	49.78
854.092	47.38
854.527	48.08
854.962	37.08
855.397	40.48
855.832	47.28
856.266	40.08
856.701	37.68
857.136	35.88
857.57	39.98
858.005	48.48
858.44	54.18
858.874	42.68
859.309	49.58
859.743	39.58
860.178	44.98
860.612	37.98
861.047	49.28
861.481	65.18
861.915	69.48
862.35	49.08
862.784	29.78
863.218	37.78
863.653	29.08
864.087	43.78
864.521	54.38
864.955	68.58
865.39	147.58
865.824	172.78
866.258	103.88
866.692	164.38
867.126	170.48
867.56	108.28
867.994	47.78
868.428	39.08
868.862	43.18
869.296	58.58
869.73	56.38
870.164	52.78
870.598	47.28
871.031	39.38
871.465	31.18
871.899	31.58
872.333	19.88
872.766	24.98
873.2	23.08
873.634	31.68
874.067	22.28
874.501	31.98
874.935	30.08
875.368	37.78
875.802	30.38
876.235	18.08
876.669	32.18
877.102	23.98
877.535	23.48
877.969	22.68
878.402	30.28
878.836	14.68
879.269	30.48
879.702	22.08
880.135	26.78
880.569	22.08
881.002	29.38
881.435	23.38
881.868	13.28
882.301	26.08
882.734	21.88
883.167	20.78
883.601	15.68
884.034	19.68
884.467	18.88
884.899	21.38
885.332	14.28
885.765	8.98
886.198	16.68
886.631	16.58
887.064	18.38
887.497	18.58
887.929	24.58
888.362	16.68
888.795	16.48
889.228	22.98
889.66	20.88
890.093	17.78
890.526	21.08
890.958	16.88
891.391	16.58
891.823	18.08
892.256	13.58
892.688	13.58
893.121	9.48
893.553	8.38
893.985	21.88
894.418	12.88
894.85	8.48
895.282	19.18
895.715	17.18
896.147	19.68
896.579	12.08
897.011	11.08
897.444	17.18
897.876	13.68
898.308	21.88
898.74	14.28
899.172	7.38
899.604	27.68
900.036	20.28
900.468	14.28
900.9	13.98
901.332	18.08
901.764	15.08
902.196	21.68
902.628	20.28
903.06	15.78
903.491	26.18
903.923	20.38
904.355	21.78
904.787	14.88
905.218	13.48
905.65	14.78
906.082	13.78
906.513	7.98
906.945	18.68
907.376	13.18
907.808	20.48
908.239	22.38
908.671	15.98
909.102	16.18
909.534	26.78
909.965	40.08
910.397	93.48
910.828	304.68
911.259	463.38
911.691	208.88
912.122	98.78
912.553	52.58
912.984	36.08
913.415	30.28
913.847	25.48
914.278	8.48
914.709	9.78
915.14	19.98
915.571	15.58
916.002	14.68
916.433	19.88
916.864	18.28
917.295	15.08
917.726	19.88
918.157	12.58
918.587	31.18
919.018	24.28
919.449	20.18
919.88	23.48
920.311	36.38
920.741	52.98
921.172	163.48
921.603	148.38
922.033	69.98
922.464	44.88
922.895	25.18
923.325	21.18
923.756	15.28
924.186	15.38
924.617	26.18
925.047	47.08
925.478	51.68
925.908	38.68
926.338	29.08
926.769	19.08
927.199	18.88
927.629	11.38
928.06	15.58
928.49	14.18
928.92	11.88
929.35	10.28
929.78	10.68
930.21	5.68
930.641	8.08
931.071	10.18
931.501	5.48
931.931	9.68
932.361	11.18
932.791	0.78
933.221	5.98
933.651	9.78
934.08	15.58
934.51	26.58
934.94	7.48
935.37	7.98
935.8	8.98
936.229	6.08
936.659	10.88
937.089	9.78
937.519	12.28
937.948	24.78
938.378	13.98
938.807	3.98
939.237	7.48
939.666	2.08
940.096	-4.12
940.525	2.58
940.955	2.18
941.384	5.68
941.814	-6.92
942.243	-2.22
942.672	0.18
943.102	-2.12
943.531	-1.32
943.96	3.38
944.39	3.58
944.819	0.98
945.248	1.78
945.677	3.38
946.106	3.78
946.535	10.88
946.964	-2.22
947.393	-0.12
947.822	3.18
948.251	-8.72
948.68	-0.52
949.109	2.68
949.538	8.38
949.967	0.48
950.396	-1.22
950.825	3.48
951.254	2.78
951.682	-6.32
952.111	6.08
952.54	2.68
952.969	-7.72
953.397	-2.62
953.826	-1.32
954.254	-3.42
954.683	-0.72
955.112	-3.82
955.54	3.98
955.969	1.28
956.397	-6.12
956.826	-4.92
957.254	0.48
957.682	-3.42
958.111	7.48
958.539	3.88
958.967	7.28
959.396	0.58
959.824	-2.32
960.252	-4.62
960.68	-6.62
961.109	-2.32
961.537	-2.32
961.965	-1.72
962.393	0.78
962.821	-3.92
963.249	2.58
963.677	6.88
964.105	4.18
964.533	41.08
964.961	40.38
965.389	20.68
965.817	12.18
966.245	5.28
966.672	2.08
967.1	-4.72
967.528	1.58
967.956	-6.72
968.383	-5.22
968.811	-0.72
969.239	-3.42
969.666	-1.12
970.094	-0.72
970.522	-7.42
970.949	-1.62
971.377	-0.32
971.804	-3.92
972.232	-5.22
972.659	0.48
973.087	0.38
973.514	7.38
973.941	-5.22
974.369	1.08
974.796	-1.62
975.223	-1.42
975.651	-3.22
976.078	3.68
976.505	4.18
976.932	1.38
977.359	16.78
977.786	16.18
978.214	3.18
978.641	-4.82
979.068	-3.72
979.495	-2.72
979.922	-4.52
980.349	-2.92
980.776	7.38
981.202	-5.32
981.629	7.18
982.056	4.18
982.483	-2.92
982.91	1.08
983.337	-8.52
983.763	3.38
984.19	-6.72
984.617	-6.22
985.043	-7.32
985.47	-7.02
985.897	-4.82
986.323	-6.62
986.75	-0.22
987.176	-3.82
987.603	-6.32
988.029	2.38
988.456	-2.82
988.882	1.88
989.308	-4.32
989.735	-5.22
990.161	0.08
990.587	-9.72
991.014	2.58
991.44	4.38
991.866	3.48
992.292	-0.52
992.719	1.88
993.145	1.08
993.571	-5.72
993.997	-8.32
994.423	-0.42
994.849	-6.92
995.275	-1.92
995.701	-1.82
996.127	-5.62
996.553	3.78
996.979	-0.22
997.405	-4.82
997.83	-11.12
998.256	-8.32
998.682	-6.32
999.108	-6.22
999.534	-0.02
999.959	-1.32
1000.385	-1.32
1000.811	-3.12
1001.236	-11.52
1001.662	-8.92
1002.087	-8.62
1002.513	-0.82
1002.938	-1.32
1003.364	-3.32
1003.789	-2.42
1004.215	2.98
1004.64	-0.82
1005.066	0.58
1005.491	-4.32
1005.916	-7.72
1006.342	-2.62
1006.767	-10.12
1007.192	0.88
1007.617	-5.02
1008.042	-1.02
1008.468	-7.52
1008.893	-5.92
1009.318	-6.92
1009.743	-3.92
1010.168	-1.52
1010.593	-3.42
1011.018	-12.32
1011.443	-2.72
1011.868	3.48
1012.293	-7.02
1012.718	-10.82
1013.143	-6.32
1013.567	1.48
1013.992	-4.12
1014.417	-9.12
1014.842	7.28
1015.267	-7.72
1015.691	-5.32
1016.116	7.88
1016.541	2.38
1016.965	0.08
1017.39	-0.02
1017.814	-1.72
1018.239	-2.82
1018.663	-4.22
1019.088	-13.02
1019.512	-8.02
1019.937	-1.82
1020.361	-8.82
1020.785	-13.42
1021.21	-6.12
1021.634	3.08
1022.058	-1.22
1022.483	1.88
1022.907	-9.02
1023.331	0.18
1023.755	-3.22
1024.179	-1.22
1024.604	-7.52
1025.028	-3.92
1025.452	-1.12
1025.876	-4.92
1026.3	-3.92
1026.724	-11.22
1027.148	-3.62
1027.572	-10.32
1027.996	-5.52
1028.42	-1.52
1028.843	-6.82
1029.267	-6.02
1029.691	-1.62
1030.115	-6.52
1030.539	-6.22
1030.962	-2.22
1031.386	-9.52
1031.81	1.78
1032.233	-2.32
1032.657	-1.82
1033.08	-5.82
1033.504	0.88
1033.927	-6.92
1034.351	-3.22
1034.774	-2.52
1035.198	-2.22
1035.621	-4.62
1036.045	-7.62
1036.468	0.88
1036.891	-12.32
1037.315	-2.82
1037.738	-2.22
1038.161	1.78
1038.584	-3.62
1039.008	-3.12
1039.431	-1.42
1039.854	-2.52
1040.277	-5.92
1040.7	-9.52
1041.123	-4.92
1041.546	-8.52
1041.969	-2.02
1042.392	-7.42
1042.815	-5.82
1043.238	-0.82
1043.661	-2.02
1044.084	-3.62
1044.507	-5.62
1044.93	-8.82
1045.352	-7.62
1045.775	-5.42
1046.198	-5.32
1046.621	-0.52
1047.043	-1.22
1047.466	-0.32
1047.889	-0.52
1048.311	-8.42
1048.734	-0.22
1049.156	3.28
1049.579	-2.52
1050.001	-1.82
1050.424	-5.22
1050.846	-2.02
1051.269	-2.82
1051.691	-10.02
1052.113	-7.82
1052.536	-1.22
1052.958	-3.52
1053.38	-8.62
1053.802	-9.12
1054.225	4.88
1054.647	-6.72
1055.069	1.98
1055.491	1.08
1055.913	-0.82
1056.335	-6.52
1056.757	-10.72
1057.179	-10.22
1057.601	-7.82
1058.023	-2.32
1058.445	-6.42
1058.867	-2.62
1059.289	-8.02
1059.711	-8.72
1060.133	-0.62
1060.555	-5.02
1060.976	-3.92
1061.398	-5.92
1061.82	-7.62
1062.241	-3.92
1062.663	-7.12
1063.085	-7.92
1063.506	-2.72
1063.928	0.68
1064.35	-4.12
1064.771	-12.72
1065.193	-1.52
1065.614	-10.12
1066.035	-5.62
1066.457	-0.12
1066.878	-0.22
1067.3	-8.62
1067.721	-6.62
1068.142	-9.22
1068.564	-3.22
1068.985	-5.22
1069.406	-5.62
1069.827	-4.82
1070.248	-2.92
1070.67	-10.62
1071.091	-1.82
1071.512	-3.72
1071.933	-4.62
1072.354	-10.42
1072.775	-6.52
1073.196	-10.02
1073.617	-1.02
1074.038	-7.02
1074.459	-6.62
1074.88	-8.92
1075.3	0.48
1075.721	-10.02
1076.142	-2.12
1076.563	-4.82
1076.983	-7.82
1077.404	-9.22
1077.825	-7.22
1078.246	-3.92
1078.666	-14.62
1079.087	-3.02
1079.507	-6.02
1079.928	-0.72
1080.348	-2.52
1080.769	-5.02
1081.189	-4.82
1081.61	-1.82
1082.03	-2.92
1082.451	-6.52
1082.871	-0.52
1083.291	-9.72
1083.711	-4.92
1084.132	-8.02
1084.552	-3.92
1084.972	-0.72
1085.392	-14.12
1085.813	-9.62
1086.233	-9.62
1086.653	-10.42
1087.073	0.48
1087.493	-3.72
1087.913	-8.62
1088.333	-6.32
1088.753	-3.82
1089.173	-0.22
1089.593	-7.32
1090.013	0.88
1090.433	-1.72
1090.852	-7.62
1091.272	-1.82
1091.692	-0.72
1092.112	-2.72
1092.531	-8.52
1092.951	-12.62
1093.371	0.08
1093.79	6.78
1094.21	-4.62
1094.63	-6.32
1095.049	-5.12
1095.469	-4.82
1095.888	-5.32
1096.308	1.58
1096.727	2.88
1097.146	-7.62
1097.566	-1.92
1097.985	-1.42
1098.405	-4.12
1098.824	-4.22
1099.243	0.98
1099.662	-8.62
1100.082	-6.72
1100.501	-4.62
1100.92	-6.12
1101.339	-3.32
1101.758	-3.12
