Data from 20171114-ORNL-Ar_H_NY_Subt18_08-04-19-806.txt Node
Date: Tue Nov 14 08:04:19 EST 2017
User: Ender
Spectrometer: HR+D1039
Trigger mode: 0
Integration Time (sec): 2.730000E-2
Scans to average: 10
Electric dark correction enabled: true
Nonlinearity correction enabled: false
Boxcar width: 0
XAxis mode: Wavelengths
Number of Pixels in Spectrum: 2048
>>>>>Begin Spectral Data<<<<<
187.836	-1.07
188.309	-1.07
188.782	-1.07
189.255	-0.87
189.728	-1.77
190.201	5.43
190.674	4.63
191.147	-1.67
191.619	-7.47
192.092	-0.07
192.565	6.03
193.038	0.43
193.511	0.53
193.984	1.13
194.456	-0.17
194.929	-1.37
195.402	-1.97
195.874	-1.77
196.347	2.73
196.82	-2.27
197.292	2.33
197.765	-2.07
198.237	-3.27
198.71	3.43
199.182	0.43
199.655	3.23
200.127	1.83
200.6	1.43
201.072	-2.57
201.544	-1.77
202.017	2.03
202.489	9.93
202.961	2.03
203.433	3.33
203.906	-3.77
204.378	0.93
204.85	-4.37
205.322	-8.57
205.794	-1.87
206.266	-7.57
206.739	-7.87
207.211	3.93
207.683	-9.17
208.155	1.73
208.627	-8.07
209.099	-5.97
209.57	-1.17
210.042	-5.17
210.514	-0.97
210.986	5.13
211.458	-10.87
211.93	1.03
212.402	3.63
212.873	1.13
213.345	-5.27
213.817	-11.17
214.288	2.23
214.76	-11.87
215.232	0.43
215.703	-3.97
216.175	2.53
216.646	0.73
217.118	-6.87
217.589	-0.97
218.061	0.33
218.532	-1.47
219.004	-2.37
219.475	-0.87
219.946	-4.07
220.418	-1.37
220.889	2.43
221.36	-0.47
221.832	-0.27
222.303	-4.37
222.774	0.43
223.245	-9.47
223.717	-5.87
224.188	0.03
224.659	-1.47
225.13	-8.17
225.601	-3.17
226.072	2.93
226.543	-3.87
227.014	-2.17
227.485	0.63
227.956	-4.47
228.427	-0.67
228.898	1.93
229.369	2.73
229.839	2.03
230.31	-6.47
230.781	4.03
231.252	-0.57
231.722	0.33
232.193	-1.97
232.664	4.43
233.135	7.63
233.605	7.43
234.076	-2.57
234.546	6.23
235.017	7.73
235.487	3.83
235.958	2.83
236.428	4.53
236.899	11.23
237.369	5.93
237.84	-1.17
238.31	11.93
238.78	4.33
239.251	2.03
239.721	8.93
240.191	3.23
240.662	0.03
241.132	0.03
241.602	-1.97
242.072	1.83
242.542	11.03
243.013	-0.67
243.483	11.33
243.953	7.53
244.423	6.93
244.893	-7.57
245.363	7.83
245.833	6.33
246.303	2.43
246.773	7.83
247.243	7.73
247.712	8.33
248.182	11.33
248.652	12.23
249.122	2.83
249.592	16.03
250.061	29.03
250.531	41.73
251.001	17.33
251.471	24.33
251.94	19.33
252.41	8.93
252.879	6.63
253.349	13.93
253.818	7.83
254.288	4.53
254.757	5.03
255.227	0.83
255.696	9.83
256.166	10.83
256.635	14.03
257.105	8.03
257.574	5.63
258.043	12.53
258.513	15.53
258.982	18.33
259.451	8.73
259.92	16.13
260.389	11.83
260.859	23.03
261.328	18.23
261.797	22.93
262.266	13.73
262.735	15.53
263.204	9.93
263.673	3.53
264.142	4.33
264.611	2.03
265.08	4.83
265.549	1.53
266.018	8.73
266.487	3.43
266.955	2.93
267.424	8.53
267.893	6.43
268.362	5.23
268.83	8.23
269.299	13.03
269.768	10.73
270.236	10.13
270.705	8.93
271.174	8.63
271.642	11.73
272.111	11.83
272.579	22.63
273.048	21.53
273.516	25.33
273.985	32.63
274.453	23.33
274.922	23.83
275.39	16.23
275.858	9.23
276.327	16.73
276.795	23.23
277.263	17.33
277.731	29.73
278.2	51.23
278.668	59.23
279.136	40.63
279.604	16.83
280.072	21.13
280.54	18.53
281.008	9.53
281.477	16.43
281.945	14.73
282.413	16.53
282.881	18.93
283.348	11.13
283.816	14.63
284.284	20.43
284.752	23.93
285.22	13.23
285.688	15.83
286.156	18.03
286.623	51.23
287.091	55.23
287.559	34.13
288.026	18.43
288.494	15.03
288.962	11.13
289.429	11.03
289.897	19.43
290.364	18.53
290.832	28.43
291.3	19.23
291.767	17.93
292.234	19.63
292.702	20.43
293.169	19.03
293.637	21.33
294.104	21.23
294.571	9.33
295.039	15.83
295.506	15.73
295.973	22.83
296.44	16.43
296.908	22.73
297.375	21.03
297.842	24.43
298.309	21.53
298.776	15.63
299.243	23.13
299.71	20.53
300.177	27.13
300.644	22.63
301.111	26.93
301.578	23.43
302.045	18.33
302.512	22.43
302.979	20.03
303.446	24.43
303.913	26.23
304.379	20.03
304.846	30.33
305.313	26.43
305.78	18.23
306.246	24.83
306.713	27.13
307.18	32.43
307.646	30.13
308.113	26.63
308.579	22.73
309.046	21.93
309.512	27.93
309.979	25.93
310.445	25.53
310.912	29.13
311.378	33.23
311.845	31.13
312.311	37.73
312.777	35.03
313.244	35.63
313.71	39.23
314.176	27.23
314.642	30.33
315.109	29.03
315.575	36.93
316.041	44.73
316.507	31.43
316.973	40.33
317.439	36.73
317.905	31.73
318.371	32.83
318.837	36.03
319.303	39.33
319.769	34.93
320.235	37.53
320.701	37.93
321.167	33.33
321.633	31.73
322.099	41.83
322.564	39.53
323.03	42.33
323.496	40.63
323.962	44.03
324.427	37.03
324.893	44.23
325.359	40.53
325.824	36.63
326.29	39.53
326.755	43.93
327.221	37.13
327.686	39.53
328.152	39.83
328.617	40.33
329.083	45.73
329.548	53.53
330.014	45.53
330.479	48.93
330.944	37.23
331.41	41.03
331.875	48.73
332.34	44.23
332.805	42.93
333.271	54.53
333.736	43.43
334.201	53.03
334.666	55.73
335.131	54.03
335.596	52.63
336.061	46.03
336.526	42.13
336.991	48.33
337.456	50.43
337.921	47.33
338.386	47.03
338.851	47.13
339.316	45.33
339.781	43.03
340.246	47.83
340.711	48.53
341.175	50.83
341.64	46.43
342.105	52.03
342.569	49.93
343.034	57.03
343.499	57.33
343.963	48.33
344.428	63.63
344.893	60.23
345.357	55.53
345.822	55.83
346.286	71.73
346.751	69.33
347.215	71.53
347.679	67.43
348.144	86.93
348.608	85.23
349.073	67.23
349.537	67.33
350.001	73.93
350.465	79.83
350.93	77.13
351.394	80.03
351.858	66.73
352.322	84.63
352.786	84.73
353.25	94.33
353.715	98.93
354.179	97.93
354.643	109.43
355.107	106.23
355.571	98.33
356.035	94.23
356.498	110.73
356.962	115.23
357.426	122.73
357.89	102.53
358.354	95.63
358.818	76.33
359.281	80.33
359.745	72.63
360.209	69.13
360.673	71.63
361.136	73.33
361.6	79.53
362.064	76.63
362.527	82.23
362.991	84.93
363.454	81.93
363.918	73.13
364.381	76.83
364.845	81.63
365.308	83.23
365.772	82.43
366.235	78.43
366.698	81.23
367.162	84.73
367.625	86.93
368.088	88.43
368.552	84.43
369.015	85.43
369.478	94.33
369.941	93.93
370.404	87.63
370.867	98.43
371.331	93.53
371.794	104.33
372.257	104.33
372.72	109.93
373.183	110.13
373.646	94.63
374.109	96.63
374.572	105.23
375.035	103.13
375.497	100.73
375.96	101.23
376.423	95.93
376.886	101.63
377.349	99.73
377.811	94.43
378.274	102.43
378.737	93.63
379.199	104.63
379.662	102.83
380.125	108.33
380.587	109.03
381.05	118.43
381.512	117.93
381.975	123.23
382.437	118.43
382.9	116.03
383.362	117.63
383.825	129.33
384.287	135.73
384.75	126.93
385.212	128.83
385.674	130.33
386.136	126.73
386.599	118.93
387.061	114.83
387.523	119.03
387.985	130.33
388.447	133.53
388.91	130.13
389.372	149.93
389.834	144.83
390.296	128.73
390.758	138.73
391.22	150.53
391.682	200.33
392.144	261.73
392.606	211.63
393.068	152.13
393.529	151.03
393.991	141.33
394.453	137.83
394.915	142.83
395.377	169.93
395.838	193.03
396.3	141.43
396.762	129.83
397.224	125.03
397.685	116.23
398.147	128.63
398.608	125.73
399.07	123.23
399.531	125.83
399.993	135.43
400.454	136.53
400.916	133.93
401.377	130.83
401.839	142.53
402.3	142.43
402.762	155.73
403.223	164.73
403.684	158.03
404.145	149.33
404.607	149.83
405.068	149.83
405.529	148.73
405.99	159.23
406.451	158.23
406.913	158.73
407.374	153.33
407.835	147.93
408.296	155.63
408.757	163.13
409.218	166.23
409.679	164.23
410.14	157.53
410.601	160.53
411.062	173.43
411.522	172.83
411.983	172.63
412.444	160.33
412.905	172.83
413.366	168.83
413.826	181.63
414.287	201.83
414.748	243.03
415.208	232.83
415.669	196.03
416.13	184.93
416.59	187.83
417.051	197.03
417.511	203.13
417.972	216.43
418.432	228.53
418.893	263.83
419.353	228.03
419.814	177.43
420.274	166.33
420.734	168.03
421.195	180.63
421.655	175.33
422.115	174.83
422.576	179.23
423.036	186.63
423.496	190.93
423.956	200.83
424.416	214.13
424.876	245.63
425.336	237.93
425.797	250.73
426.257	226.73
426.717	215.73
427.177	211.73
427.637	204.33
428.097	208.83
428.556	222.43
429.016	250.93
429.476	236.63
429.936	249.73
430.396	255.23
430.856	260.03
431.315	279.43
431.775	308.13
432.235	339.13
432.694	318.93
433.154	327.23
433.614	344.83
434.073	311.63
434.533	262.83
434.993	251.13
435.452	253.73
435.912	267.43
436.371	259.73
436.83	250.33
437.29	245.83
437.749	224.73
438.209	221.13
438.668	240.83
439.127	256.93
439.587	229.93
440.046	222.63
440.505	233.63
440.964	248.13
441.424	278.33
441.883	281.33
442.342	235.73
442.801	199.13
443.26	200.93
443.719	205.03
444.178	205.73
444.637	190.23
445.096	200.03
445.555	206.13
446.014	200.73
446.473	210.13
446.932	209.33
447.391	203.33
447.849	213.33
448.308	201.43
448.767	205.93
449.226	218.33
449.685	216.43
450.143	231.13
450.602	221.43
451.061	209.43
451.519	219.13
451.978	215.13
452.436	215.93
452.895	217.93
453.353	233.13
453.812	215.63
454.27	222.23
454.729	222.03
455.187	219.23
455.646	223.03
456.104	225.03
456.562	234.53
457.021	239.93
457.479	237.63
457.937	243.63
458.395	229.13
458.854	223.23
459.312	230.93
459.77	239.73
460.228	230.73
460.686	222.23
461.144	234.93
461.602	227.83
462.06	216.83
462.518	237.13
462.976	230.63
463.434	236.53
463.892	242.63
464.35	249.03
464.808	264.33
465.266	245.43
465.724	245.53
466.181	239.93
466.639	250.63
467.097	262.43
467.555	275.23
468.012	283.73
468.47	277.63
468.928	303.73
469.385	306.43
469.843	318.63
470.3	317.03
470.758	322.53
471.215	342.33
471.673	369.03
472.13	359.23
472.588	382.53
473.045	342.73
473.503	342.93
473.96	358.23
474.417	363.93
474.875	393.13
475.332	425.93
475.789	427.63
476.246	428.43
476.704	438.53
477.161	463.03
477.618	473.13
478.075	502.43
478.532	556.93
478.989	630.53
479.446	715.33
479.903	700.93
480.36	738.23
480.817	784.73
481.274	878.53
481.731	976.53
482.188	1060.93
482.645	1188.33
483.102	1292.43
483.558	1406.43
484.015	1458.83
484.472	1444.13
484.929	1385.93
485.385	1345.13
485.842	1312.63
486.299	1251.23
486.755	1172.03
487.212	995.63
487.668	849.33
488.125	784.63
488.582	723.53
489.038	687.23
489.494	651.33
489.951	631.53
490.407	615.13
490.864	593.03
491.32	586.33
491.776	580.23
492.233	595.23
492.689	553.53
493.145	556.83
493.602	549.23
494.058	557.33
494.514	547.23
494.97	579.13
495.426	584.23
495.882	573.03
496.338	566.03
496.794	568.73
497.251	567.93
497.707	577.33
498.163	580.93
498.618	589.73
499.074	584.03
499.53	613.93
499.986	614.43
500.442	599.23
500.898	575.43
501.354	568.73
501.809	575.73
502.265	587.13
502.721	598.73
503.177	606.73
503.632	604.83
504.088	609.63
504.543	655.63
504.999	644.43
505.455	595.33
505.91	573.83
506.366	580.93
506.821	579.13
507.277	565.23
507.732	572.63
508.187	569.33
508.643	575.23
509.098	573.53
509.553	599.93
510.009	604.93
510.464	608.73
510.919	623.93
511.375	627.53
511.83	638.93
512.285	653.63
512.74	678.83
513.195	701.53
513.65	709.43
514.105	703.83
514.56	699.13
515.015	728.13
515.47	746.53
515.925	729.63
516.38	731.13
516.835	720.53
517.29	721.03
517.745	711.63
518.2	695.83
518.655	685.43
519.109	677.03
519.564	672.43
520.019	666.83
520.474	658.83
520.928	662.63
521.383	658.73
521.838	652.03
522.292	636.23
522.747	645.93
523.201	634.63
523.656	629.73
524.11	631.43
524.565	630.53
525.019	622.13
525.474	630.03
525.928	631.83
526.382	639.43
526.837	629.73
527.291	636.23
527.745	628.83
528.2	624.93
528.654	625.93
529.108	618.93
529.562	618.43
530.016	627.73
530.47	612.33
530.925	629.93
531.379	631.93
531.833	634.93
532.287	635.53
532.741	633.93
533.195	638.73
533.649	652.43
534.103	661.23
534.556	640.43
535.01	644.23
535.464	639.23
535.918	647.33
536.372	650.93
536.826	650.53
537.279	635.93
537.733	643.63
538.187	648.63
538.64	645.03
539.094	653.83
539.548	655.83
540.001	649.33
540.455	644.13
540.908	666.93
541.362	663.13
541.815	669.53
542.269	681.73
542.722	681.93
543.175	685.73
543.629	683.33
544.082	706.73
544.536	702.73
544.989	704.73
545.442	711.43
545.895	708.63
546.349	712.53
546.802	716.83
547.255	707.63
547.708	725.33
548.161	714.93
548.614	731.63
549.067	742.03
549.52	736.23
549.973	731.73
550.426	724.83
550.879	706.93
551.332	718.63
551.785	720.93
552.238	719.33
552.691	727.23
553.144	739.63
553.596	754.33
554.049	765.33
554.502	803.53
554.955	818.83
555.407	815.33
555.86	798.53
556.313	805.13
556.765	782.23
557.218	792.93
557.67	788.13
558.123	787.53
558.576	776.93
559.028	771.43
559.48	783.63
559.933	787.83
560.385	749.83
560.838	723.73
561.29	693.53
561.742	689.13
562.195	675.53
562.647	678.53
563.099	685.73
563.551	685.83
564.004	700.63
564.456	686.23
564.908	682.03
565.36	664.83
565.812	654.23
566.264	642.83
566.716	645.23
567.168	630.53
567.62	633.93
568.072	619.33
568.524	614.63
568.976	607.13
569.428	596.83
569.88	585.23
570.332	604.73
570.784	596.53
571.235	600.13
571.687	618.23
572.139	619.93
572.59	624.53
573.042	632.53
573.494	618.53
573.945	613.13
574.397	586.83
574.849	611.13
575.3	609.03
575.752	601.13
576.203	602.13
576.655	602.43
577.106	577.63
577.557	584.63
578.009	587.43
578.46	584.13
578.912	578.43
579.363	580.93
579.814	585.93
580.265	572.43
580.717	586.03
581.168	587.23
581.619	594.43
582.07	595.93
582.521	584.53
582.972	583.83
583.423	588.13
583.875	580.73
584.326	611.23
584.777	650.93
585.227	713.13
585.678	791.83
586.129	877.03
586.58	948.63
587.031	1009.83
587.482	1175.93
587.933	1345.73
588.384	1153.73
588.834	854.53
589.285	701.73
589.736	685.53
590.186	682.53
590.637	671.73
591.088	644.83
591.538	641.83
591.989	632.83
592.439	635.03
592.89	614.53
593.34	614.33
593.791	612.33
594.241	608.93
594.692	617.03
595.142	607.53
595.593	608.83
596.043	603.23
596.493	609.83
596.943	615.53
597.394	618.63
597.844	618.93
598.294	625.33
598.744	648.03
599.195	664.43
599.645	696.23
600.095	735.63
600.545	779.43
600.995	824.03
601.445	877.03
601.895	942.83
602.345	981.93
602.795	962.23
603.245	922.03
603.695	863.93
604.145	824.03
604.594	782.23
605.044	743.93
605.494	690.33
605.944	651.23
606.393	627.63
606.843	623.73
607.293	620.23
607.743	620.33
608.192	629.53
608.642	644.03
609.091	649.13
609.541	645.73
609.99	657.43
610.44	647.93
610.889	609.13
611.339	593.23
611.788	577.43
612.238	592.03
612.687	615.33
613.136	606.73
613.586	631.23
614.035	614.13
614.484	647.13
614.933	638.13
615.383	631.03
615.832	625.03
616.281	609.63
616.73	585.63
617.179	574.13
617.628	557.23
618.077	543.43
618.526	524.53
618.975	532.63
619.424	524.03
619.873	522.33
620.322	522.73
620.771	515.23
621.22	512.53
621.669	504.73
622.118	496.43
622.567	483.93
623.015	480.33
623.464	476.63
623.913	475.63
624.361	466.03
624.81	463.43
625.259	468.13
625.707	472.33
626.156	469.63
626.604	478.63
627.053	473.23
627.501	472.23
627.95	478.13
628.398	487.03
628.847	481.23
629.295	481.13
629.744	478.73
630.192	481.23
630.64	474.93
631.089	479.73
631.537	488.53
631.985	484.83
632.433	501.43
632.881	509.63
633.33	551.73
633.778	531.13
634.226	476.43
634.674	473.53
635.122	491.23
635.57	499.63
636.018	519.13
636.466	483.13
636.914	465.63
637.362	480.03
637.81	482.83
638.258	489.43
638.705	485.33
639.153	510.73
639.601	507.93
640.049	529.73
640.497	565.73
640.944	581.63
641.392	539.63
641.84	507.23
642.287	487.83
642.735	476.33
643.182	479.93
643.63	473.63
644.078	482.73
644.525	489.53
644.973	497.83
645.42	498.73
645.867	517.23
646.315	530.13
646.762	550.23
647.21	581.03
647.657	595.13
648.104	616.63
648.551	636.03
648.999	692.03
649.446	761.23
649.893	830.33
650.34	948.53
650.787	1124.63
651.234	1402.43
651.682	1826.33
652.129	2486.33
652.576	3569.63
653.023	5316.53
653.47	7344.13
653.917	9303.93
654.363	10919.83
654.81	12278.63
655.257	11703.53
655.704	7577.33
656.151	4469.33
656.598	2861.33
657.044	2031.43
657.491	1566.23
657.938	1244.33
658.385	1030.03
658.831	907.23
659.278	807.03
659.724	711.93
660.171	654.53
660.618	599.73
661.064	568.43
661.511	553.33
661.957	528.73
662.404	522.33
662.85	521.73
663.296	505.33
663.743	460.13
664.189	441.63
664.635	444.73
665.082	443.63
665.528	424.33
665.974	427.83
666.42	424.13
666.867	415.83
667.313	392.73
667.759	400.63
668.205	395.63
668.651	410.03
669.097	402.63
669.543	422.63
669.989	382.53
670.435	369.63
670.881	374.23
671.327	360.83
671.773	386.93
672.219	399.33
672.665	450.13
673.11	479.23
673.556	513.53
674.002	554.63
674.448	537.83
674.893	451.03
675.339	389.13
675.785	364.23
676.23	341.73
676.676	317.63
677.122	314.93
677.567	311.23
678.013	304.13
678.458	295.23
678.904	296.43
679.349	283.03
679.794	286.03
680.24	281.83
680.685	293.03
681.131	280.63
681.576	284.33
682.021	285.43
682.466	292.83
682.912	287.03
683.357	287.43
683.802	314.03
684.247	332.03
684.692	369.23
685.137	397.93
685.583	434.73
686.028	466.63
686.473	430.33
686.918	365.83
687.363	340.63
687.807	322.93
688.252	294.73
688.697	284.33
689.142	279.23
689.587	267.13
690.032	262.83
690.477	279.13
690.921	280.83
691.366	303.63
691.811	325.23
692.255	358.53
692.7	380.13
693.145	412.23
693.589	550.73
694.034	887.63
694.478	1248.13
694.923	1444.33
695.367	1913.53
695.812	1003.13
696.256	409.23
696.701	308.53
697.145	283.53
697.59	272.43
698.034	258.33
698.478	264.03
698.922	264.83
699.367	260.83
699.811	276.83
700.255	288.43
700.699	318.23
701.143	344.83
701.588	385.43
702.032	419.93
702.476	421.73
702.92	395.13
703.364	396.73
703.808	503.63
704.252	816.83
704.696	1169.93
705.14	1387.83
705.584	1793.63
706.027	884.03
706.471	423.73
706.915	318.73
707.359	286.03
707.803	255.93
708.246	251.53
708.69	257.13
709.134	246.13
709.577	251.33
710.021	262.73
710.465	250.73
710.908	243.43
711.352	239.33
711.795	255.03
712.239	286.33
712.682	310.33
713.126	343.63
713.569	387.33
714.012	301.63
714.456	269.63
714.899	248.23
715.342	218.43
715.786	208.13
716.229	207.33
716.672	214.73
717.115	202.53
717.558	202.63
718.002	200.83
718.445	218.73
718.888	232.43
719.331	236.13
719.774	257.23
720.217	246.43
720.66	230.53
721.103	223.03
721.546	207.03
721.989	203.53
722.432	183.03
722.874	193.13
723.317	187.13
723.76	191.53
724.203	207.33
724.645	256.63
725.088	354.33
725.531	463.83
725.974	545.83
726.416	452.63
726.859	257.73
727.301	203.53
727.744	194.93
728.187	188.63
728.629	200.53
729.071	198.33
729.514	211.03
729.956	216.63
730.399	230.03
730.841	239.23
731.283	226.13
731.726	216.23
732.168	213.03
732.61	213.33
733.053	227.33
733.495	253.53
733.937	277.43
734.379	322.53
734.821	340.93
735.263	443.53
735.705	661.73
736.148	1228.73
736.59	2074.53
737.032	2570.63
737.474	2090.73
737.916	662.73
738.357	342.83
738.799	268.23
739.241	242.23
739.683	228.03
740.125	235.63
740.567	245.33
741.008	260.23
741.45	253.63
741.892	257.13
742.334	282.63
742.775	296.53
743.217	281.63
743.658	221.23
744.1	211.43
744.542	213.83
744.983	251.23
745.425	286.93
745.866	291.63
746.307	229.53
746.749	225.73
747.19	253.53
747.632	351.73
748.073	681.23
748.514	1476.43
748.956	2330.73
749.397	2913.43
749.838	2437.33
750.279	2500.73
750.72	1253.63
751.162	444.73
751.603	260.03
752.044	201.13
752.485	173.33
752.926	171.93
753.367	168.83
753.808	158.13
754.249	159.03
754.69	153.63
755.131	147.73
755.572	143.13
756.013	144.63
756.453	155.43
756.894	154.23
757.335	152.53
757.776	162.33
758.216	161.13
758.657	157.83
759.098	166.53
759.538	182.33
759.979	209.63
760.42	299.83
760.86	542.53
761.301	1418.53
761.741	3520.23
762.182	5493.13
762.622	3867.63
763.063	1095.13
763.503	448.33
763.943	289.93
764.384	278.63
764.824	341.73
765.264	375.03
765.705	260.83
766.145	175.53
766.585	155.43
767.025	145.33
767.465	148.53
767.906	198.73
768.346	275.73
768.786	293.43
769.226	218.33
769.666	252.83
770.106	477.63
770.546	1216.13
770.986	2210.23
771.426	2014.53
771.866	654.93
772.306	267.73
772.745	170.23
773.185	147.33
773.625	141.03
774.065	131.73
774.505	162.83
774.944	235.43
775.384	520.93
775.824	1002.73
776.263	999.43
776.703	424.53
777.142	179.73
777.582	129.13
778.021	114.13
778.461	115.83
778.9	112.83
779.34	118.53
779.779	90.73
780.219	87.73
780.658	93.43
781.097	88.83
781.537	91.53
781.976	84.63
782.415	83.13
782.855	79.13
783.294	85.53
783.733	80.23
784.172	85.53
784.611	84.13
785.05	82.03
785.489	86.73
785.928	98.53
786.367	105.23
786.806	95.13
787.245	107.23
787.684	105.93
788.123	128.23
788.562	103.73
789.001	100.63
789.44	101.63
789.879	95.93
790.317	101.43
790.756	99.63
791.195	112.13
791.634	118.23
792.072	165.73
792.511	285.23
792.95	781.13
793.388	1740.43
793.827	1648.63
794.265	568.43
794.704	231.73
795.142	153.93
795.581	131.73
796.019	110.43
796.458	99.23
796.896	98.73
797.334	98.53
797.773	123.83
798.211	173.03
798.649	339.93
799.087	821.93
799.526	1294.93
799.964	1646.93
800.402	1702.73
800.84	626.43
801.278	243.93
801.716	150.83
802.154	126.03
802.592	116.93
803.03	122.63
803.468	106.53
803.906	110.93
804.344	124.13
804.782	113.93
805.22	107.53
805.658	106.63
806.096	121.23
806.533	126.43
806.971	145.43
807.409	177.43
807.847	254.23
808.284	506.73
808.722	1477.63
809.16	2751.43
809.597	2528.23
810.035	4465.63
810.472	5032.93
810.91	1780.23
811.347	668.43
811.785	340.33
812.222	208.83
812.66	163.63
813.097	135.93
813.535	113.03
813.972	102.43
814.409	93.73
814.846	96.13
815.284	94.73
815.721	84.53
816.158	86.53
816.595	103.23
817.032	152.73
817.47	171.73
817.907	144.13
818.344	123.23
818.781	96.93
819.218	82.93
819.655	102.63
820.092	159.43
820.529	182.63
820.966	148.53
821.403	113.23
821.839	88.73
822.276	84.13
822.713	90.43
823.15	117.43
823.587	93.83
824.023	118.63
824.46	238.13
824.897	708.63
825.333	1147.53
825.77	491.83
826.206	193.03
826.643	114.13
827.08	87.93
827.516	73.23
827.953	65.23
828.389	65.33
828.825	66.63
829.262	55.03
829.698	49.53
830.135	57.93
830.571	52.13
831.007	50.53
831.443	53.63
831.88	53.23
832.316	45.93
832.752	52.13
833.188	55.73
833.624	52.83
834.06	57.23
834.497	56.33
834.933	60.43
835.369	63.03
835.805	60.93
836.241	63.53
836.677	65.63
837.112	70.13
837.548	80.53
837.984	111.43
838.42	158.73
838.856	384.83
839.292	1229.63
839.727	1973.53
840.163	899.43
840.599	744.33
841.034	1680.03
841.47	1828.53
841.906	652.43
842.341	271.13
842.777	184.73
843.212	249.53
843.648	263.23
844.083	127.73
844.519	77.83
844.954	57.63
845.39	45.43
845.825	49.13
846.261	42.73
846.696	53.73
847.131	46.83
847.566	45.73
848.002	41.83
848.437	43.93
848.872	55.23
849.307	51.93
849.742	68.73
850.177	142.33
850.613	451.23
851.048	732.33
851.483	323.43
851.918	120.83
852.353	69.83
852.788	50.63
853.223	47.03
853.657	49.43
854.092	36.83
854.527	36.53
854.962	37.13
855.397	35.33
855.832	43.13
856.266	35.83
856.701	34.73
857.136	28.23
857.57	35.93
858.005	40.53
858.44	50.63
858.874	37.13
859.309	49.23
859.743	29.53
860.178	43.13
860.612	40.73
861.047	48.03
861.481	54.33
861.915	64.53
862.35	44.43
862.784	32.53
863.218	32.53
863.653	35.93
864.087	47.83
864.521	43.13
864.955	53.23
865.39	126.83
865.824	141.53
866.258	95.93
866.692	142.03
867.126	160.13
867.56	97.13
867.994	43.73
868.428	31.13
868.862	39.63
869.296	47.33
869.73	50.93
870.164	44.43
870.598	44.43
871.031	32.43
871.465	26.33
871.899	28.53
872.333	19.23
872.766	18.43
873.2	28.93
873.634	26.03
874.067	21.53
874.501	24.23
874.935	33.03
875.368	27.73
875.802	18.63
876.235	25.63
876.669	19.63
877.102	21.33
877.535	25.83
877.969	26.83
878.402	23.33
878.836	15.83
879.269	23.13
879.702	20.23
880.135	16.83
880.569	24.43
881.002	27.43
881.435	20.23
881.868	16.83
882.301	15.13
882.734	17.43
883.167	23.93
883.601	18.23
884.034	22.53
884.467	16.93
884.899	15.63
885.332	15.53
885.765	13.53
886.198	12.83
886.631	15.03
887.064	13.43
887.497	18.63
887.929	22.53
888.362	14.83
888.795	10.33
889.228	17.73
889.66	17.73
890.093	15.93
890.526	14.73
890.958	14.43
891.391	14.13
891.823	23.53
892.256	9.13
892.688	6.63
893.121	16.33
893.553	15.63
893.985	16.13
894.418	18.13
894.85	6.43
895.282	18.53
895.715	11.23
896.147	18.73
896.579	19.83
897.011	18.23
897.444	16.43
897.876	13.63
898.308	15.93
898.74	12.93
899.172	7.53
899.604	18.23
900.036	17.23
900.468	15.43
900.9	17.33
901.332	16.73
901.764	12.13
902.196	22.43
902.628	12.53
903.06	9.33
903.491	24.53
903.923	22.23
904.355	18.83
904.787	21.73
905.218	21.33
905.65	17.83
906.082	12.83
906.513	9.53
906.945	16.83
907.376	13.93
907.808	16.03
908.239	18.53
908.671	15.23
909.102	17.83
909.534	29.23
909.965	43.83
910.397	79.33
910.828	265.63
911.259	396.23
911.691	195.03
912.122	85.03
912.553	44.43
912.984	27.63
913.415	22.93
913.847	19.93
914.278	11.93
914.709	11.13
915.14	16.43
915.571	19.73
916.002	17.63
916.433	16.53
916.864	11.73
917.295	12.73
917.726	17.33
918.157	15.63
918.587	23.73
919.018	16.13
919.449	20.13
919.88	24.13
920.311	26.93
920.741	38.03
921.172	133.13
921.603	134.73
922.033	59.83
922.464	43.13
922.895	19.93
923.325	22.73
923.756	12.13
924.186	13.93
924.617	22.83
925.047	38.33
925.478	49.53
925.908	41.43
926.338	23.83
926.769	14.53
927.199	20.43
927.629	6.83
928.06	17.03
928.49	15.03
928.92	16.83
929.35	14.93
929.78	11.53
930.21	7.63
930.641	11.03
931.071	8.73
931.501	6.53
931.931	10.63
932.361	5.13
932.791	6.33
933.221	5.83
933.651	1.73
934.08	11.13
934.51	26.23
934.94	13.53
935.37	5.93
935.8	9.93
936.229	10.33
936.659	14.23
937.089	5.73
937.519	11.53
937.948	15.23
938.378	15.63
938.807	7.63
939.237	2.53
939.666	4.33
940.096	-1.47
940.525	3.03
940.955	6.53
941.384	6.03
941.814	-0.17
942.243	4.13
942.672	2.93
943.102	2.23
943.531	2.73
943.96	8.03
944.39	4.33
944.819	4.93
945.248	2.43
945.677	7.03
946.106	5.53
946.535	4.73
946.964	1.43
947.393	6.33
947.822	-1.57
948.251	-6.07
948.68	8.43
949.109	11.43
949.538	8.73
949.967	1.63
950.396	-1.17
950.825	0.63
951.254	-2.47
951.682	2.33
952.111	7.33
952.54	4.03
952.969	-1.47
953.397	-5.97
953.826	5.83
954.254	-1.17
954.683	3.33
955.112	-0.17
955.54	3.73
955.969	5.83
956.397	1.93
956.826	-1.87
957.254	2.53
957.682	3.33
958.111	0.73
958.539	-2.87
958.967	2.13
959.396	-3.57
959.824	0.43
960.252	8.23
960.68	-4.77
961.109	-1.47
961.537	-3.37
961.965	7.23
962.393	1.23
962.821	-1.57
963.249	3.23
963.677	3.73
964.105	3.73
964.533	42.53
964.961	41.03
965.389	19.63
965.817	9.33
966.245	9.73
966.672	5.13
967.1	-6.37
967.528	2.53
967.956	-0.77
968.383	-2.57
968.811	1.43
969.239	-0.77
969.666	6.53
970.094	3.43
970.522	0.83
970.949	-4.57
971.377	-5.77
971.804	-6.77
972.232	3.63
972.659	4.33
973.087	-2.47
973.514	0.93
973.941	-0.47
974.369	4.93
974.796	0.73
975.223	2.83
975.651	0.73
976.078	6.43
976.505	-3.97
976.932	0.73
977.359	11.73
977.786	18.23
978.214	1.03
978.641	0.43
979.068	0.53
979.495	-1.27
979.922	-5.77
980.349	0.53
980.776	6.53
981.202	-1.57
981.629	6.03
982.056	5.53
982.483	-0.97
982.91	6.33
983.337	-1.97
983.763	3.93
984.19	0.73
984.617	-3.67
985.043	-5.27
985.47	0.33
985.897	0.43
986.323	-7.97
986.75	0.63
987.176	0.23
987.603	2.63
988.029	0.93
988.456	2.23
988.882	12.13
989.308	-6.77
989.735	-0.27
990.161	3.23
990.587	-0.87
991.014	-0.67
991.44	2.93
991.866	-2.37
992.292	-2.07
992.719	1.33
993.145	4.13
993.571	-3.57
993.997	3.33
994.423	-3.77
994.849	-4.97
995.275	7.53
995.701	3.83
996.127	-1.37
996.553	2.03
996.979	2.73
997.405	-0.37
997.83	-3.37
998.256	-8.77
998.682	-0.47
999.108	-4.87
999.534	4.53
999.959	3.43
1000.385	1.33
1000.811	1.23
1001.236	-8.37
1001.662	-5.87
1002.087	-8.07
1002.513	3.33
1002.938	2.23
1003.364	3.63
1003.789	0.93
1004.215	2.73
1004.64	0.03
1005.066	6.73
1005.491	1.53
1005.916	-1.47
1006.342	4.23
1006.767	-3.97
1007.192	0.83
1007.617	-2.47
1008.042	-0.77
1008.468	1.73
1008.893	-4.57
1009.318	-1.27
1009.743	-3.57
1010.168	6.13
1010.593	5.13
1011.018	-12.57
1011.443	-2.97
1011.868	-0.87
1012.293	4.83
1012.718	-6.37
1013.143	1.23
1013.567	4.43
1013.992	0.53
1014.417	-13.77
1014.842	3.93
1015.267	1.93
1015.691	-0.27
1016.116	3.73
1016.541	1.53
1016.965	5.93
1017.39	6.13
1017.814	2.73
1018.239	0.43
1018.663	-6.77
1019.088	-8.57
1019.512	-0.97
1019.937	2.23
1020.361	-7.37
1020.785	-12.27
1021.21	-2.57
1021.634	-0.67
1022.058	4.03
1022.483	5.13
1022.907	3.33
1023.331	-2.27
1023.755	3.83
1024.179	-0.77
1024.604	-6.17
1025.028	-8.57
1025.452	-2.17
1025.876	-3.17
1026.3	0.03
1026.724	-8.77
1027.148	-4.77
1027.572	-9.17
1027.996	-5.77
1028.42	-1.77
1028.843	-4.87
1029.267	-6.37
1029.691	3.13
1030.115	-9.37
1030.539	-5.97
1030.962	-6.27
1031.386	-6.47
1031.81	2.13
1032.233	4.23
1032.657	-4.57
1033.08	-1.47
1033.504	-2.67
1033.927	-2.47
1034.351	3.83
1034.774	3.53
1035.198	5.63
1035.621	-8.07
1036.045	-8.07
1036.468	2.43
1036.891	-7.77
1037.315	-7.77
1037.738	-5.07
1038.161	4.53
1038.584	-5.27
1039.008	-4.87
1039.431	-1.47
1039.854	0.23
1040.277	-1.37
1040.7	-9.27
1041.123	6.23
1041.546	-8.37
1041.969	-2.67
1042.392	0.43
1042.815	1.43
1043.238	-0.87
1043.661	-2.47
1044.084	-2.37
1044.507	-6.27
1044.93	-4.57
1045.352	2.93
1045.775	1.13
1046.198	-3.87
1046.621	-1.27
1047.043	1.53
1047.466	4.03
1047.889	-0.57
1048.311	-8.97
1048.734	-1.87
1049.156	1.33
1049.579	-2.67
1050.001	-3.37
1050.424	5.33
1050.846	-3.57
1051.269	-2.47
1051.691	-3.37
1052.113	-2.27
1052.536	-0.07
1052.958	5.53
1053.38	2.43
1053.802	-5.77
1054.225	4.53
1054.647	-7.07
1055.069	-1.07
1055.491	2.03
1055.913	-9.67
1056.335	2.53
1056.757	1.53
1057.179	-6.27
1057.601	-4.57
1058.023	-3.87
1058.445	-3.47
1058.867	-1.77
1059.289	-0.07
1059.711	-6.87
1060.133	3.03
1060.555	-2.67
1060.976	-2.17
1061.398	-1.77
1061.82	-5.27
1062.241	-5.67
1062.663	-7.47
1063.085	-2.37
1063.506	-2.17
1063.928	1.03
1064.35	-2.77
1064.771	-11.47
1065.193	1.63
1065.614	-6.07
1066.035	-3.27
1066.457	0.03
1066.878	5.43
1067.3	-3.67
1067.721	-1.27
1068.142	-3.47
1068.564	3.93
1068.985	-0.97
1069.406	-4.77
1069.827	-4.47
1070.248	2.03
1070.67	-6.77
1071.091	-4.57
1071.512	1.53
1071.933	2.13
1072.354	-3.57
1072.775	-7.07
1073.196	-3.47
1073.617	-3.17
1074.038	-6.47
1074.459	-3.67
1074.88	-3.07
1075.3	0.23
1075.721	-6.77
1076.142	3.13
1076.563	0.23
1076.983	-8.37
1077.404	-2.77
1077.825	-9.57
1078.246	-1.27
1078.666	-11.57
1079.087	-1.87
1079.507	-7.07
1079.928	-3.77
1080.348	4.13
1080.769	-6.47
1081.189	-3.67
1081.61	0.23
1082.03	-2.27
1082.451	-1.67
1082.871	-1.17
1083.291	-2.97
1083.711	-4.87
1084.132	-3.17
1084.552	-1.67
1084.972	1.83
1085.392	-6.27
1085.813	-5.07
1086.233	-7.47
1086.653	-2.17
1087.073	2.33
1087.493	-10.57
1087.913	-5.47
1088.333	-8.37
1088.753	1.03
1089.173	10.03
1089.593	0.73
1090.013	10.23
1090.433	2.23
1090.852	-2.87
1091.272	1.33
1091.692	3.53
1092.112	-1.17
1092.531	-7.57
1092.951	-7.57
1093.371	2.53
1093.79	3.03
1094.21	0.43
1094.63	-1.87
1095.049	-7.27
1095.469	-2.87
1095.888	-3.07
1096.308	5.33
1096.727	9.33
1097.146	-6.27
1097.566	-4.97
1097.985	-3.17
1098.405	6.83
1098.824	-5.37
1099.243	-4.67
1099.662	-5.77
1100.082	-2.87
1100.501	3.53
1100.92	-3.27
1101.339	-3.97
1101.758	-6.07
