Data from 20171114-ORNL-Ar_H_NY_Subt18_08-05-31-871.txt Node
Date: Tue Nov 14 08:05:31 EST 2017
User: Ender
Spectrometer: HR+D1039
Trigger mode: 0
Integration Time (sec): 2.730000E-2
Scans to average: 10
Electric dark correction enabled: true
Nonlinearity correction enabled: false
Boxcar width: 0
XAxis mode: Wavelengths
Number of Pixels in Spectrum: 2048
>>>>>Begin Spectral Data<<<<<
187.836	-2.73
188.309	-2.73
188.782	-2.73
189.255	2.57
189.728	-1.03
190.201	3.47
190.674	4.07
191.147	2.67
191.619	-6.83
192.092	3.57
192.565	-0.43
193.038	-1.43
193.511	1.87
193.984	3.07
194.456	-3.03
194.929	0.07
195.402	-3.93
195.874	-2.03
196.347	-0.63
196.82	-2.83
197.292	12.47
197.765	2.57
198.237	-1.83
198.71	2.87
199.182	-2.53
199.655	-2.03
200.127	8.77
200.6	3.87
201.072	-6.63
201.544	-1.93
202.017	-1.43
202.489	3.77
202.961	-6.93
203.433	-4.73
203.906	-2.33
204.378	-6.53
204.85	-3.33
205.322	-8.23
205.794	-2.53
206.266	-7.13
206.739	-6.03
207.211	-1.33
207.683	-9.33
208.155	-5.83
208.627	-6.33
209.099	-4.93
209.57	-5.53
210.042	-4.73
210.514	-9.13
210.986	-4.73
211.458	-6.93
211.93	0.57
212.402	-2.73
212.873	2.07
213.345	-14.93
213.817	-11.53
214.288	-6.03
214.76	-10.73
215.232	1.77
215.703	-1.83
216.175	0.07
216.646	-8.63
217.118	-6.53
217.589	-3.23
218.061	1.17
218.532	2.67
219.004	6.07
219.475	-6.43
219.946	-3.03
220.418	-2.23
220.889	2.07
221.36	-0.93
221.832	-5.63
222.303	-4.93
222.774	-0.13
223.245	-8.63
223.717	-7.83
224.188	-0.83
224.659	-5.83
225.13	-3.03
225.601	-4.43
226.072	1.67
226.543	-1.93
227.014	-1.23
227.485	1.27
227.956	-2.83
228.427	0.07
228.898	0.07
229.369	7.57
229.839	-3.13
230.31	-5.73
230.781	2.07
231.252	-2.33
231.722	-3.73
232.193	-1.43
232.664	-2.43
233.135	0.77
233.605	-3.33
234.076	-4.33
234.546	-0.83
235.017	6.27
235.487	7.47
235.958	-0.53
236.428	0.87
236.899	3.47
237.369	4.87
237.84	2.97
238.31	7.37
238.78	1.67
239.251	3.17
239.721	7.47
240.191	1.27
240.662	-3.83
241.132	-1.73
241.602	-1.93
242.072	-1.13
242.542	1.97
243.013	-1.33
243.483	8.37
243.953	2.87
244.423	5.17
244.893	-4.93
245.363	5.77
245.833	3.87
246.303	7.97
246.773	5.27
247.243	1.47
247.712	7.57
248.182	9.67
248.652	10.07
249.122	2.97
249.592	12.17
250.061	29.87
250.531	34.07
251.001	15.27
251.471	20.27
251.94	26.57
252.41	7.17
252.879	4.57
253.349	16.17
253.818	14.37
254.288	4.37
254.757	5.37
255.227	1.37
255.696	1.57
256.166	4.77
256.635	4.67
257.105	11.87
257.574	5.37
258.043	10.07
258.513	19.87
258.982	17.97
259.451	8.17
259.92	16.97
260.389	12.67
260.859	13.47
261.328	17.37
261.797	17.67
262.266	10.47
262.735	14.67
263.204	9.47
263.673	6.07
264.142	7.47
264.611	2.47
265.08	-1.33
265.549	3.87
266.018	1.57
266.487	2.37
266.955	2.87
267.424	4.67
267.893	11.17
268.362	4.37
268.83	3.57
269.299	7.57
269.768	8.07
270.236	7.57
270.705	7.27
271.174	3.97
271.642	10.27
272.111	8.07
272.579	19.07
273.048	27.27
273.516	26.77
273.985	28.97
274.453	26.07
274.922	19.47
275.39	17.27
275.858	8.37
276.327	14.07
276.795	16.97
277.263	12.07
277.731	26.67
278.2	53.17
278.668	59.47
279.136	52.77
279.604	22.67
280.072	17.77
280.54	13.37
281.008	11.47
281.477	14.27
281.945	13.67
282.413	19.37
282.881	17.57
283.348	9.67
283.816	19.17
284.284	12.87
284.752	22.57
285.22	15.07
285.688	16.47
286.156	16.87
286.623	45.57
287.091	56.07
287.559	31.17
288.026	16.67
288.494	22.07
288.962	6.87
289.429	11.87
289.897	20.17
290.364	15.07
290.832	24.07
291.3	13.27
291.767	15.87
292.234	20.87
292.702	14.97
293.169	15.47
293.637	21.07
294.104	23.47
294.571	12.27
295.039	20.47
295.506	15.07
295.973	22.17
296.44	15.77
296.908	19.47
297.375	23.87
297.842	24.67
298.309	18.67
298.776	14.97
299.243	28.47
299.71	13.87
300.177	22.07
300.644	20.97
301.111	23.77
301.578	26.27
302.045	18.87
302.512	23.77
302.979	22.37
303.446	20.87
303.913	16.77
304.379	27.77
304.846	28.47
305.313	26.57
305.78	21.47
306.246	31.17
306.713	35.97
307.18	29.57
307.646	31.77
308.113	29.37
308.579	30.67
309.046	28.07
309.512	32.97
309.979	22.97
310.445	33.07
310.912	30.47
311.378	31.17
311.845	30.27
312.311	31.97
312.777	37.07
313.244	32.67
313.71	39.07
314.176	34.27
314.642	33.17
315.109	40.07
315.575	38.87
316.041	38.87
316.507	39.77
316.973	41.57
317.439	37.67
317.905	37.87
318.371	40.27
318.837	38.07
319.303	34.17
319.769	38.27
320.235	36.17
320.701	39.97
321.167	39.47
321.633	38.87
322.099	47.87
322.564	46.87
323.03	44.77
323.496	46.17
323.962	45.67
324.427	38.47
324.893	43.47
325.359	41.17
325.824	43.17
326.29	40.37
326.755	42.47
327.221	41.97
327.686	47.17
328.152	45.07
328.617	43.77
329.083	53.47
329.548	54.87
330.014	51.77
330.479	41.77
330.944	43.97
331.41	47.47
331.875	52.57
332.34	47.67
332.805	44.07
333.271	52.27
333.736	50.57
334.201	59.97
334.666	54.67
335.131	55.07
335.596	53.17
336.061	55.07
336.526	45.47
336.991	52.47
337.456	58.97
337.921	52.27
338.386	49.67
338.851	49.47
339.316	46.57
339.781	50.67
340.246	57.67
340.711	50.27
341.175	56.57
341.64	47.07
342.105	56.87
342.569	53.27
343.034	65.77
343.499	56.07
343.963	55.77
344.428	66.37
344.893	61.97
345.357	63.47
345.822	64.87
346.286	72.97
346.751	76.57
347.215	71.57
347.679	81.17
348.144	105.37
348.608	91.07
349.073	75.27
349.537	79.87
350.001	89.27
350.465	92.37
350.93	86.67
351.394	86.07
351.858	73.97
352.322	87.17
352.786	87.07
353.25	100.97
353.715	114.67
354.179	103.47
354.643	132.87
355.107	134.77
355.571	117.07
356.035	109.27
356.498	126.27
356.962	136.27
357.426	141.27
357.89	122.47
358.354	95.27
358.818	85.37
359.281	84.17
359.745	79.47
360.209	86.47
360.673	86.67
361.136	82.97
361.6	85.77
362.064	84.37
362.527	85.77
362.991	95.57
363.454	82.77
363.918	74.27
364.381	81.27
364.845	86.67
365.308	91.97
365.772	85.07
366.235	95.97
366.698	90.07
367.162	92.77
367.625	89.87
368.088	92.87
368.552	88.17
369.015	97.07
369.478	104.17
369.941	104.57
370.404	96.67
370.867	110.17
371.331	106.17
371.794	116.87
372.257	112.77
372.72	122.07
373.183	115.77
373.646	113.67
374.109	105.97
374.572	115.67
375.035	114.07
375.497	115.27
375.96	108.47
376.423	103.87
376.886	108.27
377.349	112.47
377.811	103.97
378.274	107.07
378.737	106.47
379.199	113.07
379.662	119.57
380.125	119.27
380.587	121.87
381.05	122.87
381.512	133.17
381.975	136.67
382.437	136.77
382.9	132.77
383.362	138.57
383.825	147.37
384.287	149.47
384.75	148.07
385.212	146.87
385.674	146.37
386.136	142.07
386.599	130.47
387.061	135.27
387.523	138.47
387.985	137.17
388.447	153.17
388.91	145.97
389.372	162.77
389.834	155.77
390.296	147.27
390.758	163.17
391.22	172.57
391.682	213.67
392.144	298.67
392.606	237.87
393.068	175.77
393.529	169.57
393.991	155.77
394.453	149.57
394.915	157.27
395.377	189.37
395.838	221.47
396.3	160.57
396.762	144.77
397.224	142.07
397.685	138.77
398.147	134.17
398.608	135.97
399.07	142.17
399.531	134.77
399.993	144.17
400.454	155.77
400.916	148.67
401.377	147.87
401.839	154.17
402.3	155.47
402.762	167.27
403.223	185.17
403.684	180.17
404.145	170.57
404.607	160.07
405.068	168.57
405.529	179.87
405.99	193.27
406.451	179.87
406.913	177.67
407.374	164.57
407.835	163.97
408.296	171.87
408.757	178.57
409.218	190.77
409.679	180.47
410.14	180.97
410.601	182.77
411.062	188.47
411.522	201.17
411.983	190.67
412.444	182.97
412.905	181.87
413.366	189.67
413.826	207.87
414.287	219.87
414.748	275.27
415.208	257.67
415.669	218.77
416.13	205.07
416.59	205.07
417.051	212.47
417.511	225.07
417.972	245.27
418.432	253.67
418.893	288.87
419.353	248.97
419.814	203.67
420.274	184.57
420.734	186.47
421.195	198.17
421.655	199.27
422.115	193.77
422.576	200.17
423.036	204.17
423.496	205.87
423.956	222.57
424.416	234.97
424.876	275.47
425.336	264.47
425.797	270.07
426.257	256.67
426.717	242.57
427.177	234.07
427.637	234.57
428.097	240.67
428.556	248.87
429.016	277.57
429.476	272.87
429.936	280.17
430.396	284.17
430.856	299.37
431.315	322.77
431.775	360.77
432.235	393.97
432.694	355.67
433.154	370.77
433.614	393.57
434.073	345.17
434.533	287.77
434.993	279.97
435.452	286.07
435.912	301.47
436.371	295.97
436.83	294.47
437.29	274.27
437.749	247.57
438.209	259.77
438.668	274.47
439.127	298.27
439.587	271.88
440.046	255.87
440.505	270.97
440.964	293.57
441.424	322.07
441.883	308.47
442.342	268.07
442.801	222.37
443.26	224.77
443.719	224.87
444.178	219.67
444.637	211.88
445.096	233.37
445.555	225.37
446.014	221.17
446.473	227.27
446.932	239.67
447.391	240.67
447.849	231.17
448.308	219.17
448.767	221.87
449.226	240.77
449.685	235.47
450.143	251.97
450.602	235.67
451.061	230.37
451.519	237.07
451.978	231.97
452.436	246.47
452.895	242.27
453.353	259.57
453.812	247.67
454.27	240.97
454.729	235.88
455.187	240.37
455.646	249.07
456.104	258.57
456.562	268.27
457.021	275.77
457.479	262.57
457.937	276.67
458.395	263.67
458.854	248.97
459.312	258.57
459.77	278.17
460.228	255.27
460.686	239.17
461.144	247.47
461.602	244.57
462.06	246.57
462.518	257.97
462.976	255.27
463.434	263.57
463.892	266.47
464.35	279.77
464.808	286.27
465.266	265.67
465.724	274.17
466.181	279.97
466.639	273.47
467.097	292.67
467.555	301.87
468.012	308.37
468.47	321.47
468.928	330.37
469.385	349.17
469.843	356.17
470.3	355.88
470.758	372.07
471.215	391.97
471.673	408.47
472.13	412.37
472.588	421.07
473.045	373.77
473.503	379.38
473.96	397.17
474.417	401.07
474.875	434.37
475.332	481.67
475.789	473.97
476.246	472.97
476.704	484.67
477.161	526.57
477.618	526.87
478.075	569.27
478.532	632.47
478.989	701.67
479.446	819.77
479.903	788.07
480.36	815.37
480.817	864.47
481.274	981.97
481.731	1082.67
482.188	1177.88
482.645	1317.17
483.102	1437.77
483.558	1579.87
484.015	1626.87
484.472	1602.17
484.929	1550.47
485.385	1500.07
485.842	1458.18
486.299	1392.17
486.755	1327.77
487.212	1111.87
487.668	938.47
488.125	862.07
488.582	795.07
489.038	754.87
489.494	724.77
489.951	704.37
490.407	678.27
490.864	667.67
491.32	651.17
491.776	646.87
492.233	652.67
492.689	627.77
493.145	613.27
493.602	608.17
494.058	615.67
494.514	630.27
494.97	643.07
495.426	664.87
495.882	624.67
496.338	623.67
496.794	637.37
497.251	629.97
497.707	650.17
498.163	647.07
498.618	657.57
499.074	665.17
499.53	684.27
499.986	687.57
500.442	653.17
500.898	631.77
501.354	637.27
501.809	632.77
502.265	635.17
502.721	673.77
503.177	683.97
503.632	671.07
504.088	683.47
504.543	712.97
504.999	714.77
505.455	666.27
505.91	633.77
506.366	636.67
506.821	629.37
507.277	625.47
507.732	630.97
508.187	641.57
508.643	637.37
509.098	641.07
509.553	659.67
510.009	673.17
510.464	677.57
510.919	690.27
511.375	700.57
511.83	715.67
512.285	724.67
512.74	763.97
513.195	784.37
513.65	771.38
514.105	770.67
514.56	768.27
515.015	792.38
515.47	828.07
515.925	788.27
516.38	790.47
516.835	786.67
517.29	791.67
517.745	779.17
518.2	761.37
518.655	752.27
519.109	758.17
519.564	750.67
520.019	743.97
520.474	731.38
520.928	737.67
521.383	724.27
521.838	720.57
522.292	719.87
522.747	711.17
523.201	710.87
523.656	701.97
524.11	700.97
524.565	700.77
525.019	699.17
525.474	703.07
525.928	705.27
526.382	702.27
526.837	696.67
527.291	707.07
527.745	701.17
528.2	709.57
528.654	696.97
529.108	696.47
529.562	687.07
530.016	696.97
530.47	699.47
530.925	695.57
531.379	698.67
531.833	705.47
532.287	696.17
532.741	701.57
533.195	708.57
533.649	704.77
534.103	724.67
534.556	717.27
535.01	723.17
535.464	711.27
535.918	728.57
536.372	727.37
536.826	717.07
537.279	712.77
537.733	716.87
538.187	715.77
538.64	703.77
539.094	732.57
539.548	735.97
540.001	730.07
540.455	727.97
540.908	733.67
541.362	741.27
541.815	746.07
542.269	761.27
542.722	758.97
543.175	754.77
543.629	774.57
544.082	784.47
544.536	784.47
544.989	779.07
545.442	794.87
545.895	789.97
546.349	790.67
546.802	785.37
547.255	790.97
547.708	810.77
548.161	811.57
548.614	816.47
549.067	831.77
549.52	835.07
549.973	812.67
550.426	802.87
550.879	797.67
551.332	802.07
551.785	808.07
552.238	798.77
552.691	822.38
553.144	832.07
553.596	851.77
554.049	861.67
554.502	892.07
554.955	917.07
555.407	912.17
555.86	896.17
556.313	887.07
556.765	881.77
557.218	874.47
557.67	886.47
558.123	880.47
558.576	866.27
559.028	881.38
559.48	887.97
559.933	879.57
560.385	838.07
560.838	820.07
561.29	783.27
561.742	786.38
562.195	760.87
562.647	746.27
563.099	768.87
563.551	767.17
564.004	781.07
564.456	769.97
564.908	760.57
565.36	739.07
565.812	727.17
566.264	728.17
566.716	721.27
567.168	712.47
567.62	716.07
568.072	701.97
568.524	693.97
568.976	682.87
569.428	669.67
569.88	673.57
570.332	682.97
570.784	675.37
571.235	676.37
571.687	694.67
572.139	702.47
572.59	714.47
573.042	705.37
573.494	700.57
573.945	700.77
574.397	673.57
574.849	682.37
575.3	683.77
575.752	664.37
576.203	669.67
576.655	681.17
577.106	665.97
577.557	663.67
578.009	669.88
578.46	662.57
578.912	661.47
579.363	663.67
579.814	659.87
580.265	649.37
580.717	661.47
581.168	658.07
581.619	667.17
582.07	680.07
582.521	659.77
582.972	663.27
583.423	672.17
583.875	681.47
584.326	691.57
584.777	742.87
585.227	808.77
585.678	900.77
586.129	992.17
586.58	1074.38
587.031	1147.57
587.482	1290.27
587.933	1487.38
588.384	1287.37
588.834	964.47
589.285	790.87
589.736	774.47
590.186	764.87
590.637	754.57
591.088	738.47
591.538	731.37
591.989	729.97
592.439	713.97
592.89	711.27
593.34	699.17
593.791	695.97
594.241	690.17
594.692	702.97
595.142	688.77
595.593	690.57
596.043	696.17
596.493	703.57
596.943	701.38
597.394	702.17
597.844	704.07
598.294	715.88
598.744	732.27
599.195	760.67
599.645	803.37
600.095	836.67
600.545	900.17
600.995	942.07
601.445	998.37
601.895	1061.47
602.345	1108.47
602.795	1098.97
603.245	1047.07
603.695	991.27
604.145	946.47
604.594	900.17
605.044	838.57
605.494	786.27
605.944	741.97
606.393	729.07
606.843	711.47
607.293	718.07
607.743	716.17
608.192	722.37
608.642	748.97
609.091	753.77
609.541	761.27
609.99	755.07
610.44	748.47
610.889	704.27
611.339	685.57
611.788	673.17
612.238	688.47
612.687	698.17
613.136	701.67
613.586	723.27
614.035	718.97
614.484	732.17
614.933	742.97
615.383	734.97
615.832	721.77
616.281	707.27
616.73	676.07
617.179	652.47
617.628	634.17
618.077	613.67
618.526	605.57
618.975	599.37
619.424	603.27
619.873	600.38
620.322	608.47
620.771	583.67
621.22	589.97
621.669	586.88
622.118	569.77
622.567	562.77
623.015	562.97
623.464	563.57
623.913	550.07
624.361	540.07
624.81	532.87
625.259	542.47
625.707	548.07
626.156	535.57
626.604	557.17
627.053	543.57
627.501	547.77
627.95	546.88
628.398	560.67
628.847	552.67
629.295	550.37
629.744	560.47
630.192	559.77
630.64	549.67
631.089	547.77
631.537	556.57
631.985	569.37
632.433	583.87
632.881	586.07
633.33	628.87
633.778	615.37
634.226	549.77
634.674	559.27
635.122	559.87
635.57	577.07
636.018	600.67
636.466	556.97
636.914	530.27
637.362	550.38
637.81	560.17
638.258	560.77
638.705	555.97
639.153	585.07
639.601	601.17
640.049	620.07
640.497	650.97
640.944	669.27
641.392	620.97
641.84	590.87
642.287	568.47
642.735	546.77
643.182	547.97
643.63	547.27
644.078	554.27
644.525	570.27
644.973	580.27
645.42	588.67
645.867	602.47
646.315	618.77
646.762	648.88
647.21	661.57
647.657	691.97
648.104	725.87
648.551	754.47
648.999	815.17
649.446	888.17
649.893	963.37
650.34	1122.87
650.787	1327.38
651.234	1672.87
651.682	2168.27
652.129	2967.47
652.576	4259.07
653.023	6331.57
653.47	8677.77
653.917	10920.37
654.363	12630.88
654.81	14106.48
655.257	13409.88
655.704	8745.57
656.151	5165.18
656.598	3350.18
657.044	2353.67
657.491	1812.17
657.938	1452.97
658.385	1208.07
658.831	1057.57
659.278	940.67
659.724	830.67
660.171	759.97
660.618	702.87
661.064	670.67
661.511	648.27
661.957	630.17
662.404	629.47
662.85	625.17
663.296	601.67
663.743	528.77
664.189	514.07
664.635	514.57
665.082	503.57
665.528	510.27
665.974	494.37
666.42	485.87
666.867	488.97
667.313	472.07
667.759	466.57
668.205	463.97
668.651	472.57
669.097	468.57
669.543	487.27
669.989	456.67
670.435	424.27
670.881	425.77
671.327	427.97
671.773	447.87
672.219	468.37
672.665	522.27
673.11	557.07
673.556	604.27
674.002	634.97
674.448	624.27
674.893	530.17
675.339	460.77
675.785	418.37
676.23	393.07
676.676	379.87
677.122	356.87
677.567	360.97
678.013	352.47
678.458	348.97
678.904	344.88
679.349	335.77
679.794	342.57
680.24	342.37
680.685	333.27
681.131	332.57
681.576	331.87
682.021	336.57
682.466	336.57
682.912	332.57
683.357	328.97
683.802	356.47
684.247	391.07
684.692	433.37
685.137	463.67
685.583	512.57
686.028	535.17
686.473	496.07
686.918	426.77
687.363	392.67
687.807	370.37
688.252	352.87
688.697	340.37
689.142	323.47
689.587	316.37
690.032	309.67
690.477	322.07
690.921	334.57
691.366	364.97
691.811	381.47
692.255	407.17
692.7	441.37
693.145	476.77
693.589	658.57
694.034	1055.17
694.478	1469.47
694.923	1647.97
695.367	2168.48
695.812	1142.47
696.256	472.07
696.701	351.07
697.145	328.87
697.59	319.27
698.034	305.17
698.478	314.67
698.922	311.47
699.367	313.37
699.811	321.27
700.255	333.67
700.699	359.17
701.143	407.17
701.588	447.77
702.032	489.17
702.476	486.88
702.92	462.47
703.364	462.27
703.808	595.17
704.252	964.37
704.696	1368.67
705.14	1588.68
705.584	2039.57
706.027	1012.97
706.471	494.67
706.915	382.97
707.359	331.47
707.803	306.17
708.246	293.38
708.69	298.27
709.134	297.97
709.577	293.67
710.021	299.97
710.465	295.77
710.908	293.17
711.352	288.97
711.795	293.17
712.239	333.57
712.682	360.07
713.126	403.87
713.569	440.67
714.012	358.97
714.456	312.47
714.899	285.67
715.342	269.07
715.786	246.07
716.229	243.87
716.672	237.87
717.115	237.57
717.558	237.07
718.002	238.07
718.445	246.57
718.888	270.77
719.331	271.38
719.774	290.37
720.217	290.47
720.66	277.67
721.103	250.07
721.546	246.07
721.989	238.57
722.432	215.57
722.874	225.57
723.317	224.07
723.76	220.87
724.203	244.47
724.645	292.17
725.088	417.07
725.531	537.27
725.974	612.37
726.416	511.97
726.859	290.97
727.301	240.17
727.744	223.77
728.187	226.88
728.629	224.77
729.071	232.27
729.514	242.17
729.956	258.97
730.399	271.17
730.841	273.17
731.283	265.57
731.726	248.38
732.168	246.87
732.61	255.67
733.053	271.57
733.495	292.27
733.937	334.27
734.379	373.17
734.821	406.97
735.263	501.37
735.705	772.57
736.148	1455.87
736.59	2426.07
737.032	2918.17
737.474	2368.17
737.916	762.07
738.357	409.17
738.799	303.37
739.241	285.07
739.683	270.37
740.125	278.07
740.567	283.07
741.008	297.67
741.45	298.17
741.892	290.37
742.334	321.17
742.775	338.57
743.217	321.17
743.658	249.57
744.1	241.27
744.542	244.47
744.983	295.97
745.425	327.47
745.866	330.57
746.307	269.47
746.749	271.07
747.19	300.67
747.632	421.77
748.073	808.17
748.514	1725.57
748.956	2680.78
749.397	3355.08
749.838	2781.38
750.279	2817.58
750.72	1426.57
751.162	521.27
751.603	303.67
752.044	245.67
752.485	203.17
752.926	197.37
753.367	194.97
753.808	186.37
754.249	175.97
754.69	176.37
755.131	177.57
755.572	172.37
756.013	173.17
756.453	176.67
756.894	178.77
757.335	176.77
757.776	185.37
758.216	190.27
758.657	187.57
759.098	187.67
759.538	208.87
759.979	251.47
760.42	350.17
760.86	640.87
761.301	1670.47
761.741	4098.57
762.182	6145.88
762.622	4325.38
763.063	1237.27
763.503	504.07
763.943	328.87
764.384	330.07
764.824	383.97
765.264	416.47
765.705	296.97
766.145	198.87
766.585	177.67
767.025	166.07
767.465	179.37
767.906	227.57
768.346	306.67
768.786	327.97
769.226	250.07
769.666	302.27
770.106	566.27
770.546	1437.37
770.986	2493.57
771.426	2259.68
771.866	748.17
772.306	309.47
772.745	200.77
773.185	169.47
773.625	161.07
774.065	159.47
774.505	185.77
774.944	281.37
775.384	634.17
775.824	1168.67
776.263	1154.78
776.703	493.07
777.142	215.27
777.582	155.07
778.021	129.57
778.461	129.37
778.9	132.37
779.34	123.87
779.779	110.07
780.219	110.47
780.658	105.57
781.097	103.77
781.537	109.67
781.976	108.17
782.415	98.57
782.855	96.77
783.294	103.37
783.733	102.87
784.172	106.67
784.611	97.47
785.05	104.57
785.489	106.07
785.928	106.37
786.367	122.67
786.806	106.87
787.245	126.47
787.684	128.87
788.123	143.57
788.562	129.67
789.001	122.87
789.44	115.77
789.879	114.67
790.317	118.77
790.756	121.07
791.195	122.67
791.634	138.17
792.072	193.57
792.511	333.88
792.95	912.47
793.388	2010.68
793.827	1857.87
794.265	647.87
794.704	268.27
795.142	172.07
795.581	145.17
796.019	127.47
796.458	115.37
796.896	113.77
797.334	120.47
797.773	136.47
798.211	205.77
798.649	403.97
799.087	953.27
799.526	1497.27
799.964	1878.67
800.402	1922.27
800.84	717.67
801.278	284.87
801.716	176.97
802.154	145.67
802.592	140.37
803.03	132.67
803.468	121.17
803.906	133.97
804.344	139.47
804.782	132.87
805.22	126.07
805.658	117.37
806.096	139.87
806.533	144.57
806.971	155.77
807.409	200.37
807.847	289.07
808.284	616.77
808.722	1712.27
809.16	3106.98
809.597	2898.18
810.035	5088.18
810.472	5529.68
810.91	1980.27
811.347	747.38
811.785	386.27
812.222	243.27
812.66	182.97
813.097	154.37
813.535	133.67
813.972	121.67
814.409	112.47
814.846	102.07
815.284	104.47
815.721	94.47
816.158	98.97
816.595	109.37
817.032	178.37
817.47	188.17
817.907	165.37
818.344	140.07
818.781	109.77
819.218	91.97
819.655	112.47
820.092	183.37
820.529	202.27
820.966	165.27
821.403	127.67
821.839	106.07
822.276	102.17
822.713	118.77
823.15	132.77
823.587	110.97
824.023	131.27
824.46	276.67
824.897	827.97
825.333	1284.07
825.77	550.67
826.206	217.47
826.643	126.97
827.08	95.97
827.516	82.87
827.953	70.27
828.389	82.87
828.825	63.17
829.262	63.37
829.698	56.07
830.135	60.67
830.571	61.57
831.007	58.07
831.443	64.17
831.88	60.17
832.316	62.67
832.752	67.37
833.188	52.47
833.624	63.07
834.06	65.67
834.497	66.47
834.933	67.07
835.369	64.47
835.805	62.77
836.241	62.57
836.677	71.97
837.112	88.97
837.548	97.87
837.984	124.57
838.42	185.67
838.856	449.77
839.292	1404.67
839.727	2185.88
840.163	1011.27
840.599	846.37
841.034	1891.08
841.47	2046.28
841.906	729.97
842.341	309.07
842.777	223.27
843.212	303.97
843.648	297.17
844.083	145.67
844.519	92.67
844.954	69.47
845.39	59.67
845.825	52.37
846.261	56.37
846.696	54.17
847.131	52.27
847.566	57.17
848.002	49.97
848.437	50.37
848.872	58.57
849.307	57.77
849.742	70.17
850.177	161.77
850.613	511.67
851.048	837.77
851.483	364.77
851.918	146.77
852.353	79.17
852.788	60.37
853.223	50.17
853.657	49.17
854.092	44.87
854.527	39.97
854.962	48.77
855.397	42.27
855.832	41.87
856.266	40.37
856.701	39.07
857.136	37.77
857.57	43.97
858.005	45.37
858.44	56.17
858.874	41.47
859.309	50.47
859.743	37.97
860.178	42.17
860.612	42.97
861.047	49.67
861.481	57.57
861.915	66.37
862.35	51.37
862.784	29.97
863.218	33.77
863.653	30.87
864.087	48.27
864.521	47.37
864.955	64.97
865.39	145.07
865.824	171.17
866.258	106.47
866.692	151.57
867.126	173.37
867.56	97.97
867.994	47.47
868.428	39.77
868.862	45.07
869.296	55.77
869.73	57.87
870.164	54.57
870.598	45.37
871.031	29.97
871.465	27.77
871.899	29.87
872.333	24.77
872.766	26.47
873.2	19.17
873.634	36.77
874.067	25.87
874.501	29.07
874.935	31.57
875.368	32.67
875.802	25.77
876.235	19.17
876.669	24.27
877.102	20.87
877.535	27.17
877.969	20.27
878.402	21.57
878.836	23.67
879.269	20.97
879.702	24.37
880.135	22.17
880.569	21.97
881.002	25.87
881.435	21.67
881.868	18.67
882.301	27.07
882.734	20.47
883.167	27.67
883.601	19.77
884.034	17.67
884.467	18.07
884.899	20.77
885.332	20.97
885.765	13.07
886.198	14.77
886.631	9.27
887.064	16.77
887.497	20.97
887.929	23.97
888.362	14.47
888.795	8.27
889.228	13.27
889.66	20.77
890.093	17.57
890.526	11.47
890.958	19.57
891.391	13.67
891.823	16.77
892.256	17.27
892.688	12.67
893.121	13.77
893.553	16.77
893.985	19.57
894.418	15.87
894.85	14.67
895.282	14.47
895.715	16.57
896.147	15.77
896.579	15.27
897.011	15.97
897.444	18.67
897.876	11.37
898.308	21.87
898.74	13.77
899.172	9.77
899.604	21.47
900.036	21.57
900.468	17.77
900.9	16.37
901.332	16.67
901.764	15.27
902.196	15.77
902.628	17.67
903.06	20.17
903.491	24.97
903.923	17.27
904.355	22.77
904.787	26.67
905.218	19.07
905.65	19.27
906.082	5.47
906.513	10.87
906.945	17.17
907.376	15.57
907.808	20.47
908.239	18.97
908.671	16.07
909.102	21.67
909.534	25.47
909.965	42.57
910.397	92.27
910.828	287.87
911.259	452.97
911.691	204.17
912.122	109.27
912.553	53.47
912.984	33.67
913.415	29.47
913.847	24.67
914.278	23.07
914.709	14.67
915.14	17.97
915.571	17.37
916.002	12.57
916.433	22.37
916.864	17.27
917.295	8.67
917.726	20.67
918.157	18.77
918.587	28.27
919.018	20.07
919.449	21.17
919.88	20.37
920.311	22.07
920.741	41.97
921.172	155.77
921.603	144.07
922.033	74.17
922.464	45.37
922.895	23.87
923.325	21.47
923.756	19.17
924.186	10.87
924.617	23.27
925.047	40.37
925.478	52.87
925.908	42.37
926.338	22.07
926.769	17.67
927.199	18.87
927.629	5.97
928.06	14.17
928.49	14.17
928.92	13.97
929.35	9.87
929.78	11.17
930.21	11.97
930.641	6.07
931.071	7.37
931.501	10.97
931.931	9.87
932.361	4.77
932.791	4.27
933.221	1.27
933.651	-1.03
934.08	15.87
934.51	34.57
934.94	5.37
935.37	9.37
935.8	8.07
936.229	8.17
936.659	10.87
937.089	4.97
937.519	14.37
937.948	18.37
938.378	18.07
938.807	9.17
939.237	10.07
939.666	7.37
940.096	-4.63
940.525	-4.83
940.955	3.37
941.384	8.67
941.814	-3.13
942.243	1.67
942.672	1.97
943.102	-2.83
943.531	-2.33
943.96	6.07
944.39	4.37
944.819	-2.43
945.248	1.67
945.677	4.47
946.106	3.87
946.535	7.57
946.964	4.17
947.393	2.57
947.822	-1.43
948.251	1.37
948.68	3.17
949.109	4.97
949.538	3.07
949.967	2.67
950.396	-3.23
950.825	-3.43
951.254	1.07
951.682	-2.03
952.111	1.47
952.54	9.27
952.969	-2.33
953.397	-6.43
953.826	1.77
954.254	-2.03
954.683	1.87
955.112	-5.03
955.54	3.67
955.969	-2.43
956.397	5.07
956.826	3.97
957.254	4.87
957.682	4.97
958.111	4.97
958.539	-3.03
958.967	-0.73
959.396	4.77
959.824	6.07
960.252	5.07
960.68	-3.13
961.109	-2.53
961.537	-0.13
961.965	-1.03
962.393	-0.53
962.821	-6.43
963.249	0.77
963.677	14.57
964.105	6.07
964.533	40.47
964.961	40.27
965.389	25.17
965.817	13.17
966.245	2.57
966.672	-0.53
967.1	-3.23
967.528	0.47
967.956	-0.13
968.383	2.87
968.811	1.37
969.239	1.87
969.666	-3.13
970.094	-1.23
970.522	0.17
970.949	-2.53
971.377	-7.73
971.804	1.37
972.232	-0.93
972.659	-2.53
973.087	-5.03
973.514	-1.43
973.941	-4.33
974.369	3.97
974.796	6.27
975.223	1.27
975.651	-0.93
976.078	4.27
976.505	-0.93
976.932	6.77
977.359	11.87
977.786	18.37
978.214	4.37
978.641	-1.23
979.068	-4.13
979.495	-0.33
979.922	6.17
980.349	-2.83
980.776	2.07
981.202	-4.23
981.629	-0.63
982.056	3.97
982.483	-0.33
982.91	-2.53
983.337	-8.13
983.763	3.07
984.19	-6.23
984.617	-4.53
985.043	-0.33
985.47	-2.53
985.897	-1.83
986.323	-4.33
986.75	3.77
987.176	1.27
987.603	1.67
988.029	4.57
988.456	-7.03
988.882	2.97
989.308	-10.43
989.735	-6.03
990.161	9.37
990.587	-7.23
991.014	-1.53
991.44	11.77
991.866	-0.93
992.292	-3.93
992.719	-4.73
993.145	4.57
993.571	-10.53
993.997	-0.93
994.423	-4.33
994.849	-3.73
995.275	5.37
995.701	1.57
996.127	-3.43
996.553	2.47
996.979	1.17
997.405	0.37
997.83	-1.23
998.256	-6.33
998.682	-5.13
999.108	-9.93
999.534	-2.63
999.959	-2.93
1000.385	-0.13
1000.811	4.77
1001.236	-12.23
1001.662	-3.03
1002.087	-7.03
1002.513	0.07
1002.938	-2.83
1003.364	1.67
1003.789	3.87
1004.215	2.87
1004.64	0.27
1005.066	4.97
1005.491	3.37
1005.916	-1.63
1006.342	2.07
1006.767	-5.83
1007.192	3.37
1007.617	-2.33
1008.042	-5.43
1008.468	-6.03
1008.893	-9.13
1009.318	-2.83
1009.743	-6.13
1010.168	6.37
1010.593	1.57
1011.018	-8.83
1011.443	-1.73
1011.868	4.97
1012.293	-3.63
1012.718	-9.03
1013.143	4.77
1013.567	4.57
1013.992	-1.03
1014.417	-10.63
1014.842	-1.83
1015.267	-6.53
1015.691	0.17
1016.116	8.27
1016.541	5.97
1016.965	3.17
1017.39	-0.33
1017.814	2.17
1018.239	2.57
1018.663	-7.73
1019.088	-10.53
1019.512	-3.93
1019.937	-0.33
1020.361	-4.73
1020.785	-6.83
1021.21	2.27
1021.634	-4.03
1022.058	-1.73
1022.483	5.27
1022.907	-1.83
1023.331	3.07
1023.755	-0.13
1024.179	-8.13
1024.604	-7.83
1025.028	-8.53
1025.452	-5.53
1025.876	1.47
1026.3	3.47
1026.724	-11.23
1027.148	-0.93
1027.572	-7.83
1027.996	-4.33
1028.42	-2.13
1028.843	-3.13
1029.267	-2.13
1029.691	0.27
1030.115	-4.73
1030.539	-8.73
1030.962	-4.03
1031.386	-6.43
1031.81	-1.33
1032.233	-2.83
1032.657	-1.03
1033.08	-3.83
1033.504	4.97
1033.927	3.87
1034.351	-2.23
1034.774	-2.13
1035.198	2.87
1035.621	-9.13
1036.045	-6.53
1036.468	-1.03
1036.891	-13.63
1037.315	-5.53
1037.738	-8.13
1038.161	-3.63
1038.584	-7.13
1039.008	-4.73
1039.431	-0.33
1039.854	-6.33
1040.277	-5.73
1040.7	-6.03
1041.123	-2.33
1041.546	-7.63
1041.969	-5.43
1042.392	-5.23
1042.815	-4.63
1043.238	-1.23
1043.661	2.77
1044.084	-6.03
1044.507	-7.13
1044.93	-6.73
1045.352	-6.93
1045.775	1.57
1046.198	-3.93
1046.621	-5.13
1047.043	-2.53
1047.466	9.67
1047.889	-2.03
1048.311	-2.73
1048.734	-2.83
1049.156	-2.93
1049.579	2.57
1050.001	-2.23
1050.424	1.47
1050.846	-6.43
1051.269	-5.83
1051.691	-5.53
1052.113	-4.03
1052.536	-4.63
1052.958	-5.73
1053.38	-6.93
1053.802	-7.93
1054.225	0.37
1054.647	-5.53
1055.069	-7.53
1055.491	8.77
1055.913	-4.73
1056.335	-1.13
1056.757	-6.43
1057.179	-8.33
1057.601	-7.33
1058.023	-6.83
1058.445	-4.53
1058.867	-1.73
1059.289	-0.23
1059.711	-6.83
1060.133	-1.53
1060.555	-7.03
1060.976	-3.33
1061.398	-3.83
1061.82	0.27
1062.241	-6.63
1062.663	-4.43
1063.085	-0.53
1063.506	-3.33
1063.928	-6.33
1064.35	3.77
1064.771	-10.23
1065.193	-0.33
1065.614	-6.63
1066.035	3.17
1066.457	-4.73
1066.878	-1.63
1067.3	-2.73
1067.721	-6.73
1068.142	-1.63
1068.564	-2.03
1068.985	-10.73
1069.406	-7.73
1069.827	-8.03
1070.248	-2.03
1070.67	-10.13
1071.091	-6.13
1071.512	-0.13
1071.933	-3.53
1072.354	-4.83
1072.775	-1.83
1073.196	-6.33
1073.617	-1.83
1074.038	-3.93
1074.459	-3.23
1074.88	-7.73
1075.3	-1.33
1075.721	-8.03
1076.142	-0.23
1076.563	-3.83
1076.983	-10.13
1077.404	-3.13
1077.825	-8.73
1078.246	-2.53
1078.666	-8.03
1079.087	-0.43
1079.507	-5.43
1079.928	4.07
1080.348	0.27
1080.769	-4.73
1081.189	-0.33
1081.61	-8.83
1082.03	-3.33
1082.451	-8.53
1082.871	-6.13
1083.291	-3.53
1083.711	-9.43
1084.132	-4.43
1084.552	-5.53
1084.972	-4.63
1085.392	-3.73
1085.813	-6.93
1086.233	-6.83
1086.653	-3.73
1087.073	-3.13
1087.493	-6.73
1087.913	-5.33
1088.333	-8.03
1088.753	-1.73
1089.173	2.27
1089.593	3.07
1090.013	-0.53
1090.433	1.37
1090.852	-6.73
1091.272	-0.63
1091.692	-1.33
1092.112	2.37
1092.531	-8.63
1092.951	-14.63
1093.371	-4.23
1093.79	0.07
1094.21	-6.83
1094.63	-6.93
1095.049	-5.53
1095.469	-0.73
1095.888	-3.73
1096.308	0.87
1096.727	6.87
1097.146	-3.13
1097.566	0.87
1097.985	-9.13
1098.405	4.97
1098.824	-6.13
1099.243	-8.83
1099.662	-7.03
1100.082	2.67
1100.501	-0.83
1100.92	-7.13
1101.339	-4.43
1101.758	-7.33
