Data from 20171114-ORNL-Ar_H_NY_Subt18_08-06-01-080.txt Node
Date: Tue Nov 14 08:06:01 EST 2017
User: Ender
Spectrometer: HR+D1039
Trigger mode: 0
Integration Time (sec): 2.730000E-2
Scans to average: 10
Electric dark correction enabled: true
Nonlinearity correction enabled: false
Boxcar width: 0
XAxis mode: Wavelengths
Number of Pixels in Spectrum: 2048
>>>>>Begin Spectral Data<<<<<
187.836	-7.59
188.309	-7.59
188.782	-7.59
189.255	2.31
189.728	-2.49
190.201	1.31
190.674	5.21
191.147	1.31
191.619	-6.69
192.092	3.11
192.565	3.71
193.038	0.61
193.511	-4.39
193.984	3.31
194.456	-1.39
194.929	3.21
195.402	-1.09
195.874	-0.39
196.347	-1.79
196.82	-7.99
197.292	7.21
197.765	-2.99
198.237	-3.99
198.71	2.01
199.182	4.51
199.655	6.91
200.127	4.51
200.6	-3.29
201.072	-4.29
201.544	-3.79
202.017	-4.89
202.489	-4.39
202.961	0.21
203.433	-3.09
203.906	-7.39
204.378	-6.19
204.85	-8.79
205.322	-5.89
205.794	-5.89
206.266	-3.29
206.739	-7.49
207.211	4.11
207.683	-2.29
208.155	-3.39
208.627	-7.79
209.099	-0.59
209.57	-4.99
210.042	-8.69
210.514	-6.09
210.986	2.81
211.458	-9.89
211.93	-0.79
212.402	-5.59
212.873	-4.69
213.345	-10.89
213.817	-8.19
214.288	-3.59
214.76	-14.69
215.232	-3.89
215.703	-1.09
216.175	-1.89
216.646	-7.89
217.118	-10.89
217.589	-7.49
218.061	-1.29
218.532	-5.79
219.004	-5.49
219.475	-4.39
219.946	-2.79
220.418	-0.89
220.889	2.91
221.36	0.81
221.832	-0.89
222.303	-9.49
222.774	1.71
223.245	-9.39
223.717	-6.69
224.188	-2.39
224.659	-6.09
225.13	-7.29
225.601	-4.49
226.072	2.71
226.543	4.61
227.014	-2.59
227.485	-3.69
227.956	-11.49
228.427	-3.09
228.898	-3.09
229.369	3.11
229.839	-6.99
230.31	-4.99
230.781	0.21
231.252	-5.59
231.722	-6.49
232.193	-3.49
232.664	-0.59
233.135	4.71
233.605	2.71
234.076	-2.19
234.546	4.01
235.017	4.21
235.487	3.01
235.958	2.61
236.428	-6.29
236.899	1.81
237.369	2.41
237.84	-3.69
238.31	10.51
238.78	2.91
239.251	2.81
239.721	-1.59
240.191	0.81
240.662	-5.99
241.132	-2.99
241.602	-7.29
242.072	0.71
242.542	7.91
243.013	-1.29
243.483	9.21
243.953	1.41
244.423	-2.89
244.893	1.51
245.363	5.71
245.833	-0.29
246.303	-2.49
246.773	9.91
247.243	4.61
247.712	3.81
248.182	8.91
248.652	13.01
249.122	-2.09
249.592	7.81
250.061	24.11
250.531	34.31
251.001	21.31
251.471	18.81
251.94	15.71
252.41	10.41
252.879	1.81
253.349	7.21
253.818	10.21
254.288	7.41
254.757	2.41
255.227	5.11
255.696	1.41
256.166	7.11
256.635	0.11
257.105	8.81
257.574	5.01
258.043	8.81
258.513	7.11
258.982	15.81
259.451	7.71
259.92	14.31
260.389	13.01
260.859	20.41
261.328	13.71
261.797	18.01
262.266	10.61
262.735	14.71
263.204	3.41
263.673	2.61
264.142	4.21
264.611	2.91
265.08	0.21
265.549	-1.49
266.018	5.01
266.487	-1.19
266.955	1.31
267.424	-4.39
267.893	5.41
268.362	7.21
268.83	4.11
269.299	7.81
269.768	7.71
270.236	8.41
270.705	6.11
271.174	6.71
271.642	11.51
272.111	8.51
272.579	16.21
273.048	19.91
273.516	26.11
273.985	29.71
274.453	27.41
274.922	21.91
275.39	8.61
275.858	2.01
276.327	15.11
276.795	21.51
277.263	12.81
277.731	31.01
278.2	55.21
278.668	57.81
279.136	53.81
279.604	19.01
280.072	22.71
280.54	16.31
281.008	9.61
281.477	21.71
281.945	13.81
282.413	14.41
282.881	11.61
283.348	9.81
283.816	17.01
284.284	18.41
284.752	21.11
285.22	18.81
285.688	14.21
286.156	14.61
286.623	46.51
287.091	57.81
287.559	31.91
288.026	20.41
288.494	17.51
288.962	8.21
289.429	11.41
289.897	14.71
290.364	19.41
290.832	25.81
291.3	19.21
291.767	26.01
292.234	22.71
292.702	14.91
293.169	22.21
293.637	22.61
294.104	18.11
294.571	10.01
295.039	14.81
295.506	13.41
295.973	18.81
296.44	18.21
296.908	26.61
297.375	11.81
297.842	19.21
298.309	19.01
298.776	14.31
299.243	19.91
299.71	13.61
300.177	21.21
300.644	21.81
301.111	21.41
301.578	24.11
302.045	18.41
302.512	22.91
302.979	27.91
303.446	27.41
303.913	23.51
304.379	11.31
304.846	21.21
305.313	23.61
305.78	21.51
306.246	24.21
306.713	26.71
307.18	25.61
307.646	27.81
308.113	29.81
308.579	30.71
309.046	26.41
309.512	28.51
309.979	22.11
310.445	31.01
310.912	27.91
311.378	35.51
311.845	34.51
312.311	30.91
312.777	37.61
313.244	32.61
313.71	41.11
314.176	30.01
314.642	33.91
315.109	37.61
315.575	32.61
316.041	36.61
316.507	30.21
316.973	36.61
317.439	30.91
317.905	42.81
318.371	40.91
318.837	34.11
319.303	31.41
319.769	34.61
320.235	41.81
320.701	36.41
321.167	40.61
321.633	39.61
322.099	41.11
322.564	43.61
323.03	41.81
323.496	39.51
323.962	41.71
324.427	42.01
324.893	45.71
325.359	41.61
325.824	38.31
326.29	37.21
326.755	38.31
327.221	44.01
327.686	46.81
328.152	46.21
328.617	42.51
329.083	50.91
329.548	52.71
330.014	52.41
330.479	43.51
330.944	50.01
331.41	40.31
331.875	46.31
332.34	49.31
332.805	49.81
333.271	47.71
333.736	42.61
334.201	52.31
334.666	56.81
335.131	55.61
335.596	57.71
336.061	54.01
336.526	49.41
336.991	47.91
337.456	52.21
337.921	45.31
338.386	46.61
338.851	42.31
339.316	47.51
339.781	45.21
340.246	54.51
340.711	50.21
341.175	50.61
341.64	45.01
342.105	50.81
342.569	56.71
343.034	62.11
343.499	58.71
343.963	53.11
344.428	62.71
344.893	67.01
345.357	68.41
345.822	67.61
346.286	70.11
346.751	74.31
347.215	70.41
347.679	78.41
348.144	99.71
348.608	85.21
349.073	74.21
349.537	76.61
350.001	77.21
350.465	93.81
350.93	83.31
351.394	83.01
351.858	77.91
352.322	91.61
352.786	82.71
353.25	105.31
353.715	115.31
354.179	106.71
354.643	126.31
355.107	125.31
355.571	112.01
356.035	106.41
356.498	126.21
356.962	124.31
357.426	139.51
357.89	123.41
358.354	90.31
358.818	92.11
359.281	76.41
359.745	84.91
360.209	84.61
360.673	78.81
361.136	83.11
361.6	86.81
362.064	87.41
362.527	85.81
362.991	98.71
363.454	78.71
363.918	81.71
364.381	80.91
364.845	84.41
365.308	85.01
365.772	85.61
366.235	89.51
366.698	80.81
367.162	85.01
367.625	90.51
368.088	92.11
368.552	92.31
369.015	89.51
369.478	93.31
369.941	109.11
370.404	101.31
370.867	111.91
371.331	111.11
371.794	118.81
372.257	115.31
372.72	119.31
373.183	111.31
373.646	102.31
374.109	105.01
374.572	107.71
375.035	111.71
375.497	115.71
375.96	106.41
376.423	108.91
376.886	114.51
377.349	111.71
377.811	104.31
378.274	101.71
378.737	109.81
379.199	114.61
379.662	116.61
380.125	122.51
380.587	122.91
381.05	120.41
381.512	128.81
381.975	138.21
382.437	139.01
382.9	124.61
383.362	133.21
383.825	146.61
384.287	153.81
384.75	143.31
385.212	138.41
385.674	142.11
386.136	139.81
386.599	132.51
387.061	127.41
387.523	136.41
387.985	135.71
388.447	147.21
388.91	148.51
389.372	164.41
389.834	157.81
390.296	153.51
390.758	164.41
391.22	171.81
391.682	218.01
392.144	305.61
392.606	234.11
393.068	170.91
393.529	165.71
393.991	161.11
394.453	150.51
394.915	159.91
395.377	195.91
395.838	216.41
396.3	158.61
396.762	146.01
397.224	131.11
397.685	137.91
398.147	135.91
398.608	132.21
399.07	132.61
399.531	135.21
399.993	150.31
400.454	156.61
400.916	152.11
401.377	150.01
401.839	157.01
402.3	156.81
402.762	168.31
403.223	185.91
403.684	174.41
404.145	162.41
404.607	168.01
405.068	181.21
405.529	180.41
405.99	188.11
406.451	186.11
406.913	179.31
407.374	163.21
407.835	170.01
408.296	174.21
408.757	178.41
409.218	191.31
409.679	190.41
410.14	184.01
410.601	183.11
411.062	192.81
411.522	199.01
411.983	196.61
412.444	182.11
412.905	191.51
413.366	187.51
413.826	193.21
414.287	218.11
414.748	266.41
415.208	254.91
415.669	223.11
416.13	212.61
416.59	211.81
417.051	217.61
417.511	233.11
417.972	238.21
418.432	249.11
418.893	295.21
419.353	258.51
419.814	213.01
420.274	195.91
420.734	189.41
421.195	210.41
421.655	203.81
422.115	201.61
422.576	199.81
423.036	203.31
423.496	209.91
423.956	227.71
424.416	232.91
424.876	267.41
425.336	260.51
425.797	265.21
426.257	266.31
426.717	249.31
427.177	245.21
427.637	226.51
428.097	245.81
428.556	245.61
429.016	276.51
429.476	267.71
429.936	287.41
430.396	289.71
430.856	304.01
431.315	330.71
431.775	359.21
432.235	393.71
432.694	367.01
433.154	372.31
433.614	403.01
434.073	349.21
434.533	292.11
434.993	288.21
435.452	290.11
435.912	306.01
436.371	295.91
436.83	292.31
437.29	277.11
437.749	253.01
438.209	253.61
438.668	278.61
439.127	298.11
439.587	273.61
440.046	253.21
440.505	267.61
440.964	282.41
441.424	335.21
441.883	327.01
442.342	266.71
442.801	230.71
443.26	232.51
443.719	234.11
444.178	226.01
444.637	211.61
445.096	230.01
445.555	231.61
446.014	238.01
446.473	234.21
446.932	238.11
447.391	233.61
447.849	231.21
448.308	220.41
448.767	234.61
449.226	241.31
449.685	240.41
450.143	254.81
450.602	242.41
451.061	227.51
451.519	242.81
451.978	242.81
452.436	249.81
452.895	252.41
453.353	257.61
453.812	249.41
454.27	246.41
454.729	243.41
455.187	250.11
455.646	255.21
456.104	255.11
456.562	269.71
457.021	275.71
457.479	264.61
457.937	284.31
458.395	268.01
458.854	252.31
459.312	258.31
459.77	284.01
460.228	261.01
460.686	252.31
461.144	252.71
461.602	252.91
462.06	250.11
462.518	253.81
462.976	267.81
463.434	263.41
463.892	267.61
464.35	283.91
464.808	296.21
465.266	270.81
465.724	279.81
466.181	280.61
466.639	273.61
467.097	293.71
467.555	313.61
468.012	308.91
468.47	317.91
468.928	336.61
469.385	352.31
469.843	357.71
470.3	360.21
470.758	373.81
471.215	398.61
471.673	418.11
472.13	420.01
472.588	433.41
473.045	388.11
473.503	383.81
473.96	402.21
474.417	417.41
474.875	445.31
475.332	485.61
475.789	472.11
476.246	485.81
476.704	504.01
477.161	524.91
477.618	543.21
478.075	577.51
478.532	630.11
478.989	698.91
479.446	835.01
479.903	795.51
480.36	837.91
480.817	890.41
481.274	1003.21
481.731	1102.41
482.188	1196.31
482.645	1331.81
483.102	1450.21
483.558	1594.71
484.015	1640.21
484.472	1613.11
484.929	1565.01
485.385	1508.71
485.842	1477.41
486.299	1417.31
486.755	1337.81
487.212	1134.71
487.668	949.11
488.125	871.41
488.582	807.41
489.038	768.61
489.494	726.41
489.951	694.41
490.407	695.81
490.864	669.01
491.32	656.91
491.776	658.81
492.233	657.41
492.689	634.41
493.145	619.41
493.602	616.41
494.058	629.81
494.514	632.71
494.97	657.41
495.426	665.01
495.882	635.81
496.338	634.01
496.794	643.11
497.251	639.31
497.707	658.91
498.163	657.31
498.618	666.51
499.074	671.11
499.53	699.21
499.986	690.91
500.442	674.71
500.898	640.31
501.354	633.61
501.809	652.61
502.265	660.21
502.721	677.41
503.177	687.81
503.632	681.21
504.088	697.71
504.543	724.11
504.999	726.81
505.455	678.31
505.91	657.41
506.366	647.91
506.821	648.51
507.277	653.41
507.732	646.91
508.187	637.81
508.643	649.21
509.098	659.01
509.553	665.21
510.009	683.11
510.464	688.71
510.919	703.11
511.375	708.31
511.83	732.31
512.285	740.51
512.74	784.61
513.195	798.21
513.65	785.51
514.105	787.41
514.56	789.81
515.015	799.61
515.47	818.61
515.925	808.81
516.38	809.41
516.835	807.41
517.29	812.11
517.745	797.31
518.2	782.21
518.655	765.11
519.109	760.51
519.564	752.71
520.019	748.01
520.474	735.71
520.928	732.71
521.383	736.51
521.838	734.01
522.292	726.41
522.747	717.11
523.201	710.91
523.656	714.61
524.11	711.11
524.565	701.01
525.019	713.21
525.474	715.01
525.928	711.81
526.382	710.61
526.837	706.91
527.291	723.41
527.745	708.21
528.2	708.71
528.654	706.01
529.108	705.21
529.562	705.91
530.016	703.31
530.47	708.21
530.925	706.81
531.379	712.41
531.833	725.81
532.287	725.51
532.741	722.81
533.195	723.21
533.649	723.61
534.103	741.91
534.556	719.01
535.01	726.31
535.464	722.81
535.918	725.51
536.372	730.21
536.826	722.51
537.279	716.41
537.733	728.91
538.187	726.91
538.64	727.71
539.094	729.81
539.548	752.01
540.001	731.21
540.455	741.61
540.908	744.91
541.362	753.71
541.815	758.31
542.269	769.31
542.722	773.81
543.175	779.81
543.629	790.31
544.082	794.01
544.536	805.61
544.989	797.81
545.442	799.11
545.895	788.21
546.349	796.21
546.802	807.31
547.255	807.01
547.708	816.91
548.161	826.11
548.614	821.01
549.067	848.61
549.52	835.21
549.973	821.51
550.426	818.91
550.879	810.11
551.332	805.81
551.785	823.31
552.238	820.11
552.691	829.51
553.144	843.71
553.596	853.31
554.049	882.31
554.502	898.41
554.955	921.81
555.407	925.11
555.86	913.41
556.313	896.31
556.765	894.21
557.218	899.61
557.67	899.61
558.123	889.51
558.576	882.11
559.028	887.01
559.48	896.11
559.933	885.81
560.385	858.81
560.838	816.31
561.29	793.11
561.742	791.51
562.195	778.21
562.647	779.71
563.099	777.01
563.551	772.31
564.004	792.21
564.456	773.61
564.908	776.61
565.36	758.81
565.812	752.61
566.264	737.01
566.716	733.71
567.168	719.71
567.62	730.31
568.072	716.01
568.524	716.51
568.976	700.31
569.428	687.91
569.88	687.81
570.332	686.71
570.784	691.01
571.235	693.41
571.687	698.71
572.139	709.11
572.59	721.11
573.042	720.21
573.494	719.81
573.945	717.91
574.397	693.81
574.849	697.61
575.3	701.41
575.752	692.91
576.203	684.61
576.655	691.01
577.106	680.21
577.557	667.71
578.009	681.71
578.46	676.21
578.912	668.61
579.363	681.31
579.814	680.31
580.265	674.21
580.717	670.31
581.168	681.31
581.619	680.51
582.07	685.61
582.521	682.51
582.972	672.51
583.423	690.11
583.875	691.11
584.326	720.51
584.777	746.01
585.227	829.31
585.678	916.41
586.129	1010.01
586.58	1087.41
587.031	1166.21
587.482	1331.21
587.933	1504.31
588.384	1299.21
588.834	973.81
589.285	824.21
589.736	782.21
590.186	777.21
590.637	770.91
591.088	752.21
591.538	738.51
591.989	733.11
592.439	727.91
592.89	723.31
593.34	712.81
593.791	709.71
594.241	707.21
594.692	710.51
595.142	706.31
595.593	702.91
596.043	714.11
596.493	723.21
596.943	717.11
597.394	729.21
597.844	720.21
598.294	732.91
598.744	756.01
599.195	784.01
599.645	813.61
600.095	854.01
600.545	919.31
600.995	971.31
601.445	1029.21
601.895	1096.71
602.345	1136.71
602.795	1113.81
603.245	1063.61
603.695	1023.31
604.145	964.91
604.594	919.01
605.044	857.21
605.494	803.91
605.944	747.21
606.393	748.51
606.843	721.61
607.293	737.71
607.743	727.91
608.192	757.01
608.642	763.71
609.091	777.01
609.541	772.01
609.99	772.51
610.44	772.21
610.889	725.51
611.339	700.21
611.788	689.41
612.238	713.91
612.687	726.11
613.136	721.21
613.586	739.71
614.035	740.01
614.484	749.71
614.933	760.91
615.383	753.31
615.832	742.81
616.281	726.51
616.73	688.81
617.179	673.21
617.628	648.31
618.077	631.71
618.526	621.21
618.975	624.61
619.424	617.31
619.873	612.31
620.322	620.51
620.771	612.01
621.22	606.01
621.669	596.11
622.118	588.11
622.567	586.21
623.015	570.01
623.464	576.51
623.913	553.21
624.361	551.11
624.81	553.01
625.259	559.81
625.707	558.51
626.156	558.81
626.604	567.51
627.053	562.21
627.501	564.41
627.95	558.71
628.398	583.21
628.847	569.21
629.295	570.01
629.744	567.31
630.192	569.71
630.64	554.81
631.089	563.11
631.537	576.61
631.985	583.31
632.433	600.11
632.881	606.31
633.33	658.21
633.778	642.81
634.226	561.61
634.674	564.31
635.122	579.51
635.57	600.21
636.018	623.31
636.466	592.31
636.914	549.61
637.362	571.71
637.81	565.71
638.258	578.41
638.705	578.91
639.153	605.21
639.601	623.01
640.049	634.51
640.497	673.31
640.944	684.41
641.392	632.51
641.84	615.41
642.287	583.81
642.735	566.41
643.182	567.91
643.63	575.51
644.078	575.81
644.525	597.01
644.973	590.81
645.42	605.91
645.867	621.41
646.315	637.21
646.762	655.91
647.21	693.91
647.657	711.41
648.104	757.41
648.551	774.41
648.999	841.51
649.446	905.21
649.893	998.01
650.34	1155.01
650.787	1384.71
651.234	1713.31
651.682	2237.81
652.129	3084.51
652.576	4454.01
653.023	6535.31
653.47	8983.41
653.917	11250.81
654.363	12999.81
654.81	14404.41
655.257	13684.01
655.704	8992.01
656.151	5299.21
656.598	3441.01
657.044	2431.41
657.491	1864.31
657.938	1480.41
658.385	1246.61
658.831	1093.51
659.278	958.71
659.724	855.81
660.171	783.81
660.618	720.11
661.064	682.61
661.511	671.41
661.957	655.81
662.404	644.91
662.85	654.41
663.296	610.31
663.743	556.51
664.189	539.51
664.635	529.21
665.082	519.51
665.528	515.41
665.974	512.81
666.42	516.91
666.867	507.21
667.313	490.31
667.759	473.71
668.205	479.91
668.651	480.31
669.097	481.31
669.543	497.21
669.989	473.41
670.435	450.71
670.881	436.81
671.327	444.61
671.773	455.71
672.219	478.01
672.665	535.31
673.11	577.51
673.556	622.51
674.002	661.81
674.448	661.31
674.893	538.71
675.339	470.51
675.785	431.51
676.23	411.51
676.676	394.01
677.122	381.11
677.567	368.71
678.013	359.71
678.458	358.71
678.904	352.61
679.349	343.21
679.794	346.11
680.24	342.91
680.685	349.11
681.131	343.81
681.576	339.91
682.021	348.31
682.466	344.21
682.912	338.21
683.357	350.01
683.802	368.61
684.247	401.41
684.692	445.11
685.137	495.21
685.583	530.91
686.028	559.41
686.473	511.51
686.918	436.51
687.363	404.41
687.807	389.61
688.252	360.61
688.697	352.11
689.142	329.21
689.587	331.31
690.032	323.31
690.477	339.51
690.921	345.11
691.366	377.91
691.811	401.21
692.255	423.31
692.7	450.61
693.145	482.91
693.589	684.81
694.034	1090.21
694.478	1492.81
694.923	1700.31
695.367	2226.11
695.812	1174.11
696.256	489.91
696.701	370.51
697.145	340.21
697.59	325.31
698.034	316.61
698.478	315.51
698.922	316.21
699.367	321.71
699.811	335.61
700.255	348.91
700.699	382.21
701.143	412.71
701.588	465.61
702.032	506.71
702.476	510.01
702.92	482.91
703.364	482.11
703.808	619.81
704.252	1004.21
704.696	1401.51
705.14	1635.21
705.584	2107.51
706.027	1031.41
706.471	512.11
706.915	392.71
707.359	354.01
707.803	316.91
708.246	298.91
708.69	303.71
709.134	307.11
709.577	302.61
710.021	306.21
710.465	303.91
710.908	294.11
711.352	293.91
711.795	301.41
712.239	344.41
712.682	375.01
713.126	404.31
713.569	459.91
714.012	372.11
714.456	315.71
714.899	287.91
715.342	269.01
715.786	253.41
716.229	254.31
716.672	254.81
717.115	238.01
717.558	235.71
718.002	239.01
718.445	257.21
718.888	281.71
719.331	291.61
719.774	302.51
720.217	304.31
720.66	279.81
721.103	262.01
721.546	254.31
721.989	253.51
722.432	233.01
722.874	230.71
723.317	222.41
723.76	233.71
724.203	250.41
724.645	309.91
725.088	428.11
725.531	549.61
725.974	634.01
726.416	541.31
726.859	298.91
727.301	246.51
727.744	231.01
728.187	222.81
728.629	234.01
729.071	242.81
729.514	249.11
729.956	264.61
730.399	282.01
730.841	286.61
731.283	265.31
731.726	260.71
732.168	260.91
732.61	261.51
733.053	282.91
733.495	310.51
733.937	341.11
734.379	388.81
734.821	431.01
735.263	541.11
735.705	802.21
736.148	1517.01
736.59	2500.21
737.032	2993.21
737.474	2449.61
737.916	791.61
738.357	411.81
738.799	312.21
739.241	292.41
739.683	278.61
740.125	288.41
740.567	290.81
741.008	307.31
741.45	307.51
741.892	313.91
742.334	336.61
742.775	344.81
743.217	332.31
743.658	263.31
744.1	251.61
744.542	256.21
744.983	300.31
745.425	339.21
745.866	340.91
746.307	275.31
746.749	273.91
747.19	320.31
747.632	443.81
748.073	844.51
748.514	1803.01
748.956	2791.21
749.397	3478.61
749.838	2886.61
750.279	2921.01
750.72	1461.01
751.162	533.21
751.603	310.31
752.044	251.41
752.485	216.01
752.926	205.91
753.367	200.81
753.808	192.91
754.249	187.21
754.69	178.71
755.131	182.31
755.572	176.21
756.013	170.11
756.453	177.71
756.894	186.31
757.335	192.21
757.776	185.81
758.216	193.81
758.657	184.01
759.098	203.11
759.538	218.21
759.979	250.11
760.42	357.11
760.86	676.81
761.301	1747.41
761.741	4282.21
762.182	6321.91
762.622	4457.41
763.063	1287.41
763.503	529.21
763.943	340.41
764.384	328.01
764.824	397.81
765.264	423.21
765.705	299.11
766.145	206.71
766.585	180.11
767.025	177.51
767.465	178.91
767.906	237.71
768.346	308.31
768.786	342.51
769.226	252.91
769.666	306.51
770.106	597.51
770.546	1506.51
770.986	2584.41
771.426	2327.21
771.866	771.81
772.306	320.51
772.745	208.51
773.185	174.31
773.625	174.61
774.065	165.91
774.505	190.81
774.944	305.21
775.384	651.41
775.824	1200.41
776.263	1183.01
776.703	495.11
777.142	210.81
777.582	160.41
778.021	130.51
778.461	137.21
778.9	136.81
779.34	129.71
779.779	115.31
780.219	108.61
780.658	107.31
781.097	109.21
781.537	113.31
781.976	109.61
782.415	105.51
782.855	101.71
783.294	103.61
783.733	104.31
784.172	101.61
784.611	97.11
785.05	103.91
785.489	107.01
785.928	120.01
786.367	116.71
786.806	111.21
787.245	123.41
787.684	138.41
788.123	140.21
788.562	130.71
789.001	127.31
789.44	118.01
789.879	118.01
790.317	118.91
790.756	135.81
791.195	127.21
791.634	136.81
792.072	198.71
792.511	349.71
792.95	964.11
793.388	2085.61
793.827	1908.41
794.265	664.91
794.704	269.91
795.142	180.51
795.581	151.31
796.019	129.11
796.458	130.01
796.896	123.81
797.334	126.41
797.773	155.11
798.211	211.11
798.649	421.11
799.087	983.61
799.526	1550.51
799.964	1942.21
800.402	1977.71
800.84	738.51
801.278	288.31
801.716	182.41
802.154	142.11
802.592	144.01
803.03	141.51
803.468	129.01
803.906	135.71
804.344	148.71
804.782	133.41
805.22	125.41
805.658	130.51
806.096	141.81
806.533	149.01
806.971	170.41
807.409	208.31
807.847	303.51
808.284	632.61
808.722	1784.31
809.16	3206.41
809.597	3020.41
810.035	5232.81
810.472	5697.51
810.91	2032.81
811.347	769.71
811.785	397.11
812.222	259.21
812.66	191.71
813.097	157.41
813.535	137.71
813.972	123.01
814.409	109.41
814.846	107.01
815.284	107.81
815.721	102.21
816.158	105.41
816.595	113.11
817.032	174.81
817.47	193.31
817.907	175.01
818.344	145.51
818.781	111.31
819.218	99.71
819.655	117.81
820.092	182.11
820.529	202.41
820.966	174.11
821.403	124.21
821.839	108.51
822.276	102.41
822.713	124.61
823.15	128.11
823.587	109.91
824.023	136.01
824.46	290.41
824.897	860.91
825.333	1332.31
825.77	577.61
826.206	220.31
826.643	131.41
827.08	95.31
827.516	81.61
827.953	79.01
828.389	84.51
828.825	70.21
829.262	66.61
829.698	59.01
830.135	65.31
830.571	53.91
831.007	73.01
831.443	62.71
831.88	63.81
832.316	58.71
832.752	63.71
833.188	62.81
833.624	61.01
834.06	65.01
834.497	67.51
834.933	73.01
835.369	74.81
835.805	65.91
836.241	75.91
836.677	79.81
837.112	85.01
837.548	102.21
837.984	131.81
838.42	194.01
838.856	465.21
839.292	1450.81
839.727	2254.01
840.163	1034.91
840.599	888.11
841.034	1941.11
841.47	2065.71
841.906	758.81
842.341	320.61
842.777	223.91
843.212	310.91
843.648	315.61
844.083	154.71
844.519	96.81
844.954	72.01
845.39	61.21
845.825	59.81
846.261	57.51
846.696	56.31
847.131	51.91
847.566	61.01
848.002	47.41
848.437	55.11
848.872	60.21
849.307	62.01
849.742	77.81
850.177	172.71
850.613	526.71
851.048	856.31
851.483	374.01
851.918	146.81
852.353	87.21
852.788	58.01
853.223	55.71
853.657	46.21
854.092	42.71
854.527	42.51
854.962	38.41
855.397	42.01
855.832	48.01
856.266	45.41
856.701	39.01
857.136	32.71
857.57	35.11
858.005	45.01
858.44	57.91
858.874	48.91
859.309	52.61
859.743	43.01
860.178	50.21
860.612	38.51
861.047	47.61
861.481	68.51
861.915	71.41
862.35	46.61
862.784	33.91
863.218	34.61
863.653	30.41
864.087	44.81
864.521	53.61
864.955	66.21
865.39	147.21
865.824	170.41
866.258	109.61
866.692	164.51
867.126	167.01
867.56	102.21
867.994	52.41
868.428	37.61
868.862	45.21
869.296	51.71
869.73	57.91
870.164	48.11
870.598	47.81
871.031	37.61
871.465	33.81
871.899	30.31
872.333	26.61
872.766	26.51
873.2	21.91
873.634	30.71
874.067	26.01
874.501	29.71
874.935	31.91
875.368	26.01
875.802	29.41
876.235	26.91
876.669	25.91
877.102	20.31
877.535	31.71
877.969	23.11
878.402	27.41
878.836	18.51
879.269	27.81
879.702	21.61
880.135	17.91
880.569	21.71
881.002	24.91
881.435	19.71
881.868	14.71
882.301	26.01
882.734	19.31
883.167	26.81
883.601	13.31
884.034	22.21
884.467	18.11
884.899	19.61
885.332	14.61
885.765	14.01
886.198	13.01
886.631	14.81
887.064	20.81
887.497	21.51
887.929	21.51
888.362	9.91
888.795	13.41
889.228	20.71
889.66	21.61
890.093	20.61
890.526	13.71
890.958	15.91
891.391	15.31
891.823	24.21
892.256	15.61
892.688	11.51
893.121	16.81
893.553	15.21
893.985	24.91
894.418	18.71
894.85	16.31
895.282	14.61
895.715	17.11
896.147	19.51
896.579	14.51
897.011	13.41
897.444	13.01
897.876	9.61
898.308	13.61
898.74	18.11
899.172	15.31
899.604	21.11
900.036	17.21
900.468	10.51
900.9	13.21
901.332	14.91
901.764	14.41
902.196	19.11
902.628	22.61
903.06	19.01
903.491	34.21
903.923	27.31
904.355	13.41
904.787	22.91
905.218	26.01
905.65	22.31
906.082	9.01
906.513	11.21
906.945	11.61
907.376	13.61
907.808	18.71
908.239	23.71
908.671	20.01
909.102	23.21
909.534	27.41
909.965	45.81
910.397	93.01
910.828	304.31
911.259	463.41
911.691	211.91
912.122	108.11
912.553	53.81
912.984	31.51
913.415	28.11
913.847	26.21
914.278	17.31
914.709	14.71
915.14	17.21
915.571	14.31
916.002	7.01
916.433	15.01
916.864	12.01
917.295	12.71
917.726	22.11
918.157	20.01
918.587	26.41
919.018	21.91
919.449	18.61
919.88	22.51
920.311	29.11
920.741	50.71
921.172	162.71
921.603	150.91
922.033	70.71
922.464	43.61
922.895	22.61
923.325	23.51
923.756	18.51
924.186	16.51
924.617	22.11
925.047	47.11
925.478	58.21
925.908	42.91
926.338	25.71
926.769	17.61
927.199	19.81
927.629	9.01
928.06	15.81
928.49	13.31
928.92	18.81
929.35	13.21
929.78	8.91
930.21	3.01
930.641	11.31
931.071	11.71
931.501	4.91
931.931	6.11
932.361	12.21
932.791	0.01
933.221	3.51
933.651	2.41
934.08	16.41
934.51	31.81
934.94	8.31
935.37	12.71
935.8	14.81
936.229	4.81
936.659	3.51
937.089	3.11
937.519	18.11
937.948	19.41
938.378	17.31
938.807	2.81
939.237	2.11
939.666	7.71
940.096	-9.89
940.525	-0.79
940.955	-0.19
941.384	4.71
941.814	-3.99
942.243	1.01
942.672	5.91
943.102	-1.39
943.531	-1.99
943.96	2.71
944.39	1.01
944.819	2.01
945.248	6.01
945.677	10.11
946.106	9.91
946.535	6.41
946.964	1.51
947.393	4.01
947.822	1.81
948.251	-0.79
948.68	2.91
949.109	4.21
949.538	3.21
949.967	0.81
950.396	6.51
950.825	-0.39
951.254	2.51
951.682	-0.89
952.111	3.11
952.54	4.71
952.969	1.81
953.397	-5.19
953.826	2.61
954.254	-5.29
954.683	2.71
955.112	-0.89
955.54	-4.39
955.969	-0.39
956.397	-1.69
956.826	0.11
957.254	5.61
957.682	3.21
958.111	3.21
958.539	1.21
958.967	3.01
959.396	-3.29
959.824	3.71
960.252	-1.29
960.68	1.31
961.109	-2.49
961.537	-1.09
961.965	1.01
962.393	-2.29
962.821	-2.69
963.249	-0.09
963.677	4.01
964.105	6.51
964.533	41.51
964.961	42.11
965.389	19.71
965.817	8.21
966.245	-0.19
966.672	1.41
967.1	-1.09
967.528	-1.79
967.956	-2.49
968.383	1.51
968.811	0.81
969.239	1.61
969.666	-9.79
970.094	0.31
970.522	-0.09
970.949	-4.89
971.377	-2.09
971.804	-0.99
972.232	-0.29
972.659	-1.39
973.087	-3.59
973.514	-0.59
973.941	-3.59
974.369	3.21
974.796	4.11
975.223	-4.29
975.651	-6.49
976.078	5.11
976.505	4.61
976.932	12.21
977.359	15.11
977.786	16.61
978.214	-4.29
978.641	-1.99
979.068	2.11
979.495	-7.19
979.922	-2.29
980.349	-7.49
980.776	1.31
981.202	2.11
981.629	9.61
982.056	7.51
982.483	-2.49
982.91	2.31
983.337	-2.09
983.763	5.01
984.19	-6.49
984.617	-3.59
985.043	-6.89
985.47	3.41
985.897	-4.29
986.323	-5.89
986.75	5.11
987.176	-2.29
987.603	-0.69
988.029	-1.39
988.456	-6.39
988.882	3.81
989.308	-5.49
989.735	-6.39
990.161	-0.29
990.587	-2.39
991.014	-0.59
991.44	2.21
991.866	0.01
992.292	-5.79
992.719	-4.19
993.145	-1.09
993.571	-13.89
993.997	-1.99
994.423	5.91
994.849	-1.19
995.275	0.71
995.701	-0.19
996.127	-3.19
996.553	0.41
996.979	-2.79
997.405	-8.59
997.83	-6.19
998.256	-2.89
998.682	-6.99
999.108	-2.09
999.534	-0.49
999.959	-0.09
1000.385	-3.59
1000.811	0.61
1001.236	-6.59
1001.662	1.91
1002.087	-9.69
1002.513	-5.19
1002.938	4.01
1003.364	-6.09
1003.789	1.51
1004.215	-3.39
1004.64	2.31
1005.066	-1.49
1005.491	6.01
1005.916	-0.09
1006.342	-1.99
1006.767	-7.09
1007.192	3.11
1007.617	-8.79
1008.042	-5.89
1008.468	-6.79
1008.893	-5.69
1009.318	3.61
1009.743	-5.19
1010.168	3.31
1010.593	6.01
1011.018	-10.09
1011.443	-3.79
1011.868	0.21
1012.293	-0.99
1012.718	-4.39
1013.143	0.11
1013.567	-2.99
1013.992	-5.79
1014.417	-13.29
1014.842	-2.39
1015.267	-3.49
1015.691	-7.19
1016.116	3.81
1016.541	-3.59
1016.965	1.51
1017.39	3.21
1017.814	1.81
1018.239	-0.49
1018.663	-5.19
1019.088	-10.49
1019.512	-1.29
1019.937	-4.89
1020.361	-6.69
1020.785	-9.99
1021.21	-5.59
1021.634	-8.19
1022.058	3.01
1022.483	2.91
1022.907	0.91
1023.331	-4.39
1023.755	-3.29
1024.179	-5.59
1024.604	-4.39
1025.028	-10.09
1025.452	-2.89
1025.876	0.81
1026.3	2.81
1026.724	-9.19
1027.148	-6.19
1027.572	-4.59
1027.996	-8.19
1028.42	1.01
1028.843	-4.29
1029.267	-9.99
1029.691	-9.09
1030.115	-8.99
1030.539	-7.99
1030.962	-6.99
1031.386	-3.09
1031.81	-1.09
1032.233	-0.09
1032.657	-4.09
1033.08	-1.29
1033.504	-5.09
1033.927	-2.49
1034.351	1.71
1034.774	-2.89
1035.198	-4.59
1035.621	-9.49
1036.045	-9.19
1036.468	1.01
1036.891	-10.79
1037.315	-8.89
1037.738	-9.49
1038.161	-2.29
1038.584	-2.59
1039.008	-4.29
1039.431	-4.89
1039.854	-4.19
1040.277	-4.79
1040.7	-12.49
1041.123	3.81
1041.546	-2.09
1041.969	-4.99
1042.392	-7.59
1042.815	-2.59
1043.238	1.81
1043.661	-0.89
1044.084	-12.69
1044.507	-2.39
1044.93	-10.09
1045.352	-4.39
1045.775	-5.49
1046.198	-0.59
1046.621	-4.49
1047.043	-2.19
1047.466	3.41
1047.889	-2.69
1048.311	-4.39
1048.734	-5.19
1049.156	-5.89
1049.579	1.71
1050.001	5.91
1050.424	4.71
1050.846	-5.99
1051.269	-2.79
1051.691	-10.69
1052.113	-3.49
1052.536	-7.49
1052.958	-0.69
1053.38	-8.49
1053.802	-4.79
1054.225	3.21
1054.647	-8.29
1055.069	-5.29
1055.491	-2.19
1055.913	-10.09
1056.335	-6.59
1056.757	-8.99
1057.179	-5.69
1057.601	-6.19
1058.023	0.31
1058.445	-1.79
1058.867	-2.89
1059.289	-4.59
1059.711	-2.19
1060.133	-4.39
1060.555	-6.89
1060.976	-2.99
1061.398	-4.09
1061.82	-2.29
1062.241	-5.49
1062.663	-5.89
1063.085	-8.59
1063.506	-0.29
1063.928	-4.89
1064.35	-2.19
1064.771	-6.19
1065.193	-2.89
1065.614	-10.69
1066.035	-6.39
1066.457	-2.29
1066.878	-0.09
1067.3	-9.69
1067.721	-6.19
1068.142	-6.99
1068.564	-1.39
1068.985	-3.99
1069.406	-4.09
1069.827	-1.09
1070.248	-1.29
1070.67	-8.39
1071.091	-1.49
1071.512	-4.09
1071.933	-3.69
1072.354	-13.29
1072.775	-5.59
1073.196	-1.19
1073.617	0.11
1074.038	-6.39
1074.459	-2.99
1074.88	-2.49
1075.3	1.21
1075.721	-6.49
1076.142	-1.19
1076.563	1.21
1076.983	-7.19
1077.404	-8.89
1077.825	-11.99
1078.246	-1.49
1078.666	-11.19
1079.087	-5.89
1079.507	-0.59
1079.928	-6.49
1080.348	-0.89
1080.769	-1.49
1081.189	2.61
1081.61	-2.89
1082.03	-6.19
1082.451	-10.29
1082.871	-8.29
1083.291	-6.39
1083.711	-6.89
1084.132	-3.39
1084.552	-6.49
1084.972	-5.39
1085.392	-9.49
1085.813	-6.19
1086.233	-6.69
1086.653	-7.69
1087.073	-3.19
1087.493	-7.09
1087.913	-5.99
1088.333	-7.79
1088.753	-3.09
1089.173	5.81
1089.593	1.21
1090.013	1.21
1090.433	-6.69
1090.852	-1.59
1091.272	-1.69
1091.692	-3.69
1092.112	-6.59
1092.531	-10.59
1092.951	-15.99
1093.371	-1.99
1093.79	-0.39
1094.21	-9.39
1094.63	-5.69
1095.049	-6.69
1095.469	-5.29
1095.888	-2.29
1096.308	0.71
1096.727	-0.89
1097.146	-4.59
1097.566	-1.29
1097.985	-9.29
1098.405	-0.39
1098.824	-4.79
1099.243	-4.99
1099.662	-7.79
1100.082	-5.09
1100.501	-1.99
1100.92	-4.19
1101.339	-9.69
1101.758	-10.49
