Data from 20171114-ORNL-Ar_H_NY_Subt18_08-05-17-131.txt Node
Date: Tue Nov 14 08:05:17 EST 2017
User: Ender
Spectrometer: HR+D1039
Trigger mode: 0
Integration Time (sec): 2.730000E-2
Scans to average: 10
Electric dark correction enabled: true
Nonlinearity correction enabled: false
Boxcar width: 0
XAxis mode: Wavelengths
Number of Pixels in Spectrum: 2048
>>>>>Begin Spectral Data<<<<<
187.836	-2.28
188.309	-2.28
188.782	-2.28
189.255	-0.28
189.728	-6.68
190.201	1.62
190.674	0.72
191.147	2.62
191.619	-7.68
192.092	3.72
192.565	4.12
193.038	2.52
193.511	3.92
193.984	-1.48
194.456	-2.58
194.929	1.82
195.402	-1.88
195.874	1.72
196.347	-4.78
196.82	-8.48
197.292	1.82
197.765	1.22
198.237	-7.08
198.71	4.32
199.182	-0.68
199.655	0.02
200.127	5.22
200.6	-2.68
201.072	-3.68
201.544	-10.18
202.017	-0.38
202.489	1.12
202.961	2.22
203.433	-5.98
203.906	-9.48
204.378	-5.28
204.85	-10.18
205.322	-6.08
205.794	-3.38
206.266	1.12
206.739	-10.88
207.211	-0.68
207.683	-10.98
208.155	-3.38
208.627	-8.08
209.099	-4.88
209.57	-9.48
210.042	-7.48
210.514	-1.18
210.986	-4.68
211.458	-5.38
211.93	-0.58
212.402	-1.18
212.873	-6.68
213.345	-8.08
213.817	-16.18
214.288	-6.88
214.76	-7.08
215.232	-8.98
215.703	-6.48
216.175	-4.68
216.646	-0.58
217.118	-8.18
217.589	-4.18
218.061	-0.28
218.532	-8.88
219.004	-1.58
219.475	-6.28
219.946	0.52
220.418	0.32
220.889	11.32
221.36	3.02
221.832	-4.48
222.303	-6.88
222.774	0.52
223.245	-4.18
223.717	-6.08
224.188	-8.48
224.659	-8.68
225.13	-6.68
225.601	-1.18
226.072	1.02
226.543	8.62
227.014	0.82
227.485	1.92
227.956	-4.48
228.427	3.92
228.898	2.32
229.369	4.02
229.839	1.02
230.31	-2.78
230.781	8.72
231.252	0.12
231.722	-5.18
232.193	-3.98
232.664	0.32
233.135	-2.38
233.605	-0.98
234.076	-2.28
234.546	-2.28
235.017	-1.98
235.487	-0.58
235.958	0.92
236.428	-1.68
236.899	8.32
237.369	0.32
237.84	6.02
238.31	0.52
238.78	4.62
239.251	-1.08
239.721	1.42
240.191	1.92
240.662	-0.28
241.132	5.12
241.602	-1.88
242.072	0.32
242.542	6.32
243.013	4.52
243.483	5.52
243.953	-0.28
244.423	3.62
244.893	1.62
245.363	11.42
245.833	0.52
246.303	-2.98
246.773	2.72
247.243	3.62
247.712	5.82
248.182	3.52
248.652	11.72
249.122	-0.98
249.592	15.92
250.061	19.52
250.531	33.42
251.001	23.52
251.471	24.92
251.94	19.72
252.41	7.72
252.879	0.32
253.349	15.72
253.818	12.12
254.288	2.22
254.757	3.52
255.227	-0.18
255.696	8.02
256.166	8.02
256.635	6.12
257.105	11.62
257.574	4.42
258.043	11.12
258.513	17.72
258.982	20.82
259.451	10.22
259.92	14.52
260.389	8.52
260.859	12.32
261.328	9.32
261.797	19.12
262.266	12.42
262.735	5.42
263.204	5.32
263.673	3.62
264.142	4.92
264.611	0.22
265.08	2.82
265.549	-0.18
266.018	2.32
266.487	-0.98
266.955	-1.18
267.424	5.12
267.893	9.22
268.362	0.82
268.83	4.72
269.299	4.62
269.768	4.52
270.236	9.52
270.705	3.52
271.174	5.62
271.642	12.72
272.111	9.22
272.579	23.12
273.048	29.92
273.516	32.32
273.985	30.92
274.453	23.32
274.922	23.82
275.39	17.92
275.858	5.62
276.327	18.32
276.795	22.22
277.263	13.42
277.731	32.52
278.2	54.82
278.668	61.62
279.136	53.82
279.604	21.02
280.072	13.82
280.54	11.42
281.008	12.72
281.477	15.12
281.945	11.72
282.413	16.12
282.881	14.32
283.348	10.72
283.816	19.02
284.284	24.42
284.752	20.32
285.22	16.32
285.688	15.22
286.156	23.62
286.623	46.52
287.091	51.72
287.559	33.62
288.026	19.62
288.494	18.92
288.962	9.92
289.429	8.62
289.897	20.22
290.364	18.82
290.832	17.22
291.3	16.32
291.767	19.52
292.234	17.22
292.702	18.42
293.169	11.22
293.637	27.52
294.104	23.92
294.571	15.82
295.039	13.02
295.506	15.82
295.973	20.02
296.44	19.22
296.908	17.12
297.375	20.72
297.842	25.92
298.309	18.02
298.776	15.42
299.243	20.82
299.71	16.92
300.177	27.02
300.644	25.92
301.111	18.22
301.578	25.42
302.045	20.52
302.512	25.32
302.979	31.32
303.446	24.92
303.913	19.32
304.379	21.22
304.846	28.22
305.313	25.52
305.78	28.42
306.246	29.32
306.713	28.52
307.18	33.02
307.646	25.72
308.113	33.62
308.579	30.02
309.046	27.82
309.512	25.22
309.979	21.92
310.445	37.62
310.912	29.72
311.378	34.22
311.845	32.42
312.311	35.52
312.777	32.82
313.244	34.02
313.71	44.72
314.176	32.12
314.642	33.02
315.109	30.72
315.575	32.82
316.041	40.82
316.507	37.02
316.973	38.42
317.439	38.92
317.905	34.02
318.371	40.52
318.837	39.42
319.303	34.02
319.769	33.12
320.235	33.12
320.701	35.52
321.167	37.32
321.633	37.42
322.099	39.02
322.564	42.22
323.03	40.52
323.496	38.22
323.962	48.72
324.427	35.22
324.893	45.82
325.359	39.02
325.824	42.12
326.29	38.32
326.755	39.42
327.221	44.02
327.686	47.02
328.152	49.02
328.617	38.72
329.083	50.72
329.548	56.62
330.014	53.32
330.479	45.22
330.944	49.82
331.41	45.72
331.875	45.42
332.34	43.92
332.805	46.62
333.271	58.22
333.736	49.52
334.201	54.32
334.666	59.12
335.131	58.42
335.596	58.62
336.061	49.32
336.526	51.42
336.991	48.52
337.456	56.42
337.921	51.22
338.386	48.82
338.851	42.62
339.316	42.02
339.781	45.02
340.246	55.62
340.711	45.42
341.175	49.52
341.64	50.72
342.105	56.42
342.569	52.92
343.034	60.12
343.499	59.32
343.963	56.62
344.428	70.22
344.893	67.32
345.357	59.82
345.822	61.42
346.286	71.52
346.751	78.62
347.215	66.92
347.679	77.52
348.144	102.22
348.608	86.52
349.073	72.82
349.537	72.92
350.001	82.52
350.465	88.92
350.93	88.02
351.394	84.72
351.858	70.32
352.322	83.92
352.786	87.92
353.25	101.92
353.715	114.32
354.179	104.12
354.643	128.52
355.107	135.92
355.571	108.52
356.035	110.02
356.498	116.12
356.962	131.32
357.426	134.02
357.89	117.52
358.354	94.12
358.818	83.92
359.281	79.02
359.745	79.72
360.209	82.42
360.673	76.72
361.136	81.92
361.6	88.32
362.064	83.52
362.527	82.02
362.991	97.42
363.454	85.82
363.918	77.22
364.381	80.22
364.845	80.62
365.308	83.82
365.772	90.02
366.235	85.82
366.698	91.22
367.162	84.42
367.625	80.92
368.088	87.42
368.552	87.22
369.015	91.42
369.478	102.92
369.941	103.42
370.404	93.82
370.867	109.02
371.331	112.02
371.794	124.32
372.257	113.02
372.72	118.62
373.183	104.62
373.646	109.62
374.109	110.02
374.572	100.72
375.035	107.32
375.497	108.52
375.96	106.72
376.423	101.32
376.886	118.62
377.349	114.32
377.811	103.72
378.274	105.82
378.737	107.72
379.199	116.62
379.662	114.62
380.125	124.92
380.587	116.92
381.05	125.52
381.512	132.42
381.975	141.42
382.437	127.42
382.9	126.72
383.362	129.72
383.825	139.42
384.287	143.12
384.75	133.42
385.212	139.82
385.674	139.42
386.136	138.42
386.599	132.72
387.061	126.32
387.523	131.02
387.985	139.72
388.447	144.32
388.91	138.32
389.372	159.92
389.834	154.12
390.296	150.22
390.758	153.12
391.22	166.02
391.682	204.12
392.144	288.62
392.606	223.72
393.068	164.82
393.529	174.52
393.991	158.12
394.453	151.62
394.915	157.32
395.377	191.92
395.838	205.52
396.3	154.62
396.762	159.12
397.224	136.02
397.685	127.82
398.147	128.02
398.608	130.82
399.07	128.32
399.531	135.22
399.993	145.12
400.454	157.12
400.916	145.32
401.377	142.52
401.839	149.72
402.3	152.22
402.762	169.82
403.223	180.92
403.684	174.82
404.145	161.42
404.607	162.82
405.068	167.52
405.529	168.92
405.99	186.52
406.451	178.12
406.913	173.12
407.374	162.72
407.835	163.22
408.296	162.92
408.757	169.22
409.218	187.62
409.679	186.62
410.14	172.92
410.601	180.42
411.062	188.32
411.522	191.12
411.983	186.52
412.444	168.82
412.905	176.72
413.366	187.92
413.826	192.62
414.287	221.62
414.748	265.42
415.208	246.52
415.669	211.62
416.13	205.72
416.59	206.32
417.051	214.92
417.511	218.72
417.972	239.72
418.432	247.73
418.893	292.23
419.353	257.72
419.814	197.42
420.274	183.92
420.734	176.62
421.195	196.62
421.655	198.62
422.115	200.72
422.576	199.72
423.036	198.62
423.496	205.72
423.956	218.33
424.416	231.92
424.876	266.72
425.336	262.12
425.797	266.52
426.257	257.82
426.717	244.33
427.177	229.12
427.637	218.52
428.097	237.22
428.556	246.73
429.016	267.72
429.476	259.02
429.936	268.12
430.396	278.82
430.856	296.52
431.315	318.62
431.775	354.32
432.235	378.82
432.694	351.22
433.154	363.52
433.614	397.42
434.073	345.02
434.533	282.52
434.993	274.92
435.452	279.62
435.912	302.72
436.371	290.72
436.83	287.62
437.29	269.32
437.749	242.42
438.209	246.32
438.668	272.02
439.127	285.23
439.587	267.02
440.046	254.52
440.505	258.12
440.964	281.82
441.424	327.62
441.883	312.82
442.342	264.72
442.801	223.12
443.26	224.12
443.719	219.62
444.178	226.92
444.637	216.33
445.096	221.72
445.555	222.82
446.014	224.52
446.473	225.42
446.932	230.62
447.391	221.42
447.849	226.72
448.308	216.12
448.767	225.62
449.226	235.32
449.685	234.52
450.143	250.02
450.602	242.42
451.061	234.12
451.519	235.12
451.978	234.52
452.436	240.02
452.895	246.12
453.353	251.22
453.812	237.83
454.27	243.62
454.729	241.83
455.187	237.42
455.646	242.02
456.104	243.23
456.562	261.72
457.021	264.62
457.479	265.92
457.937	278.02
458.395	265.82
458.854	251.82
459.312	256.23
459.77	276.32
460.228	257.52
460.686	243.42
461.144	249.12
461.602	241.72
462.06	246.02
462.518	259.12
462.976	256.82
463.434	259.12
463.892	262.42
464.35	280.82
464.808	289.82
465.266	262.23
465.724	272.83
466.181	281.82
466.639	271.72
467.097	286.92
467.555	301.12
468.012	295.42
468.47	304.82
468.928	336.82
469.385	345.22
469.843	351.32
470.3	347.02
470.758	357.52
471.215	390.62
471.673	411.22
472.13	412.62
472.588	426.12
473.045	377.52
473.503	379.92
473.96	400.92
474.417	405.32
474.875	440.72
475.332	478.02
475.789	468.42
476.246	468.72
476.704	479.82
477.161	515.73
477.618	533.92
478.075	557.52
478.532	612.23
478.989	695.23
479.446	804.42
479.903	777.83
480.36	806.02
480.817	868.92
481.274	982.02
481.731	1084.12
482.188	1170.42
482.645	1302.72
483.102	1416.32
483.558	1560.12
484.015	1608.62
484.472	1582.32
484.929	1525.03
485.385	1481.83
485.842	1441.62
486.299	1374.12
486.755	1297.72
487.212	1098.22
487.668	924.62
488.125	854.02
488.582	791.72
489.038	751.02
489.494	720.22
489.951	689.82
490.407	676.92
490.864	653.52
491.32	646.52
491.776	652.12
492.233	659.22
492.689	610.23
493.145	613.12
493.602	599.12
494.058	615.92
494.514	621.83
494.97	635.72
495.426	648.62
495.882	616.82
496.338	618.73
496.794	632.73
497.251	626.62
497.707	636.02
498.163	644.72
498.618	646.32
499.074	653.52
499.53	673.72
499.986	689.22
500.442	663.42
500.898	636.22
501.354	625.62
501.809	639.32
502.265	647.82
502.721	658.52
503.177	682.62
503.632	669.42
504.088	682.72
504.543	715.22
504.999	715.23
505.455	663.32
505.91	635.12
506.366	634.32
506.821	631.92
507.277	635.72
507.732	620.42
508.187	629.42
508.643	633.73
509.098	640.23
509.553	664.22
510.009	666.22
510.464	672.82
510.919	699.32
511.375	698.42
511.83	707.72
512.285	732.32
512.74	760.62
513.195	786.62
513.65	778.02
514.105	779.02
514.56	770.52
515.015	797.72
515.47	808.32
515.925	794.83
516.38	790.52
516.835	795.62
517.29	774.92
517.745	781.52
518.2	764.42
518.655	745.12
519.109	739.42
519.564	749.12
520.019	736.22
520.474	727.02
520.928	727.72
521.383	724.72
521.838	714.72
522.292	715.82
522.747	712.23
523.201	702.32
523.656	699.73
524.11	687.62
524.565	695.23
525.019	694.02
525.474	700.12
525.928	697.02
526.382	707.12
526.837	695.12
527.291	697.32
527.745	694.32
528.2	701.22
528.654	692.42
529.108	682.82
529.562	697.82
530.016	694.62
530.47	685.42
530.925	694.22
531.379	702.02
531.833	709.42
532.287	704.62
532.741	708.72
533.195	707.52
533.649	716.22
534.103	717.62
534.556	715.52
535.01	710.42
535.464	715.42
535.918	725.72
536.372	722.82
536.826	717.02
537.279	709.62
537.733	700.32
538.187	709.22
538.64	709.62
539.094	729.52
539.548	718.52
540.001	721.62
540.455	717.62
540.908	734.62
541.362	732.82
541.815	747.23
542.269	762.32
542.722	750.12
543.175	761.22
543.629	757.62
544.082	782.32
544.536	787.02
544.989	774.02
545.442	802.22
545.895	788.82
546.349	787.92
546.802	779.42
547.255	793.32
547.708	788.62
548.161	806.72
548.614	802.02
549.067	828.92
549.52	812.23
549.973	809.42
550.426	803.52
550.879	782.92
551.332	793.12
551.785	794.52
552.238	797.42
552.691	821.22
553.144	820.32
553.596	836.02
554.049	842.72
554.502	887.22
554.955	896.72
555.407	904.02
555.86	891.82
556.313	889.62
556.765	872.02
557.218	878.62
557.67	887.62
558.123	871.12
558.576	870.32
559.028	869.22
559.48	868.02
559.933	866.62
560.385	824.22
560.838	806.32
561.29	774.92
561.742	767.83
562.195	752.62
562.647	755.83
563.099	766.62
563.551	757.52
564.004	770.12
564.456	758.72
564.908	752.82
565.36	744.42
565.812	724.62
566.264	718.83
566.716	711.33
567.168	704.42
567.62	724.32
568.072	698.02
568.524	684.92
568.976	683.02
569.428	662.62
569.88	662.32
570.332	673.72
570.784	676.52
571.235	680.92
571.687	676.23
572.139	691.72
572.59	703.52
573.042	698.02
573.494	694.02
573.945	698.42
574.397	675.42
574.849	680.62
575.3	676.92
575.752	681.52
576.203	672.82
576.655	675.52
577.106	657.42
577.557	658.33
578.009	663.02
578.46	658.82
578.912	648.72
579.363	648.42
579.814	651.32
580.265	651.12
580.717	658.02
581.168	656.92
581.619	666.62
582.07	668.42
582.521	659.72
582.972	662.72
583.423	660.92
583.875	675.23
584.326	689.92
584.777	726.02
585.227	795.72
585.678	882.22
586.129	970.12
586.58	1044.72
587.031	1133.72
587.482	1278.12
587.933	1460.42
588.384	1272.32
588.834	948.52
589.285	773.82
589.736	766.92
590.186	758.92
590.637	741.72
591.088	717.12
591.538	716.82
591.989	707.62
592.439	715.92
592.89	700.72
593.34	695.62
593.791	697.42
594.241	690.62
594.692	689.73
595.142	677.92
595.593	684.02
596.043	688.32
596.493	700.23
596.943	694.72
597.394	708.32
597.844	698.52
598.294	705.72
598.744	726.92
599.195	757.02
599.645	794.42
600.095	840.02
600.545	885.22
600.995	937.12
601.445	989.52
601.895	1059.83
602.345	1103.32
602.795	1087.53
603.245	1034.92
603.695	986.52
604.145	928.82
604.594	881.22
605.044	823.02
605.494	774.12
605.944	729.72
606.393	718.22
606.843	708.52
607.293	712.92
607.743	705.62
608.192	719.12
608.642	728.12
609.091	730.22
609.541	742.92
609.99	745.12
610.44	736.62
610.889	696.92
611.339	677.32
611.788	662.12
612.238	687.42
612.687	688.12
613.136	698.23
613.586	712.72
614.035	715.92
614.484	730.22
614.933	734.02
615.383	713.92
615.832	709.42
616.281	706.33
616.73	666.42
617.179	640.52
617.628	635.02
618.077	608.92
618.526	596.62
618.975	600.72
619.424	584.82
619.873	588.12
620.322	597.12
620.771	589.62
621.22	578.72
621.669	576.02
622.118	571.52
622.567	556.92
623.015	551.72
623.464	537.02
623.913	545.12
624.361	530.72
624.81	536.92
625.259	530.62
625.707	533.02
626.156	533.12
626.604	544.52
627.053	535.52
627.501	537.82
627.95	539.72
628.398	549.82
628.847	536.83
629.295	551.23
629.744	554.72
630.192	549.42
630.64	552.62
631.089	538.22
631.537	556.92
631.985	557.73
632.433	573.62
632.881	588.72
633.33	629.12
633.778	599.02
634.226	540.83
634.674	533.92
635.122	555.12
635.57	574.72
636.018	585.22
636.466	549.73
636.914	529.73
637.362	549.83
637.81	553.12
638.258	551.62
638.705	553.12
639.153	584.82
639.601	589.92
640.049	615.62
640.497	648.22
640.944	667.22
641.392	611.12
641.84	587.02
642.287	562.42
642.735	545.42
643.182	551.83
643.63	548.62
644.078	547.33
644.525	562.12
644.973	571.32
645.42	574.42
645.867	589.52
646.315	608.22
646.762	636.33
647.21	661.02
647.657	677.42
648.104	720.42
648.551	729.52
648.999	808.52
649.446	881.52
649.893	954.82
650.34	1099.22
650.787	1318.12
651.234	1621.53
651.682	2130.22
652.129	2940.32
652.576	4180.02
653.023	6189.72
653.47	8532.92
653.917	10743.92
654.363	12509.83
654.81	13904.73
655.257	13220.33
655.704	8617.02
656.151	5103.62
656.598	3286.32
657.044	2328.93
657.491	1796.62
657.938	1418.62
658.385	1190.33
658.831	1031.72
659.278	926.22
659.724	817.12
660.171	755.62
660.618	688.02
661.064	656.22
661.511	640.92
661.957	623.82
662.404	618.02
662.85	626.33
663.296	596.72
663.743	531.12
664.189	514.22
664.635	513.32
665.082	509.22
665.528	495.22
665.974	492.72
666.42	491.02
666.867	475.02
667.313	469.82
667.759	460.92
668.205	454.22
668.651	465.83
669.097	457.52
669.543	481.52
669.989	443.82
670.435	425.22
670.881	421.33
671.327	429.52
671.773	441.72
672.219	458.52
672.665	509.52
673.11	550.62
673.556	581.22
674.002	630.12
674.448	619.22
674.893	515.73
675.339	450.52
675.785	413.42
676.23	396.62
676.676	369.73
677.122	363.82
677.567	345.62
678.013	354.62
678.458	338.12
678.904	341.72
679.349	325.52
679.794	339.82
680.24	338.62
680.685	325.52
681.131	333.62
681.576	323.62
682.021	347.32
682.466	318.92
682.912	325.42
683.357	330.52
683.802	356.83
684.247	383.32
684.692	428.82
685.137	460.52
685.583	504.02
686.028	530.52
686.473	488.02
686.918	412.62
687.363	393.12
687.807	363.72
688.252	349.72
688.697	337.62
689.142	322.42
689.587	310.02
690.032	299.62
690.477	319.72
690.921	328.72
691.366	354.12
691.811	378.82
692.255	399.02
692.7	436.42
693.145	459.12
693.589	640.82
694.034	1044.62
694.478	1433.92
694.923	1641.72
695.367	2157.82
695.812	1137.42
696.256	464.52
696.701	341.72
697.145	326.12
697.59	313.12
698.034	305.62
698.478	311.72
698.922	303.83
699.367	308.12
699.811	319.82
700.255	323.72
700.699	360.62
701.143	405.72
701.588	445.32
702.032	482.62
702.476	475.92
702.92	453.72
703.364	446.42
703.808	587.12
704.252	949.32
704.696	1340.52
705.14	1588.32
705.584	2014.93
706.027	998.22
706.471	488.52
706.915	371.62
707.359	327.72
707.803	298.22
708.246	297.83
708.69	287.72
709.134	286.32
709.577	289.82
710.021	295.82
710.465	289.52
710.908	283.92
711.352	277.52
711.795	291.02
712.239	322.32
712.682	356.92
713.126	392.82
713.569	433.32
714.012	353.02
714.456	302.42
714.899	277.73
715.342	265.52
715.786	244.02
716.229	243.92
716.672	238.12
717.115	232.02
717.558	237.02
718.002	236.12
718.445	234.32
718.888	269.22
719.331	271.02
719.774	288.32
720.217	288.72
720.66	268.02
721.103	248.72
721.546	233.62
721.989	232.12
722.432	216.12
722.874	219.42
723.317	205.82
723.76	221.82
724.203	237.92
724.645	292.42
725.088	416.22
725.531	525.92
725.974	614.22
726.416	516.82
726.859	284.12
727.301	232.52
727.744	218.72
728.187	216.92
728.629	221.12
729.071	229.23
729.514	233.22
729.956	245.72
730.399	261.22
730.841	267.82
731.283	256.42
731.726	246.83
732.168	243.82
732.61	246.92
733.053	268.42
733.495	292.42
733.937	321.92
734.379	377.52
734.821	395.73
735.263	490.62
735.705	758.42
736.148	1441.12
736.59	2390.72
737.032	2876.22
737.474	2352.72
737.916	756.92
738.357	398.22
738.799	305.32
739.241	277.72
739.683	268.82
740.125	273.82
740.567	272.92
741.008	294.42
741.45	300.42
741.892	295.62
742.334	329.42
742.775	341.12
743.217	319.82
743.658	252.62
744.1	229.72
744.542	241.02
744.983	292.73
745.425	318.42
745.866	312.72
746.307	258.32
746.749	263.73
747.19	294.02
747.632	414.42
748.073	789.22
748.514	1703.12
748.956	2645.22
749.397	3315.53
749.838	2751.02
750.279	2788.12
750.72	1413.12
751.162	504.02
751.603	296.12
752.044	230.52
752.485	196.52
752.926	194.12
753.367	190.22
753.808	179.62
754.249	173.32
754.69	171.62
755.131	175.62
755.572	175.02
756.013	163.92
756.453	167.82
756.894	170.32
757.335	182.72
757.776	184.52
758.216	177.82
758.657	187.02
759.098	190.42
759.538	206.02
759.979	255.22
760.42	349.73
760.86	633.52
761.301	1617.12
761.741	4037.02
762.182	6084.23
762.622	4304.82
763.063	1221.82
763.503	504.72
763.943	322.92
764.384	308.52
764.824	378.02
765.264	414.72
765.705	285.22
766.145	200.82
766.585	173.52
767.025	163.32
767.465	166.92
767.906	226.82
768.346	299.82
768.786	316.82
769.226	243.23
769.666	295.82
770.106	554.02
770.546	1413.82
770.986	2470.12
771.426	2226.43
771.866	738.62
772.306	310.62
772.745	192.52
773.185	161.02
773.625	157.22
774.065	150.82
774.505	181.42
774.944	283.22
775.384	621.22
775.824	1131.22
776.263	1126.72
776.703	479.12
777.142	209.73
777.582	147.32
778.021	129.22
778.461	129.72
778.9	133.92
779.34	123.22
779.779	108.12
780.219	103.12
780.658	93.82
781.097	104.22
781.537	106.72
781.976	101.52
782.415	97.52
782.855	98.22
783.294	96.92
783.733	98.72
784.172	105.02
784.611	91.02
785.05	101.12
785.489	101.62
785.928	114.02
786.367	118.62
786.806	109.62
787.245	119.72
787.684	123.82
788.123	135.42
788.562	125.82
789.001	122.22
789.44	109.62
789.879	107.72
790.317	112.52
790.756	113.12
791.195	121.62
791.634	141.72
792.072	185.32
792.511	339.83
792.95	900.62
793.388	1982.22
793.827	1842.32
794.265	633.22
794.704	260.42
795.142	165.62
795.581	136.92
796.019	130.32
796.458	116.62
796.896	111.22
797.334	118.12
797.773	142.42
798.211	204.12
798.649	399.62
799.087	932.62
799.526	1465.03
799.964	1855.53
800.402	1909.22
800.84	706.02
801.278	282.12
801.716	170.82
802.154	144.22
802.592	130.12
803.03	132.72
803.468	119.32
803.906	137.12
804.344	143.92
804.782	131.62
805.22	117.72
805.658	122.52
806.096	136.62
806.533	138.92
806.971	160.62
807.409	197.12
807.847	284.92
808.284	592.62
808.722	1699.12
809.16	3065.93
809.597	2849.93
810.035	4986.32
810.472	5497.12
810.91	1972.03
811.347	743.22
811.785	368.33
812.222	239.12
812.66	181.92
813.097	149.52
813.535	136.42
813.972	118.02
814.409	114.42
814.846	94.52
815.284	100.92
815.721	93.22
816.158	95.62
816.595	114.22
817.032	168.12
817.47	188.42
817.907	169.22
818.344	141.62
818.781	105.32
819.218	98.02
819.655	113.22
820.092	171.12
820.529	205.72
820.966	167.52
821.403	129.12
821.839	95.42
822.276	92.52
822.713	116.62
823.15	122.72
823.587	109.92
824.023	131.22
824.46	267.42
824.897	809.12
825.333	1275.12
825.77	545.32
826.206	214.72
826.643	121.42
827.08	90.52
827.516	78.22
827.953	72.02
828.389	77.22
828.825	72.12
829.262	62.92
829.698	58.92
830.135	60.82
830.571	53.72
831.007	53.42
831.443	58.62
831.88	57.72
832.316	60.42
832.752	62.92
833.188	60.22
833.624	57.92
834.06	62.12
834.497	58.32
834.933	67.22
835.369	70.12
835.805	58.42
836.241	68.62
836.677	70.62
837.112	82.52
837.548	98.62
837.984	122.72
838.42	185.02
838.856	442.52
839.292	1380.53
839.727	2165.23
840.163	1010.82
840.599	836.42
841.034	1864.72
841.47	2017.12
841.906	730.92
842.341	307.42
842.777	219.22
843.212	291.12
843.648	292.92
844.083	143.42
844.519	88.52
844.954	72.02
845.39	54.32
845.825	52.62
846.261	49.32
846.696	51.52
847.131	47.02
847.566	49.72
848.002	50.82
848.437	48.52
848.872	58.32
849.307	53.62
849.742	77.62
850.177	166.92
850.613	508.72
851.048	826.42
851.483	354.82
851.918	142.02
852.353	73.52
852.788	63.82
853.223	55.22
853.657	51.92
854.092	40.72
854.527	36.22
854.962	40.12
855.397	38.12
855.832	45.52
856.266	37.32
856.701	35.12
857.136	30.52
857.57	40.32
858.005	46.72
858.44	56.12
858.874	40.12
859.309	48.52
859.743	37.02
860.178	41.92
860.612	38.92
861.047	43.12
861.481	62.72
861.915	62.32
862.35	48.02
862.784	27.62
863.218	35.92
863.653	38.32
864.087	46.12
864.521	46.12
864.955	59.52
865.39	152.22
865.824	161.62
866.258	104.62
866.692	160.72
867.126	168.32
867.56	98.02
867.994	52.92
868.428	38.92
868.862	43.32
869.296	50.32
869.73	48.72
870.164	49.62
870.598	43.72
871.031	37.32
871.465	29.32
871.899	28.92
872.333	19.02
872.766	18.82
873.2	26.62
873.634	28.72
874.067	29.62
874.501	19.02
874.935	30.02
875.368	31.52
875.802	27.72
876.235	20.32
876.669	19.92
877.102	23.02
877.535	22.22
877.969	21.82
878.402	18.62
878.836	20.82
879.269	20.32
879.702	25.52
880.135	21.62
880.569	17.12
881.002	30.22
881.435	19.42
881.868	12.92
882.301	21.52
882.734	20.12
883.167	28.22
883.601	16.02
884.034	21.92
884.467	15.62
884.899	15.52
885.332	11.42
885.765	18.22
886.198	15.22
886.631	14.02
887.064	16.92
887.497	21.52
887.929	22.22
888.362	15.52
888.795	15.32
889.228	14.02
889.66	20.82
890.093	14.32
890.526	16.02
890.958	16.62
891.391	21.02
891.823	21.62
892.256	13.62
892.688	13.92
893.121	18.22
893.553	12.12
893.985	19.62
894.418	17.72
894.85	8.02
895.282	13.42
895.715	13.92
896.147	18.72
896.579	17.02
897.011	9.12
897.444	16.52
897.876	11.32
898.308	11.92
898.74	17.22
899.172	9.12
899.604	20.72
900.036	16.02
900.468	7.32
900.9	10.62
901.332	13.22
901.764	7.72
902.196	14.12
902.628	17.62
903.06	20.32
903.491	25.22
903.923	19.02
904.355	26.72
904.787	26.42
905.218	24.12
905.65	17.72
906.082	10.42
906.513	13.52
906.945	15.62
907.376	9.42
907.808	15.62
908.239	21.32
908.671	14.02
909.102	25.92
909.534	24.12
909.965	51.12
910.397	83.62
910.828	293.62
911.259	447.92
911.691	204.62
912.122	95.52
912.553	48.82
912.984	29.52
913.415	23.32
913.847	25.72
914.278	9.72
914.709	16.32
915.14	16.42
915.571	13.92
916.002	5.22
916.433	18.02
916.864	11.92
917.295	12.32
917.726	22.62
918.157	12.72
918.587	30.02
919.018	23.42
919.449	17.12
919.88	24.72
920.311	30.42
920.741	43.92
921.172	149.62
921.603	137.52
922.033	60.72
922.464	40.32
922.895	24.42
923.325	16.32
923.756	15.52
924.186	13.02
924.617	26.12
925.047	40.12
925.478	51.82
925.908	39.02
926.338	21.32
926.769	14.92
927.199	24.12
927.629	12.02
928.06	8.92
928.49	7.02
928.92	8.22
929.35	7.02
929.78	9.22
930.21	6.82
930.641	9.62
931.071	9.32
931.501	2.32
931.931	5.32
932.361	9.82
932.791	0.22
933.221	3.32
933.651	4.12
934.08	14.52
934.51	25.52
934.94	10.22
935.37	8.22
935.8	7.42
936.229	5.22
936.659	8.82
937.089	1.12
937.519	16.42
937.948	20.32
938.378	13.92
938.807	8.22
939.237	-1.38
939.666	2.82
940.096	-2.88
940.525	3.32
940.955	2.32
941.384	-2.38
941.814	-3.78
942.243	-1.78
942.672	2.02
943.102	-5.88
943.531	3.92
943.96	2.22
944.39	3.02
944.819	2.72
945.248	8.82
945.677	0.92
946.106	3.02
946.535	8.12
946.964	5.52
947.393	3.32
947.822	1.72
948.251	-7.78
948.68	6.92
949.109	3.92
949.538	6.52
949.967	-7.68
950.396	1.32
950.825	-2.88
951.254	-2.68
951.682	-7.88
952.111	-2.08
952.54	7.32
952.969	-3.18
953.397	-5.98
953.826	-2.88
954.254	-2.28
954.683	-3.48
955.112	-3.08
955.54	1.62
955.969	2.02
956.397	1.12
956.826	-2.48
957.254	5.12
957.682	-0.98
958.111	7.42
958.539	-3.88
958.967	-1.98
959.396	-5.58
959.824	-1.88
960.252	3.12
960.68	2.12
961.109	-5.38
961.537	-8.58
961.965	-0.68
962.393	3.02
962.821	-3.68
963.249	2.52
963.677	4.12
964.105	2.52
964.533	46.52
964.961	33.72
965.389	17.22
965.817	6.32
966.245	-3.28
966.672	2.12
967.1	-6.48
967.528	-1.58
967.956	0.52
968.383	3.02
968.811	-6.18
969.239	-8.18
969.666	-8.68
970.094	1.22
970.522	4.22
970.949	-7.68
971.377	-4.08
971.804	1.72
972.232	-5.28
972.659	-2.18
973.087	-3.38
973.514	-3.28
973.941	-8.18
974.369	6.12
974.796	-2.38
975.223	4.12
975.651	-1.08
976.078	1.32
976.505	-5.28
976.932	0.92
977.359	12.52
977.786	13.32
978.214	-2.48
978.641	1.12
979.068	-0.18
979.495	-4.58
979.922	-3.58
980.349	-5.18
980.776	2.72
981.202	-0.08
981.629	0.82
982.056	4.92
982.483	-2.08
982.91	1.72
983.337	-4.58
983.763	2.42
984.19	-5.28
984.617	-2.98
985.043	-3.38
985.47	-1.58
985.897	-2.18
986.323	-10.08
986.75	6.92
987.176	-1.58
987.603	-3.08
988.029	-4.38
988.456	-3.28
988.882	4.42
989.308	-12.58
989.735	-3.88
990.161	-0.68
990.587	-3.58
991.014	-3.08
991.44	6.32
991.866	-6.38
992.292	0.92
992.719	-1.68
993.145	5.92
993.571	-7.48
993.997	-7.18
994.423	4.62
994.849	-3.98
995.275	2.52
995.701	2.82
996.127	-9.98
996.553	2.02
996.979	-1.68
997.405	1.92
997.83	-2.88
998.256	-12.48
998.682	-9.88
999.108	-4.08
999.534	0.72
999.959	-4.68
1000.385	-2.18
1000.811	-2.68
1001.236	-10.58
1001.662	-9.58
1002.087	-9.38
1002.513	0.42
1002.938	0.52
1003.364	0.12
1003.789	-5.98
1004.215	5.92
1004.64	-3.38
1005.066	5.62
1005.491	1.72
1005.916	-1.18
1006.342	-3.58
1006.767	-4.48
1007.192	3.52
1007.617	3.22
1008.042	-4.88
1008.468	-4.98
1008.893	-4.98
1009.318	-5.98
1009.743	-2.08
1010.168	-4.38
1010.593	-1.58
1011.018	-4.48
1011.443	-3.78
1011.868	-2.48
1012.293	-3.98
1012.718	-8.78
1013.143	0.32
1013.567	6.62
1013.992	-4.08
1014.417	-16.18
1014.842	-0.78
1015.267	-3.48
1015.691	-3.68
1016.116	-2.28
1016.541	-1.58
1016.965	-0.08
1017.39	-0.28
1017.814	-1.58
1018.239	-0.28
1018.663	-8.28
1019.088	-7.48
1019.512	-6.28
1019.937	-3.38
1020.361	-2.28
1020.785	-11.28
1021.21	-4.88
1021.634	-1.18
1022.058	2.02
1022.483	10.52
1022.907	-0.18
1023.331	-2.08
1023.755	-1.48
1024.179	-3.58
1024.604	-12.58
1025.028	-0.28
1025.452	-4.78
1025.876	-0.18
1026.3	1.12
1026.724	-8.98
1027.148	-5.58
1027.572	-5.28
1027.996	-3.58
1028.42	-2.48
1028.843	3.42
1029.267	-6.08
1029.691	1.32
1030.115	-5.78
1030.539	-8.28
1030.962	-3.48
1031.386	-7.98
1031.81	2.72
1032.233	3.22
1032.657	-3.78
1033.08	-4.08
1033.504	-3.78
1033.927	-8.18
1034.351	-2.28
1034.774	-7.28
1035.198	-3.38
1035.621	-3.88
1036.045	-9.38
1036.468	0.32
1036.891	-18.58
1037.315	-5.08
1037.738	-9.88
1038.161	0.62
1038.584	-10.58
1039.008	-3.18
1039.431	-6.28
1039.854	-4.28
1040.277	-5.68
1040.7	-11.08
1041.123	4.62
1041.546	-2.88
1041.969	-7.18
1042.392	-8.08
1042.815	-5.08
1043.238	0.12
1043.661	6.52
1044.084	-2.38
1044.507	-7.08
1044.93	-1.38
1045.352	-5.58
1045.775	2.32
1046.198	-0.18
1046.621	-1.78
1047.043	-3.08
1047.466	5.92
1047.889	-0.98
1048.311	-1.98
1048.734	-3.68
1049.156	-1.18
1049.579	-2.48
1050.001	-3.78
1050.424	1.92
1050.846	-3.88
1051.269	-2.78
1051.691	-5.88
1052.113	-2.28
1052.536	-1.18
1052.958	-1.78
1053.38	-2.78
1053.802	-8.78
1054.225	2.72
1054.647	-6.98
1055.069	-0.38
1055.491	4.32
1055.913	-7.08
1056.335	2.62
1056.757	-3.18
1057.179	-7.18
1057.601	-5.78
1058.023	2.62
1058.445	-8.18
1058.867	-0.98
1059.289	-7.78
1059.711	-3.88
1060.133	-4.08
1060.555	-9.88
1060.976	-5.28
1061.398	-10.88
1061.82	-10.48
1062.241	-8.38
1062.663	-5.88
1063.085	-10.18
1063.506	-1.08
1063.928	-3.48
1064.35	-1.98
1064.771	-15.38
1065.193	3.02
1065.614	-5.38
1066.035	0.62
1066.457	-3.48
1066.878	4.22
1067.3	-6.98
1067.721	-3.98
1068.142	-2.08
1068.564	-0.98
1068.985	-0.98
1069.406	-6.28
1069.827	-7.28
1070.248	-3.68
1070.67	-2.18
1071.091	-2.68
1071.512	-2.08
1071.933	-4.68
1072.354	-8.48
1072.775	-2.78
1073.196	-9.78
1073.617	-4.98
1074.038	-6.78
1074.459	-1.38
1074.88	-6.38
1075.3	2.22
1075.721	-2.88
1076.142	0.62
1076.563	-4.78
1076.983	-10.88
1077.404	-1.98
1077.825	-7.28
1078.246	-2.28
1078.666	-12.58
1079.087	-4.08
1079.507	-7.68
1079.928	-3.38
1080.348	-6.58
1080.769	-4.18
1081.189	-5.98
1081.61	-2.48
1082.03	-4.58
1082.451	-5.38
1082.871	-7.58
1083.291	-5.38
1083.711	-5.98
1084.132	-10.68
1084.552	-2.08
1084.972	-3.38
1085.392	-15.38
1085.813	-9.98
1086.233	-10.18
1086.653	-8.68
1087.073	-0.58
1087.493	-6.18
1087.913	-8.18
1088.333	-3.28
1088.753	-6.68
1089.173	-0.98
1089.593	-4.88
1090.013	4.72
1090.433	1.02
1090.852	-1.28
1091.272	-0.38
1091.692	-0.98
1092.112	0.02
1092.531	-8.98
1092.951	-13.38
1093.371	-4.28
1093.79	0.92
1094.21	-3.38
1094.63	-11.58
1095.049	-6.78
1095.469	-4.68
1095.888	1.42
1096.308	-0.98
1096.727	3.82
1097.146	-2.78
1097.566	1.62
1097.985	-3.48
1098.405	0.32
1098.824	-9.58
1099.243	-2.48
1099.662	-4.88
1100.082	-0.98
1100.501	4.52
1100.92	-9.28
1101.339	-0.58
1101.758	-1.68
