Data from 20171114-ORNL-Ar_H_NY_Subt18_08-07-24-610.txt Node
Date: Tue Nov 14 08:07:24 EST 2017
User: Ender
Spectrometer: HR+D1039
Trigger mode: 0
Integration Time (sec): 2.730000E-2
Scans to average: 10
Electric dark correction enabled: true
Nonlinearity correction enabled: false
Boxcar width: 0
XAxis mode: Wavelengths
Number of Pixels in Spectrum: 2048
>>>>>Begin Spectral Data<<<<<
187.836	-6.39
188.309	-6.39
188.782	-6.39
189.255	-0.89
189.728	-0.39
190.201	-2.29
190.674	-0.89
191.147	1.31
191.619	-5.09
192.092	2.31
192.565	1.91
193.038	1.91
193.511	2.11
193.984	1.11
194.456	-0.99
194.929	3.31
195.402	-1.89
195.874	4.81
196.347	3.01
196.82	-11.39
197.292	3.81
197.765	-2.09
198.237	-13.89
198.71	1.11
199.182	-4.09
199.655	0.91
200.127	0.51
200.6	-3.39
201.072	-3.59
201.544	-7.69
202.017	-3.69
202.489	7.21
202.961	1.01
203.433	-3.29
203.906	-11.09
204.378	-5.49
204.85	-5.69
205.322	-9.39
205.794	-1.89
206.266	-5.19
206.739	-9.99
207.211	-0.69
207.683	-8.49
208.155	-5.19
208.627	-14.99
209.099	-8.29
209.57	-9.19
210.042	-3.29
210.514	-2.49
210.986	-0.49
211.458	-5.89
211.93	-0.99
212.402	-3.29
212.873	-9.49
213.345	-6.59
213.817	-6.39
214.288	-5.79
214.76	-11.09
215.232	0.01
215.703	-4.69
216.175	-6.79
216.646	-6.69
217.118	-5.59
217.589	-5.29
218.061	0.91
218.532	-3.19
219.004	-3.49
219.475	-4.19
219.946	-2.39
220.418	-7.39
220.889	1.31
221.36	-3.89
221.832	-3.79
222.303	-7.39
222.774	-1.09
223.245	-9.09
223.717	-5.39
224.188	-4.19
224.659	-7.89
225.13	-12.69
225.601	-4.89
226.072	-0.29
226.543	1.41
227.014	-2.99
227.485	-2.49
227.956	-7.19
228.427	-3.49
228.898	4.21
229.369	-1.59
229.839	0.01
230.31	-7.09
230.781	1.91
231.252	-2.79
231.722	-4.09
232.193	0.21
232.664	1.01
233.135	-1.49
233.605	-2.29
234.076	-10.59
234.546	-1.59
235.017	4.71
235.487	0.01
235.958	-9.29
236.428	-6.29
236.899	5.71
237.369	5.21
237.84	-4.19
238.31	4.71
238.78	0.61
239.251	-3.99
239.721	0.61
240.191	-5.29
240.662	-6.89
241.132	-5.19
241.602	-3.99
242.072	-5.09
242.542	9.31
243.013	-2.29
243.483	-1.59
243.953	-1.19
244.423	-3.79
244.893	-5.29
245.363	2.01
245.833	-1.19
246.303	-7.19
246.773	2.81
247.243	2.61
247.712	7.21
248.182	3.71
248.652	2.71
249.122	-2.89
249.592	4.51
250.061	15.71
250.531	25.61
251.001	10.11
251.471	13.31
251.94	11.31
252.41	3.91
252.879	-4.79
253.349	12.51
253.818	6.01
254.288	1.11
254.757	-5.59
255.227	-4.29
255.696	-1.59
256.166	-0.69
256.635	4.41
257.105	5.51
257.574	-2.89
258.043	-0.99
258.513	0.41
258.982	4.61
259.451	1.11
259.92	7.31
260.389	-1.79
260.859	7.51
261.328	5.11
261.797	6.11
262.266	-1.89
262.735	8.41
263.204	-0.59
263.673	-1.49
264.142	5.01
264.611	-6.09
265.08	-3.89
265.549	0.51
266.018	3.91
266.487	-1.19
266.955	-7.49
267.424	-6.39
267.893	5.11
268.362	4.51
268.83	-0.09
269.299	9.61
269.768	-1.29
270.236	4.71
270.705	-3.39
271.174	-2.09
271.642	2.91
272.111	4.91
272.579	8.71
273.048	12.21
273.516	20.91
273.985	18.61
274.453	15.51
274.922	9.91
275.39	9.11
275.858	3.41
276.327	8.51
276.795	9.01
277.263	0.01
277.731	21.31
278.2	36.71
278.668	42.71
279.136	31.01
279.604	10.21
280.072	8.11
280.54	5.31
281.008	3.31
281.477	11.31
281.945	3.41
282.413	13.81
282.881	7.31
283.348	2.91
283.816	9.01
284.284	7.21
284.752	14.21
285.22	3.41
285.688	7.81
286.156	12.51
286.623	27.51
287.091	33.81
287.559	12.91
288.026	8.31
288.494	9.71
288.962	6.51
289.429	3.91
289.897	15.31
290.364	9.81
290.832	8.21
291.3	8.31
291.767	11.91
292.234	13.41
292.702	9.41
293.169	13.41
293.637	13.61
294.104	14.11
294.571	3.11
295.039	6.71
295.506	9.81
295.973	15.81
296.44	4.21
296.908	11.21
297.375	10.11
297.842	17.11
298.309	13.41
298.776	1.21
299.243	10.01
299.71	13.71
300.177	18.41
300.644	11.11
301.111	11.01
301.578	12.11
302.045	10.51
302.512	18.01
302.979	19.31
303.446	10.91
303.913	13.31
304.379	9.51
304.846	18.21
305.313	19.41
305.78	15.71
306.246	15.01
306.713	17.51
307.18	21.01
307.646	18.51
308.113	19.61
308.579	20.91
309.046	17.91
309.512	15.21
309.979	12.91
310.445	15.01
310.912	22.81
311.378	25.11
311.845	16.91
312.311	19.61
312.777	25.71
313.244	20.01
313.71	24.61
314.176	22.11
314.642	18.41
315.109	17.31
315.575	28.51
316.041	32.11
316.507	19.31
316.973	24.01
317.439	25.01
317.905	22.61
318.371	21.61
318.837	19.81
319.303	21.51
319.769	22.11
320.235	24.71
320.701	24.71
321.167	23.61
321.633	20.31
322.099	25.31
322.564	34.61
323.03	25.01
323.496	28.01
323.962	29.71
324.427	19.81
324.893	31.51
325.359	24.81
325.824	29.91
326.29	21.11
326.755	28.01
327.221	31.11
327.686	29.71
328.152	36.71
328.617	30.51
329.083	37.41
329.548	37.71
330.014	35.81
330.479	25.81
330.944	35.11
331.41	35.91
331.875	39.01
332.34	30.31
332.805	28.71
333.271	36.21
333.736	33.51
334.201	43.41
334.666	44.11
335.131	40.81
335.596	40.11
336.061	41.81
336.526	35.41
336.991	41.51
337.456	47.41
337.921	37.31
338.386	40.81
338.851	34.51
339.316	39.01
339.781	33.71
340.246	38.41
340.711	27.21
341.175	35.31
341.64	37.21
342.105	45.01
342.569	50.11
343.034	47.71
343.499	45.51
343.963	40.21
344.428	55.81
344.893	52.31
345.357	48.81
345.822	48.51
346.286	56.01
346.751	55.21
347.215	53.01
347.679	59.11
348.144	76.01
348.608	68.01
349.073	57.71
349.537	58.71
350.001	62.01
350.465	72.41
350.93	63.81
351.394	64.21
351.858	60.11
352.322	70.41
352.786	66.51
353.25	78.31
353.715	82.81
354.179	80.61
354.643	98.31
355.107	96.71
355.571	88.01
356.035	84.51
356.498	89.91
356.962	96.51
357.426	101.31
357.89	91.41
358.354	73.01
358.818	66.11
359.281	72.11
359.745	64.81
360.209	68.01
360.673	63.11
361.136	68.51
361.6	74.51
362.064	74.41
362.527	73.81
362.991	78.21
363.454	73.21
363.918	64.91
364.381	62.81
364.845	68.61
365.308	70.61
365.772	73.01
366.235	82.11
366.698	71.41
367.162	77.21
367.625	68.11
368.088	75.41
368.552	77.31
369.015	74.71
369.478	84.51
369.941	81.91
370.404	82.41
370.867	92.61
371.331	86.41
371.794	95.11
372.257	98.71
372.72	97.91
373.183	95.21
373.646	87.31
374.109	84.01
374.572	93.01
375.035	94.31
375.497	98.21
375.96	92.51
376.423	94.01
376.886	100.41
377.349	91.81
377.811	90.51
378.274	91.11
378.737	92.61
379.199	97.51
379.662	95.41
380.125	105.11
380.587	100.01
381.05	111.01
381.512	113.41
381.975	118.81
382.437	119.71
382.9	110.21
383.362	121.81
383.825	124.41
384.287	126.01
384.75	121.91
385.212	125.31
385.674	121.71
386.136	115.21
386.599	112.91
387.061	116.51
387.523	119.81
387.985	127.31
388.447	134.71
388.91	127.81
389.372	145.91
389.834	135.31
390.296	129.11
390.758	140.41
391.22	146.51
391.682	186.71
392.144	258.21
392.606	197.41
393.068	151.41
393.529	161.01
393.991	139.31
394.453	130.01
394.915	141.51
395.377	171.01
395.838	188.71
396.3	142.01
396.762	133.21
397.224	117.91
397.685	113.21
398.147	118.11
398.608	119.71
399.07	110.41
399.531	125.81
399.993	131.91
400.454	138.91
400.916	135.91
401.377	135.71
401.839	136.41
402.3	134.51
402.762	145.61
403.223	176.01
403.684	160.91
404.145	151.71
404.607	145.61
405.068	152.01
405.529	164.41
405.99	172.71
406.451	157.91
406.913	161.71
407.374	151.41
407.835	147.61
408.296	152.21
408.757	158.61
409.218	176.61
409.679	168.51
410.14	167.41
410.601	165.91
411.062	171.41
411.522	183.51
411.983	178.31
412.444	159.31
412.905	166.91
413.366	171.81
413.826	189.41
414.287	208.11
414.748	246.91
415.208	229.21
415.669	202.31
416.13	192.51
416.59	188.71
417.051	200.61
417.511	208.21
417.972	226.41
418.432	237.01
418.893	272.81
419.353	247.41
419.814	185.81
420.274	173.21
420.734	172.61
421.195	189.41
421.655	180.91
422.115	182.71
422.576	188.51
423.036	183.61
423.496	196.51
423.956	205.11
424.416	217.21
424.876	250.11
425.336	246.01
425.797	250.81
426.257	240.41
426.717	230.61
427.177	223.91
427.637	213.81
428.097	217.51
428.556	229.81
429.016	262.21
429.476	253.11
429.936	267.21
430.396	266.61
430.856	278.81
431.315	301.91
431.775	328.71
432.235	364.11
432.694	338.91
433.154	345.31
433.614	374.01
434.073	318.41
434.533	270.51
434.993	271.31
435.452	275.81
435.912	277.31
436.371	267.31
436.83	265.31
437.29	244.61
437.749	228.91
438.209	233.11
438.668	260.01
439.127	268.51
439.587	252.51
440.046	236.01
440.505	245.91
440.964	262.81
441.424	301.41
441.883	289.61
442.342	245.81
442.801	215.21
443.26	206.21
443.719	206.81
444.178	210.81
444.637	200.11
445.096	212.91
445.555	217.31
446.014	212.81
446.473	215.41
446.932	226.51
447.391	217.51
447.849	224.81
448.308	216.11
448.767	213.31
449.226	230.61
449.685	229.31
450.143	241.91
450.602	227.11
451.061	216.01
451.519	223.01
451.978	225.31
452.436	226.21
452.895	229.41
453.353	237.21
453.812	227.91
454.27	235.11
454.729	228.11
455.187	231.51
455.646	242.91
456.104	240.31
456.562	250.81
457.021	246.01
457.479	248.51
457.937	264.11
458.395	257.81
458.854	247.41
459.312	238.71
459.77	264.01
460.228	238.81
460.686	230.51
461.144	240.21
461.602	233.31
462.06	233.21
462.518	246.91
462.976	243.51
463.434	244.31
463.892	254.81
464.35	273.71
464.808	287.41
465.266	263.11
465.724	264.01
466.181	266.81
466.639	267.61
467.097	284.71
467.555	286.71
468.012	292.71
468.47	304.21
468.928	318.11
469.385	328.71
469.843	333.01
470.3	335.71
470.758	349.51
471.215	371.31
471.673	398.71
472.13	385.41
472.588	410.91
473.045	358.31
473.503	367.81
473.96	376.91
474.417	389.61
474.875	425.01
475.332	460.61
475.789	458.71
476.246	448.81
476.704	466.31
477.161	489.81
477.618	498.81
478.075	541.11
478.532	604.51
478.989	659.91
479.446	772.71
479.903	749.41
480.36	789.31
480.817	837.11
481.274	930.31
481.731	1033.01
482.188	1123.61
482.645	1257.31
483.102	1355.21
483.558	1469.91
484.015	1542.71
484.472	1514.01
484.929	1465.01
485.385	1423.81
485.842	1383.31
486.299	1311.11
486.755	1244.01
487.212	1049.81
487.668	910.71
488.125	828.21
488.582	760.21
489.038	721.21
489.494	690.71
489.951	669.61
490.407	650.51
490.864	629.71
491.32	628.81
491.776	624.51
492.233	626.01
492.689	590.71
493.145	591.01
493.602	580.81
494.058	595.51
494.514	599.21
494.97	625.21
495.426	635.41
495.882	600.81
496.338	599.61
496.794	606.21
497.251	596.31
497.707	606.51
498.163	619.71
498.618	627.61
499.074	627.21
499.53	662.91
499.986	653.01
500.442	625.71
500.898	617.51
501.354	613.31
501.809	624.41
502.265	625.71
502.721	647.81
503.177	664.11
503.632	647.51
504.088	659.11
504.543	690.11
504.999	688.41
505.455	646.71
505.91	619.31
506.366	620.91
506.821	610.91
507.277	607.71
507.732	608.51
508.187	606.91
508.643	627.81
509.098	630.51
509.553	640.91
510.009	646.21
510.464	655.51
510.919	675.11
511.375	675.91
511.83	694.61
512.285	715.51
512.74	745.91
513.195	757.71
513.65	759.21
514.105	753.71
514.56	760.81
515.015	771.11
515.47	788.81
515.925	775.61
516.38	764.71
516.835	778.31
517.29	762.61
517.745	757.01
518.2	754.11
518.655	740.41
519.109	727.51
519.564	725.81
520.019	719.31
520.474	709.91
520.928	708.21
521.383	707.51
521.838	691.51
522.292	701.51
522.747	702.41
523.201	694.41
523.656	679.31
524.11	684.81
524.565	687.31
525.019	686.11
525.474	694.51
525.928	688.41
526.382	681.61
526.837	686.21
527.291	685.91
527.745	682.81
528.2	687.21
528.654	679.21
529.108	684.51
529.562	670.51
530.016	672.71
530.47	681.51
530.925	677.41
531.379	687.51
531.833	693.91
532.287	686.71
532.741	694.21
533.195	695.91
533.649	696.31
534.103	707.11
534.556	691.41
535.01	695.71
535.464	692.61
535.918	706.81
536.372	704.71
536.826	701.01
537.279	686.61
537.733	701.61
538.187	716.11
538.64	695.31
539.094	706.41
539.548	726.61
540.001	712.11
540.455	722.21
540.908	719.11
541.362	734.11
541.815	735.31
542.269	745.51
542.722	749.41
543.175	754.31
543.629	757.71
544.082	770.11
544.536	771.71
544.989	774.21
545.442	779.91
545.895	775.51
546.349	772.91
546.802	780.51
547.255	786.01
547.708	792.11
548.161	809.71
548.614	818.71
549.067	818.81
549.52	811.61
549.973	790.51
550.426	803.11
550.879	790.91
551.332	793.21
551.785	802.71
552.238	798.71
552.691	813.21
553.144	826.31
553.596	830.61
554.049	841.11
554.502	875.71
554.955	893.31
555.407	901.61
555.86	885.41
556.313	884.01
556.765	874.41
557.218	878.01
557.67	873.41
558.123	859.51
558.576	870.41
559.028	866.01
559.48	870.21
559.933	856.51
560.385	827.71
560.838	802.01
561.29	768.91
561.742	771.31
562.195	755.81
562.647	755.91
563.099	774.01
563.551	766.01
564.004	765.01
564.456	754.01
564.908	749.21
565.36	733.31
565.812	717.71
566.264	710.71
566.716	718.31
567.168	707.11
567.62	712.71
568.072	693.21
568.524	680.51
568.976	678.61
569.428	672.31
569.88	671.41
570.332	682.31
570.784	681.71
571.235	676.51
571.687	675.91
572.139	698.51
572.59	707.91
573.042	702.31
573.494	709.61
573.945	696.71
574.397	672.31
574.849	670.21
575.3	677.81
575.752	671.61
576.203	661.71
576.655	677.51
577.106	665.41
577.557	658.01
578.009	653.21
578.46	657.81
578.912	653.61
579.363	644.91
579.814	666.21
580.265	649.21
580.717	660.21
581.168	658.41
581.619	668.61
582.07	667.81
582.521	666.91
582.972	664.41
583.423	668.91
583.875	681.41
584.326	691.61
584.777	740.91
585.227	809.01
585.678	887.81
586.129	974.61
586.58	1040.21
587.031	1110.91
587.482	1242.61
587.933	1418.71
588.384	1239.71
588.834	948.41
589.285	802.91
589.736	774.51
590.186	763.61
590.637	762.31
591.088	737.41
591.538	729.71
591.989	722.71
592.439	717.81
592.89	720.21
593.34	701.21
593.791	703.81
594.241	699.31
594.692	702.51
595.142	693.31
595.593	688.31
596.043	704.81
596.493	697.01
596.943	703.11
597.394	708.21
597.844	702.91
598.294	717.91
598.744	746.41
599.195	769.11
599.645	808.11
600.095	851.41
600.545	897.51
600.995	965.31
601.445	1013.71
601.895	1073.81
602.345	1121.81
602.795	1099.61
603.245	1054.31
603.695	996.61
604.145	953.01
604.594	889.61
605.044	836.81
605.494	781.21
605.944	742.41
606.393	727.11
606.843	720.41
607.293	726.01
607.743	726.51
608.192	738.81
608.642	742.41
609.091	754.41
609.541	756.21
609.99	754.41
610.44	743.61
610.889	709.11
611.339	699.61
611.788	672.81
612.238	692.11
612.687	716.21
613.136	712.31
613.586	725.91
614.035	729.71
614.484	745.91
614.933	746.61
615.383	737.41
615.832	722.91
616.281	723.21
616.73	678.81
617.179	653.01
617.628	633.81
618.077	621.21
618.526	607.61
618.975	607.81
619.424	615.71
619.873	614.21
620.322	610.11
620.771	589.41
621.22	598.61
621.669	578.71
622.118	584.21
622.567	572.61
623.015	560.41
623.464	562.91
623.913	557.51
624.361	542.21
624.81	533.51
625.259	541.21
625.707	544.61
626.156	547.21
626.604	562.71
627.053	555.41
627.501	549.11
627.95	569.61
628.398	571.91
628.847	565.41
629.295	562.41
629.744	571.41
630.192	561.41
630.64	556.71
631.089	540.91
631.537	568.21
631.985	567.61
632.433	579.11
632.881	588.51
633.33	628.21
633.778	607.31
634.226	557.71
634.674	554.31
635.122	557.71
635.57	584.21
636.018	611.91
636.466	570.81
636.914	554.51
637.362	563.21
637.81	570.01
638.258	575.31
638.705	577.51
639.153	598.81
639.601	614.31
640.049	632.91
640.497	659.41
640.944	685.91
641.392	643.51
641.84	600.11
642.287	574.81
642.735	556.91
643.182	559.51
643.63	561.31
644.078	567.01
644.525	581.21
644.973	589.21
645.42	597.11
645.867	614.41
646.315	628.71
646.762	648.81
647.21	676.21
647.657	697.21
648.104	737.91
648.551	760.21
648.999	825.11
649.446	890.51
649.893	996.01
650.34	1150.81
650.787	1373.01
651.234	1698.11
651.682	2219.91
652.129	3054.71
652.576	4414.41
653.023	6481.51
653.47	8876.21
653.917	11093.71
654.363	12741.41
654.81	14024.41
655.257	13354.81
655.704	8700.81
656.151	5144.91
656.598	3324.41
657.044	2364.31
657.491	1814.11
657.938	1463.21
658.385	1202.11
658.831	1055.31
659.278	951.31
659.724	860.51
660.171	786.51
660.618	709.01
661.064	683.31
661.511	657.61
661.957	646.41
662.404	631.41
662.85	631.81
663.296	606.61
663.743	557.31
664.189	532.81
664.635	527.11
665.082	521.11
665.528	512.81
665.974	509.11
666.42	506.81
666.867	505.31
667.313	484.41
667.759	471.71
668.205	472.91
668.651	468.91
669.097	475.61
669.543	485.71
669.989	459.21
670.435	442.81
670.881	434.21
671.327	438.41
671.773	463.01
672.219	492.91
672.665	535.31
673.11	584.31
673.556	623.21
674.002	664.01
674.448	647.51
674.893	541.51
675.339	464.81
675.785	427.11
676.23	422.21
676.676	391.91
677.122	378.11
677.567	359.41
678.013	362.91
678.458	352.41
678.904	356.41
679.349	334.21
679.794	354.91
680.24	354.81
680.685	353.11
681.131	340.91
681.576	345.61
682.021	347.91
682.466	345.51
682.912	338.41
683.357	351.21
683.802	377.81
684.247	409.51
684.692	444.11
685.137	493.21
685.583	533.41
686.028	559.61
686.473	507.71
686.918	440.31
687.363	412.51
687.807	387.21
688.252	361.91
688.697	355.41
689.142	331.51
689.587	330.71
690.032	322.91
690.477	335.51
690.921	349.01
691.366	379.41
691.811	402.21
692.255	428.11
692.7	464.51
693.145	493.01
693.589	694.81
694.034	1136.01
694.478	1530.41
694.923	1712.31
695.367	2239.71
695.812	1180.41
696.256	492.11
696.701	364.61
697.145	347.91
697.59	319.01
698.034	312.01
698.478	324.31
698.922	322.11
699.367	326.11
699.811	336.01
700.255	345.11
700.699	380.01
701.143	423.31
701.588	473.31
702.032	509.41
702.476	513.21
702.92	486.81
703.364	489.21
703.808	636.71
704.252	1035.41
704.696	1454.91
705.14	1649.71
705.584	2114.61
706.027	1054.11
706.471	514.71
706.915	387.61
707.359	345.31
707.803	314.71
708.246	302.41
708.69	301.71
709.134	309.31
709.577	307.41
710.021	315.21
710.465	307.41
710.908	296.91
711.352	298.21
711.795	306.61
712.239	345.81
712.682	384.71
713.126	415.11
713.569	453.61
714.012	368.81
714.456	316.81
714.899	294.31
715.342	263.11
715.786	253.01
716.229	256.41
716.672	258.91
717.115	246.91
717.558	242.31
718.002	246.81
718.445	260.21
718.888	280.81
719.331	292.31
719.774	306.91
720.217	297.21
720.66	280.41
721.103	259.41
721.546	251.01
721.989	247.41
722.432	230.31
722.874	231.21
723.317	219.61
723.76	235.71
724.203	257.71
724.645	316.61
725.088	448.61
725.531	563.61
725.974	639.41
726.416	542.31
726.859	306.01
727.301	239.01
727.744	242.31
728.187	229.61
728.629	236.41
729.071	230.71
729.514	257.61
729.956	263.71
730.399	275.81
730.841	279.31
731.283	273.41
731.726	268.71
732.168	259.41
732.61	269.31
733.053	285.91
733.495	311.21
733.937	348.41
734.379	392.71
734.821	438.51
735.263	542.11
735.705	848.61
736.148	1607.31
736.59	2599.61
737.032	3027.91
737.474	2452.21
737.916	794.41
738.357	414.41
738.799	325.31
739.241	294.91
739.683	281.81
740.125	282.11
740.567	282.61
741.008	318.31
741.45	313.11
741.892	317.61
742.334	347.21
742.775	354.31
743.217	337.21
743.658	267.01
744.1	254.61
744.542	258.11
744.983	306.91
745.425	344.81
745.866	344.81
746.307	279.11
746.749	287.61
747.19	324.61
747.632	449.21
748.073	894.51
748.514	1890.61
748.956	2841.41
749.397	3557.51
749.838	2966.21
750.279	2938.51
750.72	1475.31
751.162	542.81
751.603	308.91
752.044	245.61
752.485	217.11
752.926	211.31
753.367	201.11
753.808	196.21
754.249	187.51
754.69	185.91
755.131	183.41
755.572	184.51
756.013	171.51
756.453	183.71
756.894	185.21
757.335	182.91
757.776	194.11
758.216	195.11
758.657	199.01
759.098	197.51
759.538	219.51
759.979	268.11
760.42	378.51
760.86	719.41
761.301	1868.51
761.741	4470.91
762.182	6360.41
762.622	4481.81
763.063	1304.11
763.503	531.41
763.943	338.31
764.384	325.61
764.824	374.41
765.264	398.31
765.705	287.21
766.145	204.71
766.585	186.71
767.025	175.11
767.465	183.91
767.906	233.01
768.346	292.31
768.786	316.71
769.226	254.01
769.666	321.61
770.106	626.21
770.546	1580.01
770.986	2620.01
771.426	2352.71
771.866	790.01
772.306	317.81
772.745	207.71
773.185	172.21
773.625	169.71
774.065	166.31
774.505	189.91
774.944	292.11
775.384	634.71
775.824	1132.71
776.263	1087.01
776.703	473.61
777.142	208.61
777.582	152.21
778.021	136.21
778.461	136.01
778.9	131.51
779.34	136.21
779.779	113.41
780.219	114.41
780.658	109.51
781.097	108.31
781.537	110.41
781.976	108.11
782.415	104.51
782.855	100.61
783.294	101.41
783.733	111.51
784.172	112.81
784.611	103.11
785.05	104.51
785.489	113.51
785.928	115.91
786.367	123.41
786.806	125.81
787.245	135.91
787.684	137.61
788.123	152.61
788.562	130.51
789.001	133.61
789.44	123.81
789.879	121.81
790.317	118.21
790.756	125.41
791.195	129.61
791.634	148.81
792.072	200.71
792.511	370.31
792.95	1028.41
793.388	2143.61
793.827	1907.61
794.265	668.41
794.704	278.81
795.142	178.61
795.581	150.51
796.019	136.61
796.458	130.81
796.896	121.91
797.334	127.81
797.773	154.31
798.211	216.91
798.649	440.01
799.087	1029.61
799.526	1602.81
799.964	2027.91
800.402	1981.21
800.84	750.31
801.278	305.21
801.716	177.21
802.154	153.01
802.592	140.71
803.03	134.51
803.468	138.91
803.906	142.31
804.344	146.61
804.782	139.11
805.22	134.01
805.658	127.11
806.096	142.61
806.533	154.71
806.971	169.91
807.409	220.61
807.847	314.81
808.284	680.21
808.722	1889.51
809.16	3286.51
809.597	3160.81
810.035	5489.61
810.472	5711.61
810.91	2069.21
811.347	788.41
811.785	403.31
812.222	251.81
812.66	191.21
813.097	159.11
813.535	142.21
813.972	127.51
814.409	118.11
814.846	106.81
815.284	107.11
815.721	102.51
816.158	105.81
816.595	116.31
817.032	168.81
817.47	189.71
817.907	157.91
818.344	138.61
818.781	118.91
819.218	91.91
819.655	124.61
820.092	187.61
820.529	206.81
820.966	168.91
821.403	129.71
821.839	113.41
822.276	97.91
822.713	123.31
823.15	133.91
823.587	110.41
824.023	146.51
824.46	305.11
824.897	908.41
825.333	1349.91
825.77	583.11
826.206	224.61
826.643	127.31
827.08	101.01
827.516	85.71
827.953	73.71
828.389	76.51
828.825	69.81
829.262	61.51
829.698	58.91
830.135	59.81
830.571	59.41
831.007	63.51
831.443	55.71
831.88	58.01
832.316	58.91
832.752	64.81
833.188	61.31
833.624	55.91
834.06	68.91
834.497	70.21
834.933	71.91
835.369	72.11
835.805	64.11
836.241	78.71
836.677	80.61
837.112	99.11
837.548	103.41
837.984	137.81
838.42	205.01
838.856	503.81
839.292	1537.81
839.727	2296.21
840.163	1063.41
840.599	947.41
841.034	2025.41
841.47	2097.61
841.906	769.51
842.341	334.01
842.777	232.11
843.212	300.51
843.648	289.41
844.083	138.61
844.519	95.31
844.954	77.91
845.39	56.81
845.825	61.11
846.261	57.51
846.696	53.91
847.131	50.71
847.566	52.51
848.002	50.61
848.437	60.11
848.872	62.01
849.307	68.71
849.742	88.11
850.177	186.81
850.613	554.61
851.048	875.81
851.483	376.31
851.918	156.81
852.353	90.01
852.788	55.21
853.223	59.11
853.657	50.21
854.092	50.31
854.527	38.41
854.962	37.61
855.397	45.81
855.832	49.61
856.266	37.11
856.701	41.71
857.136	31.91
857.57	35.41
858.005	46.81
858.44	59.61
858.874	48.01
859.309	54.31
859.743	40.31
860.178	49.11
860.612	40.71
861.047	59.11
861.481	69.21
861.915	72.21
862.35	46.11
862.784	36.91
863.218	32.01
863.653	33.11
864.087	48.11
864.521	56.71
864.955	66.91
865.39	149.91
865.824	173.11
866.258	115.51
866.692	153.61
867.126	169.31
867.56	104.41
867.994	54.81
868.428	36.81
868.862	45.91
869.296	55.01
869.73	55.11
870.164	49.81
870.598	53.21
871.031	35.11
871.465	30.31
871.899	35.41
872.333	25.41
872.766	25.71
873.2	25.01
873.634	24.81
874.067	23.11
874.501	23.21
874.935	31.51
875.368	39.21
875.802	30.71
876.235	23.41
876.669	26.71
877.102	24.41
877.535	24.41
877.969	21.51
878.402	23.41
878.836	20.71
879.269	19.21
879.702	18.41
880.135	20.21
880.569	24.71
881.002	29.11
881.435	25.01
881.868	19.91
882.301	22.61
882.734	18.31
883.167	26.51
883.601	14.11
884.034	21.51
884.467	14.11
884.899	15.51
885.332	15.81
885.765	16.21
886.198	18.91
886.631	17.61
887.064	14.71
887.497	21.81
887.929	25.51
888.362	10.81
888.795	6.31
889.228	20.81
889.66	23.81
890.093	20.51
890.526	14.61
890.958	21.81
891.391	17.71
891.823	22.51
892.256	13.21
892.688	7.51
893.121	18.61
893.553	12.31
893.985	24.41
894.418	19.81
894.85	11.01
895.282	18.51
895.715	17.71
896.147	14.41
896.579	18.21
897.011	13.91
897.444	23.11
897.876	11.91
898.308	10.21
898.74	8.51
899.172	13.71
899.604	21.61
900.036	17.91
900.468	14.81
900.9	20.51
901.332	17.41
901.764	14.51
902.196	18.61
902.628	15.61
903.06	15.21
903.491	30.61
903.923	23.21
904.355	18.61
904.787	20.91
905.218	23.51
905.65	20.01
906.082	15.11
906.513	16.91
906.945	21.01
907.376	12.31
907.808	18.81
908.239	21.51
908.671	22.31
909.102	17.71
909.534	33.21
909.965	52.61
910.397	99.81
910.828	321.01
911.259	471.71
911.691	218.91
912.122	109.81
912.553	47.81
912.984	35.51
913.415	23.61
913.847	27.11
914.278	16.41
914.709	15.41
915.14	17.21
915.571	14.11
916.002	11.11
916.433	15.51
916.864	15.71
917.295	15.21
917.726	22.91
918.157	13.91
918.587	19.21
919.018	24.91
919.449	22.51
919.88	28.71
920.311	33.71
920.741	51.51
921.172	167.71
921.603	146.21
922.033	70.11
922.464	44.81
922.895	27.51
923.325	19.61
923.756	14.11
924.186	13.01
924.617	21.21
925.047	34.81
925.478	54.31
925.908	42.31
926.338	24.21
926.769	17.11
927.199	26.41
927.629	13.11
928.06	14.31
928.49	14.01
928.92	10.71
929.35	8.11
929.78	10.91
930.21	4.01
930.641	13.81
931.071	13.71
931.501	10.21
931.931	4.31
932.361	6.41
932.791	4.71
933.221	7.81
933.651	-6.59
934.08	15.51
934.51	28.91
934.94	12.11
935.37	10.01
935.8	9.41
936.229	2.81
936.659	3.11
937.089	2.11
937.519	13.31
937.948	22.51
938.378	19.51
938.807	6.81
939.237	3.11
939.666	8.91
940.096	-6.39
940.525	1.31
940.955	-1.39
941.384	2.31
941.814	-6.09
942.243	1.81
942.672	3.51
943.102	-5.29
943.531	-2.29
943.96	9.11
944.39	3.41
944.819	3.31
945.248	6.91
945.677	3.31
946.106	12.11
946.535	3.91
946.964	3.31
947.393	5.31
947.822	-2.49
948.251	0.11
948.68	5.91
949.109	7.41
949.538	7.01
949.967	2.91
950.396	-0.69
950.825	-4.59
951.254	2.21
951.682	-7.89
952.111	5.71
952.54	5.81
952.969	-0.69
953.397	-6.09
953.826	-2.79
954.254	-4.49
954.683	-0.79
955.112	-1.89
955.54	3.31
955.969	0.51
956.397	-0.29
956.826	0.81
957.254	-1.39
957.682	3.41
958.111	7.21
958.539	-3.79
958.967	2.01
959.396	-3.69
959.824	1.61
960.252	4.91
960.68	-2.69
961.109	-6.79
961.537	-3.39
961.965	6.21
962.393	-3.39
962.821	-3.29
963.249	1.51
963.677	0.81
964.105	8.61
964.533	40.41
964.961	40.51
965.389	26.01
965.817	10.51
966.245	-2.69
966.672	-3.79
967.1	-6.39
967.528	-0.99
967.956	0.51
968.383	-1.29
968.811	-4.29
969.239	-4.59
969.666	-7.69
970.094	-0.29
970.522	-2.99
970.949	-4.09
971.377	-3.49
971.804	-4.39
972.232	-3.79
972.659	-3.99
973.087	0.01
973.514	0.21
973.941	-1.69
974.369	0.11
974.796	2.81
975.223	2.91
975.651	3.41
976.078	7.41
976.505	-0.19
976.932	4.61
977.359	11.61
977.786	11.51
978.214	2.21
978.641	-6.79
979.068	-8.99
979.495	-3.29
979.922	2.61
980.349	-0.69
980.776	1.01
981.202	2.21
981.629	4.11
982.056	1.61
982.483	-1.29
982.91	3.61
983.337	-6.09
983.763	5.21
984.19	-3.39
984.617	-5.19
985.043	-3.49
985.47	2.81
985.897	-0.69
986.323	-7.99
986.75	-2.39
987.176	0.31
987.603	-3.69
988.029	3.71
988.456	3.41
988.882	2.31
989.308	-5.59
989.735	-11.49
990.161	2.41
990.587	-4.79
991.014	-6.39
991.44	7.51
991.866	-3.39
992.292	-6.19
992.719	1.21
993.145	3.41
993.571	-11.59
993.997	-9.29
994.423	-5.99
994.849	-3.89
995.275	6.71
995.701	-1.39
996.127	1.21
996.553	1.91
996.979	-2.29
997.405	-5.09
997.83	-7.59
998.256	-4.29
998.682	-5.99
999.108	-7.59
999.534	-2.69
999.959	-4.79
1000.385	0.41
1000.811	-0.59
1001.236	-13.29
1001.662	-5.49
1002.087	-10.89
1002.513	-6.19
1002.938	4.81
1003.364	2.71
1003.789	-4.09
1004.215	2.41
1004.64	1.31
1005.066	0.11
1005.491	0.11
1005.916	0.01
1006.342	-3.19
1006.767	-3.29
1007.192	1.51
1007.617	-3.89
1008.042	4.31
1008.468	-4.29
1008.893	-6.69
1009.318	-2.99
1009.743	-1.89
1010.168	2.31
1010.593	1.41
1011.018	-7.99
1011.443	-3.59
1011.868	5.81
1012.293	-1.69
1012.718	-7.19
1013.143	2.01
1013.567	0.51
1013.992	1.51
1014.417	-16.59
1014.842	0.91
1015.267	-3.79
1015.691	-6.69
1016.116	9.41
1016.541	-8.69
1016.965	2.61
1017.39	0.41
1017.814	0.51
1018.239	-3.19
1018.663	-5.69
1019.088	-12.39
1019.512	-10.49
1019.937	-8.29
1020.361	-1.59
1020.785	-7.29
1021.21	-6.69
1021.634	-4.59
1022.058	-1.09
1022.483	-1.69
1022.907	-5.79
1023.331	-1.59
1023.755	-4.59
1024.179	-2.79
1024.604	-9.19
1025.028	-1.59
1025.452	-3.29
1025.876	-3.29
1026.3	-2.09
1026.724	-12.59
1027.148	-3.19
1027.572	-6.79
1027.996	5.21
1028.42	2.11
1028.843	-6.69
1029.267	-1.99
1029.691	-5.29
1030.115	-1.49
1030.539	-5.79
1030.962	-5.99
1031.386	-9.29
1031.81	1.91
1032.233	1.21
1032.657	-0.39
1033.08	0.01
1033.504	-7.99
1033.927	-7.39
1034.351	1.21
1034.774	-3.89
1035.198	1.11
1035.621	-4.89
1036.045	-2.59
1036.468	0.21
1036.891	-10.99
1037.315	-9.69
1037.738	-5.99
1038.161	-0.39
1038.584	-5.39
1039.008	-8.29
1039.431	-4.19
1039.854	-1.49
1040.277	-9.59
1040.7	-7.99
1041.123	-0.99
1041.546	-7.29
1041.969	-4.19
1042.392	-2.99
1042.815	-3.79
1043.238	-4.29
1043.661	1.61
1044.084	-4.19
1044.507	-6.29
1044.93	-5.19
1045.352	-3.29
1045.775	-1.99
1046.198	-0.69
1046.621	-6.09
1047.043	1.91
1047.466	8.41
1047.889	-2.19
1048.311	-5.59
1048.734	-4.29
1049.156	-8.59
1049.579	-4.59
1050.001	-2.89
1050.424	4.21
1050.846	-1.69
1051.269	1.11
1051.691	-9.49
1052.113	-2.09
1052.536	-5.99
1052.958	-4.69
1053.38	-2.39
1053.802	-16.79
1054.225	-3.39
1054.647	-13.19
1055.069	-6.99
1055.491	0.61
1055.913	-7.19
1056.335	0.81
1056.757	-2.79
1057.179	-8.49
1057.601	-4.39
1058.023	-5.29
1058.445	-1.69
1058.867	-2.89
1059.289	-0.49
1059.711	-7.89
1060.133	-4.59
1060.555	0.51
1060.976	-11.29
1061.398	-7.39
1061.82	-4.59
1062.241	-5.39
1062.663	-10.19
1063.085	-7.59
1063.506	2.61
1063.928	-3.09
1064.35	-1.89
1064.771	-9.19
1065.193	-1.39
1065.614	-9.99
1066.035	-3.49
1066.457	-1.69
1066.878	-2.09
1067.3	-2.99
1067.721	-3.89
1068.142	-1.79
1068.564	-6.79
1068.985	-11.39
1069.406	-5.59
1069.827	-2.39
1070.248	-3.19
1070.67	-8.49
1071.091	-4.29
1071.512	-3.99
1071.933	-3.59
1072.354	-11.79
1072.775	-6.09
1073.196	-10.09
1073.617	-2.39
1074.038	-6.59
1074.459	-1.79
1074.88	-13.69
1075.3	1.11
1075.721	-5.99
1076.142	0.01
1076.563	1.41
1076.983	-12.29
1077.404	-9.19
1077.825	-9.69
1078.246	-2.99
1078.666	-5.89
1079.087	0.41
1079.507	-7.59
1079.928	0.31
1080.348	1.91
1080.769	-4.79
1081.189	0.11
1081.61	-3.29
1082.03	-1.29
1082.451	-1.69
1082.871	-6.09
1083.291	-7.89
1083.711	-10.89
1084.132	-6.29
1084.552	-3.49
1084.972	0.91
1085.392	-10.99
1085.813	-11.69
1086.233	-0.59
1086.653	-10.39
1087.073	1.11
1087.493	-13.89
1087.913	-6.39
1088.333	-5.09
1088.753	0.31
1089.173	-1.39
1089.593	-7.99
1090.013	-1.09
1090.433	4.81
1090.852	-8.19
1091.272	0.41
1091.692	3.21
1092.112	-1.69
1092.531	-4.69
1092.951	-17.79
1093.371	-6.49
1093.79	3.81
1094.21	-3.89
1094.63	-6.89
1095.049	-9.09
1095.469	-0.79
1095.888	-3.09
1096.308	7.11
1096.727	5.41
1097.146	-7.29
1097.566	-5.19
1097.985	-6.59
1098.405	-3.59
1098.824	-9.69
1099.243	-9.59
1099.662	-11.29
1100.082	-4.99
1100.501	-2.19
1100.92	-7.99
1101.339	-10.39
1101.758	-3.19
