Data from 20171114-ORNL-Ar_H_NY_Subt18_08-05-01-844.txt Node
Date: Tue Nov 14 08:05:01 EST 2017
User: Ender
Spectrometer: HR+D1039
Trigger mode: 0
Integration Time (sec): 2.730000E-2
Scans to average: 10
Electric dark correction enabled: true
Nonlinearity correction enabled: false
Boxcar width: 0
XAxis mode: Wavelengths
Number of Pixels in Spectrum: 2048
>>>>>Begin Spectral Data<<<<<
187.836	-5.29
188.309	-5.29
188.782	-5.29
189.255	-6.19
189.728	3.11
190.201	4.01
190.674	4.51
191.147	2.01
191.619	-7.09
192.092	-0.49
192.565	1.31
193.038	0.21
193.511	0.21
193.984	5.81
194.456	-1.19
194.929	0.21
195.402	-2.29
195.874	1.21
196.347	-1.49
196.82	-7.79
197.292	6.51
197.765	-1.49
198.237	-6.79
198.71	5.01
199.182	-4.79
199.655	1.41
200.127	2.41
200.6	-2.09
201.072	-4.39
201.544	-7.39
202.017	-3.49
202.489	-1.29
202.961	-1.79
203.433	-5.89
203.906	-9.99
204.378	-3.59
204.85	-3.29
205.322	-6.79
205.794	-1.29
206.266	-6.19
206.739	-8.29
207.211	6.91
207.683	-4.59
208.155	-5.79
208.627	-9.59
209.099	-5.29
209.57	-7.99
210.042	-4.69
210.514	-3.89
210.986	-3.79
211.458	-2.49
211.93	-1.79
212.402	-1.19
212.873	-5.69
213.345	-7.49
213.817	-8.39
214.288	-4.39
214.76	-11.59
215.232	2.11
215.703	2.71
216.175	-3.99
216.646	3.71
217.118	-3.89
217.589	-5.79
218.061	-4.09
218.532	-2.29
219.004	-0.49
219.475	-3.69
219.946	-2.69
220.418	-5.09
220.889	1.71
221.36	-3.89
221.832	-2.69
222.303	-9.89
222.774	-3.79
223.245	-6.59
223.717	-13.09
224.188	-2.09
224.659	-11.79
225.13	-13.39
225.601	-5.79
226.072	0.01
226.543	-6.69
227.014	3.01
227.485	-2.59
227.956	-4.69
228.427	-4.49
228.898	0.51
229.369	4.81
229.839	-1.99
230.31	-4.89
230.781	5.81
231.252	-8.39
231.722	-10.99
232.193	-5.39
232.664	-2.49
233.135	5.21
233.605	0.01
234.076	0.91
234.546	0.31
235.017	8.51
235.487	1.11
235.958	2.81
236.428	-0.69
236.899	5.31
237.369	3.31
237.84	-2.09
238.31	9.41
238.78	7.11
239.251	-2.49
239.721	4.71
240.191	0.11
240.662	4.71
241.132	3.21
241.602	0.11
242.072	0.81
242.542	10.41
243.013	3.81
243.483	9.51
243.953	10.41
244.423	4.81
244.893	-1.69
245.363	-1.29
245.833	0.91
246.303	-0.49
246.773	14.51
247.243	3.01
247.712	0.91
248.182	12.31
248.652	6.11
249.122	1.91
249.592	11.41
250.061	19.21
250.531	37.01
251.001	16.81
251.471	24.31
251.94	26.61
252.41	10.01
252.879	1.71
253.349	15.01
253.818	11.21
254.288	10.31
254.757	14.41
255.227	4.31
255.696	6.01
256.166	14.71
256.635	7.71
257.105	11.11
257.574	3.61
258.043	9.81
258.513	17.61
258.982	19.91
259.451	4.81
259.92	14.31
260.389	10.71
260.859	22.11
261.328	11.01
261.797	18.91
262.266	9.41
262.735	15.01
263.204	4.91
263.673	4.91
264.142	9.91
264.611	-2.19
265.08	0.91
265.549	3.21
266.018	7.51
266.487	-0.99
266.955	-3.29
267.424	3.71
267.893	7.71
268.362	6.21
268.83	7.11
269.299	13.91
269.768	11.41
270.236	8.91
270.705	8.11
271.174	2.61
271.642	12.21
272.111	14.61
272.579	18.71
273.048	27.81
273.516	31.01
273.985	29.81
274.453	29.31
274.922	22.81
275.39	17.31
275.858	8.61
276.327	14.81
276.795	20.51
277.263	14.21
277.731	30.81
278.2	61.41
278.668	58.91
279.136	51.21
279.604	22.71
280.072	20.41
280.54	14.41
281.008	12.21
281.477	18.11
281.945	20.41
282.413	18.01
282.881	18.41
283.348	8.41
283.816	17.71
284.284	21.61
284.752	20.71
285.22	14.81
285.688	13.51
286.156	18.41
286.623	48.21
287.091	56.31
287.559	36.51
288.026	19.51
288.494	21.81
288.962	9.41
289.429	13.31
289.897	24.21
290.364	16.51
290.832	20.61
291.3	12.51
291.767	22.01
292.234	20.21
292.702	21.41
293.169	19.01
293.637	20.71
294.104	17.51
294.571	10.81
295.039	18.31
295.506	18.31
295.973	19.91
296.44	14.91
296.908	23.71
297.375	26.31
297.842	28.51
298.309	28.01
298.776	20.11
299.243	28.91
299.71	17.01
300.177	22.21
300.644	22.41
301.111	20.61
301.578	26.91
302.045	22.41
302.512	24.41
302.979	29.31
303.446	24.71
303.913	23.01
304.379	25.21
304.846	30.11
305.313	33.01
305.78	23.61
306.246	33.91
306.713	29.61
307.18	25.81
307.646	27.21
308.113	33.51
308.579	28.71
309.046	29.81
309.512	27.71
309.979	16.41
310.445	30.81
310.912	25.41
311.378	34.81
311.845	27.41
312.311	35.81
312.777	35.51
313.244	33.11
313.71	42.51
314.176	33.81
314.642	39.01
315.109	25.71
315.575	36.41
316.041	42.51
316.507	31.11
316.973	39.71
317.439	36.61
317.905	41.71
318.371	33.61
318.837	39.21
319.303	35.71
319.769	36.71
320.235	39.51
320.701	39.61
321.167	38.41
321.633	36.71
322.099	44.71
322.564	49.41
323.03	47.31
323.496	43.71
323.962	44.01
324.427	41.61
324.893	42.71
325.359	43.61
325.824	45.91
326.29	34.81
326.755	36.61
327.221	40.31
327.686	42.81
328.152	55.61
328.617	45.41
329.083	47.21
329.548	51.71
330.014	43.51
330.479	43.91
330.944	47.41
331.41	51.11
331.875	48.51
332.34	49.01
332.805	39.31
333.271	44.91
333.736	45.91
334.201	55.51
334.666	53.81
335.131	52.61
335.596	50.01
336.061	48.71
336.526	48.91
336.991	49.01
337.456	57.01
337.921	48.81
338.386	44.61
338.851	47.91
339.316	49.31
339.781	52.51
340.246	61.01
340.711	49.51
341.175	54.11
341.64	47.01
342.105	54.31
342.569	57.21
343.034	63.81
343.499	56.51
343.963	55.91
344.428	66.81
344.893	64.61
345.357	66.01
345.822	69.41
346.286	62.91
346.751	77.21
347.215	65.11
347.679	72.51
348.144	99.41
348.608	81.51
349.073	73.21
349.537	79.71
350.001	85.61
350.465	86.71
350.93	74.01
351.394	92.11
351.858	82.01
352.322	86.71
352.786	83.61
353.25	96.61
353.715	114.81
354.179	105.11
354.643	122.51
355.107	124.21
355.571	108.61
356.035	113.01
356.498	118.41
356.962	127.21
357.426	135.11
357.89	120.41
358.354	97.51
358.818	85.51
359.281	85.51
359.745	82.51
360.209	82.61
360.673	84.81
361.136	87.71
361.6	91.81
362.064	84.41
362.527	89.41
362.991	98.71
363.454	78.71
363.918	79.21
364.381	82.11
364.845	88.31
365.308	87.91
365.772	91.01
366.235	90.41
366.698	89.11
367.162	90.91
367.625	94.31
368.088	88.71
368.552	95.21
369.015	90.71
369.478	97.11
369.941	104.71
370.404	96.11
370.867	110.21
371.331	108.01
371.794	110.81
372.257	111.81
372.72	115.81
373.183	116.11
373.646	106.91
374.109	106.91
374.572	112.01
375.035	109.71
375.497	107.91
375.96	103.41
376.423	103.21
376.886	112.81
377.349	110.01
377.811	109.11
378.274	107.81
378.737	106.21
379.199	110.61
379.662	116.51
380.125	119.41
380.587	116.41
381.05	125.31
381.512	133.21
381.975	135.01
382.437	125.91
382.9	130.51
383.362	132.01
383.825	142.71
384.287	147.71
384.75	146.81
385.212	145.41
385.674	137.81
386.136	131.61
386.599	126.91
387.061	130.81
387.523	130.51
387.985	135.41
388.447	138.91
388.91	146.61
389.372	160.81
389.834	151.21
390.296	140.51
390.758	153.31
391.22	167.41
391.682	211.61
392.144	287.71
392.606	224.71
393.068	169.31
393.529	166.91
393.991	149.41
394.453	148.61
394.915	152.21
395.377	187.11
395.838	206.31
396.3	154.81
396.762	140.91
397.224	136.71
397.685	129.11
398.147	132.61
398.608	126.61
399.07	133.31
399.531	133.41
399.993	144.91
400.454	148.81
400.916	145.51
401.377	147.01
401.839	150.51
402.3	153.21
402.762	165.81
403.223	185.01
403.684	168.71
404.145	160.01
404.607	163.41
405.068	169.31
405.529	167.11
405.99	183.51
406.451	172.21
406.913	177.61
407.374	158.91
407.835	157.71
408.296	166.61
408.757	172.21
409.218	188.71
409.679	177.41
410.14	172.31
410.601	175.81
411.062	180.71
411.522	188.81
411.983	187.01
412.444	177.61
412.905	171.21
413.366	176.41
413.826	192.01
414.287	216.91
414.748	266.11
415.208	242.51
415.669	212.91
416.13	202.21
416.59	203.01
417.051	215.21
417.511	217.01
417.972	235.81
418.432	243.01
418.893	288.41
419.353	248.81
419.814	195.91
420.274	178.01
420.734	183.71
421.195	194.01
421.655	203.81
422.115	199.01
422.576	184.81
423.036	191.21
423.496	199.61
423.956	208.91
424.416	231.71
424.876	255.11
425.336	255.41
425.797	259.81
426.257	247.41
426.717	239.71
427.177	231.41
427.637	225.61
428.097	232.41
428.556	243.71
429.016	261.01
429.476	259.41
429.936	277.11
430.396	272.91
430.856	285.51
431.315	315.01
431.775	343.91
432.235	368.51
432.694	342.21
433.154	357.11
433.614	380.91
434.073	329.41
434.533	281.41
434.993	260.41
435.452	282.31
435.912	290.11
436.371	288.01
436.83	286.21
437.29	266.51
437.749	243.91
438.209	246.91
438.668	270.61
439.127	281.51
439.587	268.11
440.046	248.21
440.505	251.41
440.964	271.71
441.424	324.01
441.883	304.01
442.342	254.31
442.801	221.51
443.26	213.51
443.719	217.21
444.178	216.41
444.637	205.71
445.096	219.51
445.555	215.21
446.014	210.61
446.473	210.91
446.932	221.81
447.391	216.11
447.849	224.41
448.308	225.11
448.767	220.21
449.226	228.71
449.685	228.21
450.143	246.01
450.602	235.51
451.061	224.81
451.519	230.21
451.978	231.91
452.436	237.51
452.895	236.71
453.353	251.31
453.812	235.11
454.27	233.31
454.729	238.91
455.187	237.81
455.646	242.31
456.104	248.21
456.562	260.91
457.021	265.41
457.479	253.91
457.937	267.41
458.395	255.41
458.854	244.11
459.312	255.01
459.77	268.81
460.228	245.21
460.686	241.31
461.144	243.91
461.602	245.61
462.06	237.81
462.518	251.21
462.976	250.81
463.434	250.31
463.892	262.21
464.35	277.31
464.808	291.31
465.266	262.91
465.724	269.01
466.181	274.71
466.639	267.01
467.097	282.51
467.555	297.41
468.012	293.31
468.47	310.81
468.928	318.81
469.385	340.51
469.843	337.51
470.3	343.11
470.758	355.81
471.215	380.71
471.673	398.01
472.13	403.61
472.588	414.81
473.045	366.91
473.503	378.51
473.96	393.41
474.417	400.21
474.875	432.61
475.332	465.91
475.789	446.61
476.246	451.61
476.704	472.81
477.161	501.71
477.618	513.71
478.075	551.51
478.532	611.61
478.989	688.91
479.446	786.51
479.903	765.11
480.36	798.41
480.817	855.71
481.274	961.81
481.731	1059.51
482.188	1151.11
482.645	1284.01
483.102	1405.31
483.558	1539.01
484.015	1578.71
484.472	1566.71
484.929	1509.71
485.385	1474.31
485.842	1412.01
486.299	1360.81
486.755	1293.21
487.212	1081.81
487.668	916.01
488.125	852.61
488.582	777.01
489.038	740.21
489.494	707.31
489.951	683.41
490.407	673.01
490.864	641.81
491.32	634.91
491.776	634.91
492.233	636.51
492.689	599.11
493.145	592.61
493.602	591.71
494.058	601.31
494.514	607.81
494.97	625.81
495.426	649.61
495.882	623.01
496.338	600.61
496.794	624.01
497.251	613.51
497.707	629.11
498.163	623.41
498.618	639.71
499.074	635.11
499.53	665.51
499.986	671.71
500.442	645.41
500.898	613.31
501.354	620.31
501.809	630.41
502.265	639.41
502.721	652.81
503.177	670.31
503.632	659.81
504.088	671.91
504.543	701.31
504.999	697.61
505.455	654.81
505.91	622.81
506.366	621.11
506.821	613.61
507.277	618.31
507.732	622.71
508.187	622.61
508.643	620.91
509.098	630.31
509.553	653.01
510.009	652.51
510.464	661.51
510.919	681.01
511.375	691.31
511.83	707.31
512.285	725.31
512.74	751.31
513.195	775.31
513.65	766.41
514.105	747.61
514.56	767.71
515.015	772.41
515.47	801.81
515.925	784.51
516.38	776.31
516.835	786.91
517.29	770.61
517.745	769.21
518.2	747.31
518.655	741.81
519.109	735.21
519.564	731.01
520.019	724.61
520.474	713.51
520.928	722.41
521.383	709.51
521.838	700.91
522.292	705.91
522.747	698.61
523.201	693.91
523.656	677.91
524.11	681.71
524.565	670.91
525.019	680.21
525.474	690.91
525.928	685.81
526.382	676.21
526.837	682.51
527.291	691.41
527.745	688.91
528.2	675.51
528.654	675.01
529.108	681.71
529.562	672.71
530.016	676.21
530.47	668.71
530.925	675.41
531.379	691.71
531.833	690.51
532.287	697.71
532.741	695.51
533.195	694.71
533.649	712.71
534.103	706.51
534.556	704.11
535.01	706.01
535.464	707.71
535.918	709.01
536.372	698.41
536.826	714.41
537.279	698.61
537.733	696.91
538.187	711.61
538.64	701.31
539.094	712.31
539.548	712.71
540.001	712.41
540.455	699.91
540.908	718.51
541.362	723.11
541.815	731.81
542.269	740.71
542.722	742.91
543.175	752.01
543.629	755.61
544.082	767.91
544.536	764.21
544.989	778.41
545.442	771.61
545.895	769.71
546.349	778.01
546.802	775.41
547.255	773.81
547.708	784.51
548.161	799.61
548.614	806.11
549.067	811.71
549.52	791.11
549.973	792.81
550.426	789.41
550.879	773.61
551.332	787.81
551.785	785.81
552.238	796.11
552.691	797.51
553.144	815.41
553.596	820.31
554.049	841.61
554.502	873.51
554.955	893.21
555.407	890.51
555.86	881.61
556.313	874.61
556.765	865.01
557.218	866.71
557.67	870.31
558.123	852.71
558.576	850.11
559.028	863.71
559.48	857.61
559.933	846.71
560.385	809.11
560.838	789.61
561.29	763.51
561.742	760.21
562.195	741.91
562.647	754.31
563.099	755.31
563.551	741.01
564.004	754.01
564.456	751.21
564.908	744.41
565.36	719.51
565.812	714.51
566.264	700.31
566.716	703.21
567.168	689.41
567.62	697.51
568.072	686.41
568.524	671.61
568.976	666.91
569.428	658.11
569.88	650.71
570.332	657.71
570.784	657.81
571.235	662.11
571.687	676.61
572.139	681.71
572.59	686.51
573.042	684.61
573.494	688.21
573.945	682.61
574.397	666.01
574.849	668.91
575.3	668.61
575.752	663.01
576.203	655.91
576.655	669.31
577.106	643.31
577.557	645.91
578.009	648.01
578.46	642.91
578.912	637.21
579.363	643.11
579.814	643.81
580.265	645.71
580.717	644.31
581.168	639.31
581.619	649.81
582.07	650.11
582.521	647.91
582.972	647.51
583.423	644.51
583.875	662.81
584.326	673.81
584.777	719.11
585.227	782.41
585.678	873.81
586.129	953.91
586.58	1020.11
587.031	1113.31
587.482	1250.11
587.933	1430.51
588.384	1243.31
588.834	924.01
589.285	769.51
589.736	755.11
590.186	744.11
590.637	733.71
591.088	717.81
591.538	707.51
591.989	699.21
592.439	694.21
592.89	695.01
593.34	684.11
593.791	689.31
594.241	670.91
594.692	685.81
595.142	665.21
595.593	668.31
596.043	674.01
596.493	673.31
596.943	678.21
597.394	683.71
597.844	672.71
598.294	689.01
598.744	700.51
599.195	732.81
599.645	776.61
600.095	817.91
600.545	869.41
600.995	924.91
601.445	977.21
601.895	1035.01
602.345	1079.51
602.795	1059.61
603.245	1011.81
603.695	972.41
604.145	913.61
604.594	870.51
605.044	815.51
605.494	750.91
605.944	720.71
606.393	709.11
606.843	687.71
607.293	692.91
607.743	693.51
608.192	718.31
608.642	713.81
609.091	724.41
609.541	731.21
609.99	728.91
610.44	724.81
610.889	687.11
611.339	664.71
611.788	644.41
612.238	667.11
612.687	680.21
613.136	683.81
613.586	699.31
614.035	695.31
614.484	711.21
614.933	715.51
615.383	707.81
615.832	688.51
616.281	686.61
616.73	654.81
617.179	634.41
617.628	609.91
618.077	595.81
618.526	585.51
618.975	583.41
619.424	573.11
619.873	578.71
620.322	587.71
620.771	571.01
621.22	569.31
621.669	554.81
622.118	545.11
622.567	539.41
623.015	544.31
623.464	536.11
623.913	526.01
624.361	515.31
624.81	519.21
625.259	522.61
625.707	523.71
626.156	526.71
626.604	533.41
627.053	523.81
627.501	521.41
627.95	527.11
628.398	547.61
628.847	534.01
629.295	529.61
629.744	542.81
630.192	538.21
630.64	537.81
631.089	527.51
631.537	542.61
631.985	543.81
632.433	559.11
632.881	558.41
633.33	614.51
633.778	592.01
634.226	533.91
634.674	531.91
635.122	533.41
635.57	561.81
636.018	586.91
636.466	537.11
636.914	518.31
637.362	523.11
637.81	537.61
638.258	542.11
638.705	534.41
639.153	568.01
639.601	575.41
640.049	590.91
640.497	628.31
640.944	642.21
641.392	597.91
641.84	565.51
642.287	543.61
642.735	528.21
643.182	528.01
643.63	541.41
644.078	539.51
644.525	558.21
644.973	555.01
645.42	565.61
645.867	585.21
646.315	601.81
646.762	613.51
647.21	636.01
647.657	659.31
648.104	690.81
648.551	710.61
648.999	775.81
649.446	856.51
649.893	927.51
650.34	1073.71
650.787	1274.11
651.234	1592.31
651.682	2070.41
652.129	2842.11
652.576	4065.31
653.023	6028.71
653.47	8287.91
653.917	10452.11
654.363	12175.31
654.81	13592.41
655.257	12901.31
655.704	8430.51
656.151	4960.71
656.598	3200.51
657.044	2288.41
657.491	1749.51
657.938	1395.51
658.385	1159.11
658.831	1014.81
659.278	893.41
659.724	794.21
660.171	739.11
660.618	676.61
661.064	645.21
661.511	626.91
661.957	610.91
662.404	599.11
662.85	598.11
663.296	579.61
663.743	511.41
664.189	494.41
664.635	491.21
665.082	487.71
665.528	484.11
665.974	481.91
666.42	474.41
666.867	466.01
667.313	451.21
667.759	441.31
668.205	442.41
668.651	447.81
669.097	444.11
669.543	464.11
669.989	436.81
670.435	417.11
670.881	413.41
671.327	417.01
671.773	430.21
672.219	448.31
672.665	496.71
673.11	536.41
673.556	583.31
674.002	619.61
674.448	603.61
674.893	503.91
675.339	439.71
675.785	404.91
676.23	392.31
676.676	359.71
677.122	352.41
677.567	346.01
678.013	339.51
678.458	329.81
678.904	327.41
679.349	317.01
679.794	324.11
680.24	323.51
680.685	316.81
681.131	313.61
681.576	321.71
682.021	325.11
682.466	318.11
682.912	317.31
683.357	318.31
683.802	348.11
684.247	372.01
684.692	418.01
685.137	446.01
685.583	487.01
686.028	517.01
686.473	473.01
686.918	406.51
687.363	386.91
687.807	360.41
688.252	340.81
688.697	319.11
689.142	305.21
689.587	303.11
690.032	301.11
690.477	300.91
690.921	327.41
691.366	354.11
691.811	377.71
692.255	391.61
692.7	422.71
693.145	457.21
693.589	624.21
694.034	1014.61
694.478	1398.01
694.923	1601.11
695.367	2104.91
695.812	1095.71
696.256	455.71
696.701	338.81
697.145	320.41
697.59	302.01
698.034	296.91
698.478	297.21
698.922	298.21
699.367	300.91
699.811	314.61
700.255	321.11
700.699	352.31
701.143	391.81
701.588	442.21
702.032	479.31
702.476	470.01
702.92	448.71
703.364	442.51
703.808	564.71
704.252	923.61
704.696	1307.01
705.14	1535.31
705.584	1983.71
706.027	987.71
706.471	476.11
706.915	361.61
707.359	316.81
707.803	293.21
708.246	286.91
708.69	286.21
709.134	284.81
709.577	281.31
710.021	294.71
710.465	282.61
710.908	278.91
711.352	267.91
711.795	279.81
712.239	313.11
712.682	351.11
713.126	380.61
713.569	428.91
714.012	344.41
714.456	296.91
714.899	272.91
715.342	256.81
715.786	239.41
716.229	239.01
716.672	237.31
717.115	227.11
717.558	231.51
718.002	225.21
718.445	238.11
718.888	263.01
719.331	263.71
719.774	280.61
720.217	271.41
720.66	251.91
721.103	239.71
721.546	228.51
721.989	225.11
722.432	214.71
722.874	209.01
723.317	211.01
723.76	214.81
724.203	234.01
724.645	294.91
725.088	392.61
725.531	514.31
725.974	604.41
726.416	511.01
726.859	282.21
727.301	227.51
727.744	221.91
728.187	214.11
728.629	212.91
729.071	220.01
729.514	233.81
729.956	249.21
730.399	255.51
730.841	264.11
731.283	249.11
731.726	238.11
732.168	234.51
732.61	243.71
733.053	256.61
733.495	279.01
733.937	320.01
734.379	357.11
734.821	396.41
735.263	487.61
735.705	739.11
736.148	1392.71
736.59	2334.71
737.032	2833.11
737.474	2287.51
737.916	736.31
738.357	387.31
738.799	300.61
739.241	268.31
739.683	256.81
740.125	264.81
740.567	273.91
741.008	285.71
741.45	289.31
741.892	293.11
742.334	316.51
742.775	325.51
743.217	309.71
743.658	248.61
744.1	239.01
744.542	231.51
744.983	282.41
745.425	302.81
745.866	312.81
746.307	252.81
746.749	262.21
747.19	297.51
747.632	400.01
748.073	765.31
748.514	1641.71
748.956	2594.51
749.397	3226.41
749.838	2694.11
750.279	2740.31
750.72	1377.21
751.162	500.21
751.603	288.81
752.044	230.61
752.485	199.61
752.926	193.21
753.367	184.01
753.808	177.11
754.249	166.91
754.69	168.91
755.131	164.51
755.572	166.71
756.013	163.21
756.453	165.31
756.894	163.11
757.335	170.21
757.776	181.91
758.216	183.01
758.657	182.11
759.098	190.31
759.538	207.51
759.979	236.41
760.42	330.51
760.86	618.91
761.301	1586.51
761.741	3935.11
762.182	5965.91
762.622	4221.31
763.063	1198.81
763.503	499.51
763.943	311.61
764.384	308.71
764.824	368.91
765.264	405.51
765.705	275.31
766.145	193.11
766.585	168.21
767.025	164.11
767.465	169.31
767.906	212.81
768.346	293.61
768.786	314.41
769.226	239.51
769.666	279.41
770.106	544.91
770.546	1363.01
770.986	2404.61
771.426	2206.71
771.866	722.41
772.306	300.31
772.745	191.81
773.185	162.01
773.625	153.41
774.065	143.81
774.505	182.81
774.944	267.21
775.384	583.81
775.824	1107.41
776.263	1095.71
776.703	466.21
777.142	197.41
777.582	137.51
778.021	121.41
778.461	129.61
778.9	126.61
779.34	121.21
779.779	107.51
780.219	100.91
780.658	98.21
781.097	101.51
781.537	106.21
781.976	102.91
782.415	98.21
782.855	93.81
783.294	97.91
783.733	95.01
784.172	103.81
784.611	91.31
785.05	96.21
785.489	99.91
785.928	103.41
786.367	111.01
786.806	101.11
787.245	119.21
787.684	120.31
788.123	132.21
788.562	120.11
789.001	118.81
789.44	114.21
789.879	105.11
790.317	103.31
790.756	112.01
791.195	116.51
791.634	131.41
792.072	184.91
792.511	320.71
792.95	880.41
793.388	1942.51
793.827	1804.91
794.265	619.21
794.704	246.61
795.142	168.51
795.581	139.71
796.019	130.81
796.458	108.91
796.896	118.41
797.334	112.01
797.773	137.91
798.211	200.71
798.649	381.51
799.087	909.11
799.526	1439.21
799.964	1810.11
800.402	1871.71
800.84	689.11
801.278	272.61
801.716	173.41
802.154	145.01
802.592	132.51
803.03	127.61
803.468	117.31
803.906	136.31
804.344	137.91
804.782	131.61
805.22	122.61
805.658	119.01
806.096	131.01
806.533	140.21
806.971	156.41
807.409	195.91
807.847	278.81
808.284	574.81
808.722	1651.21
809.16	3011.51
809.597	2777.71
810.035	4911.41
810.472	5405.41
810.91	1921.51
811.347	722.91
811.785	364.51
812.222	223.51
812.66	173.21
813.097	144.31
813.535	126.91
813.972	118.31
814.409	108.11
814.846	97.71
815.284	102.71
815.721	93.71
816.158	97.91
816.595	112.91
817.032	160.31
817.47	185.71
817.907	140.51
818.344	131.01
818.781	108.81
819.218	96.41
819.655	108.31
820.092	171.31
820.529	194.41
820.966	159.61
821.403	123.81
821.839	97.01
822.276	98.21
822.713	115.91
823.15	120.11
823.587	111.71
824.023	132.61
824.46	265.81
824.897	787.11
825.333	1252.51
825.77	532.61
826.206	205.81
826.643	122.11
827.08	95.21
827.516	76.21
827.953	68.71
828.389	67.41
828.825	60.81
829.262	54.31
829.698	59.61
830.135	59.31
830.571	54.01
831.007	58.41
831.443	52.71
831.88	57.31
832.316	60.01
832.752	58.41
833.188	60.21
833.624	59.81
834.06	67.61
834.497	60.21
834.933	65.61
835.369	66.31
835.805	60.01
836.241	69.31
836.677	74.01
837.112	81.91
837.548	89.91
837.984	122.31
838.42	179.41
838.856	434.11
839.292	1347.61
839.727	2118.21
840.163	984.31
840.599	809.51
841.034	1838.71
841.47	1977.51
841.906	720.61
842.341	306.11
842.777	208.81
843.212	289.21
843.648	282.81
844.083	143.51
844.519	93.61
844.954	75.31
845.39	54.41
845.825	54.61
846.261	53.31
846.696	53.51
847.131	56.61
847.566	53.91
848.002	48.91
848.437	48.71
848.872	53.01
849.307	50.01
849.742	79.61
850.177	156.81
850.613	493.31
851.048	801.81
851.483	343.41
851.918	143.21
852.353	78.51
852.788	59.31
853.223	47.41
853.657	48.71
854.092	45.01
854.527	40.31
854.962	39.41
855.397	41.11
855.832	44.81
856.266	43.11
856.701	40.71
857.136	42.11
857.57	34.91
858.005	45.51
858.44	56.81
858.874	35.71
859.309	48.21
859.743	32.41
860.178	37.31
860.612	40.31
861.047	47.61
861.481	63.61
861.915	69.51
862.35	47.01
862.784	29.51
863.218	36.81
863.653	34.41
864.087	40.81
864.521	46.51
864.955	58.81
865.39	140.81
865.824	155.01
866.258	103.51
866.692	143.41
867.126	159.91
867.56	97.81
867.994	47.11
868.428	36.41
868.862	38.11
869.296	53.31
869.73	56.81
870.164	54.71
870.598	40.61
871.031	35.81
871.465	27.31
871.899	26.51
872.333	24.11
872.766	18.41
873.2	15.91
873.634	21.81
874.067	26.91
874.501	20.41
874.935	32.51
875.368	29.11
875.802	27.91
876.235	23.11
876.669	23.51
877.102	23.51
877.535	20.61
877.969	22.01
878.402	18.71
878.836	23.21
879.269	23.11
879.702	24.11
880.135	19.91
880.569	18.41
881.002	26.41
881.435	18.61
881.868	15.31
882.301	16.91
882.734	21.11
883.167	20.41
883.601	17.51
884.034	23.01
884.467	4.81
884.899	12.61
885.332	15.71
885.765	15.51
886.198	10.61
886.631	18.11
887.064	17.61
887.497	26.31
887.929	27.41
888.362	9.01
888.795	11.71
889.228	15.71
889.66	18.91
890.093	13.21
890.526	15.91
890.958	16.71
891.391	15.61
891.823	20.61
892.256	12.21
892.688	12.31
893.121	17.91
893.553	19.11
893.985	18.61
894.418	18.71
894.85	9.31
895.282	13.21
895.715	12.71
896.147	17.91
896.579	18.81
897.011	12.81
897.444	14.91
897.876	10.01
898.308	15.21
898.74	10.01
899.172	10.81
899.604	19.81
900.036	13.01
900.468	14.41
900.9	19.41
901.332	22.11
901.764	12.41
902.196	15.61
902.628	15.21
903.06	13.61
903.491	27.71
903.923	17.91
904.355	23.11
904.787	21.21
905.218	25.21
905.65	24.01
906.082	14.01
906.513	11.71
906.945	12.91
907.376	9.01
907.808	19.91
908.239	16.31
908.671	20.41
909.102	21.41
909.534	22.21
909.965	47.71
910.397	77.71
910.828	285.71
911.259	434.91
911.691	198.91
912.122	103.31
912.553	52.21
912.984	27.21
913.415	21.01
913.847	22.91
914.278	13.81
914.709	11.11
915.14	17.01
915.571	16.71
916.002	8.81
916.433	15.11
916.864	15.01
917.295	9.01
917.726	18.71
918.157	13.41
918.587	22.71
919.018	21.21
919.449	14.21
919.88	25.81
920.311	25.61
920.741	43.41
921.172	152.71
921.603	144.81
922.033	69.31
922.464	45.91
922.895	20.01
923.325	22.71
923.756	12.61
924.186	12.71
924.617	28.11
925.047	31.31
925.478	54.01
925.908	40.71
926.338	28.11
926.769	18.61
927.199	22.61
927.629	2.41
928.06	9.01
928.49	10.51
928.92	13.41
929.35	12.61
929.78	9.21
930.21	6.41
930.641	8.91
931.071	14.61
931.501	7.61
931.931	9.11
932.361	8.31
932.791	-2.29
933.221	2.31
933.651	2.61
934.08	16.31
934.51	25.81
934.94	8.61
935.37	9.91
935.8	3.51
936.229	10.11
936.659	7.71
937.089	6.11
937.519	11.31
937.948	25.21
938.378	21.81
938.807	11.41
939.237	5.81
939.666	5.91
940.096	-5.29
940.525	0.41
940.955	0.11
941.384	0.21
941.814	-2.09
942.243	-3.69
942.672	1.81
943.102	-1.79
943.531	4.51
943.96	8.71
944.39	0.61
944.819	4.91
945.248	-0.39
945.677	4.71
946.106	4.91
946.535	4.71
946.964	2.41
947.393	4.41
947.822	0.61
948.251	-3.89
948.68	3.31
949.109	2.31
949.538	9.11
949.967	-0.79
950.396	-3.89
950.825	-3.59
951.254	-1.59
951.682	-3.19
952.111	0.81
952.54	8.31
952.969	-4.39
953.397	0.51
953.826	-0.39
954.254	0.31
954.683	-0.89
955.112	0.21
955.54	2.41
955.969	4.21
956.397	-2.09
956.826	-1.49
957.254	3.31
957.682	0.81
958.111	5.91
958.539	-2.99
958.967	1.51
959.396	3.91
959.824	1.51
960.252	3.21
960.68	-3.69
961.109	-3.29
961.537	-1.89
961.965	-1.59
962.393	-2.19
962.821	-5.79
963.249	-0.19
963.677	3.81
964.105	4.31
964.533	34.21
964.961	42.41
965.389	15.61
965.817	7.01
966.245	0.21
966.672	1.71
967.1	1.61
967.528	8.21
967.956	-1.29
968.383	1.71
968.811	0.71
969.239	-4.19
969.666	-3.19
970.094	-1.09
970.522	4.21
970.949	-5.19
971.377	-4.99
971.804	1.61
972.232	-2.29
972.659	4.21
973.087	-0.49
973.514	-3.59
973.941	-5.09
974.369	3.31
974.796	-3.99
975.223	-2.29
975.651	-5.29
976.078	0.81
976.505	-0.49
976.932	0.01
977.359	12.61
977.786	8.91
978.214	-0.59
978.641	-7.09
979.068	-2.29
979.495	-3.69
979.922	1.11
980.349	-0.59
980.776	2.41
981.202	3.81
981.629	4.01
982.056	2.61
982.483	-4.89
982.91	3.31
983.337	-8.29
983.763	9.91
984.19	-6.69
984.617	-8.99
985.043	-0.49
985.47	5.11
985.897	-0.99
986.323	-1.29
986.75	4.41
987.176	-3.99
987.603	1.91
988.029	4.81
988.456	2.81
988.882	6.81
989.308	-7.19
989.735	-4.99
990.161	-1.89
990.587	-2.79
991.014	-5.69
991.44	7.91
991.866	-8.09
992.292	-6.69
992.719	-1.99
993.145	1.81
993.571	-7.09
993.997	-3.09
994.423	6.51
994.849	-6.69
995.275	-4.69
995.701	-1.09
996.127	1.61
996.553	-4.59
996.979	-5.59
997.405	-0.69
997.83	1.71
998.256	-8.29
998.682	-8.59
999.108	-14.09
999.534	-4.89
999.959	-3.99
1000.385	-0.69
1000.811	-0.09
1001.236	-4.99
1001.662	-5.59
1002.087	-7.99
1002.513	4.11
1002.938	4.01
1003.364	-1.59
1003.789	2.71
1004.215	2.61
1004.64	-3.59
1005.066	2.01
1005.491	-3.19
1005.916	-0.39
1006.342	-2.19
1006.767	-5.29
1007.192	4.81
1007.617	-0.99
1008.042	-6.99
1008.468	-5.29
1008.893	-2.09
1009.318	-1.99
1009.743	-0.49
1010.168	2.01
1010.593	-1.49
1011.018	-5.89
1011.443	-1.69
1011.868	-4.59
1012.293	-5.19
1012.718	-11.19
1013.143	2.61
1013.567	3.81
1013.992	2.31
1014.417	-16.69
1014.842	-5.19
1015.267	-5.59
1015.691	-1.69
1016.116	0.01
1016.541	-3.49
1016.965	3.11
1017.39	8.41
1017.814	-2.29
1018.239	-4.69
1018.663	-5.39
1019.088	-8.59
1019.512	-5.29
1019.937	-5.49
1020.361	-0.69
1020.785	-6.69
1021.21	-0.09
1021.634	-0.79
1022.058	5.91
1022.483	6.51
1022.907	-5.19
1023.331	-0.19
1023.755	-1.29
1024.179	-5.89
1024.604	-5.09
1025.028	-2.69
1025.452	-6.39
1025.876	-5.69
1026.3	-2.69
1026.724	-9.49
1027.148	-8.19
1027.572	-3.39
1027.996	0.11
1028.42	-0.69
1028.843	-2.79
1029.267	-8.99
1029.691	-6.59
1030.115	-5.49
1030.539	-1.69
1030.962	-2.29
1031.386	-7.99
1031.81	-1.09
1032.233	-7.39
1032.657	-2.49
1033.08	0.61
1033.504	2.41
1033.927	-0.99
1034.351	-2.89
1034.774	-4.29
1035.198	0.51
1035.621	-4.29
1036.045	-6.59
1036.468	-2.29
1036.891	-12.79
1037.315	-7.49
1037.738	-1.79
1038.161	-0.49
1038.584	-9.89
1039.008	-2.69
1039.431	-7.99
1039.854	-7.59
1040.277	-4.69
1040.7	-14.09
1041.123	3.11
1041.546	-7.39
1041.969	-10.59
1042.392	-7.09
1042.815	3.31
1043.238	1.21
1043.661	1.21
1044.084	-7.49
1044.507	-3.79
1044.93	-3.69
1045.352	-2.49
1045.775	-4.49
1046.198	0.81
1046.621	1.01
1047.043	0.91
1047.466	4.11
1047.889	-5.79
1048.311	-2.49
1048.734	2.31
1049.156	-6.19
1049.579	1.21
1050.001	-4.89
1050.424	4.11
1050.846	-6.29
1051.269	-6.79
1051.691	-2.69
1052.113	-0.49
1052.536	-0.89
1052.958	-11.29
1053.38	0.21
1053.802	-10.69
1054.225	6.41
1054.647	-11.79
1055.069	-5.09
1055.491	-1.19
1055.913	-11.09
1056.335	0.71
1056.757	-4.49
1057.179	-6.79
1057.601	-3.19
1058.023	-1.89
1058.445	-7.19
1058.867	-1.69
1059.289	-5.39
1059.711	-6.09
1060.133	0.61
1060.555	-6.69
1060.976	-9.39
1061.398	-9.59
1061.82	-6.09
1062.241	-0.79
1062.663	-0.19
1063.085	-3.79
1063.506	-7.69
1063.928	-3.09
1064.35	-9.19
1064.771	-11.69
1065.193	-1.39
1065.614	-8.49
1066.035	-1.09
1066.457	-3.99
1066.878	2.81
1067.3	-2.69
1067.721	-4.49
1068.142	-4.69
1068.564	-1.49
1068.985	0.21
1069.406	-7.89
1069.827	-2.99
1070.248	-4.59
1070.67	-7.09
1071.091	-7.89
1071.512	-7.99
1071.933	-6.49
1072.354	-2.09
1072.775	-4.89
1073.196	-5.29
1073.617	-4.09
1074.038	-8.79
1074.459	-3.39
1074.88	-3.99
1075.3	-0.59
1075.721	-10.09
1076.142	0.71
1076.563	0.81
1076.983	-5.49
1077.404	-4.29
1077.825	-13.99
1078.246	-6.39
1078.666	-13.69
1079.087	-6.49
1079.507	-8.89
1079.928	2.91
1080.348	-3.59
1080.769	-3.39
1081.189	2.61
1081.61	-5.39
1082.03	-7.69
1082.451	-5.99
1082.871	-7.29
1083.291	-10.49
1083.711	-7.59
1084.132	-9.49
1084.552	3.91
1084.972	-0.59
1085.392	-10.19
1085.813	-8.29
1086.233	-5.89
1086.653	-4.99
1087.073	-1.39
1087.493	-6.09
1087.913	-8.39
1088.333	-5.89
1088.753	-6.29
1089.173	2.11
1089.593	-8.69
1090.013	0.51
1090.433	-2.99
1090.852	-0.79
1091.272	-3.29
1091.692	-4.09
1092.112	0.01
1092.531	-10.99
1092.951	-10.39
1093.371	-4.69
1093.79	1.31
1094.21	-1.59
1094.63	-2.19
1095.049	-0.69
1095.469	-3.89
1095.888	-0.09
1096.308	-3.89
1096.727	3.21
1097.146	-4.09
1097.566	-3.99
1097.985	-10.69
1098.405	-7.79
1098.824	-10.49
1099.243	-11.49
1099.662	-10.99
1100.082	-7.39
1100.501	1.91
1100.92	-6.79
1101.339	-9.89
1101.758	-3.89
