Data from 20171114-ORNL-Ar_H_NY_Subt18_08-05-40-060.txt Node
Date: Tue Nov 14 08:05:40 EST 2017
User: Ender
Spectrometer: HR+D1039
Trigger mode: 0
Integration Time (sec): 2.730000E-2
Scans to average: 10
Electric dark correction enabled: true
Nonlinearity correction enabled: false
Boxcar width: 0
XAxis mode: Wavelengths
Number of Pixels in Spectrum: 2048
>>>>>Begin Spectral Data<<<<<
187.836	-3.31
188.309	-3.31
188.782	-3.31
189.255	0.89
189.728	-0.51
190.201	7.19
190.674	1.19
191.147	5.89
191.619	-9.01
192.092	4.09
192.565	3.59
193.038	0.19
193.511	2.89
193.984	-2.91
194.456	-8.41
194.929	1.19
195.402	-2.01
195.874	-1.01
196.347	-0.81
196.82	-8.91
197.292	5.69
197.765	-1.41
198.237	-1.71
198.71	2.49
199.182	-4.01
199.655	3.29
200.127	-0.21
200.6	-0.41
201.072	-0.31
201.544	-1.31
202.017	-1.31
202.489	6.09
202.961	-1.11
203.433	-7.11
203.906	-10.61
204.378	-6.01
204.85	-7.01
205.322	-10.31
205.794	-2.41
206.266	0.99
206.739	-9.21
207.211	0.19
207.683	-4.91
208.155	-6.81
208.627	-1.91
209.099	-5.91
209.57	-6.31
210.042	-0.81
210.514	-0.91
210.986	-4.41
211.458	-11.21
211.93	-2.81
212.402	7.19
212.873	-5.21
213.345	-8.31
213.817	-16.41
214.288	-3.51
214.76	-9.61
215.232	-3.11
215.703	-4.31
216.175	5.09
216.646	-6.21
217.118	-3.21
217.589	-1.61
218.061	-3.81
218.532	-2.11
219.004	-2.71
219.475	-2.91
219.946	-1.91
220.418	-3.31
220.889	2.69
221.36	5.79
221.832	-0.41
222.303	-6.21
222.774	1.79
223.245	-8.91
223.717	2.19
224.188	0.89
224.659	-6.41
225.13	-1.71
225.601	-2.11
226.072	-0.41
226.543	-0.71
227.014	-0.01
227.485	3.09
227.956	-3.21
228.427	-1.01
228.898	2.79
229.369	8.79
229.839	-2.31
230.31	-7.01
230.781	2.39
231.252	2.09
231.722	-0.01
232.193	1.09
232.664	-2.91
233.135	0.39
233.605	-2.21
234.076	0.99
234.546	-1.31
235.017	6.19
235.487	3.29
235.958	1.19
236.428	-1.31
236.899	5.99
237.369	12.19
237.84	2.69
238.31	5.49
238.78	2.09
239.251	6.89
239.721	-0.21
240.191	0.39
240.662	-4.71
241.132	-0.11
241.602	-0.01
242.072	4.99
242.542	8.49
243.013	1.89
243.483	4.99
243.953	5.19
244.423	-0.81
244.893	-4.41
245.363	6.49
245.833	2.09
246.303	-4.11
246.773	7.99
247.243	5.69
247.712	1.89
248.182	6.99
248.652	7.99
249.122	3.69
249.592	12.69
250.061	25.09
250.531	37.49
251.001	21.69
251.471	22.59
251.94	24.19
252.41	8.59
252.879	4.19
253.349	14.49
253.818	16.69
254.288	11.19
254.757	7.69
255.227	8.89
255.696	8.69
256.166	4.49
256.635	10.69
257.105	10.59
257.574	12.09
258.043	16.59
258.513	11.29
258.982	23.49
259.451	11.19
259.92	16.79
260.389	19.19
260.859	17.29
261.328	13.79
261.797	22.79
262.266	6.99
262.735	13.59
263.204	7.19
263.673	4.59
264.142	8.29
264.611	-2.81
265.08	-0.41
265.549	4.59
266.018	6.79
266.487	3.69
266.955	-1.91
267.424	1.09
267.893	9.29
268.362	5.59
268.83	5.19
269.299	14.79
269.768	8.09
270.236	6.19
270.705	2.99
271.174	6.99
271.642	11.99
272.111	5.89
272.579	13.49
273.048	27.69
273.516	34.99
273.985	37.09
274.453	24.29
274.922	20.69
275.39	11.39
275.858	1.79
276.327	16.79
276.795	21.89
277.263	13.29
277.731	29.79
278.2	59.99
278.668	56.39
279.136	52.29
279.604	22.29
280.072	17.19
280.54	11.69
281.008	8.79
281.477	13.19
281.945	13.69
282.413	16.09
282.881	16.59
283.348	14.39
283.816	19.49
284.284	16.09
284.752	24.99
285.22	10.29
285.688	17.99
286.156	21.69
286.623	45.29
287.091	51.99
287.559	37.89
288.026	16.59
288.494	18.49
288.962	12.79
289.429	15.19
289.897	28.79
290.364	17.29
290.832	17.49
291.3	15.79
291.767	23.09
292.234	24.89
292.702	13.49
293.169	21.39
293.637	23.79
294.104	19.09
294.571	10.39
295.039	18.19
295.506	16.59
295.973	18.99
296.44	17.39
296.908	22.89
297.375	20.99
297.842	23.39
298.309	21.49
298.776	18.09
299.243	26.39
299.71	18.79
300.177	26.59
300.644	27.79
301.111	24.89
301.578	23.79
302.045	21.49
302.512	27.49
302.979	30.39
303.446	31.79
303.913	23.69
304.379	23.09
304.846	28.79
305.313	28.89
305.78	28.39
306.246	28.99
306.713	26.99
307.18	28.49
307.646	30.29
308.113	31.49
308.579	32.89
309.046	27.39
309.512	27.79
309.979	22.09
310.445	31.49
310.912	31.19
311.378	31.59
311.845	31.79
312.311	34.99
312.777	37.09
313.244	31.39
313.71	42.89
314.176	30.99
314.642	36.29
315.109	36.59
315.575	33.09
316.041	39.89
316.507	32.69
316.973	42.69
317.439	40.39
317.905	38.09
318.371	36.69
318.837	39.49
319.303	38.79
319.769	39.29
320.235	36.69
320.701	35.89
321.167	33.19
321.633	36.89
322.099	42.39
322.564	47.39
323.03	39.69
323.496	44.89
323.962	42.19
324.427	35.89
324.893	40.69
325.359	41.29
325.824	41.09
326.29	42.29
326.755	43.19
327.221	40.09
327.686	38.59
328.152	46.99
328.617	44.39
329.083	50.49
329.548	49.49
330.014	50.29
330.479	46.79
330.944	44.09
331.41	44.79
331.875	43.09
332.34	45.89
332.805	44.79
333.271	53.39
333.736	51.19
334.201	57.39
334.666	60.59
335.131	56.89
335.596	52.49
336.061	49.49
336.526	49.09
336.991	53.49
337.456	63.09
337.921	53.99
338.386	47.89
338.851	46.09
339.316	49.99
339.781	49.59
340.246	56.19
340.711	51.79
341.175	52.89
341.64	44.99
342.105	64.29
342.569	62.39
343.034	60.79
343.499	60.59
343.963	53.09
344.428	65.99
344.893	66.09
345.357	60.19
345.822	67.19
346.286	70.89
346.751	74.69
347.215	76.19
347.679	73.79
348.144	106.69
348.608	86.39
349.073	76.69
349.537	87.09
350.001	87.49
350.465	92.09
350.93	88.99
351.394	86.39
351.858	77.89
352.322	96.09
352.786	86.49
353.25	101.39
353.715	117.49
354.179	104.99
354.643	121.69
355.107	123.89
355.571	112.39
356.035	105.89
356.498	120.39
356.962	130.79
357.426	130.99
357.89	124.29
358.354	89.79
358.818	89.29
359.281	78.99
359.745	80.89
360.209	76.89
360.673	76.39
361.136	86.39
361.6	90.39
362.064	87.19
362.527	87.79
362.991	96.89
363.454	86.09
363.918	83.09
364.381	83.19
364.845	90.09
365.308	90.29
365.772	86.79
366.235	92.99
366.698	80.39
367.162	90.99
367.625	86.59
368.088	87.39
368.552	88.29
369.015	93.19
369.478	98.49
369.941	102.99
370.404	99.89
370.867	107.59
371.331	117.19
371.794	117.19
372.257	109.59
372.72	123.59
373.183	112.49
373.646	107.19
374.109	106.59
374.572	113.29
375.035	111.09
375.497	119.49
375.96	102.29
376.423	106.49
376.886	109.49
377.349	112.19
377.811	108.29
378.274	108.69
378.737	107.99
379.199	114.69
379.662	120.09
380.125	112.79
380.587	116.99
381.05	123.29
381.512	130.59
381.975	134.09
382.437	128.89
382.9	126.89
383.362	136.49
383.825	145.29
384.287	145.69
384.75	148.69
385.212	138.99
385.674	145.19
386.136	136.19
386.599	127.39
387.061	128.09
387.523	134.19
387.985	138.69
388.447	146.39
388.91	147.19
389.372	161.19
389.834	154.29
390.296	148.19
390.758	162.39
391.22	166.09
391.682	205.89
392.144	291.29
392.606	232.99
393.068	169.79
393.529	174.69
393.991	157.39
394.453	149.79
394.915	158.79
395.377	191.19
395.838	212.29
396.3	163.59
396.762	143.79
397.224	141.09
397.685	128.39
398.147	135.59
398.608	134.49
399.07	130.79
399.531	136.79
399.993	143.89
400.454	151.89
400.916	149.99
401.377	143.79
401.839	151.79
402.3	155.59
402.762	168.39
403.223	190.69
403.684	181.29
404.145	169.29
404.607	157.59
405.068	160.09
405.529	174.29
405.99	187.49
406.451	186.49
406.913	180.69
407.374	163.09
407.835	159.29
408.296	165.89
408.757	165.39
409.218	189.19
409.679	183.29
410.14	181.79
410.601	184.99
411.062	185.89
411.522	194.09
411.983	192.69
412.444	173.99
412.905	179.79
413.366	180.79
413.826	192.69
414.287	221.39
414.748	266.39
415.208	245.39
415.669	210.89
416.13	202.09
416.59	198.29
417.051	213.79
417.511	221.39
417.972	235.99
418.432	254.49
418.893	287.89
419.353	254.99
419.814	196.39
420.274	181.09
420.734	177.19
421.195	196.19
421.655	205.49
422.115	199.49
422.576	189.39
423.036	198.39
423.496	210.29
423.956	218.09
424.416	229.49
424.876	269.89
425.336	265.19
425.797	265.29
426.257	258.69
426.717	244.49
427.177	233.69
427.637	225.99
428.097	238.49
428.556	252.09
429.016	274.89
429.476	264.09
429.936	276.29
430.396	291.49
430.856	301.69
431.315	324.09
431.775	351.89
432.235	386.89
432.694	359.59
433.154	367.29
433.614	398.99
434.073	346.39
434.533	284.99
434.993	275.69
435.452	286.09
435.912	304.59
436.371	284.89
436.83	284.59
437.29	274.59
437.749	250.89
438.209	255.19
438.668	279.19
439.127	291.79
439.587	266.89
440.046	251.89
440.505	261.29
440.964	285.29
441.424	323.09
441.883	307.59
442.342	266.89
442.801	228.69
443.26	223.39
443.719	226.49
444.178	219.19
444.637	213.09
445.096	218.09
445.555	222.19
446.014	229.39
446.473	231.39
446.932	230.59
447.391	229.49
447.849	232.49
448.308	215.49
448.767	225.29
449.226	239.79
449.685	238.39
450.143	250.59
450.602	242.49
451.061	233.19
451.519	234.99
451.978	240.09
452.436	244.19
452.895	245.79
453.353	258.99
453.812	247.99
454.27	234.29
454.729	245.59
455.187	241.39
455.646	254.59
456.104	247.59
456.562	258.99
457.021	271.29
457.479	262.79
457.937	277.49
458.395	268.19
458.854	255.19
459.312	257.79
459.77	271.89
460.228	249.79
460.686	239.29
461.144	249.69
461.602	252.49
462.06	249.49
462.518	259.79
462.976	255.49
463.434	259.69
463.892	267.99
464.35	280.79
464.808	295.39
465.266	271.49
465.724	269.89
466.181	277.69
466.639	277.09
467.097	296.09
467.555	306.89
468.012	304.59
468.47	318.79
468.928	324.09
469.385	349.29
469.843	357.89
470.3	351.29
470.758	367.19
471.215	399.99
471.673	415.79
472.13	415.39
472.588	418.39
473.045	376.49
473.503	380.09
473.96	396.29
474.417	409.09
474.875	438.29
475.332	482.99
475.789	466.29
476.246	471.99
476.704	493.79
477.161	517.39
477.618	519.39
478.075	568.09
478.532	631.29
478.989	709.89
479.446	822.29
479.903	783.29
480.36	816.19
480.817	878.69
481.274	994.39
481.731	1098.29
482.188	1184.89
482.645	1321.29
483.102	1439.39
483.558	1580.59
484.015	1619.49
484.472	1599.49
484.929	1549.89
485.385	1489.59
485.842	1463.29
486.299	1379.69
486.755	1325.59
487.212	1113.69
487.668	941.09
488.125	859.79
488.582	793.29
489.038	753.89
489.494	722.19
489.951	701.79
490.407	685.79
490.864	662.69
491.32	662.59
491.776	652.49
492.233	646.39
492.689	624.39
493.145	611.39
493.602	609.69
494.058	617.99
494.514	629.89
494.97	652.09
495.426	657.39
495.882	631.59
496.338	627.69
496.794	644.99
497.251	630.79
497.707	645.79
498.163	651.89
498.618	657.29
499.074	644.89
499.53	677.79
499.986	691.79
500.442	655.69
500.898	642.59
501.354	633.29
501.809	642.09
502.265	656.29
502.721	671.19
503.177	674.19
503.632	668.89
504.088	680.69
504.543	714.69
504.999	726.89
505.455	668.19
505.91	646.19
506.366	643.89
506.821	638.19
507.277	629.29
507.732	632.29
508.187	636.19
508.643	646.99
509.098	642.69
509.553	672.59
510.009	675.09
510.464	668.19
510.919	707.09
511.375	703.39
511.83	721.49
512.285	742.39
512.74	778.69
513.195	809.59
513.65	787.39
514.105	783.39
514.56	786.49
515.015	804.59
515.47	820.29
515.925	808.29
516.38	799.69
516.835	808.19
517.29	797.09
517.745	779.99
518.2	778.99
518.655	760.79
519.109	759.89
519.564	750.49
520.019	744.29
520.474	730.79
520.928	735.79
521.383	736.79
521.838	723.99
522.292	721.99
522.747	719.29
523.201	711.79
523.656	696.19
524.11	702.39
524.565	698.79
525.019	698.89
525.474	718.59
525.928	700.69
526.382	709.89
526.837	716.99
527.291	712.09
527.745	701.89
528.2	711.79
528.654	703.39
529.108	695.39
529.562	703.89
530.016	698.09
530.47	689.79
530.925	702.19
531.379	704.79
531.833	725.19
532.287	720.59
532.741	711.09
533.195	715.59
533.649	722.69
534.103	731.79
534.556	721.89
535.01	731.99
535.464	722.09
535.918	732.49
536.372	740.19
536.826	734.59
537.279	721.99
537.733	716.39
538.187	726.59
538.64	721.39
539.094	736.59
539.548	744.09
540.001	728.39
540.455	728.39
540.908	750.79
541.362	742.09
541.815	759.39
542.269	766.29
542.722	764.59
543.175	777.99
543.629	783.59
544.082	799.49
544.536	800.99
544.989	793.59
545.442	791.49
545.895	797.09
546.349	805.69
546.802	804.79
547.255	806.59
547.708	808.39
548.161	822.49
548.614	821.89
549.067	832.59
549.52	821.19
549.973	818.99
550.426	818.49
550.879	794.29
551.332	799.99
551.785	814.29
552.238	808.09
552.691	828.19
553.144	835.19
553.596	849.89
554.049	875.79
554.502	906.09
554.955	934.69
555.407	930.09
555.86	920.89
556.313	907.79
556.765	898.89
557.218	898.89
557.67	892.99
558.123	891.09
558.576	882.29
559.028	884.89
559.48	883.89
559.933	879.99
560.385	843.79
560.838	819.79
561.29	796.59
561.742	788.39
562.195	776.39
562.647	769.39
563.099	794.09
563.551	776.99
564.004	793.19
564.456	777.39
564.908	775.09
565.36	748.39
565.812	746.69
566.264	738.89
566.716	731.49
567.168	714.99
567.62	721.99
568.072	711.69
568.524	708.89
568.976	690.39
569.428	686.69
569.88	679.09
570.332	691.39
570.784	689.49
571.235	689.59
571.687	700.19
572.139	709.29
572.59	720.79
573.042	717.19
573.494	714.19
573.945	713.09
574.397	684.69
574.849	694.89
575.3	700.89
575.752	693.39
576.203	674.59
576.655	687.09
577.106	667.49
577.557	662.89
578.009	672.49
578.46	664.39
578.912	666.69
579.363	669.69
579.814	673.49
580.265	662.39
580.717	667.89
581.168	672.89
581.619	674.99
582.07	674.79
582.521	681.89
582.972	674.49
583.423	679.99
583.875	691.59
584.326	698.39
584.777	747.29
585.227	826.39
585.678	904.89
586.129	990.69
586.58	1062.89
587.031	1136.19
587.482	1299.19
587.933	1467.59
588.384	1289.59
588.834	967.89
589.285	808.59
589.736	786.09
590.186	776.29
590.637	771.39
591.088	750.29
591.538	735.09
591.989	735.39
592.439	734.29
592.89	720.39
593.34	704.79
593.791	710.69
594.241	705.29
594.692	711.89
595.142	701.39
595.593	695.19
596.043	709.09
596.493	707.19
596.943	716.19
597.394	716.59
597.844	705.59
598.294	730.89
598.744	750.89
599.195	775.49
599.645	814.39
600.095	852.19
600.545	909.29
600.995	960.59
601.445	1020.79
601.895	1083.79
602.345	1129.69
602.795	1105.99
603.245	1060.29
603.695	1011.99
604.145	955.19
604.594	909.79
605.044	866.89
605.494	793.89
605.944	744.79
606.393	739.49
606.843	718.49
607.293	729.99
607.743	732.09
608.192	747.79
608.642	762.29
609.091	766.69
609.541	766.19
609.99	761.69
610.44	769.79
610.889	713.49
611.339	699.19
611.788	685.19
612.238	692.19
612.687	707.69
613.136	718.29
613.586	721.09
614.035	725.79
614.484	755.99
614.933	750.19
615.383	745.79
615.832	729.09
616.281	720.79
616.73	679.39
617.179	667.29
617.628	649.69
618.077	631.49
618.526	624.19
618.975	610.59
619.424	611.99
619.873	606.79
620.322	606.79
620.771	600.79
621.22	600.69
621.669	592.19
622.118	587.49
622.567	578.09
623.015	559.49
623.464	557.19
623.913	547.09
624.361	541.29
624.81	540.69
625.259	546.59
625.707	553.89
626.156	545.89
626.604	553.39
627.053	557.79
627.501	561.09
627.95	563.99
628.398	574.89
628.847	560.59
629.295	562.59
629.744	579.19
630.192	555.19
630.64	556.69
631.089	552.89
631.537	563.19
631.985	580.09
632.433	590.29
632.881	604.09
633.33	647.09
633.778	627.89
634.226	562.69
634.674	561.39
635.122	564.49
635.57	589.09
636.018	610.29
636.466	576.29
636.914	547.09
637.362	569.29
637.81	563.29
638.258	562.69
638.705	567.89
639.153	597.89
639.601	600.89
640.049	632.49
640.497	663.69
640.944	681.99
641.392	635.59
641.84	599.59
642.287	579.39
642.735	564.39
643.182	560.09
643.63	566.79
644.078	560.79
644.525	578.09
644.973	587.49
645.42	591.89
645.867	612.49
646.315	633.99
646.762	654.79
647.21	688.29
647.657	704.99
648.104	738.99
648.551	749.89
648.999	826.19
649.446	906.09
649.893	985.09
650.34	1140.69
650.787	1363.59
651.234	1687.29
651.682	2203.99
652.129	3001.99
652.576	4312.99
653.023	6389.99
653.47	8753.49
653.917	11003.79
654.363	12787.79
654.81	14141.29
655.257	13492.39
655.704	8842.69
656.151	5214.69
656.598	3356.09
657.044	2374.59
657.491	1835.59
657.938	1470.79
658.385	1225.59
658.831	1061.29
659.278	945.49
659.724	841.89
660.171	768.89
660.618	706.99
661.064	679.19
661.511	659.79
661.957	650.89
662.404	629.99
662.85	635.69
663.296	615.29
663.743	548.99
664.189	528.09
664.635	517.49
665.082	515.09
665.528	525.09
665.974	505.49
666.42	503.59
666.867	485.79
667.313	480.79
667.759	476.49
668.205	470.79
668.651	469.89
669.097	471.39
669.543	491.19
669.989	455.99
670.435	434.09
670.881	429.29
671.327	442.09
671.773	462.89
672.219	474.09
672.665	534.19
673.11	560.19
673.556	606.29
674.002	648.59
674.448	635.99
674.893	530.79
675.339	465.29
675.785	430.39
676.23	418.99
676.676	383.89
677.122	375.09
677.567	359.69
678.013	363.39
678.458	347.49
678.904	355.69
679.349	338.49
679.794	350.39
680.24	338.49
680.685	342.99
681.131	338.39
681.576	347.49
682.021	346.99
682.466	344.09
682.912	338.99
683.357	344.39
683.802	371.49
684.247	393.59
684.692	437.39
685.137	483.19
685.583	520.79
686.028	538.49
686.473	503.19
686.918	429.59
687.363	406.19
687.807	387.69
688.252	353.29
688.697	341.59
689.142	325.49
689.587	320.89
690.032	317.99
690.477	332.59
690.921	345.59
691.366	372.79
691.811	389.09
692.255	416.09
692.7	450.39
693.145	482.89
693.589	661.89
694.034	1078.29
694.478	1473.59
694.923	1688.69
695.367	2220.89
695.812	1145.79
696.256	476.99
696.701	353.29
697.145	328.29
697.59	322.09
698.034	312.69
698.478	324.29
698.922	313.19
699.367	313.69
699.811	329.89
700.255	344.99
700.699	378.69
701.143	408.39
701.588	467.29
702.032	495.19
702.476	494.79
702.92	476.89
703.364	475.69
703.808	610.69
704.252	980.39
704.696	1396.69
705.14	1624.09
705.584	2083.49
706.027	1041.69
706.471	501.59
706.915	374.89
707.359	340.39
707.803	321.39
708.246	307.09
708.69	304.09
709.134	307.69
709.577	303.79
710.021	301.49
710.465	297.39
710.908	288.59
711.352	286.09
711.795	298.59
712.239	332.09
712.682	377.49
713.126	405.49
713.569	449.89
714.012	363.49
714.456	311.59
714.899	287.99
715.342	266.79
715.786	257.69
716.229	258.69
716.672	251.79
717.115	239.19
717.558	242.79
718.002	247.79
718.445	249.59
718.888	279.09
719.331	282.39
719.774	293.99
720.217	301.09
720.66	278.79
721.103	254.19
721.546	240.69
721.989	250.19
722.432	226.89
722.874	225.59
723.317	225.39
723.76	235.29
724.203	253.49
724.645	306.79
725.088	425.59
725.531	545.19
725.974	621.59
726.416	528.99
726.859	295.39
727.301	241.49
727.744	236.79
728.187	226.89
728.629	237.89
729.071	236.59
729.514	251.19
729.956	268.49
730.399	272.79
730.841	275.09
731.283	263.79
731.726	256.39
732.168	252.59
732.61	261.89
733.053	279.39
733.495	305.89
733.937	340.89
734.379	387.19
734.821	411.39
735.263	510.19
735.705	800.69
736.148	1487.39
736.59	2476.09
737.032	2983.19
737.474	2411.79
737.916	783.39
738.357	407.69
738.799	315.09
739.241	291.79
739.683	269.49
740.125	289.59
740.567	287.09
741.008	301.09
741.45	300.99
741.892	306.99
742.334	336.39
742.775	347.39
743.217	333.09
743.658	261.89
744.1	242.39
744.542	250.19
744.983	295.89
745.425	339.29
745.866	328.69
746.307	280.59
746.749	273.49
747.19	309.89
747.632	424.09
748.073	822.19
748.514	1760.49
748.956	2731.89
749.397	3404.99
749.838	2855.49
750.279	2885.29
750.72	1464.89
751.162	537.39
751.603	307.19
752.044	251.59
752.485	216.99
752.926	207.69
753.367	194.39
753.808	193.39
754.249	193.49
754.69	181.29
755.131	171.79
755.572	180.29
756.013	177.79
756.453	179.89
756.894	184.49
757.335	184.29
757.776	188.99
758.216	187.69
758.657	198.89
759.098	195.29
759.538	213.29
759.979	259.49
760.42	355.19
760.86	665.29
761.301	1687.09
761.741	4190.39
762.182	6266.29
762.622	4402.69
763.063	1261.99
763.503	524.99
763.943	330.19
764.384	320.99
764.824	386.39
765.264	421.59
765.705	290.29
766.145	202.79
766.585	182.29
767.025	178.09
767.465	180.09
767.906	231.99
768.346	306.09
768.786	327.89
769.226	247.29
769.666	297.79
770.106	583.99
770.546	1463.69
770.986	2555.09
771.426	2316.79
771.866	766.89
772.306	317.59
772.745	205.39
773.185	171.69
773.625	163.69
774.065	154.69
774.505	188.39
774.944	290.49
775.384	624.89
775.824	1156.59
776.263	1140.19
776.703	485.19
777.142	217.19
777.582	157.49
778.021	134.19
778.461	132.89
778.9	140.89
779.34	130.49
779.779	113.49
780.219	108.29
780.658	105.99
781.097	107.19
781.537	112.79
781.976	103.29
782.415	103.19
782.855	103.79
783.294	100.39
783.733	106.49
784.172	107.59
784.611	102.79
785.05	106.09
785.489	106.49
785.928	109.09
786.367	127.49
786.806	116.69
787.245	123.79
787.684	132.59
788.123	140.49
788.562	132.59
789.001	124.89
789.44	117.89
789.879	111.79
790.317	114.79
790.756	123.99
791.195	125.39
791.634	143.59
792.072	186.39
792.511	337.29
792.95	948.89
793.388	2052.99
793.827	1901.79
794.265	654.29
794.704	275.69
795.142	181.19
795.581	141.09
796.019	132.99
796.458	124.29
796.896	117.29
797.334	126.49
797.773	145.19
798.211	211.19
798.649	410.39
799.087	961.39
799.526	1516.69
799.964	1925.49
800.402	1964.19
800.84	734.19
801.278	296.19
801.716	181.39
802.154	149.09
802.592	144.89
803.03	137.79
803.468	131.79
803.906	140.89
804.344	147.19
804.782	138.79
805.22	127.39
805.658	129.79
806.096	150.29
806.533	154.89
806.971	166.99
807.409	209.69
807.847	298.89
808.284	619.89
808.722	1747.39
809.16	3183.79
809.597	2961.39
810.035	5170.69
810.472	5629.39
810.91	2027.59
811.347	762.69
811.785	384.89
812.222	239.39
812.66	186.59
813.097	154.09
813.535	139.39
813.972	125.89
814.409	111.19
814.846	99.79
815.284	112.29
815.721	99.99
816.158	97.49
816.595	111.89
817.032	168.59
817.47	189.99
817.907	173.69
818.344	143.59
818.781	114.79
819.218	95.29
819.655	118.59
820.092	179.99
820.529	213.89
820.966	171.89
821.403	125.29
821.839	105.19
822.276	98.09
822.713	113.29
823.15	126.89
823.587	114.79
824.023	143.49
824.46	275.99
824.897	848.19
825.333	1302.49
825.77	565.99
826.206	220.99
826.643	129.99
827.08	99.69
827.516	88.49
827.953	78.69
828.389	84.09
828.825	76.39
829.262	67.69
829.698	61.29
830.135	61.79
830.571	64.79
831.007	57.19
831.443	65.89
831.88	68.69
832.316	64.09
832.752	68.69
833.188	61.59
833.624	60.19
834.06	66.79
834.497	65.89
834.933	70.59
835.369	74.99
835.805	63.79
836.241	76.49
836.677	74.39
837.112	81.59
837.548	104.09
837.984	123.59
838.42	187.59
838.856	457.79
839.292	1424.79
839.727	2229.39
840.163	1033.69
840.599	864.69
841.034	1944.39
841.47	2078.49
841.906	753.69
842.341	326.19
842.777	221.19
843.212	304.69
843.648	301.59
844.083	151.09
844.519	93.39
844.954	77.69
845.39	55.69
845.825	57.59
846.261	53.19
846.696	52.89
847.131	48.29
847.566	60.49
848.002	49.39
848.437	51.79
848.872	55.49
849.307	63.99
849.742	84.69
850.177	177.39
850.613	526.19
851.048	843.29
851.483	363.19
851.918	144.39
852.353	81.59
852.788	57.89
853.223	55.99
853.657	56.19
854.092	55.59
854.527	40.99
854.962	43.49
855.397	43.19
855.832	48.89
856.266	37.19
856.701	39.69
857.136	37.79
857.57	45.09
858.005	50.19
858.44	56.49
858.874	42.39
859.309	49.59
859.743	30.99
860.178	46.69
860.612	34.89
861.047	44.09
861.481	64.69
861.915	66.49
862.35	49.19
862.784	34.29
863.218	42.29
863.653	32.59
864.087	43.99
864.521	52.49
864.955	70.09
865.39	142.19
865.824	166.79
866.258	111.79
866.692	158.79
867.126	176.89
867.56	99.29
867.994	48.79
868.428	39.19
868.862	51.59
869.296	55.39
869.73	56.99
870.164	60.89
870.598	49.69
871.031	40.19
871.465	32.19
871.899	30.69
872.333	23.79
872.766	26.59
873.2	16.89
873.634	30.89
874.067	22.79
874.501	29.99
874.935	32.79
875.368	28.19
875.802	27.19
876.235	25.89
876.669	24.39
877.102	20.49
877.535	22.79
877.969	22.99
878.402	25.39
878.836	17.19
879.269	25.99
879.702	21.39
880.135	19.89
880.569	18.39
881.002	23.39
881.435	23.79
881.868	16.69
882.301	26.09
882.734	17.59
883.167	28.29
883.601	20.19
884.034	25.59
884.467	15.59
884.899	26.59
885.332	20.39
885.765	14.59
886.198	19.89
886.631	23.29
887.064	22.39
887.497	16.69
887.929	24.49
888.362	13.99
888.795	12.99
889.228	18.09
889.66	16.79
890.093	14.09
890.526	11.99
890.958	14.49
891.391	22.49
891.823	18.99
892.256	12.89
892.688	9.59
893.121	19.09
893.553	18.29
893.985	23.59
894.418	17.59
894.85	15.09
895.282	14.69
895.715	18.99
896.147	25.79
896.579	21.19
897.011	11.29
897.444	19.89
897.876	16.39
898.308	17.49
898.74	19.99
899.172	14.59
899.604	25.59
900.036	19.09
900.468	12.69
900.9	13.69
901.332	16.09
901.764	16.29
902.196	14.99
902.628	18.19
903.06	18.29
903.491	31.49
903.923	19.99
904.355	26.19
904.787	28.59
905.218	23.99
905.65	23.49
906.082	12.29
906.513	13.89
906.945	16.49
907.376	9.29
907.808	12.49
908.239	18.29
908.671	14.99
909.102	22.69
909.534	25.19
909.965	45.19
910.397	88.79
910.828	296.09
911.259	458.69
911.691	213.99
912.122	98.69
912.553	45.89
912.984	31.59
913.415	24.39
913.847	26.39
914.278	15.09
914.709	17.19
915.14	19.29
915.571	19.49
916.002	13.79
916.433	18.99
916.864	13.29
917.295	9.89
917.726	21.79
918.157	22.29
918.587	24.99
919.018	20.79
919.449	20.79
919.88	21.29
920.311	29.69
920.741	46.79
921.172	160.39
921.603	147.39
922.033	68.79
922.464	47.39
922.895	17.79
923.325	26.19
923.756	12.49
924.186	13.59
924.617	22.29
925.047	39.89
925.478	53.79
925.908	48.69
926.338	24.29
926.769	25.99
927.199	21.99
927.629	6.09
928.06	18.29
928.49	16.89
928.92	13.49
929.35	11.99
929.78	12.89
930.21	5.19
930.641	7.49
931.071	12.89
931.501	3.29
931.931	10.59
932.361	12.59
932.791	3.49
933.221	4.19
933.651	4.69
934.08	16.59
934.51	34.39
934.94	14.19
935.37	10.09
935.8	7.59
936.229	11.79
936.659	15.09
937.089	7.79
937.519	11.59
937.948	19.09
938.378	18.39
938.807	2.59
939.237	7.69
939.666	7.29
940.096	-5.81
940.525	-0.11
940.955	0.79
941.384	9.09
941.814	-1.71
942.243	-0.51
942.672	4.39
943.102	-2.91
943.531	0.39
943.96	8.09
944.39	8.29
944.819	2.79
945.248	7.19
945.677	8.29
946.106	8.69
946.535	5.89
946.964	2.99
947.393	6.79
947.822	1.99
948.251	-6.71
948.68	8.29
949.109	5.59
949.538	3.99
949.967	-2.01
950.396	-2.31
950.825	-1.51
951.254	2.79
951.682	-7.11
952.111	5.99
952.54	4.39
952.969	-5.31
953.397	-4.01
953.826	3.29
954.254	-1.51
954.683	4.89
955.112	-3.01
955.54	2.99
955.969	6.49
956.397	-0.91
956.826	-3.11
957.254	4.69
957.682	7.09
958.111	6.39
958.539	2.59
958.967	0.49
959.396	-0.41
959.824	2.59
960.252	3.59
960.68	-0.81
961.109	0.19
961.537	1.89
961.965	0.29
962.393	-2.01
962.821	-4.71
963.249	3.19
963.677	5.79
964.105	6.29
964.533	40.49
964.961	38.69
965.389	25.09
965.817	7.99
966.245	3.39
966.672	-1.31
967.1	-6.91
967.528	3.69
967.956	1.89
968.383	4.69
968.811	-1.71
969.239	-0.11
969.666	0.69
970.094	1.79
970.522	-5.01
970.949	-2.31
971.377	-3.61
971.804	-2.31
972.232	-0.61
972.659	1.89
973.087	-1.51
973.514	-4.21
973.941	-4.61
974.369	7.59
974.796	5.09
975.223	0.19
975.651	-5.41
976.078	3.39
976.505	-1.41
976.932	2.59
977.359	11.79
977.786	16.49
978.214	0.29
978.641	-1.51
979.068	-6.51
979.495	-6.61
979.922	0.79
980.349	4.39
980.776	4.99
981.202	-0.31
981.629	4.09
982.056	2.59
982.483	-0.31
982.91	5.39
983.337	-3.71
983.763	5.59
984.19	-3.11
984.617	-4.71
985.043	-7.71
985.47	-6.11
985.897	-6.71
986.323	-6.51
986.75	6.49
987.176	-2.01
987.603	3.79
988.029	0.89
988.456	-0.71
988.882	3.79
989.308	-6.81
989.735	-5.61
990.161	1.09
990.587	-0.31
991.014	1.09
991.44	8.29
991.866	-7.61
992.292	1.29
992.719	-1.51
993.145	9.09
993.571	-7.81
993.997	0.19
994.423	0.29
994.849	-6.51
995.275	0.19
995.701	1.79
996.127	0.79
996.553	4.09
996.979	-4.71
997.405	2.39
997.83	-3.71
998.256	-7.11
998.682	-5.31
999.108	-5.71
999.534	-2.01
999.959	-3.31
1000.385	-6.11
1000.811	9.49
1001.236	-5.31
1001.662	-2.51
1002.087	-5.81
1002.513	3.29
1002.938	4.79
1003.364	-4.41
1003.789	-0.01
1004.215	4.09
1004.64	0.69
1005.066	0.09
1005.491	-4.71
1005.916	-4.01
1006.342	5.89
1006.767	-3.51
1007.192	3.19
1007.617	-1.61
1008.042	-7.31
1008.468	-7.61
1008.893	1.19
1009.318	-2.91
1009.743	-5.31
1010.168	5.99
1010.593	6.39
1011.018	-8.81
1011.443	-2.01
1011.868	3.89
1012.293	-1.11
1012.718	-3.71
1013.143	-0.31
1013.567	0.79
1013.992	-2.91
1014.417	-13.41
1014.842	0.09
1015.267	-4.11
1015.691	-5.51
1016.116	4.39
1016.541	3.29
1016.965	5.89
1017.39	-0.31
1017.814	-1.81
1018.239	-3.71
1018.663	-9.11
1019.088	-9.01
1019.512	2.59
1019.937	1.39
1020.361	-3.71
1020.785	-12.11
1021.21	-8.11
1021.634	-0.71
1022.058	-4.81
1022.483	3.39
1022.907	-6.31
1023.331	-4.21
1023.755	-4.51
1024.179	3.79
1024.604	-2.21
1025.028	-5.21
1025.452	-4.31
1025.876	-2.71
1026.3	0.29
1026.724	-7.21
1027.148	-2.81
1027.572	-8.11
1027.996	-3.11
1028.42	-1.41
1028.843	-2.71
1029.267	-6.01
1029.691	7.39
1030.115	-7.71
1030.539	-9.71
1030.962	-2.51
1031.386	-9.81
1031.81	-5.71
1032.233	0.99
1032.657	-5.41
1033.08	-2.21
1033.504	-4.51
1033.927	1.39
1034.351	1.79
1034.774	-2.21
1035.198	-5.11
1035.621	-6.01
1036.045	-6.61
1036.468	-1.51
1036.891	-7.71
1037.315	-7.11
1037.738	-8.01
1038.161	-1.01
1038.584	-3.31
1039.008	-4.61
1039.431	-0.51
1039.854	-0.91
1040.277	-6.51
1040.7	-9.61
1041.123	-3.81
1041.546	-1.11
1041.969	0.39
1042.392	-2.11
1042.815	-3.71
1043.238	0.79
1043.661	1.49
1044.084	-8.71
1044.507	1.39
1044.93	-8.91
1045.352	-1.41
1045.775	2.59
1046.198	-0.71
1046.621	-3.91
1047.043	-2.11
1047.466	3.79
1047.889	-4.61
1048.311	-2.01
1048.734	-5.71
1049.156	-5.91
1049.579	1.99
1050.001	-4.71
1050.424	-8.21
1050.846	0.69
1051.269	-3.01
1051.691	-4.81
1052.113	-1.81
1052.536	-0.91
1052.958	5.09
1053.38	-7.21
1053.802	-9.41
1054.225	2.49
1054.647	-5.01
1055.069	-6.71
1055.491	-1.21
1055.913	-2.61
1056.335	2.99
1056.757	-2.81
1057.179	-5.41
1057.601	-3.01
1058.023	-2.41
1058.445	-5.91
1058.867	-3.71
1059.289	-5.31
1059.711	0.29
1060.133	-5.11
1060.555	-9.11
1060.976	-9.11
1061.398	-3.51
1061.82	-1.51
1062.241	-7.81
1062.663	-8.31
1063.085	-5.61
1063.506	0.09
1063.928	-2.21
1064.35	-2.81
1064.771	-15.41
1065.193	-5.41
1065.614	-10.61
1066.035	1.09
1066.457	-1.01
1066.878	1.99
1067.3	-1.91
1067.721	-3.31
1068.142	-1.71
1068.564	1.49
1068.985	-0.41
1069.406	-8.51
1069.827	-0.31
1070.248	-2.01
1070.67	-8.61
1071.091	-4.21
1071.512	-7.21
1071.933	-7.91
1072.354	-5.31
1072.775	-2.71
1073.196	-10.91
1073.617	-1.01
1074.038	-11.21
1074.459	-0.71
1074.88	-5.51
1075.3	0.09
1075.721	-7.21
1076.142	4.59
1076.563	-1.31
1076.983	-14.31
1077.404	-1.71
1077.825	-10.41
1078.246	-10.41
1078.666	-22.61
1079.087	-2.21
1079.507	-7.21
1079.928	-2.01
1080.348	2.09
1080.769	-13.01
1081.189	-4.01
1081.61	-0.81
1082.03	-7.41
1082.451	-5.31
1082.871	-4.61
1083.291	-6.51
1083.711	-4.61
1084.132	-8.01
1084.552	1.59
1084.972	-2.31
1085.392	-6.51
1085.813	-5.81
1086.233	-1.91
1086.653	-2.61
1087.073	1.79
1087.493	-2.31
1087.913	-3.41
1088.333	-10.01
1088.753	-7.71
1089.173	0.19
1089.593	-3.01
1090.013	2.79
1090.433	2.89
1090.852	-5.91
1091.272	-0.11
1091.692	-1.11
1092.112	2.99
1092.531	-6.91
1092.951	-6.21
1093.371	-1.31
1093.79	2.79
1094.21	-5.31
1094.63	-5.41
1095.049	-4.71
1095.469	-4.11
1095.888	1.09
1096.308	7.59
1096.727	7.59
1097.146	-7.71
1097.566	-1.11
1097.985	-8.11
1098.405	-4.81
1098.824	-3.01
1099.243	-2.61
1099.662	-4.81
1100.082	-2.01
1100.501	-3.81
1100.92	-2.21
1101.339	-3.61
1101.758	-7.81
