Data from 20171114-ORNL-Ar_H_NY_Subt18_08-09-23-414.txt Node
Date: Tue Nov 14 08:09:23 EST 2017
User: Ender
Spectrometer: HR+D1039
Trigger mode: 0
Integration Time (sec): 2.730000E-2
Scans to average: 10
Electric dark correction enabled: true
Nonlinearity correction enabled: false
Boxcar width: 0
XAxis mode: Wavelengths
Number of Pixels in Spectrum: 2048
>>>>>Begin Spectral Data<<<<<
187.836	-4.84
188.309	-4.84
188.782	-4.84
189.255	2.46
189.728	4.06
190.201	4.06
190.674	-1.34
191.147	0.16
191.619	-6.74
192.092	4.56
192.565	4.26
193.038	0.56
193.511	2.36
193.984	-5.64
194.456	0.86
194.929	2.56
195.402	-1.04
195.874	-6.34
196.347	0.96
196.82	-2.14
197.292	6.56
197.765	1.56
198.237	-1.44
198.71	0.76
199.182	-2.44
199.655	2.16
200.127	5.46
200.6	-0.34
201.072	1.66
201.544	-0.54
202.017	3.06
202.489	4.76
202.961	-5.94
203.433	-3.84
203.906	-7.64
204.378	-3.84
204.85	-0.54
205.322	-8.24
205.794	-4.64
206.266	-4.24
206.739	-3.14
207.211	5.76
207.683	-4.34
208.155	-5.34
208.627	-8.14
209.099	-3.24
209.57	-4.24
210.042	-7.44
210.514	-1.64
210.986	-2.14
211.458	-10.54
211.93	-1.04
212.402	-0.94
212.873	-7.44
213.345	-6.74
213.817	-9.74
214.288	-4.34
214.76	-9.94
215.232	-4.74
215.703	-4.84
216.175	-1.24
216.646	-7.04
217.118	-7.54
217.589	-2.74
218.061	-1.54
218.532	-2.84
219.004	-2.14
219.475	-6.64
219.946	-4.94
220.418	-4.14
220.889	-0.14
221.36	0.66
221.832	-2.84
222.303	-4.64
222.774	1.36
223.245	-8.94
223.717	-6.04
224.188	-5.74
224.659	-7.64
225.13	-3.94
225.601	0.66
226.072	-4.74
226.543	-2.14
227.014	-0.04
227.485	-1.24
227.956	-10.14
228.427	-2.24
228.898	-3.34
229.369	1.86
229.839	-6.24
230.31	-8.64
230.781	1.26
231.252	-8.04
231.722	-7.24
232.193	-8.94
232.664	-4.74
233.135	-1.84
233.605	-6.84
234.076	-9.34
234.546	3.96
235.017	4.06
235.487	-7.04
235.958	-5.54
236.428	-2.04
236.899	0.06
237.369	-2.44
237.84	-10.14
238.31	-0.64
238.78	-8.54
239.251	-0.34
239.721	-0.64
240.191	-1.34
240.662	-7.84
241.132	-4.74
241.602	-5.24
242.072	-5.04
242.542	2.06
243.013	-2.94
243.483	3.56
243.953	-3.44
244.423	-1.44
244.893	-6.34
245.363	0.76
245.833	-0.74
246.303	-5.84
246.773	-0.34
247.243	-3.94
247.712	-2.74
248.182	-4.44
248.652	1.16
249.122	-8.24
249.592	-1.24
250.061	-2.44
250.531	5.16
251.001	-6.34
251.471	-0.04
251.94	12.36
252.41	-2.84
252.879	-7.74
253.349	6.36
253.818	7.06
254.288	0.06
254.757	-3.04
255.227	-5.54
255.696	1.86
256.166	0.86
256.635	2.46
257.105	6.26
257.574	0.56
258.043	-1.64
258.513	-7.84
258.982	-4.04
259.451	-2.94
259.92	-1.84
260.389	-0.64
260.859	2.36
261.328	0.66
261.797	-2.74
262.266	-3.44
262.735	12.16
263.204	-1.34
263.673	-6.04
264.142	1.26
264.611	-8.94
265.08	-7.54
265.549	-4.44
266.018	2.86
266.487	-3.54
266.955	-6.14
267.424	-2.74
267.893	4.96
268.362	-7.84
268.83	-3.14
269.299	4.96
269.768	0.56
270.236	-2.24
270.705	-1.34
271.174	1.06
271.642	-3.24
272.111	-4.94
272.579	-0.84
273.048	6.76
273.516	2.66
273.985	3.46
274.453	6.56
274.922	10.36
275.39	0.36
275.858	-6.94
276.327	5.36
276.795	6.16
277.263	0.36
277.731	6.06
278.2	0.26
278.668	4.46
279.136	6.46
279.604	0.46
280.072	2.96
280.54	0.56
281.008	-5.74
281.477	14.66
281.945	4.96
282.413	13.76
282.881	8.66
283.348	-2.64
283.816	4.66
284.284	11.06
284.752	15.76
285.22	2.86
285.688	9.76
286.156	11.36
286.623	14.86
287.091	3.66
287.559	7.76
288.026	10.56
288.494	9.26
288.962	5.46
289.429	3.56
289.897	10.16
290.364	5.76
290.832	12.56
291.3	4.56
291.767	9.26
292.234	14.06
292.702	-1.34
293.169	10.66
293.637	6.06
294.104	13.86
294.571	1.96
295.039	1.26
295.506	7.06
295.973	10.66
296.44	7.76
296.908	5.26
297.375	1.26
297.842	11.86
298.309	15.76
298.776	3.36
299.243	14.16
299.71	8.66
300.177	16.26
300.644	14.36
301.111	14.16
301.578	19.46
302.045	2.56
302.512	16.26
302.979	14.66
303.446	16.36
303.913	11.46
304.379	11.56
304.846	18.26
305.313	14.06
305.78	14.96
306.246	16.86
306.713	14.96
307.18	15.86
307.646	15.36
308.113	19.46
308.579	16.96
309.046	21.46
309.512	14.86
309.979	9.26
310.445	16.86
310.912	20.76
311.378	20.86
311.845	21.16
312.311	23.16
312.777	24.46
313.244	20.76
313.71	31.06
314.176	20.66
314.642	17.36
315.109	23.26
315.575	22.86
316.041	32.76
316.507	20.06
316.973	27.06
317.439	20.36
317.905	25.66
318.371	26.06
318.837	23.56
319.303	26.26
319.769	21.96
320.235	25.46
320.701	22.36
321.167	23.66
321.633	19.86
322.099	27.66
322.564	30.36
323.03	30.86
323.496	23.06
323.962	25.96
324.427	30.26
324.893	27.16
325.359	27.66
325.824	23.26
326.29	24.96
326.755	29.76
327.221	27.36
327.686	25.36
328.152	41.86
328.617	36.66
329.083	32.06
329.548	44.66
330.014	37.96
330.479	31.96
330.944	31.76
331.41	27.46
331.875	38.16
332.34	24.96
332.805	33.76
333.271	37.36
333.736	29.96
334.201	35.76
334.666	40.86
335.131	40.56
335.596	36.16
336.061	36.86
336.526	23.06
336.991	40.96
337.456	42.76
337.921	34.26
338.386	31.26
338.851	40.36
339.316	39.16
339.781	35.36
340.246	45.16
340.711	43.36
341.175	38.26
341.64	32.76
342.105	39.86
342.569	44.16
343.034	38.96
343.499	41.66
343.963	38.66
344.428	51.26
344.893	46.46
345.357	47.86
345.822	51.46
346.286	51.76
346.751	50.96
347.215	52.86
347.679	53.06
348.144	66.66
348.608	62.76
349.073	50.36
349.537	60.66
350.001	51.36
350.465	71.36
350.93	61.86
351.394	61.26
351.858	52.86
352.322	65.26
352.786	65.46
353.25	73.56
353.715	81.66
354.179	67.06
354.643	87.36
355.107	91.36
355.571	79.86
356.035	78.36
356.498	88.86
356.962	88.76
357.426	96.96
357.89	86.66
358.354	70.56
358.818	68.96
359.281	63.66
359.745	60.06
360.209	58.76
360.673	58.56
361.136	64.36
361.6	70.36
362.064	69.16
362.527	63.26
362.991	76.46
363.454	64.56
363.918	57.06
364.381	58.26
364.845	67.56
365.308	70.96
365.772	67.76
366.235	68.36
366.698	66.46
367.162	75.86
367.625	69.56
368.088	71.56
368.552	71.96
369.015	71.86
369.478	78.86
369.941	75.96
370.404	76.76
370.867	72.36
371.331	82.66
371.794	90.26
372.257	79.96
372.72	91.16
373.183	86.26
373.646	80.16
374.109	79.06
374.572	86.06
375.035	85.66
375.497	90.36
375.96	81.36
376.423	83.36
376.886	89.36
377.349	90.56
377.811	91.96
378.274	89.56
378.737	86.46
379.199	95.96
379.662	94.56
380.125	96.06
380.587	81.16
381.05	92.46
381.512	99.26
381.975	105.46
382.437	93.66
382.9	96.66
383.362	104.66
383.825	108.56
384.287	105.16
384.75	99.06
385.212	112.26
385.674	112.46
386.136	113.16
386.599	105.96
387.061	108.46
387.523	103.86
387.985	113.16
388.447	119.76
388.91	110.26
389.372	117.66
389.834	120.56
390.296	107.86
390.758	118.36
391.22	121.36
391.682	129.16
392.144	132.06
392.606	127.26
393.068	126.06
393.529	133.06
393.991	126.56
394.453	119.46
394.915	117.06
395.377	123.36
395.838	125.26
396.3	128.16
396.762	126.06
397.224	126.06
397.685	119.06
398.147	126.36
398.608	121.76
399.07	111.66
399.531	129.46
399.993	131.16
400.454	141.26
400.916	136.16
401.377	133.16
401.839	135.56
402.3	138.96
402.762	152.46
403.223	159.76
403.684	153.86
404.145	144.66
404.607	147.36
405.068	148.06
405.529	154.76
405.99	168.06
406.451	162.76
406.913	155.76
407.374	153.36
407.835	149.96
408.296	158.16
408.757	158.96
409.218	161.36
409.679	163.66
410.14	161.76
410.601	164.16
411.062	164.86
411.522	164.96
411.983	166.36
412.444	159.36
412.905	169.56
413.366	171.46
413.826	188.86
414.287	208.86
414.748	250.36
415.208	236.96
415.669	195.26
416.13	201.16
416.59	195.56
417.051	210.06
417.511	213.16
417.972	227.66
418.432	238.76
418.893	273.16
419.353	243.66
419.814	197.36
420.274	175.76
420.734	172.26
421.195	187.86
421.655	183.86
422.115	190.86
422.576	188.96
423.036	193.06
423.496	201.36
423.956	207.56
424.416	217.56
424.876	249.66
425.336	242.66
425.797	250.96
426.257	247.46
426.717	233.46
427.177	221.96
427.637	207.56
428.097	228.06
428.556	231.56
429.016	248.66
429.476	249.36
429.936	250.66
430.396	257.96
430.856	276.86
431.315	292.66
431.775	319.86
432.235	340.46
432.694	322.66
433.154	334.36
433.614	368.36
434.073	310.96
434.533	268.86
434.993	251.46
435.452	262.16
435.912	274.56
436.371	268.06
436.83	267.76
437.29	250.36
437.749	238.86
438.209	233.56
438.668	261.86
439.127	266.16
439.587	250.16
440.046	234.36
440.505	251.96
440.964	260.66
441.424	300.96
441.883	295.36
442.342	246.66
442.801	219.46
443.26	218.06
443.719	220.76
444.178	218.46
444.637	202.16
445.096	219.46
445.555	219.36
446.014	219.56
446.473	227.86
446.932	230.06
447.391	228.56
447.849	220.66
448.308	219.76
448.767	219.66
449.226	238.96
449.685	230.86
450.143	249.46
450.602	235.66
451.061	226.66
451.519	221.96
451.978	233.46
452.436	227.06
452.895	229.66
453.353	248.86
453.812	241.16
454.27	242.46
454.729	229.66
455.187	237.36
455.646	245.66
456.104	250.66
456.562	253.06
457.021	267.86
457.479	258.76
457.937	262.66
458.395	262.46
458.854	247.46
459.312	258.46
459.77	274.36
460.228	256.26
460.686	241.06
461.144	247.16
461.602	251.36
462.06	251.26
462.518	254.06
462.976	259.46
463.434	258.56
463.892	267.46
464.35	269.06
464.808	285.96
465.266	261.76
465.724	274.56
466.181	272.96
466.639	272.66
467.097	286.76
467.555	297.96
468.012	300.76
468.47	304.76
468.928	321.16
469.385	342.66
469.843	339.06
470.3	341.76
470.758	356.66
471.215	372.46
471.673	399.86
472.13	398.26
472.588	412.66
473.045	375.26
473.503	374.76
473.96	392.06
474.417	400.96
474.875	425.56
475.332	461.76
475.789	459.96
476.246	465.96
476.704	481.16
477.161	495.86
477.618	511.06
478.075	548.46
478.532	586.46
478.989	663.76
479.446	767.46
479.903	749.06
480.36	764.96
480.817	820.66
481.274	889.46
481.731	986.16
482.188	1057.76
482.645	1175.56
483.102	1250.96
483.558	1364.16
484.015	1407.16
484.472	1375.56
484.929	1335.16
485.385	1315.56
485.842	1274.06
486.299	1221.16
486.755	1186.26
487.212	1020.46
487.668	864.16
488.125	806.96
488.582	743.76
489.038	713.16
489.494	687.76
489.951	666.76
490.407	649.16
490.864	628.06
491.32	623.86
491.776	627.66
492.233	626.46
492.689	601.46
493.145	606.16
493.602	589.36
494.058	606.46
494.514	618.16
494.97	623.66
495.426	626.76
495.882	614.76
496.338	596.06
496.794	599.66
497.251	609.06
497.707	617.86
498.163	614.36
498.618	625.86
499.074	632.76
499.53	658.76
499.986	660.56
500.442	631.36
500.898	617.46
501.354	617.46
501.809	612.26
502.265	607.36
502.721	623.96
503.177	628.36
503.632	641.46
504.088	636.96
504.543	657.56
504.999	681.36
505.455	657.36
505.91	632.36
506.366	628.66
506.821	636.86
507.277	619.06
507.732	627.86
508.187	629.66
508.643	641.96
509.098	645.96
509.553	657.66
510.009	664.96
510.464	678.56
510.919	697.66
511.375	689.96
511.83	707.26
512.285	719.56
512.74	763.16
513.195	780.46
513.65	770.36
514.105	758.86
514.56	766.76
515.015	776.16
515.47	791.66
515.925	780.86
516.38	773.16
516.835	785.76
517.29	772.76
517.745	770.06
518.2	755.66
518.655	746.06
519.109	741.56
519.564	738.96
520.019	728.86
520.474	722.26
520.928	719.96
521.383	718.26
521.838	726.06
522.292	713.56
522.747	706.26
523.201	721.66
523.656	703.06
524.11	696.66
524.565	697.76
525.019	691.66
525.474	692.36
525.928	699.76
526.382	695.76
526.837	693.36
527.291	710.46
527.745	707.76
528.2	701.66
528.654	695.76
529.108	697.66
529.562	676.96
530.016	695.46
530.47	697.96
530.925	691.26
531.379	692.86
531.833	697.66
532.287	699.16
532.741	692.36
533.195	698.56
533.649	709.26
534.103	710.46
534.556	709.06
535.01	700.46
535.464	704.56
535.918	717.16
536.372	713.96
536.826	722.06
537.279	709.86
537.733	713.46
538.187	719.96
538.64	701.36
539.094	729.26
539.548	728.46
540.001	737.16
540.455	731.36
540.908	735.56
541.362	743.76
541.815	747.16
542.269	760.16
542.722	759.46
543.175	767.66
543.629	765.26
544.082	790.26
544.536	788.26
544.989	793.96
545.442	806.06
545.895	795.76
546.349	790.86
546.802	794.16
547.255	806.06
547.708	809.56
548.161	823.76
548.614	824.66
549.067	836.16
549.52	826.06
549.973	812.36
550.426	818.06
550.879	793.16
551.332	807.96
551.785	810.96
552.238	822.96
552.691	828.06
553.144	842.86
553.596	861.56
554.049	864.56
554.502	900.36
554.955	914.46
555.407	911.16
555.86	903.86
556.313	898.36
556.765	884.46
557.218	893.56
557.67	890.86
558.123	886.76
558.576	878.86
559.028	891.56
559.48	886.66
559.933	884.66
560.385	847.26
560.838	831.26
561.29	803.96
561.742	802.76
562.195	786.86
562.647	781.66
563.099	786.96
563.551	795.76
564.004	787.46
564.456	773.36
564.908	779.56
565.36	754.56
565.812	735.26
566.264	735.06
566.716	721.66
567.168	716.66
567.62	732.76
568.072	711.46
568.524	710.06
568.976	700.86
569.428	692.96
569.88	681.16
570.332	688.76
570.784	700.86
571.235	691.96
571.687	699.16
572.139	708.76
572.59	715.16
573.042	729.46
573.494	723.36
573.945	715.46
574.397	696.96
574.849	710.16
575.3	695.56
575.752	705.56
576.203	696.06
576.655	696.16
577.106	687.56
577.557	676.96
578.009	681.56
578.46	681.26
578.912	675.76
579.363	676.76
579.814	684.46
580.265	680.46
580.717	676.66
581.168	680.16
581.619	691.56
582.07	695.86
582.521	681.06
582.972	681.36
583.423	689.56
583.875	673.06
584.326	691.46
584.777	698.46
585.227	715.76
585.678	733.76
586.129	744.56
586.58	767.76
587.031	778.36
587.482	814.46
587.933	828.46
588.384	807.96
588.834	797.96
589.285	784.06
589.736	786.96
590.186	790.76
590.637	784.86
591.088	754.36
591.538	749.76
591.989	738.66
592.439	738.96
592.89	726.16
593.34	717.06
593.791	727.06
594.241	706.36
594.692	708.26
595.142	712.76
595.593	706.66
596.043	711.66
596.493	724.96
596.943	729.66
597.394	736.76
597.844	720.76
598.294	756.66
598.744	778.46
599.195	802.26
599.645	838.76
600.095	891.26
600.545	935.66
600.995	992.76
601.445	1052.96
601.895	1111.76
602.345	1158.26
602.795	1141.86
603.245	1095.56
603.695	1043.86
604.145	981.16
604.594	921.96
605.044	880.96
605.494	809.26
605.944	775.56
606.393	761.86
606.843	740.56
607.293	737.56
607.743	744.66
608.192	749.56
608.642	759.46
609.091	772.26
609.541	782.86
609.99	778.36
610.44	777.96
610.889	722.76
611.339	712.96
611.788	695.06
612.238	704.16
612.687	713.26
613.136	701.86
613.586	721.96
614.035	720.36
614.484	728.66
614.933	720.36
615.383	714.26
615.832	708.26
616.281	718.46
616.73	679.56
617.179	665.06
617.628	656.96
618.077	639.36
618.526	621.26
618.975	625.46
619.424	627.36
619.873	624.86
620.322	642.46
620.771	624.06
621.22	631.46
621.669	610.76
622.118	609.06
622.567	593.26
623.015	583.56
623.464	572.06
623.913	570.26
624.361	569.16
624.81	564.16
625.259	563.06
625.707	565.06
626.156	571.36
626.604	580.06
627.053	577.56
627.501	582.26
627.95	583.76
628.398	594.06
628.847	572.76
629.295	578.86
629.744	581.16
630.192	583.36
630.64	577.86
631.089	557.76
631.537	559.96
631.985	546.56
632.433	543.26
632.881	544.76
633.33	542.26
633.778	539.06
634.226	531.36
634.674	542.16
635.122	554.16
635.57	568.86
636.018	575.36
636.466	582.06
636.914	566.76
637.362	587.66
637.81	592.86
638.258	591.96
638.705	596.66
639.153	634.06
639.601	635.46
640.049	661.66
640.497	688.76
640.944	710.06
641.392	662.06
641.84	623.26
642.287	593.66
642.735	566.46
643.182	572.66
643.63	575.66
644.078	581.96
644.525	584.76
644.973	597.86
645.42	610.06
645.867	625.16
646.315	644.76
646.762	669.06
647.21	699.56
647.657	721.26
648.104	753.86
648.551	763.26
648.999	821.36
649.446	895.26
649.893	994.56
650.34	1128.36
650.787	1336.46
651.234	1646.66
651.682	2143.16
652.129	2891.56
652.576	4138.36
653.023	6024.56
653.47	8111.86
653.917	9961.36
654.363	11404.66
654.81	12484.86
655.257	11830.56
655.704	7846.66
656.151	4725.16
656.598	3096.06
657.044	2230.06
657.491	1734.96
657.938	1410.86
658.385	1191.86
658.831	1049.56
659.278	935.66
659.724	837.26
660.171	769.86
660.618	712.56
661.064	683.26
661.511	665.96
661.957	657.96
662.404	646.56
662.85	654.56
663.296	631.56
663.743	578.46
664.189	545.76
664.635	545.16
665.082	539.36
665.528	540.36
665.974	535.96
666.42	511.46
666.867	512.96
667.313	495.86
667.759	477.76
668.205	459.76
668.651	456.56
669.097	460.66
669.543	453.36
669.989	466.06
670.435	461.46
670.881	457.36
671.327	463.16
671.773	490.26
672.219	505.56
672.665	571.56
673.11	610.36
673.556	652.76
674.002	691.16
674.448	683.76
674.893	564.96
675.339	496.16
675.785	456.76
676.23	435.16
676.676	410.26
677.122	402.66
677.567	392.96
678.013	389.26
678.458	374.56
678.904	375.26
679.349	364.26
679.794	365.56
680.24	362.36
680.685	354.46
681.131	348.96
681.576	360.36
682.021	372.46
682.466	371.16
682.912	358.46
683.357	362.66
683.802	398.66
684.247	429.66
684.692	478.06
685.137	519.56
685.583	557.96
686.028	585.16
686.473	532.06
686.918	462.26
687.363	434.16
687.807	407.96
688.252	376.56
688.697	367.76
689.142	347.06
689.587	354.46
690.032	342.26
690.477	352.56
690.921	359.96
691.366	402.86
691.811	419.76
692.255	454.06
692.7	481.96
693.145	537.86
693.589	757.56
694.034	1225.16
694.478	1622.76
694.923	1801.06
695.367	2316.06
695.812	1250.76
696.256	527.46
696.701	379.16
697.145	356.06
697.59	339.86
698.034	328.56
698.478	337.26
698.922	331.76
699.367	328.76
699.811	349.86
700.255	371.96
700.699	399.66
701.143	442.26
701.588	498.06
702.032	533.56
702.476	529.76
702.92	508.66
703.364	527.56
703.808	701.66
704.252	1132.96
704.696	1559.46
705.14	1732.46
705.584	2200.66
706.027	1102.46
706.471	552.16
706.915	421.66
707.359	371.26
707.803	329.36
708.246	325.76
708.69	327.36
709.134	330.96
709.577	322.66
710.021	326.26
710.465	321.86
710.908	315.76
711.352	304.76
711.795	329.36
712.239	376.86
712.682	415.96
713.126	429.96
713.569	473.66
714.012	378.46
714.456	314.26
714.899	300.36
715.342	281.36
715.786	269.06
716.229	269.56
716.672	267.86
717.115	254.46
717.558	264.66
718.002	263.86
718.445	276.06
718.888	292.46
719.331	311.56
719.774	318.56
720.217	324.96
720.66	301.36
721.103	274.86
721.546	272.46
721.989	259.06
722.432	242.36
722.874	247.66
723.317	238.96
723.76	242.66
724.203	265.76
724.645	337.46
725.088	485.56
725.531	593.66
725.974	671.86
726.416	562.16
726.859	310.66
727.301	258.56
727.744	248.96
728.187	242.06
728.629	250.66
729.071	257.06
729.514	262.56
729.956	281.36
730.399	291.56
730.841	300.56
731.283	289.46
731.726	280.16
732.168	274.26
732.61	279.96
733.053	298.56
733.495	335.16
733.937	368.66
734.379	427.26
734.821	467.76
735.263	582.76
735.705	911.36
736.148	1762.76
736.59	2771.96
737.032	3159.76
737.474	2574.66
737.916	857.76
738.357	455.86
738.799	344.06
739.241	312.36
739.683	294.86
740.125	309.36
740.567	317.16
741.008	331.56
741.45	327.06
741.892	339.26
742.334	373.26
742.775	380.36
743.217	364.36
743.658	290.86
744.1	272.96
744.542	282.66
744.983	332.16
745.425	369.76
745.866	359.66
746.307	302.46
746.749	298.16
747.19	354.26
747.632	494.46
748.073	985.86
748.514	2044.36
748.956	3000.96
749.397	3821.26
749.838	3150.56
750.279	3051.16
750.72	1567.46
751.162	585.36
751.603	344.26
752.044	266.36
752.485	229.96
752.926	226.16
753.367	211.36
753.808	195.06
754.249	208.16
754.69	196.96
755.131	184.36
755.572	188.36
756.013	187.06
756.453	192.36
756.894	198.16
757.335	193.56
757.776	202.16
758.216	209.16
758.657	204.46
759.098	219.26
759.538	244.76
759.979	288.76
760.42	401.36
760.86	802.56
761.301	2072.36
761.741	4833.66
762.182	6618.86
762.622	4691.86
763.063	1397.36
763.503	565.76
763.943	341.56
764.384	282.86
764.824	250.06
765.264	239.96
765.705	215.96
766.145	188.56
766.585	190.56
767.025	173.36
767.465	167.56
767.906	181.36
768.346	193.36
768.786	198.86
769.226	233.56
769.666	334.76
770.106	701.16
770.546	1737.86
770.986	2760.86
771.426	2438.76
771.866	836.76
772.306	339.36
772.745	210.66
773.185	176.96
773.625	170.26
774.065	156.66
774.505	171.36
774.944	217.86
775.384	382.66
775.824	594.86
776.263	568.76
776.703	287.86
777.142	159.56
777.582	139.26
778.021	132.96
778.461	121.66
778.9	126.36
779.34	126.46
779.779	118.16
780.219	121.66
780.658	108.26
781.097	110.06
781.537	119.06
781.976	114.46
782.415	111.16
782.855	110.56
783.294	104.46
783.733	113.06
784.172	117.16
784.611	112.96
785.05	117.16
785.489	114.46
785.928	122.66
786.367	128.96
786.806	122.06
787.245	137.46
787.684	146.56
788.123	151.76
788.562	142.86
789.001	130.06
789.44	128.26
789.879	125.26
790.317	124.06
790.756	131.56
791.195	128.46
791.634	156.36
792.072	218.86
792.511	402.66
792.95	1122.76
793.388	2214.66
793.827	1963.86
794.265	699.36
794.704	305.26
795.142	183.36
795.581	156.66
796.019	145.36
796.458	134.36
796.896	131.66
797.334	138.46
797.773	161.86
798.211	235.06
798.649	491.96
799.087	1110.36
799.526	1720.76
799.964	2139.86
800.402	2068.36
800.84	797.66
801.278	322.36
801.716	202.06
802.154	161.66
802.592	159.26
803.03	149.66
803.468	143.46
803.906	146.26
804.344	159.86
804.782	155.16
805.22	143.86
805.658	139.26
806.096	151.36
806.533	168.86
806.971	189.36
807.409	236.86
807.847	348.66
808.284	754.36
808.722	2068.86
809.16	3464.56
809.597	3446.66
810.035	5838.26
810.472	5927.26
810.91	2206.06
811.347	856.56
811.785	433.06
812.222	277.26
812.66	205.66
813.097	175.16
813.535	149.86
813.972	136.56
814.409	124.66
814.846	109.66
815.284	121.06
815.721	106.86
816.158	110.36
816.595	114.36
817.032	160.06
817.47	180.36
817.907	127.16
818.344	105.46
818.781	108.06
819.218	102.06
819.655	139.76
820.092	209.96
820.529	220.66
820.966	178.26
821.403	133.16
821.839	104.26
822.276	105.66
822.713	136.56
823.15	138.86
823.587	123.96
824.023	164.96
824.46	341.46
824.897	973.66
825.333	1392.86
825.77	606.76
826.206	248.66
826.643	140.16
827.08	103.66
827.516	80.66
827.953	83.56
828.389	80.26
828.825	76.46
829.262	72.86
829.698	65.36
830.135	74.06
830.571	64.76
831.007	70.06
831.443	67.16
831.88	66.56
832.316	65.86
832.752	69.06
833.188	69.96
833.624	66.56
834.06	74.06
834.497	73.46
834.933	79.96
835.369	74.66
835.805	76.16
836.241	80.06
836.677	81.36
837.112	100.86
837.548	111.36
837.984	143.46
838.42	225.46
838.856	560.16
839.292	1650.86
839.727	2390.26
840.163	1146.36
840.599	1035.56
841.034	2193.86
841.47	2184.46
841.906	815.06
842.341	347.46
842.777	212.46
843.212	212.46
843.648	188.96
844.083	118.66
844.519	84.46
844.954	72.66
845.39	59.56
845.825	60.16
846.261	60.56
846.696	61.46
847.131	58.36
847.566	63.76
848.002	57.86
848.437	59.86
848.872	67.86
849.307	66.16
849.742	91.76
850.177	200.06
850.613	610.96
851.048	912.86
851.483	399.96
851.918	170.86
852.353	93.26
852.788	53.96
853.223	57.46
853.657	56.26
854.092	49.96
854.527	43.86
854.962	46.76
855.397	54.46
855.832	55.16
856.266	45.36
856.701	41.96
857.136	38.76
857.57	45.66
858.005	57.36
858.44	60.06
858.874	44.46
859.309	52.26
859.743	50.26
860.178	48.96
860.612	41.76
861.047	50.96
861.481	74.36
861.915	76.36
862.35	54.86
862.784	37.26
863.218	44.46
863.653	37.16
864.087	50.46
864.521	57.46
864.955	71.96
865.39	166.06
865.824	182.46
866.258	128.26
866.692	183.66
867.126	194.06
867.56	116.66
867.994	54.56
868.428	36.36
868.862	46.26
869.296	57.16
869.73	64.66
870.164	63.86
870.598	57.66
871.031	41.36
871.465	33.46
871.899	35.16
872.333	24.16
872.766	30.56
873.2	24.16
873.634	29.16
874.067	29.96
874.501	29.56
874.935	33.76
875.368	30.86
875.802	31.96
876.235	26.16
876.669	25.46
877.102	20.06
877.535	23.06
877.969	27.96
878.402	26.56
878.836	27.46
879.269	20.16
879.702	27.16
880.135	20.96
880.569	20.76
881.002	18.36
881.435	16.76
881.868	18.66
882.301	23.86
882.734	24.36
883.167	27.16
883.601	24.96
884.034	24.66
884.467	15.86
884.899	26.26
885.332	15.36
885.765	19.66
886.198	25.06
886.631	21.16
887.064	19.86
887.497	20.56
887.929	29.56
888.362	16.36
888.795	14.56
889.228	17.76
889.66	26.06
890.093	21.76
890.526	15.96
890.958	18.56
891.391	16.76
891.823	19.56
892.256	14.56
892.688	14.26
893.121	19.86
893.553	15.86
893.985	26.16
894.418	24.16
894.85	15.16
895.282	18.46
895.715	19.46
896.147	19.36
896.579	16.86
897.011	15.76
897.444	23.46
897.876	18.76
898.308	19.26
898.74	14.46
899.172	13.56
899.604	31.56
900.036	24.46
900.468	18.56
900.9	14.56
901.332	24.96
901.764	18.26
902.196	22.56
902.628	16.96
903.06	18.16
903.491	36.76
903.923	30.76
904.355	25.66
904.787	22.36
905.218	27.96
905.65	21.76
906.082	13.76
906.513	14.86
906.945	18.46
907.376	12.86
907.808	19.16
908.239	25.16
908.671	27.66
909.102	23.66
909.534	32.36
909.965	54.36
910.397	99.76
910.828	339.56
911.259	495.16
911.691	226.96
912.122	115.66
912.553	55.26
912.984	38.86
913.415	27.66
913.847	30.16
914.278	17.96
914.709	13.86
915.14	17.46
915.571	20.16
916.002	11.46
916.433	22.76
916.864	18.96
917.295	19.26
917.726	25.56
918.157	20.16
918.587	31.46
919.018	24.96
919.449	25.16
919.88	24.76
920.311	30.26
920.741	56.96
921.172	177.56
921.603	158.46
922.033	74.36
922.464	53.66
922.895	24.56
923.325	20.96
923.756	18.16
924.186	15.46
924.617	18.16
925.047	18.36
925.478	24.36
925.908	17.36
926.338	10.76
926.769	10.16
927.199	18.06
927.629	9.56
928.06	13.76
928.49	19.76
928.92	11.76
929.35	14.26
929.78	7.06
930.21	1.46
930.641	3.66
931.071	10.86
931.501	9.06
931.931	8.26
932.361	8.36
932.791	1.96
933.221	7.36
933.651	9.06
934.08	20.36
934.51	36.56
934.94	10.76
935.37	14.36
935.8	12.46
936.229	7.86
936.659	10.26
937.089	7.16
937.519	19.26
937.948	22.36
938.378	13.66
938.807	9.46
939.237	5.36
939.666	5.36
940.096	5.96
940.525	-1.34
940.955	6.56
941.384	2.86
941.814	-6.44
942.243	-7.74
942.672	11.16
943.102	2.36
943.531	3.46
943.96	8.36
944.39	0.66
944.819	0.26
945.248	7.66
945.677	0.46
946.106	6.46
946.535	4.26
946.964	0.56
947.393	4.06
947.822	-0.64
948.251	-5.54
948.68	3.76
949.109	2.16
949.538	7.36
949.967	3.26
950.396	2.16
950.825	0.56
951.254	0.26
951.682	6.16
952.111	9.66
952.54	5.46
952.969	-9.34
953.397	-1.94
953.826	6.56
954.254	-3.04
954.683	5.46
955.112	1.16
955.54	1.16
955.969	3.76
956.397	0.26
956.826	-4.04
957.254	6.26
957.682	4.16
958.111	2.66
958.539	0.66
958.967	-3.34
959.396	-2.74
959.824	2.56
960.252	5.96
960.68	-7.34
961.109	-0.14
961.537	-2.24
961.965	5.86
962.393	-0.34
962.821	-1.24
963.249	2.56
963.677	9.46
964.105	9.06
964.533	47.36
964.961	48.66
965.389	26.76
965.817	8.86
966.245	-2.04
966.672	1.16
967.1	-4.74
967.528	0.86
967.956	-3.84
968.383	-2.64
968.811	-3.94
969.239	1.66
969.666	0.66
970.094	6.86
970.522	1.66
970.949	-1.54
971.377	-7.44
971.804	0.46
972.232	-1.24
972.659	-2.44
973.087	3.86
973.514	-0.34
973.941	-2.44
974.369	7.36
974.796	3.46
975.223	-1.64
975.651	-0.54
976.078	-1.84
976.505	5.16
976.932	3.16
977.359	17.26
977.786	11.36
978.214	10.56
978.641	-2.34
979.068	-0.44
979.495	-2.24
979.922	-3.54
980.349	-6.04
980.776	3.66
981.202	2.26
981.629	1.46
982.056	2.66
982.483	-0.14
982.91	9.16
983.337	-7.34
983.763	0.26
984.19	-3.64
984.617	-0.04
985.043	-4.84
985.47	-3.44
985.897	-3.54
986.323	-4.44
986.75	2.66
987.176	-0.94
987.603	-1.34
988.029	1.56
988.456	-3.74
988.882	1.96
989.308	-4.44
989.735	-1.34
990.161	-2.04
990.587	-3.54
991.014	2.06
991.44	2.16
991.866	-1.14
992.292	-6.64
992.719	-0.64
993.145	2.56
993.571	-12.54
993.997	-2.24
994.423	-3.44
994.849	1.36
995.275	2.16
995.701	9.86
996.127	-4.34
996.553	4.86
996.979	-1.54
997.405	1.86
997.83	-1.94
998.256	-9.74
998.682	-5.24
999.108	-9.94
999.534	2.96
999.959	-3.04
1000.385	0.56
1000.811	5.86
1001.236	-3.14
1001.662	-10.84
1002.087	-11.94
1002.513	4.16
1002.938	-0.84
1003.364	6.06
1003.789	-0.84
1004.215	5.06
1004.64	-0.94
1005.066	-0.64
1005.491	1.56
1005.916	-1.34
1006.342	-2.34
1006.767	-8.14
1007.192	6.66
1007.617	-1.54
1008.042	-9.94
1008.468	-1.94
1008.893	-5.54
1009.318	-5.64
1009.743	-4.64
1010.168	0.86
1010.593	4.36
1011.018	-2.94
1011.443	-3.54
1011.868	-1.24
1012.293	-2.44
1012.718	-0.44
1013.143	0.36
1013.567	3.86
1013.992	-5.14
1014.417	-7.44
1014.842	-0.04
1015.267	-5.14
1015.691	0.76
1016.116	5.86
1016.541	-2.44
1016.965	3.46
1017.39	3.96
1017.814	0.66
1018.239	1.96
1018.663	-8.34
1019.088	-7.94
1019.512	-0.74
1019.937	-6.14
1020.361	-3.84
1020.785	-7.14
1021.21	4.86
1021.634	2.76
1022.058	-5.04
1022.483	8.66
1022.907	-4.24
1023.331	-6.84
1023.755	-3.34
1024.179	-0.54
1024.604	-6.84
1025.028	-4.34
1025.452	-2.44
1025.876	1.36
1026.3	4.36
1026.724	-9.14
1027.148	-3.94
1027.572	-11.04
1027.996	0.26
1028.42	0.86
1028.843	-3.64
1029.267	-0.54
1029.691	-0.84
1030.115	-6.14
1030.539	-9.14
1030.962	-6.54
1031.386	-11.74
1031.81	0.36
1032.233	2.76
1032.657	0.16
1033.08	-7.34
1033.504	-4.34
1033.927	-7.54
1034.351	-1.54
1034.774	-3.94
1035.198	-4.74
1035.621	-1.84
1036.045	-3.14
1036.468	1.36
1036.891	-10.54
1037.315	-9.74
1037.738	-8.84
1038.161	0.86
1038.584	-11.94
1039.008	-9.74
1039.431	1.76
1039.854	-0.04
1040.277	-6.74
1040.7	-9.34
1041.123	-2.44
1041.546	-10.04
1041.969	-6.74
1042.392	-3.44
1042.815	-2.64
1043.238	2.36
1043.661	-2.44
1044.084	-5.94
1044.507	-1.44
1044.93	-8.64
1045.352	-1.74
1045.775	-2.54
1046.198	4.36
1046.621	-4.24
1047.043	-0.94
1047.466	10.36
1047.889	-0.04
1048.311	-4.64
1048.734	-2.64
1049.156	-3.34
1049.579	-5.64
1050.001	-4.54
1050.424	-3.04
1050.846	-5.34
1051.269	-0.54
1051.691	-2.04
1052.113	-0.64
1052.536	-3.94
1052.958	-5.14
1053.38	-3.24
1053.802	-8.94
1054.225	0.66
1054.647	-1.34
1055.069	-5.74
1055.491	-2.24
1055.913	-3.34
1056.335	-4.84
1056.757	-0.54
1057.179	-10.64
1057.601	-8.24
1058.023	-7.44
1058.445	-5.14
1058.867	-2.14
1059.289	-3.84
1059.711	-6.14
1060.133	-5.14
1060.555	-2.64
1060.976	-8.04
1061.398	-1.24
1061.82	-4.74
1062.241	-4.94
1062.663	-2.84
1063.085	0.46
1063.506	-2.04
1063.928	-1.04
1064.35	3.36
1064.771	-8.34
1065.193	-8.14
1065.614	-10.14
1066.035	5.76
1066.457	-2.44
1066.878	-1.24
1067.3	-8.04
1067.721	-7.34
1068.142	-5.14
1068.564	-3.54
1068.985	0.06
1069.406	-7.94
1069.827	-4.94
1070.248	-2.44
1070.67	-8.64
1071.091	-5.24
1071.512	-2.54
1071.933	0.56
1072.354	-6.64
1072.775	-4.14
1073.196	-4.74
1073.617	-0.04
1074.038	-7.84
1074.459	-2.64
1074.88	-7.04
1075.3	-0.04
1075.721	-6.44
1076.142	2.26
1076.563	-3.74
1076.983	-11.74
1077.404	-1.24
1077.825	-8.44
1078.246	-0.54
1078.666	-11.44
1079.087	-2.54
1079.507	-2.24
1079.928	0.86
1080.348	2.86
1080.769	-4.04
1081.189	-0.04
1081.61	-3.94
1082.03	-6.24
1082.451	-5.74
1082.871	-5.04
1083.291	-1.64
1083.711	-10.14
1084.132	0.26
1084.552	-3.94
1084.972	5.26
1085.392	-15.04
1085.813	-10.14
1086.233	-3.84
1086.653	-4.44
1087.073	-7.44
1087.493	-7.54
1087.913	-1.34
1088.333	-6.24
1088.753	1.16
1089.173	2.16
1089.593	1.96
1090.013	-3.84
1090.433	4.66
1090.852	-5.74
1091.272	1.46
1091.692	2.06
1092.112	-9.14
1092.531	-5.54
1092.951	-8.44
1093.371	-1.94
1093.79	6.36
1094.21	-3.64
1094.63	-4.24
1095.049	-4.24
1095.469	-2.54
1095.888	-5.84
1096.308	-0.24
1096.727	6.96
1097.146	-2.04
1097.566	0.66
1097.985	-1.34
1098.405	5.36
1098.824	-3.84
1099.243	-2.34
1099.662	-7.34
1100.082	-5.44
1100.501	0.06
1100.92	-2.44
1101.339	-3.14
1101.758	-3.44
