Data from 20171114-ORNL-Ar_H_NY_Subt18_08-09-20-957.txt Node
Date: Tue Nov 14 08:09:20 EST 2017
User: Ender
Spectrometer: HR+D1039
Trigger mode: 0
Integration Time (sec): 2.730000E-2
Scans to average: 10
Electric dark correction enabled: true
Nonlinearity correction enabled: false
Boxcar width: 0
XAxis mode: Wavelengths
Number of Pixels in Spectrum: 2048
>>>>>Begin Spectral Data<<<<<
187.836	0.49
188.309	0.49
188.782	0.49
189.255	0.29
189.728	-5.41
190.201	6.09
190.674	3.79
191.147	-4.61
191.619	-7.31
192.092	4.79
192.565	3.99
193.038	2.09
193.511	2.79
193.984	-6.51
194.456	-4.61
194.929	3.39
195.402	-3.11
195.874	3.89
196.347	0.59
196.82	-3.11
197.292	3.69
197.765	4.49
198.237	-7.91
198.71	-3.01
199.182	5.69
199.655	5.39
200.127	7.09
200.6	0.29
201.072	2.59
201.544	1.39
202.017	-2.01
202.489	6.99
202.961	-1.01
203.433	2.59
203.906	-4.41
204.378	-3.81
204.85	-0.81
205.322	-6.51
205.794	-2.21
206.266	0.59
206.739	-6.31
207.211	3.59
207.683	-7.91
208.155	-6.31
208.627	-4.61
209.099	-4.91
209.57	-8.71
210.042	-7.41
210.514	-7.71
210.986	-4.41
211.458	-13.21
211.93	-4.51
212.402	-3.41
212.873	-7.11
213.345	-4.61
213.817	-10.71
214.288	-2.61
214.76	-11.21
215.232	-3.41
215.703	-7.01
216.175	-2.91
216.646	-7.51
217.118	-2.91
217.589	-5.61
218.061	0.39
218.532	-5.21
219.004	-0.21
219.475	-3.01
219.946	-5.51
220.418	1.39
220.889	-0.51
221.36	3.59
221.832	-6.51
222.303	-7.81
222.774	-3.81
223.245	-10.31
223.717	-9.11
224.188	-2.31
224.659	-5.01
225.13	-2.41
225.601	-2.11
226.072	-2.31
226.543	1.39
227.014	-3.41
227.485	-0.31
227.956	-3.31
228.427	-1.71
228.898	4.79
229.369	5.09
229.839	-1.91
230.31	-7.61
230.781	6.09
231.252	-4.61
231.722	-3.11
232.193	-4.11
232.664	-4.41
233.135	-0.71
233.605	-4.31
234.076	-11.21
234.546	-5.51
235.017	1.99
235.487	-3.11
235.958	-3.51
236.428	-10.21
236.899	-4.41
237.369	-2.31
237.84	-4.01
238.31	0.69
238.78	-2.61
239.251	0.99
239.721	-3.71
240.191	-0.11
240.662	-3.61
241.132	-2.11
241.602	-8.91
242.072	-0.91
242.542	2.29
243.013	-2.71
243.483	5.19
243.953	0.09
244.423	-4.91
244.893	-8.31
245.363	0.29
245.833	1.99
246.303	-5.71
246.773	3.69
247.243	-5.71
247.712	-3.11
248.182	0.49
248.652	5.19
249.122	-13.71
249.592	-10.01
250.061	1.59
250.531	-0.91
251.001	0.79
251.471	-1.01
251.94	10.99
252.41	0.39
252.879	-3.51
253.349	15.69
253.818	-1.21
254.288	2.89
254.757	-1.41
255.227	-9.91
255.696	-2.11
256.166	3.79
256.635	-0.01
257.105	1.89
257.574	-0.31
258.043	-0.01
258.513	-4.31
258.982	-3.01
259.451	-6.71
259.92	0.69
260.389	2.19
260.859	4.69
261.328	-1.41
261.797	5.79
262.266	-4.31
262.735	6.79
263.204	-2.71
263.673	-0.71
264.142	-2.41
264.611	-4.81
265.08	0.89
265.549	-3.11
266.018	-2.21
266.487	-9.11
266.955	-2.21
267.424	-4.71
267.893	-2.61
268.362	-5.61
268.83	3.89
269.299	4.99
269.768	0.89
270.236	0.79
270.705	2.19
271.174	3.89
271.642	-2.01
272.111	1.09
272.579	-1.91
273.048	5.59
273.516	-6.11
273.985	3.09
274.453	3.59
274.922	5.69
275.39	4.29
275.858	-1.61
276.327	5.89
276.795	1.99
277.263	1.39
277.731	11.29
278.2	10.09
278.668	-0.91
279.136	9.09
279.604	1.29
280.072	-0.21
280.54	5.79
281.008	3.99
281.477	5.49
281.945	-0.01
282.413	6.89
282.881	7.19
283.348	-2.81
283.816	9.99
284.284	5.99
284.752	16.49
285.22	3.59
285.688	3.49
286.156	2.09
286.623	12.19
287.091	5.49
287.559	9.69
288.026	7.19
288.494	7.89
288.962	-3.51
289.429	2.49
289.897	8.99
290.364	8.29
290.832	15.89
291.3	11.29
291.767	11.19
292.234	6.39
292.702	6.79
293.169	9.69
293.637	8.59
294.104	12.59
294.571	5.69
295.039	13.59
295.506	11.39
295.973	13.29
296.44	5.99
296.908	7.19
297.375	7.89
297.842	14.39
298.309	12.49
298.776	3.79
299.243	12.69
299.71	3.59
300.177	15.99
300.644	16.39
301.111	9.89
301.578	13.09
302.045	7.09
302.512	20.59
302.979	11.49
303.446	15.69
303.913	7.49
304.379	7.59
304.846	13.69
305.313	6.29
305.78	12.19
306.246	14.09
306.713	14.89
307.18	13.19
307.646	18.79
308.113	13.29
308.579	14.19
309.046	9.19
309.512	20.59
309.979	11.49
310.445	19.99
310.912	24.69
311.378	25.09
311.845	18.49
312.311	17.09
312.777	19.19
313.244	22.29
313.71	21.59
314.176	20.99
314.642	11.89
315.109	15.19
315.575	25.29
316.041	28.59
316.507	20.49
316.973	21.99
317.439	21.79
317.905	26.19
318.371	26.39
318.837	22.69
319.303	21.29
319.769	21.19
320.235	21.79
320.701	26.19
321.167	24.19
321.633	19.99
322.099	21.29
322.564	28.09
323.03	21.79
323.496	24.39
323.962	20.29
324.427	26.29
324.893	28.39
325.359	30.29
325.824	29.39
326.29	25.59
326.755	22.09
327.221	27.09
327.686	27.39
328.152	28.39
328.617	31.19
329.083	28.49
329.548	37.29
330.014	31.49
330.479	29.69
330.944	27.79
331.41	29.79
331.875	32.09
332.34	29.69
332.805	28.69
333.271	33.79
333.736	35.09
334.201	31.09
334.666	35.09
335.131	38.69
335.596	37.79
336.061	34.59
336.526	25.69
336.991	35.49
337.456	42.29
337.921	37.39
338.386	33.59
338.851	32.59
339.316	34.19
339.781	33.79
340.246	43.49
340.711	34.09
341.175	35.59
341.64	40.69
342.105	37.99
342.569	40.19
343.034	44.19
343.499	40.89
343.963	40.79
344.428	44.19
344.893	48.59
345.357	42.39
345.822	37.69
346.286	55.29
346.751	52.79
347.215	52.09
347.679	50.49
348.144	67.59
348.608	62.99
349.073	54.59
349.537	60.89
350.001	61.49
350.465	66.89
350.93	61.89
351.394	64.69
351.858	54.79
352.322	66.69
352.786	60.29
353.25	70.19
353.715	81.39
354.179	76.29
354.643	84.89
355.107	88.59
355.571	75.29
356.035	73.09
356.498	82.59
356.962	85.19
357.426	90.69
357.89	82.89
358.354	68.59
358.818	72.59
359.281	62.69
359.745	61.69
360.209	61.09
360.673	55.39
361.136	62.09
361.6	64.39
362.064	63.59
362.527	59.79
362.991	65.99
363.454	59.79
363.918	62.19
364.381	60.59
364.845	68.09
365.308	73.49
365.772	75.49
366.235	69.49
366.698	57.99
367.162	68.29
367.625	69.89
368.088	70.29
368.552	65.69
369.015	71.69
369.478	73.99
369.941	78.49
370.404	77.89
370.867	79.09
371.331	76.59
371.794	85.79
372.257	75.39
372.72	92.39
373.183	74.69
373.646	79.09
374.109	71.29
374.572	83.99
375.035	79.19
375.497	86.39
375.96	86.89
376.423	85.59
376.886	101.59
377.349	92.39
377.811	81.79
378.274	81.39
378.737	80.29
379.199	89.49
379.662	90.39
380.125	84.49
380.587	85.09
381.05	94.19
381.512	93.29
381.975	99.29
382.437	97.49
382.9	101.39
383.362	102.09
383.825	110.79
384.287	105.39
384.75	99.79
385.212	103.49
385.674	113.39
386.136	113.79
386.599	101.89
387.061	100.89
387.523	102.39
387.985	102.49
388.447	114.49
388.91	105.29
389.372	111.79
389.834	114.19
390.296	108.49
390.758	109.99
391.22	117.59
391.682	118.19
392.144	135.79
392.606	123.79
393.068	121.29
393.529	133.69
393.991	117.69
394.453	112.09
394.915	117.19
395.377	121.19
395.838	116.19
396.3	120.09
396.762	122.69
397.224	114.69
397.685	115.39
398.147	117.49
398.608	115.69
399.07	119.59
399.531	124.69
399.993	117.49
400.454	139.89
400.916	136.79
401.377	129.69
401.839	130.79
402.3	134.99
402.762	138.29
403.223	158.09
403.684	147.89
404.145	141.49
404.607	147.39
405.068	145.89
405.529	147.19
405.99	165.69
406.451	151.49
406.913	156.79
407.374	148.39
407.835	153.49
408.296	149.89
408.757	160.49
409.218	171.69
409.679	164.69
410.14	163.59
410.601	154.79
411.062	163.79
411.522	167.59
411.983	164.19
412.444	156.19
412.905	169.09
413.366	166.69
413.826	177.89
414.287	200.79
414.748	244.49
415.208	233.19
415.669	198.89
416.13	195.99
416.59	185.79
417.051	199.99
417.511	203.19
417.972	221.59
418.432	233.19
418.893	274.19
419.353	237.59
419.814	182.09
420.274	174.39
420.734	173.09
421.195	186.79
421.655	186.49
422.115	188.29
422.576	180.39
423.036	188.09
423.496	197.29
423.956	200.89
424.416	214.19
424.876	247.39
425.336	247.89
425.797	239.79
426.257	235.79
426.717	227.09
427.177	216.79
427.637	207.19
428.097	215.89
428.556	223.09
429.016	253.29
429.476	239.69
429.936	251.29
430.396	258.99
430.856	268.49
431.315	281.89
431.775	307.99
432.235	346.29
432.694	312.89
433.154	316.69
433.614	344.89
434.073	301.49
434.533	258.09
434.993	244.99
435.452	258.79
435.912	267.79
436.371	257.29
436.83	257.39
437.29	242.09
437.749	237.89
438.209	233.69
438.668	252.29
439.127	258.59
439.587	245.49
440.046	230.59
440.505	241.69
440.964	258.59
441.424	294.29
441.883	287.49
442.342	250.69
442.801	213.79
443.26	210.19
443.719	218.19
444.178	206.39
444.637	202.99
445.096	213.99
445.555	209.69
446.014	219.89
446.473	214.59
446.932	222.99
447.391	214.69
447.849	220.19
448.308	216.09
448.767	215.79
449.226	229.09
449.685	230.89
450.143	249.39
450.602	230.79
451.061	217.09
451.519	223.39
451.978	227.39
452.436	223.49
452.895	229.59
453.353	243.99
453.812	232.19
454.27	233.39
454.729	227.89
455.187	230.99
455.646	234.99
456.104	246.09
456.562	252.09
457.021	255.09
457.479	255.79
457.937	265.89
458.395	248.49
458.854	241.39
459.312	251.99
459.77	265.09
460.228	247.69
460.686	238.39
461.144	244.09
461.602	240.89
462.06	237.69
462.518	251.69
462.976	245.29
463.434	253.29
463.892	252.79
464.35	262.79
464.808	277.99
465.266	267.09
465.724	263.79
466.181	264.49
466.639	269.09
467.097	280.59
467.555	295.99
468.012	295.69
468.47	303.29
468.928	321.29
469.385	336.99
469.843	334.09
470.3	342.99
470.758	348.89
471.215	366.39
471.673	386.99
472.13	385.79
472.588	419.09
473.045	357.39
473.503	368.19
473.96	383.99
474.417	391.39
474.875	416.39
475.332	446.69
475.789	445.89
476.246	452.59
476.704	467.29
477.161	491.39
477.618	496.99
478.075	532.19
478.532	587.49
478.989	642.09
479.446	745.09
479.903	718.29
480.36	747.59
480.817	790.29
481.274	869.49
481.731	957.59
482.188	1028.59
482.645	1145.09
483.102	1230.09
483.558	1345.69
484.015	1375.39
484.472	1360.59
484.929	1317.39
485.385	1271.49
485.842	1254.19
486.299	1201.69
486.755	1165.59
487.212	995.59
487.668	853.99
488.125	796.39
488.582	731.29
489.038	706.39
489.494	673.69
489.951	647.59
490.407	629.79
490.864	616.39
491.32	613.39
491.776	614.19
492.233	628.39
492.689	589.59
493.145	590.49
493.602	575.79
494.058	591.39
494.514	585.19
494.97	612.79
495.426	630.49
495.882	591.69
496.338	590.19
496.794	592.69
497.251	587.19
497.707	608.19
498.163	597.29
498.618	613.59
499.074	613.39
499.53	646.99
499.986	645.19
500.442	626.49
500.898	605.09
501.354	590.59
501.809	599.59
502.265	595.99
502.721	613.49
503.177	618.19
503.632	619.19
504.088	629.19
504.543	642.79
504.999	674.49
505.455	640.89
505.91	619.39
506.366	620.59
506.821	617.69
507.277	610.59
507.732	608.59
508.187	610.49
508.643	630.09
509.098	632.89
509.553	651.59
510.009	651.29
510.464	658.99
510.919	671.59
511.375	682.59
511.83	698.29
512.285	701.99
512.74	732.79
513.195	760.89
513.65	749.09
514.105	741.09
514.56	739.99
515.015	764.89
515.47	786.69
515.925	760.49
516.38	770.99
516.835	771.99
517.29	753.89
517.745	756.59
518.2	742.79
518.655	738.59
519.109	732.49
519.564	717.39
520.019	716.29
520.474	701.99
520.928	713.69
521.383	692.79
521.838	701.99
522.292	700.19
522.747	699.39
523.201	696.79
523.656	687.09
524.11	683.69
524.565	679.99
525.019	676.59
525.474	683.89
525.928	676.39
526.382	681.79
526.837	681.69
527.291	697.59
527.745	672.39
528.2	683.29
528.654	683.89
529.108	669.59
529.562	672.09
530.016	679.19
530.47	679.39
530.925	685.79
531.379	674.59
531.833	684.09
532.287	680.49
532.741	678.19
533.195	684.99
533.649	693.89
534.103	696.69
534.556	694.59
535.01	684.59
535.464	684.19
535.918	712.69
536.372	700.89
536.826	702.69
537.279	692.39
537.733	694.49
538.187	708.69
538.64	705.49
539.094	711.49
539.548	720.19
540.001	716.89
540.455	707.59
540.908	723.19
541.362	728.49
541.815	725.89
542.269	744.59
542.722	741.99
543.175	759.59
543.629	753.49
544.082	781.29
544.536	780.99
544.989	773.89
545.442	787.49
545.895	778.69
546.349	786.99
546.802	787.69
547.255	788.09
547.708	799.09
548.161	800.79
548.614	807.29
549.067	828.29
549.52	818.79
549.973	812.69
550.426	791.49
550.879	793.09
551.332	799.39
551.785	795.69
552.238	800.79
552.691	822.29
553.144	835.59
553.596	843.49
554.049	853.69
554.502	885.69
554.955	905.09
555.407	896.29
555.86	895.69
556.313	879.49
556.765	872.19
557.218	871.39
557.67	873.19
558.123	877.89
558.576	860.59
559.028	856.19
559.48	878.29
559.933	865.89
560.385	834.79
560.838	802.69
561.29	779.79
561.742	791.79
562.195	765.89
562.647	763.39
563.099	776.19
563.551	770.29
564.004	779.29
564.456	760.79
564.908	745.49
565.36	736.39
565.812	729.99
566.264	713.09
566.716	706.99
567.168	705.29
567.62	696.69
568.072	690.49
568.524	700.49
568.976	681.19
569.428	676.19
569.88	677.79
570.332	680.79
570.784	682.19
571.235	684.79
571.687	700.49
572.139	701.49
572.59	700.69
573.042	713.59
573.494	710.59
573.945	697.89
574.397	687.09
574.849	690.59
575.3	682.09
575.752	685.89
576.203	675.19
576.655	680.79
577.106	669.09
577.557	670.29
578.009	670.29
578.46	667.69
578.912	664.19
579.363	665.69
579.814	672.19
580.265	653.29
580.717	671.59
581.168	661.49
581.619	673.39
582.07	677.79
582.521	674.79
582.972	672.29
583.423	672.19
583.875	671.19
584.326	676.09
584.777	692.69
585.227	707.79
585.678	722.39
586.129	739.79
586.58	750.99
587.031	777.09
587.482	800.89
587.933	823.99
588.384	802.29
588.834	779.49
589.285	772.69
589.736	771.19
590.186	768.89
590.637	765.99
591.088	746.79
591.538	737.99
591.989	732.69
592.439	726.69
592.89	716.69
593.34	702.79
593.791	703.99
594.241	695.29
594.692	698.69
595.142	692.59
595.593	687.49
596.043	699.19
596.493	700.49
596.943	718.59
597.394	724.79
597.844	723.69
598.294	747.19
598.744	756.99
599.195	779.89
599.645	819.09
600.095	876.69
600.545	917.29
600.995	969.99
601.445	1022.19
601.895	1076.49
602.345	1124.29
602.795	1107.59
603.245	1074.79
603.695	1017.39
604.145	958.89
604.594	923.39
605.044	865.49
605.494	805.29
605.944	753.69
606.393	744.79
606.843	728.79
607.293	728.69
607.743	726.59
608.192	748.89
608.642	750.49
609.091	752.89
609.541	755.99
609.99	766.09
610.44	753.59
610.889	714.69
611.339	694.79
611.788	680.29
612.238	698.19
612.687	706.99
613.136	694.49
613.586	710.79
614.035	698.49
614.484	716.49
614.933	703.79
615.383	701.39
615.832	705.89
616.281	704.69
616.73	676.19
617.179	662.09
617.628	650.89
618.077	631.09
618.526	613.09
618.975	625.39
619.424	607.99
619.873	620.29
620.322	622.59
620.771	607.59
621.22	603.79
621.669	586.69
622.118	576.69
622.567	580.19
623.015	566.99
623.464	571.59
623.913	554.09
624.361	551.49
624.81	555.09
625.259	551.49
625.707	561.59
626.156	567.79
626.604	568.59
627.053	567.09
627.501	566.69
627.95	555.49
628.398	582.19
628.847	573.09
629.295	572.39
629.744	580.79
630.192	574.29
630.64	559.39
631.089	549.79
631.537	538.39
631.985	528.39
632.433	523.19
632.881	517.59
633.33	539.39
633.778	523.29
634.226	528.19
634.674	536.19
635.122	539.49
635.57	548.79
636.018	559.79
636.466	571.59
636.914	555.89
637.362	571.09
637.81	568.19
638.258	580.39
638.705	590.79
639.153	624.59
639.601	621.69
640.049	646.89
640.497	666.79
640.944	694.49
641.392	647.89
641.84	612.99
642.287	580.19
642.735	569.19
643.182	563.89
643.63	570.99
644.078	558.99
644.525	576.69
644.973	579.29
645.42	596.89
645.867	607.19
646.315	636.29
646.762	656.09
647.21	676.99
647.657	705.59
648.104	725.09
648.551	760.49
648.999	805.29
649.446	891.09
649.893	958.29
650.34	1115.99
650.787	1314.99
651.234	1622.59
651.682	2092.39
652.129	2853.19
652.576	4047.09
653.023	5926.59
653.47	7957.99
653.917	9818.29
654.363	11195.89
654.81	12280.69
655.257	11654.49
655.704	7712.19
656.151	4653.99
656.598	3065.99
657.044	2209.49
657.491	1715.59
657.938	1384.09
658.385	1166.89
658.831	1024.29
659.278	908.39
659.724	834.59
660.171	765.59
660.618	698.79
661.064	675.99
661.511	656.69
661.957	637.49
662.404	632.09
662.85	644.39
663.296	625.59
663.743	565.49
664.189	539.79
664.635	532.59
665.082	529.69
665.528	532.09
665.974	511.79
666.42	514.29
666.867	506.89
667.313	484.99
667.759	471.79
668.205	451.99
668.651	458.69
669.097	445.59
669.543	455.49
669.989	446.79
670.435	456.39
670.881	453.89
671.327	454.39
671.773	484.59
672.219	504.59
672.665	552.19
673.11	592.49
673.556	646.29
674.002	675.59
674.448	674.39
674.893	557.49
675.339	482.29
675.785	453.39
676.23	424.69
676.676	401.29
677.122	389.29
677.567	377.89
678.013	369.09
678.458	368.79
678.904	365.69
679.349	361.89
679.794	363.99
680.24	359.09
680.685	359.59
681.131	348.59
681.576	363.19
682.021	365.69
682.466	363.89
682.912	352.39
683.357	367.39
683.802	391.09
684.247	428.59
684.692	470.49
685.137	497.49
685.583	551.09
686.028	571.59
686.473	529.59
686.918	457.39
687.363	424.49
687.807	403.39
688.252	374.99
688.697	354.19
689.142	340.49
689.587	343.39
690.032	332.29
690.477	356.59
690.921	363.99
691.366	393.69
691.811	405.79
692.255	442.19
692.7	478.99
693.145	523.79
693.589	751.49
694.034	1201.09
694.478	1608.59
694.923	1771.89
695.367	2295.29
695.812	1229.19
696.256	511.89
696.701	386.49
697.145	347.79
697.59	340.79
698.034	316.29
698.478	334.99
698.922	324.79
699.367	332.39
699.811	347.19
700.255	354.79
700.699	382.19
701.143	443.29
701.588	494.99
702.032	534.89
702.476	533.99
702.92	506.39
703.364	503.09
703.808	692.69
704.252	1106.29
704.696	1541.29
705.14	1691.99
705.584	2157.99
706.027	1096.29
706.471	545.29
706.915	406.49
707.359	361.69
707.803	332.09
708.246	320.89
708.69	323.19
709.134	319.19
709.577	317.59
710.021	321.29
710.465	315.79
710.908	309.89
711.352	303.89
711.795	324.79
712.239	368.99
712.682	391.69
713.126	415.69
713.569	465.79
714.012	361.99
714.456	313.29
714.899	298.69
715.342	279.79
715.786	263.59
716.229	262.19
716.672	267.89
717.115	256.49
717.558	259.09
718.002	258.99
718.445	266.09
718.888	293.79
719.331	305.39
719.774	313.49
720.217	314.39
720.66	294.89
721.103	270.29
721.546	260.89
721.989	248.69
722.432	239.49
722.874	247.39
723.317	241.99
723.76	246.59
724.203	262.39
724.645	330.79
725.088	471.29
725.531	598.19
725.974	648.69
726.416	566.89
726.859	311.89
727.301	250.09
727.744	243.69
728.187	236.99
728.629	245.59
729.071	247.79
729.514	270.29
729.956	281.79
730.399	293.29
730.841	302.49
731.283	284.29
731.726	272.09
732.168	268.29
732.61	283.29
733.053	299.49
733.495	320.79
733.937	363.29
734.379	416.79
734.821	458.29
735.263	576.39
735.705	916.39
736.148	1729.29
736.59	2702.29
737.032	3087.19
737.474	2535.99
737.916	852.89
738.357	445.89
738.799	339.19
739.241	308.49
739.683	300.19
740.125	298.59
740.567	307.69
741.008	321.49
741.45	325.39
741.892	333.49
742.334	366.09
742.775	371.99
743.217	356.89
743.658	274.39
744.1	264.29
744.542	283.89
744.983	335.79
745.425	360.59
745.866	351.29
746.307	290.89
746.749	290.99
747.19	334.49
747.632	486.59
748.073	978.79
748.514	2021.49
748.956	2962.49
749.397	3753.39
749.838	3105.59
750.279	3007.79
750.72	1535.59
751.162	575.99
751.603	333.69
752.044	265.99
752.485	231.09
752.926	214.59
753.367	212.99
753.808	204.49
754.249	206.89
754.69	196.19
755.131	190.29
755.572	184.29
756.013	185.79
756.453	191.19
756.894	197.09
757.335	199.49
757.776	201.49
758.216	208.99
758.657	199.59
759.098	210.89
759.538	243.59
759.979	281.89
760.42	406.99
760.86	778.59
761.301	2044.49
761.741	4764.39
762.182	6530.09
762.622	4633.99
763.063	1368.69
763.503	564.69
763.943	339.59
764.384	273.09
764.824	245.69
765.264	225.19
765.705	208.39
766.145	184.89
766.585	183.19
767.025	171.49
767.465	163.79
767.906	185.69
768.346	196.39
768.786	209.19
769.226	218.09
769.666	328.29
770.106	679.59
770.546	1678.29
770.986	2726.29
771.426	2408.49
771.866	823.69
772.306	340.99
772.745	213.09
773.185	174.09
773.625	168.19
774.065	162.89
774.505	167.39
774.944	216.29
775.384	377.29
775.824	578.29
776.263	553.49
776.703	277.49
777.142	160.09
777.582	131.29
778.021	130.99
778.461	132.69
778.9	127.69
779.34	128.89
779.779	115.79
780.219	107.89
780.658	106.99
781.097	117.19
781.537	121.39
781.976	112.09
782.415	112.59
782.855	109.39
783.294	108.89
783.733	109.39
784.172	108.89
784.611	105.99
785.05	115.39
785.489	113.59
785.928	118.89
786.367	125.89
786.806	123.19
787.245	134.89
787.684	147.29
788.123	152.79
788.562	134.19
789.001	133.09
789.44	123.99
789.879	124.59
790.317	121.39
790.756	132.59
791.195	131.59
791.634	151.99
792.072	223.89
792.511	396.89
792.95	1104.89
793.388	2192.69
793.827	1916.19
794.265	695.29
794.704	294.99
795.142	195.99
795.581	155.69
796.019	142.89
796.458	133.49
796.896	131.69
797.334	135.69
797.773	162.49
798.211	238.19
798.649	486.19
799.087	1094.79
799.526	1692.99
799.964	2129.59
800.402	2038.39
800.84	790.09
801.278	314.49
801.716	192.29
802.154	162.09
802.592	151.59
803.03	141.49
803.468	146.39
803.906	148.29
804.344	158.19
804.782	147.59
805.22	142.69
805.658	138.39
806.096	154.39
806.533	165.49
806.971	188.69
807.409	229.69
807.847	352.19
808.284	739.69
808.722	2044.49
809.16	3401.79
809.597	3396.09
810.035	5745.09
810.472	5851.79
810.91	2178.59
811.347	846.29
811.785	420.09
812.222	267.29
812.66	201.49
813.097	165.79
813.535	146.69
813.972	138.39
814.409	127.29
814.846	109.69
815.284	112.69
815.721	102.99
816.158	105.29
816.595	116.69
817.032	159.59
817.47	185.39
817.907	120.99
818.344	112.99
818.781	102.09
819.218	101.09
819.655	127.29
820.092	197.59
820.529	214.89
820.966	173.59
821.403	126.09
821.839	102.79
822.276	106.29
822.713	125.79
823.15	143.09
823.587	114.19
824.023	156.89
824.46	342.59
824.897	967.29
825.333	1389.09
825.77	609.49
826.206	242.29
826.643	139.09
827.08	109.39
827.516	89.79
827.953	82.59
828.389	83.09
828.825	76.79
829.262	65.69
829.698	67.29
830.135	71.29
830.571	67.79
831.007	64.79
831.443	71.29
831.88	65.59
832.316	65.49
832.752	70.39
833.188	66.99
833.624	61.19
834.06	66.79
834.497	69.99
834.933	79.59
835.369	80.99
835.805	75.89
836.241	77.79
836.677	87.29
837.112	99.29
837.548	106.99
837.984	144.09
838.42	212.49
838.856	553.59
839.292	1630.79
839.727	2351.79
840.163	1119.09
840.599	1014.49
841.034	2156.79
841.47	2142.99
841.906	807.09
842.341	343.99
842.777	205.19
843.212	205.39
843.648	183.49
844.083	112.69
844.519	84.79
844.954	76.19
845.39	57.09
845.825	58.89
846.261	57.19
846.696	55.29
847.131	55.69
847.566	65.59
848.002	50.89
848.437	56.39
848.872	63.89
849.307	64.99
849.742	87.89
850.177	200.99
850.613	600.49
851.048	896.19
851.483	384.79
851.918	158.29
852.353	94.39
852.788	58.59
853.223	50.39
853.657	53.39
854.092	41.49
854.527	46.89
854.962	40.79
855.397	46.19
855.832	47.69
856.266	45.09
856.701	42.89
857.136	33.79
857.57	46.79
858.005	54.99
858.44	56.69
858.874	42.99
859.309	56.29
859.743	36.59
860.178	46.39
860.612	43.19
861.047	61.89
861.481	69.49
861.915	72.29
862.35	60.59
862.784	38.69
863.218	45.29
863.653	38.59
864.087	44.29
864.521	60.19
864.955	74.09
865.39	167.29
865.824	189.39
866.258	119.39
866.692	173.19
867.126	185.89
867.56	116.69
867.994	52.09
868.428	44.39
868.862	54.69
869.296	59.89
869.73	62.49
870.164	61.59
870.598	50.59
871.031	39.29
871.465	27.39
871.899	34.19
872.333	27.19
872.766	25.09
873.2	26.29
873.634	33.59
874.067	26.69
874.501	24.79
874.935	34.79
875.368	27.39
875.802	33.29
876.235	26.89
876.669	23.39
877.102	26.39
877.535	34.09
877.969	26.59
878.402	23.39
878.836	22.49
879.269	28.99
879.702	25.89
880.135	26.49
880.569	24.59
881.002	29.39
881.435	21.79
881.868	20.99
882.301	22.59
882.734	15.69
883.167	22.19
883.601	25.79
884.034	25.09
884.467	21.39
884.899	19.99
885.332	18.89
885.765	17.69
886.198	20.19
886.631	19.09
887.064	20.79
887.497	20.59
887.929	23.39
888.362	14.09
888.795	14.99
889.228	19.19
889.66	26.59
890.093	21.59
890.526	18.29
890.958	15.49
891.391	26.09
891.823	21.19
892.256	12.49
892.688	15.09
893.121	21.09
893.553	19.29
893.985	26.09
894.418	22.09
894.85	9.49
895.282	14.59
895.715	12.19
896.147	19.49
896.579	22.19
897.011	9.59
897.444	20.49
897.876	16.59
898.308	20.69
898.74	16.89
899.172	14.39
899.604	19.29
900.036	19.99
900.468	19.99
900.9	20.49
901.332	15.49
901.764	15.89
902.196	17.49
902.628	19.79
903.06	21.89
903.491	25.19
903.923	22.99
904.355	27.09
904.787	21.39
905.218	28.99
905.65	25.19
906.082	16.49
906.513	16.69
906.945	16.29
907.376	19.79
907.808	15.79
908.239	20.89
908.671	17.29
909.102	19.89
909.534	25.19
909.965	49.69
910.397	102.19
910.828	329.09
911.259	479.99
911.691	228.19
912.122	115.19
912.553	54.59
912.984	38.79
913.415	19.89
913.847	24.69
914.278	13.99
914.709	18.29
915.14	19.59
915.571	19.89
916.002	18.59
916.433	20.39
916.864	18.69
917.295	15.79
917.726	17.29
918.157	17.59
918.587	32.49
919.018	26.89
919.449	24.99
919.88	29.09
920.311	31.19
920.741	49.59
921.172	172.79
921.603	158.89
922.033	75.79
922.464	46.69
922.895	22.89
923.325	19.19
923.756	15.89
924.186	13.79
924.617	21.49
925.047	23.09
925.478	22.19
925.908	25.19
926.338	16.39
926.769	18.49
927.199	19.09
927.629	10.69
928.06	15.19
928.49	9.19
928.92	14.29
929.35	17.29
929.78	18.89
930.21	6.19
930.641	6.69
931.071	6.39
931.501	7.69
931.931	10.69
932.361	13.99
932.791	2.59
933.221	4.49
933.651	8.49
934.08	21.59
934.51	36.69
934.94	11.39
935.37	14.39
935.8	10.69
936.229	12.09
936.659	12.89
937.089	9.79
937.519	14.99
937.948	23.89
938.378	19.29
938.807	4.49
939.237	9.99
939.666	7.69
940.096	-6.61
940.525	0.09
940.955	4.49
941.384	2.39
941.814	2.49
942.243	-3.21
942.672	5.99
943.102	0.19
943.531	0.49
943.96	6.69
944.39	7.89
944.819	4.89
945.248	2.39
945.677	7.89
946.106	4.49
946.535	4.29
946.964	0.29
947.393	3.09
947.822	-1.31
948.251	-6.91
948.68	2.49
949.109	6.29
949.538	6.69
949.967	-3.11
950.396	2.39
950.825	3.79
951.254	7.49
951.682	-8.21
952.111	-1.71
952.54	6.09
952.969	-6.11
953.397	-2.41
953.826	2.99
954.254	-7.71
954.683	6.19
955.112	-7.11
955.54	-0.71
955.969	3.89
956.397	2.69
956.826	-1.21
957.254	1.79
957.682	3.29
958.111	5.29
958.539	-0.31
958.967	5.39
959.396	4.89
959.824	8.09
960.252	5.99
960.68	-5.51
961.109	4.09
961.537	-4.41
961.965	-1.41
962.393	-4.31
962.821	-1.91
963.249	2.99
963.677	3.49
964.105	11.49
964.533	49.39
964.961	42.19
965.389	24.29
965.817	9.79
966.245	2.69
966.672	-2.01
967.1	-3.61
967.528	2.39
967.956	-1.21
968.383	0.09
968.811	-1.11
969.239	-2.91
969.666	-7.21
970.094	3.89
970.522	3.29
970.949	-2.01
971.377	-4.71
971.804	2.19
972.232	1.49
972.659	2.19
973.087	-3.31
973.514	-3.71
973.941	-3.21
974.369	5.79
974.796	-0.71
975.223	-4.81
975.651	0.49
976.078	-0.11
976.505	-3.01
976.932	4.39
977.359	9.89
977.786	9.49
978.214	0.59
978.641	-3.01
979.068	1.29
979.495	-1.21
979.922	2.89
980.349	6.09
980.776	5.29
981.202	4.99
981.629	7.29
982.056	-0.31
982.483	-0.91
982.91	3.49
983.337	-4.01
983.763	2.19
984.19	-2.81
984.617	-1.41
985.043	-3.21
985.47	3.29
985.897	-5.21
986.323	-6.81
986.75	-0.61
987.176	-0.01
987.603	-0.31
988.029	-0.31
988.456	-4.91
988.882	0.69
989.308	-6.81
989.735	-2.71
990.161	-3.51
990.587	-2.31
991.014	11.19
991.44	7.79
991.866	0.19
992.292	-4.81
992.719	-1.71
993.145	1.19
993.571	-5.71
993.997	-5.01
994.423	2.69
994.849	-2.51
995.275	2.79
995.701	1.39
996.127	-0.11
996.553	0.49
996.979	-1.21
997.405	-5.61
997.83	-4.91
998.256	-3.01
998.682	-2.91
999.108	-7.81
999.534	-2.61
999.959	0.09
1000.385	0.39
1000.811	1.19
1001.236	-6.21
1001.662	-1.91
1002.087	-2.41
1002.513	5.39
1002.938	8.89
1003.364	0.19
1003.789	1.59
1004.215	4.69
1004.64	-2.81
1005.066	3.09
1005.491	4.49
1005.916	0.49
1006.342	-2.01
1006.767	-11.11
1007.192	4.39
1007.617	-10.51
1008.042	1.89
1008.468	-5.51
1008.893	-2.21
1009.318	-8.21
1009.743	-3.11
1010.168	5.79
1010.593	3.69
1011.018	-5.11
1011.443	-1.91
1011.868	1.19
1012.293	0.89
1012.718	-5.91
1013.143	-2.11
1013.567	-0.81
1013.992	-5.01
1014.417	-8.81
1014.842	3.39
1015.267	-3.91
1015.691	-6.71
1016.116	3.39
1016.541	2.39
1016.965	0.89
1017.39	3.09
1017.814	1.69
1018.239	1.59
1018.663	-7.91
1019.088	-15.51
1019.512	-0.31
1019.937	-0.41
1020.361	0.79
1020.785	-9.01
1021.21	0.69
1021.634	-2.91
1022.058	0.09
1022.483	5.29
1022.907	-4.01
1023.331	-10.01
1023.755	-2.21
1024.179	1.29
1024.604	-3.31
1025.028	-3.11
1025.452	-7.31
1025.876	0.79
1026.3	-0.51
1026.724	-8.11
1027.148	-3.81
1027.572	-7.41
1027.996	-2.51
1028.42	-0.91
1028.843	-3.21
1029.267	-3.41
1029.691	-4.91
1030.115	-6.41
1030.539	-6.21
1030.962	0.09
1031.386	-6.71
1031.81	-0.01
1032.233	-0.81
1032.657	-5.71
1033.08	-2.51
1033.504	-1.31
1033.927	-1.31
1034.351	4.59
1034.774	-4.51
1035.198	-2.11
1035.621	-3.31
1036.045	-5.71
1036.468	2.89
1036.891	-11.71
1037.315	-11.51
1037.738	-9.31
1038.161	-3.31
1038.584	-3.91
1039.008	-8.11
1039.431	-4.11
1039.854	-4.51
1040.277	-15.51
1040.7	-7.61
1041.123	0.09
1041.546	-11.31
1041.969	-3.01
1042.392	-5.51
1042.815	1.49
1043.238	-0.51
1043.661	0.29
1044.084	-9.41
1044.507	3.19
1044.93	-3.81
1045.352	-2.41
1045.775	-0.51
1046.198	2.89
1046.621	-0.31
1047.043	-1.41
1047.466	6.99
1047.889	-3.91
1048.311	-5.31
1048.734	-1.71
1049.156	-2.91
1049.579	-1.61
1050.001	-7.41
1050.424	2.89
1050.846	-1.81
1051.269	-1.61
1051.691	-4.21
1052.113	-4.31
1052.536	-3.01
1052.958	0.49
1053.38	-3.01
1053.802	-10.71
1054.225	-3.21
1054.647	-6.41
1055.069	-2.21
1055.491	6.49
1055.913	-3.71
1056.335	0.89
1056.757	-3.31
1057.179	-8.81
1057.601	-2.91
1058.023	-0.51
1058.445	-5.81
1058.867	-5.91
1059.289	-4.01
1059.711	-5.41
1060.133	-4.31
1060.555	-0.91
1060.976	-8.71
1061.398	-10.61
1061.82	-4.11
1062.241	-3.51
1062.663	-9.01
1063.085	-2.61
1063.506	-1.31
1063.928	-5.81
1064.35	-2.31
1064.771	-9.41
1065.193	-2.31
1065.614	-11.81
1066.035	3.19
1066.457	-3.11
1066.878	1.59
1067.3	-4.61
1067.721	-0.91
1068.142	0.09
1068.564	-5.81
1068.985	-0.41
1069.406	-4.81
1069.827	-2.41
1070.248	1.19
1070.67	-2.91
1071.091	-8.31
1071.512	-6.51
1071.933	-3.61
1072.354	-8.61
1072.775	-7.61
1073.196	-10.21
1073.617	-3.21
1074.038	-7.71
1074.459	-2.81
1074.88	-8.31
1075.3	-3.21
1075.721	-4.71
1076.142	-0.21
1076.563	1.79
1076.983	-12.21
1077.404	-6.41
1077.825	-10.01
1078.246	2.79
1078.666	-9.61
1079.087	-1.41
1079.507	-1.81
1079.928	1.49
1080.348	0.69
1080.769	-4.31
1081.189	-2.61
1081.61	-1.81
1082.03	-6.91
1082.451	-1.71
1082.871	-2.91
1083.291	-4.91
1083.711	-6.51
1084.132	-6.61
1084.552	-3.51
1084.972	-1.71
1085.392	-13.31
1085.813	-8.31
1086.233	-5.81
1086.653	2.79
1087.073	-2.21
1087.493	-8.81
1087.913	-2.41
1088.333	-6.31
1088.753	-4.21
1089.173	0.79
1089.593	5.59
1090.013	-0.71
1090.433	8.49
1090.852	-2.01
1091.272	0.09
1091.692	-2.11
1092.112	-1.01
1092.531	-9.81
1092.951	-8.11
1093.371	-5.41
1093.79	2.49
1094.21	-5.91
1094.63	-8.31
1095.049	-7.31
1095.469	0.69
1095.888	-0.81
1096.308	3.39
1096.727	3.19
1097.146	0.99
1097.566	-2.41
1097.985	-6.61
1098.405	-2.51
1098.824	-6.11
1099.243	-2.91
1099.662	-4.71
1100.082	-2.31
1100.501	-2.61
1100.92	-3.01
1101.339	-3.51
1101.758	-3.31
