Data from 20171114-ORNL-Ar_H_NY_Subt18_08-04-53-382.txt Node
Date: Tue Nov 14 08:04:53 EST 2017
User: Ender
Spectrometer: HR+D1039
Trigger mode: 0
Integration Time (sec): 2.730000E-2
Scans to average: 10
Electric dark correction enabled: true
Nonlinearity correction enabled: false
Boxcar width: 0
XAxis mode: Wavelengths
Number of Pixels in Spectrum: 2048
>>>>>Begin Spectral Data<<<<<
187.836	-9.13
188.309	-9.13
188.782	-9.13
189.255	-2.93
189.728	-0.73
190.201	4.57
190.674	-3.43
191.147	3.27
191.619	-6.73
192.092	3.17
192.565	4.57
193.038	1.37
193.511	-1.53
193.984	0.57
194.456	1.07
194.929	3.67
195.402	1.57
195.874	0.57
196.347	-2.33
196.82	-8.93
197.292	3.87
197.765	-3.13
198.237	-10.43
198.71	-2.33
199.182	-1.03
199.655	-1.23
200.127	0.77
200.6	-4.73
201.072	-1.53
201.544	1.27
202.017	-3.33
202.489	-0.83
202.961	-2.93
203.433	-1.33
203.906	-8.83
204.378	-5.43
204.85	-1.03
205.322	-7.93
205.794	1.07
206.266	-0.63
206.739	-10.03
207.211	3.17
207.683	-11.43
208.155	-7.23
208.627	-5.53
209.099	-1.93
209.57	-12.93
210.042	-0.83
210.514	-4.63
210.986	-4.43
211.458	-9.43
211.93	-5.73
212.402	4.27
212.873	-8.93
213.345	-7.93
213.817	-16.33
214.288	-0.93
214.76	-5.53
215.232	-5.93
215.703	-2.13
216.175	-3.43
216.646	-5.13
217.118	-9.03
217.589	-1.23
218.061	-4.63
218.532	-3.13
219.004	-3.73
219.475	-4.33
219.946	-1.83
220.418	-5.03
220.889	1.27
221.36	0.17
221.832	-2.53
222.303	-9.93
222.774	-0.23
223.245	-11.03
223.717	-4.93
224.188	-7.83
224.659	-5.83
225.13	-5.73
225.601	-3.03
226.072	0.37
226.543	0.27
227.014	0.27
227.485	1.67
227.956	-3.63
228.427	-3.13
228.898	-3.03
229.369	2.97
229.839	-3.93
230.31	-3.63
230.781	1.47
231.252	-0.03
231.722	-1.13
232.193	-4.83
232.664	-2.63
233.135	6.17
233.605	-0.13
234.076	-3.03
234.546	-0.33
235.017	10.67
235.487	-0.13
235.958	2.27
236.428	-0.03
236.899	8.17
237.369	4.27
237.84	6.07
238.31	13.47
238.78	9.27
239.251	0.27
239.721	4.37
240.191	0.27
240.662	-4.23
241.132	3.27
241.602	-3.53
242.072	1.17
242.542	2.37
243.013	2.17
243.483	5.77
243.953	9.47
244.423	2.17
244.893	0.57
245.363	11.77
245.833	5.27
246.303	2.97
246.773	7.57
247.243	6.77
247.712	3.17
248.182	4.17
248.652	7.87
249.122	-0.63
249.592	16.37
250.061	19.47
250.531	37.37
251.001	13.97
251.471	21.07
251.94	18.97
252.41	5.77
252.879	3.47
253.349	18.57
253.818	9.37
254.288	2.87
254.757	-1.73
255.227	1.37
255.696	5.27
256.166	4.77
256.635	3.67
257.105	9.77
257.574	7.87
258.043	13.77
258.513	7.27
258.982	18.57
259.451	11.37
259.92	14.27
260.389	14.07
260.859	13.77
261.328	12.27
261.797	19.07
262.266	14.27
262.735	8.87
263.204	-0.53
263.673	3.87
264.142	5.97
264.611	-0.03
265.08	4.67
265.549	-1.73
266.018	11.57
266.487	-4.03
266.955	-0.93
267.424	0.87
267.893	9.87
268.362	1.57
268.83	5.97
269.299	13.07
269.768	14.87
270.236	7.07
270.705	3.17
271.174	8.67
271.642	6.77
272.111	8.57
272.579	16.47
273.048	25.87
273.516	22.97
273.985	23.67
274.453	24.97
274.922	24.37
275.39	12.17
275.858	-0.33
276.327	8.77
276.795	26.47
277.263	15.37
277.731	29.87
278.2	59.57
278.668	62.27
279.136	50.07
279.604	21.77
280.072	17.27
280.54	13.47
281.008	12.97
281.477	15.77
281.945	15.57
282.413	13.67
282.881	19.87
283.348	6.47
283.816	20.77
284.284	21.27
284.752	23.67
285.22	15.67
285.688	14.87
286.156	23.17
286.623	43.97
287.091	56.37
287.559	25.27
288.026	20.47
288.494	18.67
288.962	4.77
289.429	10.47
289.897	25.27
290.364	18.27
290.832	21.87
291.3	23.67
291.767	16.87
292.234	18.77
292.702	18.07
293.169	16.77
293.637	26.67
294.104	26.57
294.571	13.77
295.039	6.77
295.506	14.47
295.973	20.27
296.44	24.77
296.908	22.07
297.375	18.17
297.842	22.37
298.309	16.57
298.776	10.37
299.243	20.97
299.71	17.67
300.177	24.37
300.644	24.37
301.111	20.97
301.578	24.77
302.045	23.07
302.512	34.47
302.979	26.27
303.446	19.27
303.913	21.87
304.379	16.37
304.846	29.87
305.313	27.47
305.78	19.67
306.246	28.57
306.713	26.37
307.18	25.87
307.646	30.47
308.113	29.27
308.579	25.17
309.046	29.87
309.512	28.97
309.979	20.87
310.445	30.07
310.912	32.57
311.378	37.07
311.845	32.97
312.311	37.67
312.777	34.47
313.244	35.97
313.71	39.47
314.176	33.17
314.642	36.27
315.109	28.07
315.575	40.07
316.041	40.87
316.507	35.97
316.973	42.17
317.439	35.17
317.905	38.97
318.371	38.77
318.837	38.77
319.303	38.77
319.769	34.67
320.235	34.47
320.701	38.77
321.167	39.67
321.633	38.67
322.099	39.77
322.564	47.87
323.03	41.97
323.496	38.57
323.962	42.47
324.427	38.47
324.893	45.27
325.359	40.57
325.824	33.17
326.29	38.87
326.755	42.37
327.221	43.47
327.686	39.97
328.152	48.27
328.617	47.87
329.083	48.77
329.548	56.77
330.014	52.47
330.479	41.37
330.944	50.67
331.41	45.57
331.875	50.57
332.34	47.47
332.805	51.77
333.271	47.67
333.736	46.57
334.201	59.17
334.666	58.47
335.131	53.87
335.596	48.37
336.061	51.97
336.526	38.47
336.991	50.57
337.456	56.37
337.921	55.57
338.386	49.77
338.851	50.17
339.316	53.27
339.781	48.17
340.246	57.07
340.711	49.67
341.175	55.97
341.64	49.07
342.105	62.57
342.569	56.27
343.034	62.17
343.499	60.67
343.963	54.07
344.428	58.57
344.893	68.47
345.357	68.37
345.822	69.17
346.286	72.97
346.751	80.97
347.215	71.57
347.679	81.27
348.144	98.67
348.608	82.97
349.073	67.67
349.537	74.37
350.001	77.87
350.465	91.57
350.93	85.97
351.394	81.17
351.858	74.17
352.322	93.67
352.786	86.77
353.25	103.97
353.715	112.57
354.179	102.77
354.643	120.67
355.107	126.67
355.571	111.97
356.035	102.47
356.498	119.27
356.962	121.77
357.426	129.77
357.89	113.57
358.354	94.47
358.818	85.27
359.281	82.37
359.745	77.77
360.209	76.87
360.673	73.97
361.136	81.47
361.6	91.87
362.064	86.67
362.527	86.27
362.991	88.67
363.454	84.27
363.918	76.47
364.381	82.97
364.845	89.17
365.308	94.07
365.772	95.77
366.235	93.07
366.698	87.97
367.162	86.27
367.625	85.27
368.088	82.07
368.552	88.87
369.015	89.87
369.478	104.47
369.941	97.57
370.404	100.67
370.867	107.17
371.331	102.07
371.794	110.17
372.257	111.67
372.72	122.17
373.183	112.67
373.646	104.97
374.109	103.07
374.572	109.87
375.035	109.37
375.497	114.97
375.96	114.97
376.423	109.07
376.886	119.77
377.349	114.27
377.811	104.47
378.274	107.07
378.737	107.27
379.199	105.67
379.662	110.57
380.125	115.97
380.587	112.77
381.05	119.67
381.512	133.07
381.975	135.17
382.437	124.97
382.9	121.07
383.362	127.07
383.825	145.67
384.287	142.47
384.75	142.37
385.212	140.57
385.674	144.47
386.136	143.37
386.599	124.07
387.061	128.47
387.523	134.17
387.985	143.17
388.447	136.67
388.91	138.27
389.372	153.37
389.834	147.57
390.296	146.37
390.758	157.17
391.22	168.37
391.682	206.47
392.144	284.27
392.606	227.77
393.068	169.07
393.529	173.17
393.991	150.37
394.453	143.47
394.915	154.97
395.377	185.97
395.838	203.57
396.3	154.37
396.762	138.27
397.224	132.67
397.685	128.87
398.147	122.67
398.608	123.57
399.07	132.27
399.531	130.07
399.993	139.27
400.454	153.77
400.916	143.97
401.377	143.47
401.839	146.27
402.3	148.67
402.762	163.77
403.223	184.37
403.684	169.37
404.145	156.37
404.607	162.57
405.068	161.57
405.529	172.57
405.99	191.97
406.451	173.07
406.913	164.47
407.374	157.37
407.835	164.57
408.296	164.37
408.757	173.97
409.218	184.77
409.679	181.67
410.14	167.67
410.601	176.07
411.062	184.57
411.522	186.27
411.983	186.47
412.444	170.37
412.905	176.07
413.366	186.67
413.826	193.37
414.287	215.07
414.748	259.07
415.208	247.77
415.669	215.77
416.13	208.17
416.59	197.97
417.051	214.57
417.511	222.37
417.972	239.97
418.432	250.57
418.893	294.57
419.353	253.57
419.814	196.77
420.274	179.97
420.734	179.47
421.195	191.37
421.655	194.27
422.115	190.47
422.576	191.67
423.036	195.47
423.496	206.27
423.956	212.97
424.416	231.07
424.876	264.17
425.336	266.97
425.797	258.47
426.257	252.87
426.717	239.07
427.177	230.67
427.637	221.07
428.097	233.17
428.556	247.37
429.016	265.87
429.476	256.67
429.936	259.77
430.396	272.77
430.856	287.67
431.315	309.47
431.775	349.27
432.235	368.67
432.694	344.97
433.154	351.97
433.614	387.17
434.073	321.27
434.533	285.97
434.993	261.07
435.452	270.27
435.912	289.97
436.371	281.17
436.83	275.77
437.29	263.47
437.749	249.17
438.209	237.47
438.668	268.87
439.127	284.97
439.587	257.47
440.046	247.47
440.505	254.17
440.964	274.77
441.424	320.27
441.883	299.97
442.342	249.17
442.801	220.57
443.26	221.17
443.719	216.17
444.178	216.47
444.637	204.87
445.096	220.07
445.555	218.67
446.014	216.67
446.473	219.97
446.932	223.67
447.391	216.27
447.849	229.07
448.308	216.87
448.767	216.57
449.226	232.87
449.685	230.37
450.143	247.07
450.602	233.67
451.061	223.77
451.519	225.77
451.978	232.07
452.436	235.57
452.895	229.27
453.353	252.57
453.812	241.27
454.27	240.17
454.729	227.87
455.187	231.87
455.646	240.07
456.104	246.27
456.562	254.67
457.021	263.27
457.479	257.37
457.937	266.67
458.395	263.17
458.854	245.07
459.312	257.47
459.77	263.67
460.228	254.37
460.686	235.67
461.144	241.87
461.602	241.57
462.06	238.57
462.518	249.27
462.976	246.87
463.434	254.57
463.892	261.27
464.35	273.47
464.808	281.47
465.266	255.37
465.724	267.07
466.181	271.57
466.639	273.87
467.097	286.07
467.555	297.57
468.012	297.77
468.47	310.47
468.928	319.67
469.385	341.07
469.843	342.47
470.3	350.27
470.758	359.27
471.215	373.27
471.673	395.77
472.13	394.57
472.588	405.77
473.045	364.17
473.503	373.87
473.96	384.57
474.417	398.27
474.875	429.47
475.332	473.17
475.789	458.67
476.246	456.47
476.704	476.07
477.161	496.67
477.618	504.47
478.075	547.87
478.532	602.87
478.989	669.77
479.446	787.57
479.903	760.77
480.36	797.57
480.817	843.87
481.274	951.37
481.731	1050.38
482.188	1140.97
482.645	1275.78
483.102	1388.18
483.558	1514.67
484.015	1583.57
484.472	1542.78
484.929	1502.78
485.385	1456.47
485.842	1412.17
486.299	1349.87
486.755	1280.47
487.212	1076.88
487.668	909.77
488.125	843.77
488.582	771.27
489.038	741.67
489.494	699.57
489.951	679.37
490.407	669.47
490.864	648.47
491.32	628.67
491.776	629.97
492.233	629.87
492.689	610.07
493.145	595.67
493.602	589.57
494.058	599.87
494.514	599.57
494.97	633.27
495.426	648.57
495.882	614.87
496.338	609.37
496.794	614.57
497.251	611.47
497.707	622.97
498.163	641.07
498.618	631.47
499.074	638.57
499.53	669.87
499.986	661.57
500.442	652.57
500.898	624.67
501.354	615.07
501.809	638.27
502.265	636.77
502.721	644.07
503.177	656.97
503.632	653.67
504.088	660.07
504.543	695.87
504.999	701.17
505.455	656.77
505.91	622.97
506.366	624.17
506.821	618.97
507.277	614.37
507.732	610.57
508.187	625.87
508.643	631.07
509.098	629.27
509.553	644.27
510.009	656.47
510.464	649.07
510.919	682.67
511.375	681.97
511.83	704.27
512.285	712.77
512.74	747.07
513.195	770.97
513.65	760.87
514.105	757.87
514.56	768.07
515.015	794.47
515.47	803.27
515.925	790.97
516.38	785.67
516.835	791.27
517.29	779.67
517.745	766.47
518.2	755.77
518.655	739.07
519.109	734.17
519.564	735.37
520.019	721.47
520.474	710.87
520.928	711.87
521.383	716.57
521.838	702.07
522.292	700.17
522.747	701.37
523.201	693.67
523.656	688.47
524.11	675.47
524.565	683.27
525.019	679.87
525.474	681.57
525.928	691.87
526.382	680.97
526.837	688.17
527.291	684.37
527.745	685.67
528.2	685.67
528.654	684.27
529.108	672.97
529.562	678.97
530.016	677.27
530.47	672.27
530.925	676.17
531.379	686.17
531.833	692.07
532.287	693.17
532.741	688.17
533.195	689.27
533.649	696.87
534.103	706.07
534.556	693.87
535.01	704.77
535.464	695.47
535.918	710.77
536.372	705.57
536.826	707.87
537.279	695.07
537.733	692.27
538.187	692.17
538.64	704.27
539.094	706.97
539.548	714.07
540.001	705.87
540.455	707.57
540.908	713.77
541.362	721.07
541.815	726.97
542.269	741.77
542.722	735.17
543.175	747.87
543.629	753.57
544.082	761.97
544.536	770.17
544.989	767.27
545.442	773.97
545.895	777.17
546.349	763.87
546.802	760.97
547.255	775.07
547.708	788.17
548.161	791.87
548.614	790.07
549.067	796.07
549.52	794.77
549.973	788.57
550.426	781.37
550.879	772.87
551.332	777.77
551.785	788.17
552.238	788.97
552.691	780.57
553.144	805.07
553.596	816.47
554.049	836.77
554.502	867.17
554.955	874.57
555.407	874.37
555.86	870.87
556.313	864.07
556.765	862.27
557.218	867.87
557.67	866.27
558.123	846.87
558.576	838.37
559.028	853.07
559.48	851.27
559.933	847.77
560.385	817.67
560.838	791.77
561.29	755.77
561.742	760.87
562.195	739.07
562.647	744.57
563.099	754.47
563.551	745.17
564.004	745.37
564.456	747.47
564.908	734.57
565.36	715.07
565.812	715.17
566.264	701.57
566.716	704.87
567.168	694.67
567.62	690.27
568.072	677.37
568.524	667.97
568.976	654.07
569.428	650.07
569.88	642.37
570.332	658.37
570.784	651.27
571.235	654.67
571.687	664.67
572.139	671.27
572.59	690.87
573.042	689.57
573.494	686.97
573.945	674.77
574.397	659.87
574.849	665.97
575.3	663.47
575.752	665.77
576.203	662.77
576.655	659.97
577.106	637.07
577.557	642.87
578.009	634.37
578.46	639.57
578.912	628.77
579.363	636.07
579.814	648.57
580.265	635.27
580.717	645.07
581.168	638.67
581.619	652.67
582.07	649.77
582.521	639.87
582.972	637.27
583.423	650.27
583.875	646.47
584.326	661.97
584.777	705.97
585.227	778.17
585.678	869.67
586.129	943.07
586.58	996.58
587.031	1081.77
587.482	1232.58
587.933	1419.17
588.384	1222.38
588.834	909.87
589.285	751.27
589.736	735.07
590.186	737.87
590.637	725.37
591.088	706.77
591.538	708.97
591.989	702.77
592.439	688.37
592.89	677.27
593.34	674.87
593.791	679.07
594.241	669.77
594.692	670.17
595.142	663.77
595.593	659.87
596.043	673.37
596.493	676.67
596.943	673.27
597.394	675.57
597.844	681.07
598.294	692.87
598.744	714.07
599.195	731.57
599.645	756.67
600.095	800.07
600.545	858.57
600.995	905.97
601.445	974.77
601.895	1030.37
602.345	1074.27
602.795	1052.47
603.245	1004.67
603.695	965.17
604.145	903.57
604.594	861.37
605.044	815.07
605.494	756.97
605.944	706.07
606.393	697.07
606.843	683.07
607.293	688.47
607.743	689.47
608.192	694.67
608.642	709.27
609.091	712.57
609.541	726.47
609.99	719.37
610.44	719.17
610.889	669.17
611.339	651.37
611.788	646.07
612.238	659.77
612.687	673.37
613.136	676.17
613.586	691.37
614.035	689.47
614.484	704.87
614.933	697.57
615.383	695.17
615.832	686.57
616.281	672.87
616.73	638.17
617.179	615.37
617.628	610.17
618.077	594.47
618.526	581.37
618.975	579.47
619.424	578.07
619.873	575.47
620.322	572.97
620.771	563.87
621.22	562.57
621.669	550.97
622.118	547.27
622.567	538.37
623.015	529.37
623.464	529.27
623.913	520.67
624.361	515.67
624.81	515.27
625.259	514.97
625.707	516.77
626.156	509.97
626.604	527.47
627.053	518.87
627.501	519.77
627.95	516.47
628.398	538.77
628.847	534.17
629.295	527.77
629.744	535.07
630.192	525.77
630.64	527.37
631.089	522.97
631.537	527.37
631.985	529.07
632.433	549.57
632.881	552.37
633.33	595.47
633.778	578.07
634.226	519.37
634.674	525.67
635.122	521.47
635.57	546.77
636.018	570.47
636.466	538.07
636.914	517.47
637.362	520.97
637.81	522.37
638.258	538.27
638.705	539.27
639.153	570.77
639.601	569.47
640.049	590.17
640.497	623.67
640.944	636.07
641.392	595.47
641.84	568.77
642.287	545.17
642.735	521.17
643.182	529.17
643.63	525.27
644.078	526.07
644.525	543.27
644.973	550.57
645.42	558.07
645.867	578.47
646.315	587.17
646.762	603.57
647.21	635.27
647.657	657.27
648.104	692.47
648.551	701.57
648.999	759.87
649.446	841.17
649.893	917.97
650.34	1052.88
650.787	1252.88
651.234	1561.78
651.682	2027.17
652.129	2778.47
652.576	3975.57
653.023	5843.07
653.47	8049.17
653.917	10198.57
654.363	11869.78
654.81	13291.48
655.257	12633.98
655.704	8228.27
656.151	4845.88
656.598	3134.97
657.044	2241.97
657.491	1732.07
657.938	1366.17
658.385	1148.67
658.831	997.37
659.278	887.37
659.724	778.77
660.171	724.87
660.618	663.37
661.064	629.77
661.511	606.87
661.957	599.07
662.404	572.57
662.85	597.57
663.296	568.27
663.743	512.77
664.189	488.57
664.635	489.47
665.082	480.27
665.528	480.77
665.974	472.77
666.42	467.17
666.867	457.97
667.313	451.17
667.759	441.17
668.205	433.67
668.651	438.37
669.097	441.17
669.543	453.97
669.989	434.17
670.435	404.17
670.881	401.37
671.327	412.47
671.773	428.57
672.219	447.27
672.665	489.97
673.11	526.77
673.556	569.47
674.002	607.87
674.448	594.47
674.893	501.77
675.339	435.87
675.785	399.57
676.23	374.47
676.676	354.27
677.122	344.67
677.567	338.07
678.013	332.77
678.458	322.87
678.904	329.67
679.349	313.77
679.794	325.67
680.24	312.57
680.685	318.67
681.131	316.77
681.576	318.87
682.021	322.77
682.466	317.47
682.912	311.37
683.357	313.67
683.802	353.57
684.247	369.27
684.692	406.37
685.137	444.87
685.583	491.47
686.028	515.87
686.473	472.27
686.918	401.17
687.363	382.87
687.807	353.47
688.252	332.57
688.697	321.47
689.142	311.47
689.587	295.27
690.032	286.87
690.477	308.47
690.921	320.77
691.366	344.87
691.811	365.57
692.255	387.87
692.7	415.87
693.145	449.97
693.589	607.87
694.034	1003.17
694.478	1376.17
694.923	1584.38
695.367	2092.88
695.812	1101.57
696.256	456.87
696.701	334.67
697.145	306.37
697.59	299.77
698.034	292.47
698.478	298.47
698.922	295.67
699.367	291.87
699.811	305.67
700.255	315.67
700.699	343.67
701.143	376.07
701.588	430.87
702.032	465.27
702.476	470.07
702.92	447.17
703.364	441.07
703.808	557.47
704.252	914.47
704.696	1290.17
705.14	1525.57
705.584	1961.57
706.027	970.67
706.471	471.17
706.915	358.87
707.359	310.67
707.803	283.07
708.246	277.67
708.69	280.97
709.134	280.97
709.577	280.97
710.021	285.67
710.465	277.07
710.908	274.37
711.352	263.27
711.795	272.67
712.239	313.67
712.682	338.17
713.126	377.67
713.569	427.27
714.012	330.47
714.456	285.27
714.899	264.17
715.342	249.97
715.786	235.57
716.229	232.67
716.672	227.87
717.115	219.87
717.558	226.07
718.002	226.97
718.445	239.47
718.888	263.47
719.331	265.07
719.774	273.67
720.217	271.67
720.66	253.57
721.103	233.57
721.546	228.57
721.989	222.87
722.432	208.57
722.874	210.87
723.317	200.97
723.76	208.97
724.203	225.67
724.645	285.37
725.088	386.27
725.531	510.17
725.974	579.37
726.416	493.37
726.859	272.97
727.301	222.07
727.744	217.07
728.187	210.17
728.629	213.07
729.071	215.17
729.514	239.17
729.956	244.17
730.399	256.47
730.841	250.47
731.283	241.97
731.726	238.57
732.168	226.37
732.61	240.87
733.053	255.57
733.495	276.77
733.937	307.97
734.379	357.77
734.821	385.07
735.263	478.37
735.705	725.27
736.148	1378.07
736.59	2289.07
737.032	2806.38
737.474	2257.47
737.916	724.17
738.357	379.97
738.799	288.47
739.241	266.17
739.683	246.17
740.125	259.47
740.567	262.07
741.008	280.97
741.45	283.37
741.892	282.17
742.334	313.27
742.775	318.17
743.217	311.47
743.658	242.27
744.1	224.07
744.542	235.17
744.983	280.07
745.425	304.97
745.866	305.07
746.307	253.37
746.749	252.57
747.19	285.67
747.632	401.77
748.073	748.37
748.514	1612.17
748.956	2565.78
749.397	3218.28
749.838	2657.57
750.279	2691.78
750.72	1371.17
751.162	493.07
751.603	280.37
752.044	223.07
752.485	194.37
752.926	180.47
753.367	182.27
753.808	169.87
754.249	168.97
754.69	166.07
755.131	157.37
755.572	158.47
756.013	164.37
756.453	166.97
756.894	167.97
757.335	169.97
757.776	176.97
758.216	175.07
758.657	171.67
759.098	170.97
759.538	200.97
759.979	234.37
760.42	331.37
760.86	607.27
761.301	1575.47
761.741	3864.68
762.182	5930.17
762.622	4161.68
763.063	1179.17
763.503	485.67
763.943	307.37
764.384	296.17
764.824	363.47
765.264	391.57
765.705	271.67
766.145	192.07
766.585	169.17
767.025	156.67
767.465	170.27
767.906	211.67
768.346	283.07
768.786	294.67
769.226	233.27
769.666	287.97
770.106	532.97
770.546	1356.88
770.986	2417.18
771.426	2167.27
771.866	720.97
772.306	291.07
772.745	189.27
773.185	150.37
773.625	156.37
774.065	138.87
774.505	165.37
774.944	256.37
775.384	555.77
775.824	1047.17
776.263	1038.27
776.703	445.17
777.142	192.37
777.582	141.77
778.021	123.67
778.461	121.77
778.9	125.47
779.34	124.77
779.779	101.97
780.219	103.17
780.658	94.57
781.097	97.37
781.537	101.97
781.976	93.67
782.415	92.57
782.855	94.07
783.294	88.47
783.733	99.97
784.172	95.47
784.611	89.27
785.05	97.17
785.489	94.47
785.928	100.27
786.367	107.07
786.806	108.77
787.245	110.47
787.684	125.47
788.123	130.07
788.562	123.57
789.001	112.17
789.44	106.07
789.879	108.77
790.317	107.47
790.756	111.87
791.195	113.57
791.634	126.07
792.072	181.67
792.511	313.37
792.95	866.77
793.388	1919.17
793.827	1789.78
794.265	612.47
794.704	255.97
795.142	163.77
795.581	136.97
796.019	121.67
796.458	113.67
796.896	104.47
797.334	121.37
797.773	128.17
798.211	191.37
798.649	378.87
799.087	886.77
799.526	1424.47
799.964	1797.47
800.402	1866.78
800.84	685.47
801.278	262.87
801.716	160.97
802.154	136.67
802.592	134.17
803.03	126.67
803.468	120.67
803.906	131.07
804.344	144.27
804.782	133.07
805.22	119.47
805.658	110.37
806.096	139.77
806.533	144.17
806.971	157.47
807.409	194.37
807.847	280.37
808.284	564.37
808.722	1616.87
809.16	2990.78
809.597	2751.57
810.035	4847.77
810.472	5380.38
810.91	1911.88
811.347	716.97
811.785	358.87
812.222	227.77
812.66	170.27
813.097	145.87
813.535	123.67
813.972	116.27
814.409	105.97
814.846	95.27
815.284	95.67
815.721	89.17
816.158	97.27
816.595	104.87
817.032	161.67
817.47	182.57
817.907	141.57
818.344	130.97
818.781	107.17
819.218	89.57
819.655	115.37
820.092	163.17
820.529	195.77
820.966	162.37
821.403	120.37
821.839	94.27
822.276	89.97
822.713	111.77
823.15	117.87
823.587	103.47
824.023	128.97
824.46	258.77
824.897	783.17
825.333	1248.28
825.77	529.37
826.206	208.87
826.643	120.87
827.08	88.47
827.516	72.57
827.953	71.37
828.389	78.77
828.825	59.87
829.262	64.07
829.698	57.07
830.135	57.17
830.571	51.87
831.007	52.27
831.443	56.37
831.88	50.77
832.316	59.17
832.752	65.07
833.188	58.47
833.624	59.97
834.06	57.07
834.497	60.37
834.933	59.97
835.369	64.17
835.805	60.97
836.241	65.77
836.677	69.57
837.112	77.57
837.548	90.07
837.984	120.27
838.42	173.07
838.856	422.17
839.292	1335.17
839.727	2126.77
840.163	981.77
840.599	808.27
841.034	1819.78
841.47	1968.38
841.906	709.27
842.341	296.87
842.777	199.87
843.212	273.57
843.648	282.37
844.083	133.27
844.519	85.07
844.954	65.37
845.39	47.47
845.825	50.87
846.261	48.17
846.696	50.37
847.131	51.27
847.566	48.57
848.002	49.27
848.437	47.17
848.872	51.47
849.307	56.57
849.742	71.17
850.177	153.47
850.613	488.47
851.048	796.57
851.483	340.67
851.918	137.57
852.353	81.67
852.788	49.97
853.223	50.87
853.657	49.07
854.092	41.17
854.527	35.77
854.962	39.77
855.397	38.27
855.832	42.27
856.266	35.57
856.701	34.67
857.136	30.27
857.57	31.97
858.005	46.77
858.44	50.77
858.874	42.27
859.309	44.27
859.743	35.87
860.178	43.07
860.612	41.07
861.047	43.67
861.481	55.87
861.915	65.87
862.35	47.27
862.784	29.27
863.218	28.67
863.653	31.37
864.087	40.17
864.521	47.97
864.955	62.17
865.39	138.47
865.824	156.37
866.258	105.47
866.692	143.97
867.126	163.97
867.56	99.47
867.994	52.97
868.428	38.97
868.862	37.87
869.296	54.17
869.73	50.67
870.164	46.67
870.598	41.77
871.031	30.77
871.465	32.37
871.899	25.17
872.333	24.47
872.766	23.57
873.2	21.67
873.634	25.47
874.067	24.37
874.501	21.37
874.935	32.07
875.368	26.97
875.802	20.07
876.235	28.27
876.669	24.07
877.102	17.37
877.535	21.77
877.969	23.27
878.402	25.27
878.836	14.77
879.269	19.47
879.702	24.27
880.135	18.67
880.569	21.87
881.002	26.97
881.435	19.47
881.868	11.77
882.301	25.47
882.734	13.07
883.167	21.37
883.601	16.87
884.034	23.07
884.467	11.47
884.899	15.47
885.332	13.27
885.765	11.27
886.198	15.17
886.631	13.97
887.064	13.37
887.497	16.57
887.929	22.47
888.362	8.57
888.795	8.17
889.228	13.17
889.66	21.57
890.093	16.17
890.526	14.87
890.958	16.97
891.391	17.17
891.823	17.57
892.256	12.37
892.688	10.27
893.121	7.27
893.553	11.77
893.985	24.97
894.418	17.27
894.85	8.47
895.282	14.07
895.715	14.07
896.147	19.67
896.579	20.47
897.011	13.57
897.444	17.27
897.876	13.87
898.308	10.17
898.74	13.77
899.172	9.27
899.604	20.27
900.036	10.87
900.468	7.27
900.9	14.27
901.332	17.07
901.764	12.97
902.196	15.77
902.628	14.87
903.06	14.17
903.491	23.37
903.923	20.07
904.355	16.27
904.787	24.67
905.218	25.87
905.65	24.17
906.082	9.87
906.513	12.07
906.945	10.27
907.376	5.87
907.808	18.07
908.239	16.77
908.671	13.97
909.102	23.37
909.534	22.37
909.965	44.17
910.397	76.57
910.828	277.67
911.259	430.67
911.691	192.57
912.122	97.57
912.553	52.77
912.984	30.07
913.415	25.37
913.847	20.17
914.278	13.87
914.709	11.07
915.14	15.17
915.571	16.67
916.002	15.27
916.433	16.27
916.864	18.47
917.295	11.87
917.726	19.47
918.157	13.67
918.587	27.67
919.018	21.47
919.449	15.17
919.88	19.77
920.311	28.97
920.741	47.27
921.172	159.57
921.603	139.87
922.033	67.07
922.464	38.77
922.895	16.07
923.325	18.97
923.756	11.17
924.186	13.07
924.617	26.37
925.047	41.37
925.478	42.17
925.908	36.27
926.338	22.07
926.769	14.97
927.199	16.17
927.629	4.07
928.06	11.67
928.49	17.57
928.92	10.07
929.35	11.97
929.78	7.27
930.21	5.47
930.641	6.17
931.071	4.97
931.501	-1.33
931.931	4.97
932.361	3.57
932.791	2.47
933.221	-1.03
933.651	7.07
934.08	14.67
934.51	27.27
934.94	3.17
935.37	9.77
935.8	7.87
936.229	11.27
936.659	9.37
937.089	5.27
937.519	12.07
937.948	21.37
938.378	18.17
938.807	4.57
939.237	5.57
939.666	9.57
940.096	-9.13
940.525	3.37
940.955	-1.43
941.384	4.47
941.814	-8.13
942.243	-2.23
942.672	4.97
943.102	-0.43
943.531	1.57
943.96	0.07
944.39	4.77
944.819	5.77
945.248	6.67
945.677	-0.83
946.106	8.17
946.535	8.57
946.964	-3.23
947.393	2.57
947.822	-0.93
948.251	-2.53
948.68	1.17
949.109	0.17
949.538	1.57
949.967	1.17
950.396	-2.43
950.825	2.77
951.254	-1.43
951.682	-4.43
952.111	5.67
952.54	9.47
952.969	-5.53
953.397	-7.83
953.826	2.57
954.254	-3.03
954.683	1.47
955.112	-0.63
955.54	5.27
955.969	3.37
956.397	-0.43
956.826	-8.33
957.254	0.27
957.682	2.97
958.111	4.37
958.539	6.07
958.967	1.27
959.396	1.47
959.824	4.07
960.252	7.67
960.68	-4.23
961.109	-2.33
961.537	-1.93
961.965	-1.23
962.393	1.77
962.821	-4.23
963.249	-6.23
963.677	1.57
964.105	-2.43
964.533	38.47
964.961	36.97
965.389	11.17
965.817	6.67
966.245	-0.03
966.672	-1.23
967.1	-6.23
967.528	-3.33
967.956	-5.03
968.383	5.67
968.811	-2.73
969.239	-2.13
969.666	-5.23
970.094	-3.83
970.522	0.17
970.949	1.97
971.377	-3.73
971.804	-3.63
972.232	-4.63
972.659	-2.13
973.087	-4.03
973.514	-11.63
973.941	-4.93
974.369	-0.03
974.796	0.27
975.223	-4.33
975.651	-5.33
976.078	3.57
976.505	-4.33
976.932	7.67
977.359	12.97
977.786	9.67
978.214	1.87
978.641	-6.63
979.068	-9.63
979.495	-0.13
979.922	-2.83
980.349	-3.53
980.776	0.97
981.202	-0.53
981.629	0.57
982.056	6.67
982.483	-3.13
982.91	-3.23
983.337	-2.93
983.763	-0.53
984.19	-5.13
984.617	-2.63
985.043	-3.13
985.47	-1.53
985.897	-7.93
986.323	-4.93
986.75	4.77
987.176	-3.83
987.603	-1.63
988.029	-3.43
988.456	-4.93
988.882	-1.43
989.308	-3.63
989.735	-1.43
990.161	3.77
990.587	-6.63
991.014	2.17
991.44	0.77
991.866	-6.73
992.292	-7.73
992.719	-3.03
993.145	0.87
993.571	-6.43
993.997	-0.93
994.423	-3.93
994.849	1.67
995.275	-0.03
995.701	2.57
996.127	-1.33
996.553	0.57
996.979	-4.43
997.405	-1.13
997.83	-5.13
998.256	-4.53
998.682	-3.03
999.108	-9.83
999.534	-0.33
999.959	-1.63
1000.385	1.57
1000.811	7.17
1001.236	-12.53
1001.662	-6.73
1002.087	-11.43
1002.513	0.37
1002.938	0.47
1003.364	-3.63
1003.789	3.57
1004.215	4.27
1004.64	3.47
1005.066	1.57
1005.491	-1.73
1005.916	-5.53
1006.342	2.17
1006.767	-5.33
1007.192	-0.63
1007.617	-4.33
1008.042	-4.83
1008.468	-11.83
1008.893	-4.53
1009.318	0.57
1009.743	3.47
1010.168	4.67
1010.593	3.67
1011.018	-6.83
1011.443	-3.03
1011.868	1.27
1012.293	2.97
1012.718	-7.03
1013.143	3.97
1013.567	1.07
1013.992	-0.83
1014.417	-8.63
1014.842	4.67
1015.267	-7.73
1015.691	-1.63
1016.116	3.27
1016.541	-0.73
1016.965	4.77
1017.39	-0.73
1017.814	-0.03
1018.239	-3.83
1018.663	-6.53
1019.088	-11.63
1019.512	-3.43
1019.937	-1.53
1020.361	-8.13
1020.785	-11.03
1021.21	-6.53
1021.634	-1.43
1022.058	1.27
1022.483	1.47
1022.907	-6.13
1023.331	2.27
1023.755	-3.93
1024.179	-3.53
1024.604	-9.23
1025.028	-3.23
1025.452	-3.13
1025.876	-4.13
1026.3	-0.53
1026.724	-14.23
1027.148	-9.63
1027.572	-12.63
1027.996	-6.93
1028.42	0.17
1028.843	-4.83
1029.267	-3.93
1029.691	-0.13
1030.115	-4.03
1030.539	-8.13
1030.962	-9.43
1031.386	-9.43
1031.81	6.37
1032.233	-1.53
1032.657	-2.03
1033.08	-8.63
1033.504	-1.33
1033.927	0.57
1034.351	2.57
1034.774	-9.13
1035.198	3.67
1035.621	-2.93
1036.045	-4.43
1036.468	2.67
1036.891	-8.13
1037.315	-14.03
1037.738	-8.23
1038.161	1.37
1038.584	-6.93
1039.008	-6.43
1039.431	-4.13
1039.854	-2.53
1040.277	-7.73
1040.7	-13.13
1041.123	2.67
1041.546	-6.43
1041.969	-4.33
1042.392	0.07
1042.815	-2.23
1043.238	1.77
1043.661	-1.63
1044.084	-8.73
1044.507	-6.23
1044.93	-6.33
1045.352	-4.03
1045.775	-2.63
1046.198	-2.73
1046.621	-5.93
1047.043	-2.03
1047.466	1.37
1047.889	-3.13
1048.311	-3.53
1048.734	2.17
1049.156	0.07
1049.579	-2.23
1050.001	-2.53
1050.424	-3.03
1050.846	-6.13
1051.269	-1.33
1051.691	-7.03
1052.113	-8.83
1052.536	-0.33
1052.958	-2.33
1053.38	-0.73
1053.802	-8.93
1054.225	-0.63
1054.647	-6.03
1055.069	-6.53
1055.491	-1.73
1055.913	-8.33
1056.335	-1.43
1056.757	-4.83
1057.179	-9.03
1057.601	-4.63
1058.023	0.07
1058.445	-1.73
1058.867	-4.03
1059.289	-9.33
1059.711	-9.03
1060.133	-1.23
1060.555	-1.83
1060.976	-10.73
1061.398	-8.13
1061.82	-6.93
1062.241	-5.73
1062.663	-6.53
1063.085	-4.03
1063.506	-5.03
1063.928	-6.03
1064.35	-1.63
1064.771	-8.33
1065.193	-8.03
1065.614	-8.53
1066.035	-6.43
1066.457	-11.13
1066.878	0.97
1067.3	-3.83
1067.721	-1.73
1068.142	-1.73
1068.564	-3.93
1068.985	-3.63
1069.406	-6.43
1069.827	-8.63
1070.248	2.47
1070.67	-8.43
1071.091	-0.53
1071.512	-7.43
1071.933	-6.53
1072.354	-7.63
1072.775	-4.93
1073.196	-8.13
1073.617	0.77
1074.038	-12.23
1074.459	-0.13
1074.88	-4.03
1075.3	2.77
1075.721	-8.33
1076.142	0.67
1076.563	-1.43
1076.983	-10.13
1077.404	-8.43
1077.825	-6.03
1078.246	-8.73
1078.666	-4.43
1079.087	-0.03
1079.507	-5.83
1079.928	-3.93
1080.348	-1.43
1080.769	-4.93
1081.189	-5.93
1081.61	-7.93
1082.03	-9.53
1082.451	-7.43
1082.871	-3.83
1083.291	-6.63
1083.711	-5.93
1084.132	-2.03
1084.552	-7.43
1084.972	-0.03
1085.392	-12.13
1085.813	-14.33
1086.233	-11.83
1086.653	-9.53
1087.073	-4.23
1087.493	-9.13
1087.913	-8.33
1088.333	-3.83
1088.753	-2.53
1089.173	5.87
1089.593	-2.13
1090.013	1.87
1090.433	5.67
1090.852	-7.43
1091.272	0.57
1091.692	-1.33
1092.112	-4.93
1092.531	-7.53
1092.951	-12.93
1093.371	-2.83
1093.79	-2.73
1094.21	-2.23
1094.63	-6.93
1095.049	-3.03
1095.469	-0.63
1095.888	-2.53
1096.308	5.37
1096.727	1.77
1097.146	-6.73
1097.566	1.07
1097.985	-3.33
1098.405	-2.13
1098.824	-7.53
1099.243	-4.13
1099.662	-6.33
1100.082	-10.73
1100.501	-5.93
1100.92	-2.83
1101.339	-6.43
1101.758	-3.53
