Data from 20171114-ORNL-Ar_H_NY_Subt18_08-03-49-505.txt Node
Date: Tue Nov 14 08:03:49 EST 2017
User: Ender
Spectrometer: HR+D1039
Trigger mode: 0
Integration Time (sec): 2.730000E-2
Scans to average: 10
Electric dark correction enabled: true
Nonlinearity correction enabled: false
Boxcar width: 0
XAxis mode: Wavelengths
Number of Pixels in Spectrum: 2048
>>>>>Begin Spectral Data<<<<<
187.836	-2.67
188.309	-2.67
188.782	-2.67
189.255	2.53
189.728	-1.97
190.201	8.53
190.674	-1.17
191.147	0.73
191.619	-3.77
192.092	4.13
192.565	6.23
193.038	-0.37
193.511	-3.57
193.984	-0.17
194.456	-1.47
194.929	-4.77
195.402	-3.17
195.874	0.93
196.347	1.03
196.82	-5.17
197.292	3.63
197.765	-2.17
198.237	-5.87
198.71	0.73
199.182	-0.97
199.655	-0.37
200.127	2.83
200.6	-0.87
201.072	1.93
201.544	-3.07
202.017	-5.97
202.489	8.43
202.961	-1.57
203.433	-3.07
203.906	-0.57
204.378	-8.67
204.85	1.63
205.322	-12.47
205.794	-1.77
206.266	-7.07
206.739	-6.47
207.211	2.43
207.683	-2.97
208.155	-6.97
208.627	0.13
209.099	6.03
209.57	-10.87
210.042	-2.67
210.514	-3.37
210.986	-1.37
211.458	-5.07
211.93	-2.27
212.402	1.53
212.873	-4.77
213.345	-4.57
213.817	-9.27
214.288	-6.07
214.76	-10.97
215.232	-4.27
215.703	-0.47
216.175	1.13
216.646	-5.67
217.118	-2.47
217.589	-4.17
218.061	1.43
218.532	-2.97
219.004	-3.27
219.475	-4.57
219.946	0.63
220.418	-7.97
220.889	5.33
221.36	-0.77
221.832	-4.87
222.303	-5.97
222.774	4.63
223.245	-4.97
223.717	-7.37
224.188	-5.07
224.659	-5.27
225.13	-9.27
225.601	-0.77
226.072	0.43
226.543	-0.37
227.014	-0.07
227.485	-3.67
227.956	-1.27
228.427	-2.57
228.898	1.53
229.369	5.03
229.839	-6.07
230.31	-6.87
230.781	0.83
231.252	-0.97
231.722	-6.17
232.193	-2.47
232.664	-2.67
233.135	-4.17
233.605	-3.57
234.076	-4.57
234.546	-0.27
235.017	2.13
235.487	1.13
235.958	-2.67
236.428	-6.07
236.899	-1.37
237.369	-8.07
237.84	-0.47
238.31	4.63
238.78	-0.07
239.251	-6.87
239.721	-3.07
240.191	-5.47
240.662	0.93
241.132	1.13
241.602	-5.67
242.072	-0.27
242.542	0.93
243.013	-2.57
243.483	2.63
243.953	3.83
244.423	-2.77
244.893	-5.67
245.363	2.23
245.833	3.13
246.303	-4.67
246.773	5.23
247.243	1.63
247.712	-1.87
248.182	5.93
248.652	2.73
249.122	-5.47
249.592	-0.37
250.061	-2.87
250.531	15.13
251.001	-0.27
251.471	4.43
251.94	12.43
252.41	3.03
252.879	-5.27
253.349	9.33
253.818	6.53
254.288	1.63
254.757	-0.17
255.227	-0.67
255.696	2.93
256.166	-0.67
256.635	3.33
257.105	-0.67
257.574	-2.77
258.043	3.63
258.513	-4.17
258.982	2.13
259.451	-3.47
259.92	-2.37
260.389	-4.57
260.859	8.33
261.328	4.73
261.797	3.53
262.266	-3.87
262.735	7.43
263.204	2.63
263.673	-4.17
264.142	9.83
264.611	-3.47
265.08	0.63
265.549	-3.97
266.018	-6.87
266.487	-7.07
266.955	-6.67
267.424	-1.57
267.893	0.53
268.362	3.43
268.83	1.33
269.299	8.53
269.768	-2.17
270.236	0.53
270.705	9.03
271.174	0.53
271.642	-0.57
272.111	-4.77
272.579	-3.17
273.048	2.93
273.516	-2.17
273.985	3.63
274.453	10.53
274.922	12.23
275.39	6.33
275.858	-0.07
276.327	7.13
276.795	14.43
277.263	4.93
277.731	7.23
278.2	4.43
278.668	7.03
279.136	9.43
279.604	0.43
280.072	4.13
280.54	6.53
281.008	5.43
281.477	11.13
281.945	8.63
282.413	4.13
282.881	6.53
283.348	3.63
283.816	6.23
284.284	13.43
284.752	13.63
285.22	5.03
285.688	11.23
286.156	11.83
286.623	15.13
287.091	8.03
287.559	7.53
288.026	6.33
288.494	8.33
288.962	1.23
289.429	1.43
289.897	16.13
290.364	12.83
290.832	15.43
291.3	10.53
291.767	15.63
292.234	11.93
292.702	4.83
293.169	4.73
293.637	12.33
294.104	12.33
294.571	3.03
295.039	7.53
295.506	10.93
295.973	13.33
296.44	11.53
296.908	8.33
297.375	8.13
297.842	15.33
298.309	14.53
298.776	5.03
299.243	16.83
299.71	13.43
300.177	16.23
300.644	15.73
301.111	14.43
301.578	19.93
302.045	6.93
302.512	13.03
302.979	19.03
303.446	15.93
303.913	16.13
304.379	12.73
304.846	24.43
305.313	19.13
305.78	18.23
306.246	18.23
306.713	15.63
307.18	16.33
307.646	16.93
308.113	15.83
308.579	20.43
309.046	18.03
309.512	16.63
309.979	13.83
310.445	18.83
310.912	23.93
311.378	24.43
311.845	21.23
312.311	26.23
312.777	21.43
313.244	20.83
313.71	30.43
314.176	25.33
314.642	24.73
315.109	28.33
315.575	22.23
316.041	34.13
316.507	25.93
316.973	26.93
317.439	25.53
317.905	27.93
318.371	28.73
318.837	25.43
319.303	29.43
319.769	30.83
320.235	27.63
320.701	26.53
321.167	25.43
321.633	29.33
322.099	32.33
322.564	37.73
323.03	29.33
323.496	25.73
323.962	31.13
324.427	28.33
324.893	37.13
325.359	28.93
325.824	28.93
326.29	27.03
326.755	32.53
327.221	36.43
327.686	32.03
328.152	39.13
328.617	37.43
329.083	41.73
329.548	42.33
330.014	43.33
330.479	33.13
330.944	34.43
331.41	35.03
331.875	38.83
332.34	36.93
332.805	41.43
333.271	37.63
333.736	37.03
334.201	41.73
334.666	41.63
335.131	39.83
335.596	46.63
336.061	42.53
336.526	31.53
336.991	40.23
337.456	49.93
337.921	46.23
338.386	40.23
338.851	38.73
339.316	40.83
339.781	43.03
340.246	46.83
340.711	42.53
341.175	42.23
341.64	34.93
342.105	49.33
342.569	49.03
343.034	49.43
343.499	48.83
343.963	44.33
344.428	59.63
344.893	50.63
345.357	54.73
345.822	55.33
346.286	58.43
346.751	60.33
347.215	62.03
347.679	64.83
348.144	79.53
348.608	80.23
349.073	67.33
349.537	61.73
350.001	65.03
350.465	81.83
350.93	74.63
351.394	75.23
351.858	69.93
352.322	80.03
352.786	69.23
353.25	85.03
353.715	97.83
354.179	92.43
354.643	102.13
355.107	101.13
355.571	92.03
356.035	88.13
356.498	95.33
356.962	99.13
357.426	108.23
357.89	100.53
358.354	80.73
358.818	75.63
359.281	78.93
359.745	73.43
360.209	70.53
360.673	69.43
361.136	79.73
361.6	81.33
362.064	78.53
362.527	86.53
362.991	88.43
363.454	74.53
363.918	77.23
364.381	76.43
364.845	83.03
365.308	85.93
365.772	83.83
366.235	87.13
366.698	85.33
367.162	83.93
367.625	81.73
368.088	82.43
368.552	89.73
369.015	80.93
369.478	90.63
369.941	96.83
370.404	91.43
370.867	98.73
371.331	103.43
371.794	106.23
372.257	99.83
372.72	108.43
373.183	104.83
373.646	99.33
374.109	95.53
374.572	98.63
375.035	99.83
375.497	103.43
375.96	100.93
376.423	99.13
376.886	112.93
377.349	108.63
377.811	102.83
378.274	101.53
378.737	103.13
379.199	106.03
379.662	114.73
380.125	116.63
380.587	108.73
381.05	110.23
381.512	115.43
381.975	118.93
382.437	125.73
382.9	119.83
383.362	120.83
383.825	134.53
384.287	127.63
384.75	124.23
385.212	117.93
385.674	133.43
386.136	129.13
386.599	125.33
387.061	126.13
387.523	125.23
387.985	128.13
388.447	133.63
388.91	132.33
389.372	124.93
389.834	127.03
390.296	126.73
390.758	132.13
391.22	135.43
391.682	147.53
392.144	149.03
392.606	147.73
393.068	139.03
393.529	158.73
393.991	152.03
394.453	137.43
394.915	142.43
395.377	136.23
395.838	136.93
396.3	138.63
396.762	138.43
397.224	140.53
397.685	135.23
398.147	136.13
398.608	141.03
399.07	144.03
399.531	147.13
399.993	148.93
400.454	167.03
400.916	148.43
401.377	150.03
401.839	160.93
402.3	162.43
402.762	174.63
403.223	184.93
403.684	184.83
404.145	167.43
404.607	168.63
405.068	171.03
405.529	166.43
405.99	180.83
406.451	176.13
406.913	179.13
407.374	173.53
407.835	171.03
408.296	168.43
408.757	172.43
409.218	186.53
409.679	178.63
410.14	187.03
410.601	185.23
411.062	184.63
411.522	187.63
411.983	188.23
412.444	185.83
412.905	192.53
413.366	193.83
413.826	202.53
414.287	229.53
414.748	287.13
415.208	273.83
415.669	223.53
416.13	213.73
416.59	214.83
417.051	227.43
417.511	236.23
417.972	267.23
418.432	264.83
418.893	318.13
419.353	270.63
419.814	217.53
420.274	199.63
420.734	198.63
421.195	203.33
421.655	204.83
422.115	208.63
422.576	207.03
423.036	209.03
423.496	221.53
423.956	234.33
424.416	238.23
424.876	284.33
425.336	268.73
425.797	275.73
426.257	271.63
426.717	247.03
427.177	237.63
427.637	234.43
428.097	246.73
428.556	250.83
429.016	287.03
429.476	272.13
429.936	279.23
430.396	277.63
430.856	299.03
431.315	316.23
431.775	344.03
432.235	376.63
432.694	356.13
433.154	355.13
433.614	379.23
434.073	332.23
434.533	281.13
434.993	278.83
435.452	285.03
435.912	291.83
436.371	273.53
436.83	272.23
437.29	268.23
437.749	249.13
438.209	252.73
438.668	265.53
439.127	275.13
439.587	264.33
440.046	239.83
440.505	254.43
440.964	269.13
441.424	297.83
441.883	296.83
442.342	262.43
442.801	239.53
443.26	233.73
443.719	240.83
444.178	237.53
444.637	222.83
445.096	230.63
445.555	232.53
446.014	240.93
446.473	232.83
446.932	244.93
447.391	238.23
447.849	241.03
448.308	233.03
448.767	236.03
449.226	244.83
449.685	250.63
450.143	261.83
450.602	248.73
451.061	232.73
451.519	245.63
451.978	245.53
452.436	232.13
452.895	247.83
453.353	256.43
453.812	249.33
454.27	250.23
454.729	246.93
455.187	250.53
455.646	241.73
456.104	251.73
456.562	262.93
457.021	269.53
457.479	261.03
457.937	265.23
458.395	270.43
458.854	258.93
459.312	263.93
459.77	269.33
460.228	257.43
460.686	253.53
461.144	265.33
461.602	257.33
462.06	255.03
462.518	266.33
462.976	267.63
463.434	264.83
463.892	265.03
464.35	275.43
464.808	294.23
465.266	273.43
465.724	276.73
466.181	289.03
466.639	284.73
467.097	294.83
467.555	305.43
468.012	312.83
468.47	320.43
468.928	329.93
469.385	341.93
469.843	345.63
470.3	344.33
470.758	359.03
471.215	370.03
471.673	392.23
472.13	391.93
472.588	407.83
473.045	377.83
473.503	375.33
473.96	400.33
474.417	408.93
474.875	431.43
475.332	453.53
475.789	457.73
476.246	461.63
476.704	479.53
477.161	493.33
477.618	514.63
478.075	540.23
478.532	580.23
478.989	645.43
479.446	726.93
479.903	706.03
480.36	751.13
480.817	796.23
481.274	882.13
481.731	968.73
482.188	1051.23
482.645	1160.23
483.102	1242.23
483.558	1349.93
484.015	1411.63
484.472	1399.23
484.929	1351.53
485.385	1304.53
485.842	1278.83
486.299	1232.03
486.755	1175.93
487.212	1006.33
487.668	868.53
488.125	808.13
488.582	759.23
489.038	718.03
489.494	680.43
489.951	663.33
490.407	650.43
490.864	625.63
491.32	623.53
491.776	613.23
492.233	625.23
492.689	593.23
493.145	576.93
493.602	573.63
494.058	593.13
494.514	592.83
494.97	606.93
495.426	603.23
495.882	595.43
496.338	571.73
496.794	585.23
497.251	577.83
497.707	589.93
498.163	596.93
498.618	597.03
499.074	596.83
499.53	616.83
499.986	620.83
500.442	611.93
500.898	585.03
501.354	587.03
501.809	592.23
502.265	586.23
502.721	597.33
503.177	608.73
503.632	604.93
504.088	606.63
504.543	625.73
504.999	646.73
505.455	613.23
505.91	608.93
506.366	607.43
506.821	615.73
507.277	603.83
507.732	608.83
508.187	598.73
508.643	611.03
509.098	614.33
509.553	626.13
510.009	639.13
510.464	633.33
510.919	656.83
511.375	660.23
511.83	664.93
512.285	678.63
512.74	700.73
513.195	710.43
513.65	706.63
514.105	709.23
514.56	709.83
515.015	723.13
515.47	742.03
515.925	729.53
516.38	732.83
516.835	736.43
517.29	727.33
517.745	719.63
518.2	709.33
518.655	693.43
519.109	680.43
519.564	685.13
520.019	679.13
520.474	669.13
520.928	675.43
521.383	665.43
521.838	658.33
522.292	662.33
522.747	655.33
523.201	659.63
523.656	651.33
524.11	653.43
524.565	647.43
525.019	637.53
525.474	640.73
525.928	636.33
526.382	636.63
526.837	647.43
527.291	642.93
527.745	637.23
528.2	636.13
528.654	624.63
529.108	637.13
529.562	632.93
530.016	630.53
530.47	620.63
530.925	624.23
531.379	627.93
531.833	638.53
532.287	627.93
532.741	630.53
533.195	634.23
533.649	636.93
534.103	638.93
534.556	627.13
535.01	626.73
535.464	628.13
535.918	645.53
536.372	638.13
536.826	641.33
537.279	627.33
537.733	627.63
538.187	625.83
538.64	634.23
539.094	639.03
539.548	653.63
540.001	652.33
540.455	637.03
540.908	645.63
541.362	658.53
541.815	660.23
542.269	671.03
542.722	680.73
543.175	686.23
543.629	687.53
544.082	686.73
544.536	705.53
544.989	695.93
545.442	704.83
545.895	698.63
546.349	703.13
546.802	706.23
547.255	701.73
547.708	712.13
548.161	718.23
548.614	721.53
549.067	728.33
549.52	720.83
549.973	711.03
550.426	702.03
550.879	693.63
551.332	700.43
551.785	708.63
552.238	703.53
552.691	713.43
553.144	721.83
553.596	736.33
554.049	744.23
554.502	761.63
554.955	785.03
555.407	785.03
555.86	770.83
556.313	755.83
556.765	753.63
557.218	755.33
557.67	752.73
558.123	747.03
558.576	740.83
559.028	747.13
559.48	757.43
559.933	747.43
560.385	721.83
560.838	696.03
561.29	684.83
561.742	671.63
562.195	663.93
562.647	656.03
563.099	672.93
563.551	656.63
564.004	667.43
564.456	659.73
564.908	642.93
565.36	629.73
565.812	612.73
566.264	607.03
566.716	612.33
567.168	593.43
567.62	603.43
568.072	584.43
568.524	592.23
568.976	589.43
569.428	567.73
569.88	564.33
570.332	580.03
570.784	573.73
571.235	574.23
571.687	587.83
572.139	588.13
572.59	596.73
573.042	593.03
573.494	586.83
573.945	592.93
574.397	563.53
574.849	567.83
575.3	577.63
575.752	560.73
576.203	556.73
576.655	564.03
577.106	548.53
577.557	548.73
578.009	560.03
578.46	546.03
578.912	537.53
579.363	541.83
579.814	550.13
580.265	541.93
580.717	545.43
581.168	543.43
581.619	556.23
582.07	555.33
582.521	546.43
582.972	543.63
583.423	544.93
583.875	551.23
584.326	555.83
584.777	563.13
585.227	588.53
585.678	605.93
586.129	618.03
586.58	645.13
587.031	664.93
587.482	691.03
587.933	724.23
588.384	695.33
588.834	647.53
589.285	633.43
589.736	621.53
590.186	621.93
590.637	617.33
591.088	605.63
591.538	594.73
591.989	588.53
592.439	589.53
592.89	572.93
593.34	562.03
593.791	562.63
594.241	555.63
594.692	550.23
595.142	544.73
595.593	550.53
596.043	560.23
596.493	561.73
596.943	554.73
597.394	572.53
597.844	565.53
598.294	580.33
598.744	598.83
599.195	625.33
599.645	647.03
600.095	676.53
600.545	719.53
600.995	757.03
601.445	808.33
601.895	847.33
602.345	888.33
602.795	875.83
603.245	844.93
603.695	798.63
604.145	756.23
604.594	713.63
605.044	685.83
605.494	626.73
605.944	595.23
606.393	590.33
606.843	570.33
607.293	562.03
607.743	558.33
608.192	560.33
608.642	583.63
609.091	583.23
609.541	589.13
609.99	583.93
610.44	577.83
610.889	558.53
611.339	539.23
611.788	525.33
612.238	531.83
612.687	549.23
613.136	542.03
613.586	537.73
614.035	541.53
614.484	554.23
614.933	547.23
615.383	546.53
615.832	531.93
616.281	530.03
616.73	522.03
617.179	508.33
617.628	493.23
618.077	479.63
618.526	474.73
618.975	472.13
619.424	470.73
619.873	466.73
620.322	476.03
620.771	467.33
621.22	460.63
621.669	453.33
622.118	444.93
622.567	438.03
623.015	428.13
623.464	437.93
623.913	430.53
624.361	420.63
624.81	412.43
625.259	426.83
625.707	424.63
626.156	419.63
626.604	431.93
627.053	424.53
627.501	429.63
627.95	423.83
628.398	438.53
628.847	433.83
629.295	430.23
629.744	430.93
630.192	424.63
630.64	431.33
631.089	411.93
631.537	404.13
631.985	398.13
632.433	405.43
632.881	395.83
633.33	400.23
633.778	393.43
634.226	391.23
634.674	402.43
635.122	407.73
635.57	415.83
636.018	423.03
636.466	423.33
636.914	418.63
637.362	429.53
637.81	430.13
638.258	439.73
638.705	435.23
639.153	458.73
639.601	463.83
640.049	480.43
640.497	501.73
640.944	521.23
641.392	481.23
641.84	459.73
642.287	432.63
642.735	416.13
643.182	429.63
643.63	409.13
644.078	416.23
644.525	423.93
644.973	433.93
645.42	438.03
645.867	453.03
646.315	462.83
646.762	484.13
647.21	499.43
647.657	516.33
648.104	544.93
648.551	543.03
648.999	587.33
649.446	640.53
649.893	707.23
650.34	797.63
650.787	936.23
651.234	1139.03
651.682	1469.43
652.129	1946.23
652.576	2756.83
653.023	4043.93
653.47	5590.63
653.917	7046.13
654.363	8293.33
654.81	9389.83
655.257	8913.73
655.704	5901.33
656.151	3497.13
656.598	2287.63
657.044	1638.03
657.491	1270.93
657.938	1015.63
658.385	853.83
658.831	747.13
659.278	667.23
659.724	600.03
660.171	555.73
660.618	515.83
661.064	486.83
661.511	466.83
661.957	452.23
662.404	441.83
662.85	444.43
663.296	432.23
663.743	404.53
664.189	394.93
664.635	390.13
665.082	383.23
665.528	379.73
665.974	368.43
666.42	366.23
666.867	367.23
667.313	345.93
667.759	342.73
668.205	340.13
668.651	323.83
669.097	329.33
669.543	322.43
669.989	327.03
670.435	325.73
670.881	324.13
671.327	331.23
671.773	347.53
672.219	359.33
672.665	393.23
673.11	424.43
673.556	456.43
674.002	492.13
674.448	484.33
674.893	410.23
675.339	361.73
675.785	326.53
676.23	310.83
676.676	289.73
677.122	285.53
677.567	272.63
678.013	273.93
678.458	266.13
678.904	258.23
679.349	257.73
679.794	248.63
680.24	248.83
680.685	255.43
681.131	253.73
681.576	249.73
682.021	263.23
682.466	251.93
682.912	248.53
683.357	257.83
683.802	278.33
684.247	290.03
684.692	327.13
685.137	358.33
685.583	393.43
686.028	418.43
686.473	377.93
686.918	331.13
687.363	298.93
687.807	276.63
688.252	262.93
688.697	262.03
689.142	238.13
689.587	237.63
690.032	231.23
690.477	246.63
690.921	254.33
691.366	277.43
691.811	286.73
692.255	309.23
692.7	331.73
693.145	354.43
693.589	474.33
694.034	775.43
694.478	1101.63
694.923	1284.63
695.367	1721.83
695.812	897.93
696.256	365.03
696.701	268.23
697.145	246.43
697.59	237.53
698.034	229.83
698.478	235.43
698.922	235.53
699.367	234.93
699.811	238.23
700.255	245.13
700.699	267.93
701.143	299.13
701.588	339.83
702.032	375.93
702.476	370.83
702.92	358.83
703.364	355.13
703.808	448.43
704.252	713.83
704.696	1031.63
705.14	1245.33
705.584	1606.53
706.027	797.93
706.471	385.13
706.915	290.73
707.359	251.13
707.803	225.83
708.246	222.83
708.69	226.93
709.134	228.73
709.577	226.83
710.021	224.63
710.465	223.53
710.908	214.63
711.352	213.43
711.795	225.83
712.239	248.13
712.682	267.93
713.126	297.73
713.569	337.03
714.012	260.33
714.456	215.93
714.899	212.03
715.342	195.03
715.786	189.63
716.229	177.33
716.672	187.93
717.115	182.63
717.558	185.43
718.002	183.23
718.445	189.53
718.888	204.33
719.331	205.33
719.774	217.43
720.217	225.83
720.66	202.13
721.103	195.73
721.546	184.83
721.989	177.63
722.432	164.03
722.874	173.23
723.317	163.33
723.76	171.63
724.203	182.93
724.645	216.73
725.088	305.83
725.531	404.43
725.974	474.43
726.416	404.23
726.859	213.93
727.301	170.83
727.744	165.73
728.187	162.93
728.629	168.73
729.071	167.03
729.514	177.73
729.956	194.73
730.399	200.63
730.841	203.63
731.283	199.53
731.726	194.83
732.168	188.63
732.61	182.23
733.053	200.73
733.495	219.93
733.937	249.03
734.379	288.63
734.821	305.43
735.263	380.73
735.705	575.23
736.148	1084.13
736.59	1849.73
737.032	2326.73
737.474	1911.83
737.916	596.03
738.357	312.83
738.799	239.43
739.241	217.23
739.683	204.93
740.125	213.53
740.567	217.33
741.008	229.63
741.45	237.03
741.892	237.33
742.334	247.43
742.775	268.63
743.217	257.33
743.658	198.63
744.1	181.03
744.542	194.93
744.983	237.23
745.425	264.93
745.866	266.93
746.307	204.03
746.749	199.53
747.19	221.83
747.632	304.33
748.073	595.23
748.514	1282.13
748.956	2082.33
749.397	2611.63
749.838	2155.43
750.279	2255.03
750.72	1141.63
751.162	409.93
751.603	232.83
752.044	189.13
752.485	157.53
752.926	146.03
753.367	139.83
753.808	137.13
754.249	138.83
754.69	133.63
755.131	137.53
755.572	126.63
756.013	133.13
756.453	135.03
756.894	132.03
757.335	130.73
757.776	142.03
758.216	137.33
758.657	146.93
759.098	147.83
759.538	162.13
759.979	184.63
760.42	259.43
760.86	490.23
761.301	1267.63
761.741	3173.53
762.182	5027.63
762.622	3570.33
763.063	1000.63
763.503	399.93
763.943	234.43
764.384	200.33
764.824	180.73
765.264	186.43
765.705	159.13
766.145	137.03
766.585	127.53
767.025	119.83
767.465	112.13
767.906	132.43
768.346	147.63
768.786	151.43
769.226	155.23
769.666	208.93
770.106	417.53
770.546	1071.43
770.986	1959.83
771.426	1828.23
771.866	588.23
772.306	237.73
772.745	142.53
773.185	117.93
773.625	115.33
774.065	104.63
774.505	117.23
774.944	150.93
775.384	266.23
775.824	466.03
776.263	469.53
776.703	215.83
777.142	115.23
777.582	95.53
778.021	89.73
778.461	88.23
778.9	92.53
779.34	97.43
779.779	84.23
780.219	80.13
780.658	75.73
781.097	79.53
781.537	80.93
781.976	78.83
782.415	73.53
782.855	74.13
783.294	71.13
783.733	71.53
784.172	77.13
784.611	65.03
785.05	80.03
785.489	74.73
785.928	81.93
786.367	84.33
786.806	80.03
787.245	90.13
787.684	94.13
788.123	103.03
788.562	98.73
789.001	88.43
789.44	87.53
789.879	86.23
790.317	85.13
790.756	94.63
791.195	86.03
791.634	101.53
792.072	144.03
792.511	248.93
792.95	688.03
793.388	1553.03
793.827	1485.73
794.265	497.83
794.704	210.63
795.142	135.83
795.581	109.13
796.019	98.53
796.458	89.63
796.896	90.53
797.334	90.23
797.773	108.83
798.211	157.33
798.649	299.33
799.087	714.93
799.526	1158.83
799.964	1468.13
800.402	1559.83
800.84	574.23
801.278	221.53
801.716	137.73
802.154	112.63
802.592	103.83
803.03	100.23
803.468	93.13
803.906	101.43
804.344	109.63
804.782	100.63
805.22	97.23
805.658	92.43
806.096	111.53
806.533	116.13
806.971	122.53
807.409	159.43
807.847	222.93
808.284	455.53
808.722	1318.33
809.16	2496.73
809.597	2309.63
810.035	4086.93
810.472	4683.53
810.91	1646.83
811.347	611.93
811.785	311.03
812.222	193.83
812.66	147.33
813.097	120.63
813.535	102.53
813.972	95.03
814.409	81.63
814.846	79.33
815.284	78.93
815.721	73.33
816.158	79.83
816.595	78.83
817.032	117.03
817.47	147.13
817.907	112.33
818.344	71.13
818.781	70.73
819.218	61.73
819.655	90.93
820.092	146.23
820.529	177.33
820.966	141.03
821.403	98.03
821.839	72.83
822.276	67.63
822.713	89.03
823.15	100.03
823.587	82.93
824.023	103.83
824.46	205.23
824.897	632.33
825.333	1037.03
825.77	451.43
826.206	170.83
826.643	97.53
827.08	71.33
827.516	54.03
827.953	54.03
828.389	61.23
828.825	51.33
829.262	49.63
829.698	44.23
830.135	50.03
830.571	42.53
831.007	47.53
831.443	44.93
831.88	39.43
832.316	44.53
832.752	44.43
833.188	45.23
833.624	44.73
834.06	46.63
834.497	49.33
834.933	47.73
835.369	50.73
835.805	47.93
836.241	55.63
836.677	50.03
837.112	65.63
837.548	71.63
837.984	99.53
838.42	141.33
838.856	350.13
839.292	1103.73
839.727	1777.93
840.163	829.83
840.599	666.63
841.034	1507.33
841.47	1684.93
841.906	609.33
842.341	243.23
842.777	150.03
843.212	154.63
843.648	150.33
844.083	80.23
844.519	58.73
844.954	47.13
845.39	42.53
845.825	42.63
846.261	46.93
846.696	44.13
847.131	41.53
847.566	39.13
848.002	38.23
848.437	42.63
848.872	47.03
849.307	42.23
849.742	55.73
850.177	123.33
850.613	391.73
851.048	676.93
851.483	289.03
851.918	108.93
852.353	56.63
852.788	34.13
853.223	37.73
853.657	37.43
854.092	35.63
854.527	31.13
854.962	27.23
855.397	31.33
855.832	35.93
856.266	28.23
856.701	27.73
857.136	19.13
857.57	30.43
858.005	37.43
858.44	56.23
858.874	34.13
859.309	36.73
859.743	31.13
860.178	33.73
860.612	33.43
861.047	44.23
861.481	54.63
861.915	54.93
862.35	34.53
862.784	23.83
863.218	32.73
863.653	25.73
864.087	35.63
864.521	39.43
864.955	44.43
865.39	111.33
865.824	138.13
866.258	88.03
866.692	137.73
867.126	152.83
867.56	84.23
867.994	41.63
868.428	27.93
868.862	36.83
869.296	47.03
869.73	41.23
870.164	47.13
870.598	39.63
871.031	32.83
871.465	25.23
871.899	32.13
872.333	18.63
872.766	17.83
873.2	16.53
873.634	19.93
874.067	11.23
874.501	19.43
874.935	25.23
875.368	23.13
875.802	16.53
876.235	16.13
876.669	18.83
877.102	19.93
877.535	19.73
877.969	15.83
878.402	20.83
878.836	8.23
879.269	15.53
879.702	17.83
880.135	15.33
880.569	20.63
881.002	20.73
881.435	20.53
881.868	13.33
882.301	16.53
882.734	8.53
883.167	15.63
883.601	10.83
884.034	23.13
884.467	7.03
884.899	15.73
885.332	16.23
885.765	10.73
886.198	15.53
886.631	13.93
887.064	13.43
887.497	13.33
887.929	19.73
888.362	12.03
888.795	10.83
889.228	13.93
889.66	19.43
890.093	9.03
890.526	11.33
890.958	3.63
891.391	14.03
891.823	16.53
892.256	12.83
892.688	6.03
893.121	12.33
893.553	15.33
893.985	20.93
894.418	13.53
894.85	8.33
895.282	14.13
895.715	19.13
896.147	13.93
896.579	12.13
897.011	12.13
897.444	13.83
897.876	8.83
898.308	12.93
898.74	11.73
899.172	7.13
899.604	15.63
900.036	19.93
900.468	13.23
900.9	8.93
901.332	7.03
901.764	6.53
902.196	15.83
902.628	13.23
903.06	9.33
903.491	27.73
903.923	23.13
904.355	14.63
904.787	17.53
905.218	19.63
905.65	14.83
906.082	7.23
906.513	11.93
906.945	9.43
907.376	13.73
907.808	19.83
908.239	23.33
908.671	16.23
909.102	14.33
909.534	17.93
909.965	34.43
910.397	67.33
910.828	237.63
911.259	363.73
911.691	166.53
912.122	81.03
912.553	33.13
912.984	29.03
913.415	19.53
913.847	22.83
914.278	7.43
914.709	12.93
915.14	13.73
915.571	11.43
916.002	12.93
916.433	13.63
916.864	16.43
917.295	6.13
917.726	13.23
918.157	5.53
918.587	16.03
919.018	19.53
919.449	13.23
919.88	15.43
920.311	26.43
920.741	29.83
921.172	122.63
921.603	116.93
922.033	51.83
922.464	32.33
922.895	18.53
923.325	16.13
923.756	7.63
924.186	2.73
924.617	12.03
925.047	15.33
925.478	21.03
925.908	16.73
926.338	11.93
926.769	8.63
927.199	13.93
927.629	4.13
928.06	17.83
928.49	12.33
928.92	7.93
929.35	10.03
929.78	8.13
930.21	7.13
930.641	6.33
931.071	6.73
931.501	3.13
931.931	5.93
932.361	3.53
932.791	2.83
933.221	2.23
933.651	4.03
934.08	12.93
934.51	23.23
934.94	4.23
935.37	7.33
935.8	6.83
936.229	5.73
936.659	5.23
937.089	0.63
937.519	15.53
937.948	16.63
938.378	12.93
938.807	5.63
939.237	3.63
939.666	9.53
940.096	-5.37
940.525	-0.37
940.955	-0.07
941.384	0.73
941.814	0.13
942.243	0.43
942.672	7.03
943.102	-4.27
943.531	3.23
943.96	8.03
944.39	-1.57
944.819	5.03
945.248	0.33
945.677	3.23
946.106	5.33
946.535	7.93
946.964	5.03
947.393	7.93
947.822	1.83
948.251	-3.07
948.68	2.43
949.109	3.03
949.538	9.03
949.967	1.13
950.396	7.03
950.825	-5.47
951.254	1.13
951.682	-4.17
952.111	-0.87
952.54	4.63
952.969	-0.67
953.397	-5.37
953.826	1.43
954.254	-6.67
954.683	5.03
955.112	-3.57
955.54	-2.57
955.969	2.43
956.397	6.93
956.826	4.63
957.254	0.63
957.682	1.13
958.111	1.73
958.539	-3.17
958.967	-3.57
959.396	-0.37
959.824	3.63
960.252	8.53
960.68	-6.97
961.109	-3.67
961.537	-4.87
961.965	-0.67
962.393	2.13
962.821	-5.47
963.249	-4.07
963.677	6.13
964.105	8.73
964.533	26.43
964.961	33.83
965.389	18.63
965.817	5.43
966.245	-3.67
966.672	2.93
967.1	-7.87
967.528	1.93
967.956	0.33
968.383	0.23
968.811	1.13
969.239	-0.57
969.666	-1.27
970.094	5.43
970.522	5.43
970.949	-4.27
971.377	-6.87
971.804	-4.97
972.232	1.73
972.659	5.33
973.087	0.43
973.514	-0.97
973.941	-4.97
974.369	-1.87
974.796	2.63
975.223	1.63
975.651	-3.77
976.078	3.43
976.505	-3.77
976.932	-0.47
977.359	7.43
977.786	11.83
978.214	-2.97
978.641	-5.57
979.068	-4.57
979.495	-1.37
979.922	2.23
980.349	1.33
980.776	-0.57
981.202	-1.47
981.629	5.83
982.056	10.93
982.483	-3.87
982.91	1.23
983.337	-5.57
983.763	6.33
984.19	-3.67
984.617	-5.07
985.043	-10.47
985.47	-4.27
985.897	-6.17
986.323	-6.47
986.75	1.33
987.176	-0.47
987.603	-0.97
988.029	-2.67
988.456	-4.27
988.882	1.93
989.308	-3.17
989.735	-4.67
990.161	-2.07
990.587	-0.67
991.014	-3.07
991.44	5.73
991.866	-1.07
992.292	-0.97
992.719	-2.57
993.145	3.23
993.571	-7.47
993.997	-5.87
994.423	-2.07
994.849	-6.27
995.275	3.93
995.701	6.93
996.127	-1.67
996.553	-0.37
996.979	2.03
997.405	1.83
997.83	-10.47
998.256	-5.27
998.682	-1.87
999.108	-5.77
999.534	2.73
999.959	-2.27
1000.385	-0.97
1000.811	-1.87
1001.236	-8.37
1001.662	-7.47
1002.087	-6.07
1002.513	1.63
1002.938	1.53
1003.364	-0.07
1003.789	0.73
1004.215	1.03
1004.64	0.43
1005.066	5.63
1005.491	-1.47
1005.916	-3.17
1006.342	-4.87
1006.767	-5.67
1007.192	2.43
1007.617	-4.97
1008.042	-4.07
1008.468	1.03
1008.893	-1.97
1009.318	-1.67
1009.743	-6.37
1010.168	2.63
1010.593	2.73
1011.018	-6.67
1011.443	-3.77
1011.868	4.33
1012.293	-2.07
1012.718	-1.87
1013.143	0.63
1013.567	-0.27
1013.992	-6.27
1014.417	-10.07
1014.842	2.83
1015.267	0.33
1015.691	1.03
1016.116	8.33
1016.541	-2.77
1016.965	3.43
1017.39	3.43
1017.814	-0.17
1018.239	4.23
1018.663	-1.77
1019.088	-4.37
1019.512	-3.87
1019.937	2.73
1020.361	-2.37
1020.785	-4.87
1021.21	-5.87
1021.634	-0.87
1022.058	-1.87
1022.483	10.03
1022.907	4.43
1023.331	-2.17
1023.755	7.03
1024.179	1.33
1024.604	-5.37
1025.028	-4.17
1025.452	-7.07
1025.876	0.83
1026.3	-3.07
1026.724	-5.67
1027.148	-3.37
1027.572	-5.87
1027.996	-2.77
1028.42	0.33
1028.843	-2.17
1029.267	-0.17
1029.691	-0.27
1030.115	-0.47
1030.539	1.53
1030.962	-8.57
1031.386	-5.37
1031.81	0.63
1032.233	1.03
1032.657	-0.67
1033.08	0.43
1033.504	-1.67
1033.927	-2.37
1034.351	-2.77
1034.774	0.93
1035.198	-2.87
1035.621	-2.27
1036.045	-5.37
1036.468	4.63
1036.891	-10.07
1037.315	-7.17
1037.738	-6.17
1038.161	2.03
1038.584	-5.37
1039.008	-5.57
1039.431	-0.77
1039.854	-3.67
1040.277	-6.37
1040.7	-6.17
1041.123	-6.37
1041.546	-6.67
1041.969	1.13
1042.392	-3.67
1042.815	-3.17
1043.238	1.73
1043.661	0.93
1044.084	-2.47
1044.507	-5.17
1044.93	-3.37
1045.352	-2.77
1045.775	-1.37
1046.198	-2.67
1046.621	-8.17
1047.043	-0.87
1047.466	8.73
1047.889	-4.17
1048.311	-8.77
1048.734	3.03
1049.156	-2.07
1049.579	-1.57
1050.001	0.03
1050.424	1.83
1050.846	-4.77
1051.269	-3.37
1051.691	-10.37
1052.113	-3.37
1052.536	0.03
1052.958	3.73
1053.38	-3.77
1053.802	-5.47
1054.225	-2.67
1054.647	-9.97
1055.069	-9.87
1055.491	3.03
1055.913	-5.87
1056.335	4.03
1056.757	-1.57
1057.179	-6.57
1057.601	-3.47
1058.023	0.73
1058.445	-4.97
1058.867	-1.77
1059.289	-7.47
1059.711	-7.97
1060.133	-1.27
1060.555	-8.47
1060.976	-8.37
1061.398	-8.37
1061.82	-3.57
1062.241	-6.57
1062.663	-6.37
1063.085	0.33
1063.506	7.63
1063.928	-3.87
1064.35	-1.87
1064.771	-8.37
1065.193	-8.57
1065.614	-4.37
1066.035	-3.07
1066.457	-1.77
1066.878	-1.67
1067.3	-3.47
1067.721	-5.87
1068.142	-0.37
1068.564	2.03
1068.985	-4.57
1069.406	-4.97
1069.827	-4.37
1070.248	1.03
1070.67	-5.87
1071.091	-6.07
1071.512	-3.97
1071.933	-5.47
1072.354	-11.97
1072.775	-1.07
1073.196	-5.77
1073.617	0.73
1074.038	-10.97
1074.459	-2.57
1074.88	-4.87
1075.3	8.53
1075.721	-3.77
1076.142	-2.07
1076.563	-3.87
1076.983	-8.87
1077.404	-5.07
1077.825	-6.97
1078.246	-0.77
1078.666	-9.97
1079.087	-6.17
1079.507	-2.07
1079.928	2.13
1080.348	-0.27
1080.769	-0.87
1081.189	3.93
1081.61	-1.57
1082.03	-4.07
1082.451	-1.67
1082.871	-2.97
1083.291	-5.77
1083.711	-7.17
1084.132	-3.97
1084.552	-2.27
1084.972	-0.87
1085.392	-6.57
1085.813	-9.07
1086.233	-7.77
1086.653	-2.87
1087.073	-4.97
1087.493	-9.07
1087.913	-8.77
1088.333	-7.37
1088.753	-3.87
1089.173	4.83
1089.593	-3.77
1090.013	6.33
1090.433	-2.07
1090.852	-3.17
1091.272	1.03
1091.692	3.53
1092.112	-2.07
1092.531	-8.67
1092.951	-9.47
1093.371	-5.17
1093.79	3.93
1094.21	-5.07
1094.63	-3.07
1095.049	-5.87
1095.469	-2.57
1095.888	1.03
1096.308	0.63
1096.727	5.33
1097.146	-5.57
1097.566	2.73
1097.985	-6.07
1098.405	0.23
1098.824	-7.37
1099.243	-0.27
1099.662	-8.57
1100.082	-8.87
1100.501	-2.57
1100.92	-9.37
1101.339	-2.07
1101.758	-3.47
