Data from 20171114-ORNL-Ar_H_NY_Subt18_08-06-37-386.txt Node
Date: Tue Nov 14 08:06:37 EST 2017
User: Ender
Spectrometer: HR+D1039
Trigger mode: 0
Integration Time (sec): 2.730000E-2
Scans to average: 10
Electric dark correction enabled: true
Nonlinearity correction enabled: false
Boxcar width: 0
XAxis mode: Wavelengths
Number of Pixels in Spectrum: 2048
>>>>>Begin Spectral Data<<<<<
187.836	-1.43
188.309	-1.43
188.782	-1.43
189.255	-1.83
189.728	-5.42
190.201	4.98
190.674	1.88
191.147	6.07
191.619	-5.73
192.092	5.88
192.565	1.57
193.038	0.07
193.511	0.57
193.984	-0.43
194.456	-0.62
194.929	-3.02
195.402	-2.43
195.874	-0.12
196.347	2.27
196.82	-11.73
197.292	6.67
197.765	-2.92
198.237	-8.83
198.71	0.27
199.182	-5.73
199.655	1.97
200.127	-1.03
200.6	-4.73
201.072	-4.63
201.544	-2.83
202.017	-2.73
202.489	-0.03
202.961	0.48
203.433	-9.53
203.906	-6.12
204.378	-0.02
204.85	-3.33
205.322	-14.12
205.794	6.37
206.266	-2.93
206.739	-6.83
207.211	-1.42
207.683	-6.92
208.155	-3.12
208.627	-6.93
209.099	-3.62
209.57	-14.02
210.042	-2.23
210.514	-5.73
210.986	-6.92
211.458	-9.53
211.93	-3.63
212.402	4.27
212.873	-6.62
213.345	-2.33
213.817	-11.73
214.288	-1.53
214.76	-11.23
215.232	-1.52
215.703	-2.83
216.175	-5.83
216.646	-6.83
217.118	-4.83
217.589	-6.62
218.061	-4.23
218.532	-11.12
219.004	-3.02
219.475	0.08
219.946	-3.53
220.418	-4.82
220.889	1.98
221.36	-0.82
221.832	-3.73
222.303	-3.33
222.774	-0.33
223.245	-11.23
223.717	-4.73
224.188	-5.83
224.659	-8.53
225.13	-9.42
225.601	-2.53
226.072	3.77
226.543	-1.63
227.014	1.97
227.485	-1.93
227.956	0.38
228.427	-3.92
228.898	-0.42
229.369	3.07
229.839	-3.62
230.31	-3.73
230.781	5.07
231.252	-1.02
231.722	-9.83
232.193	-4.52
232.664	-4.62
233.135	1.07
233.605	-1.32
234.076	-3.73
234.546	-0.63
235.017	-0.42
235.487	-2.73
235.958	-2.73
236.428	-3.73
236.899	-2.92
237.369	-1.32
237.84	-7.02
238.31	-0.53
238.78	1.48
239.251	-5.52
239.721	-1.12
240.191	-0.32
240.662	-1.02
241.132	-2.73
241.602	-3.33
242.072	-2.93
242.542	-5.02
243.013	-1.12
243.483	-1.02
243.953	5.18
244.423	-5.02
244.893	-9.62
245.363	0.57
245.833	-1.83
246.303	-4.23
246.773	0.07
247.243	3.37
247.712	-1.23
248.182	0.97
248.652	4.88
249.122	-8.83
249.592	1.57
250.061	4.38
250.531	8.38
251.001	-5.23
251.471	8.88
251.94	7.77
252.41	-0.42
252.879	-5.23
253.349	11.57
253.818	8.38
254.288	-1.32
254.757	-5.32
255.227	-1.82
255.696	0.77
256.166	6.88
256.635	5.27
257.105	7.18
257.574	-1.33
258.043	-1.23
258.513	3.27
258.982	0.48
259.451	-2.93
259.92	7.27
260.389	-0.62
260.859	12.27
261.328	6.68
261.797	3.98
262.266	-4.83
262.735	9.48
263.204	5.57
263.673	-1.02
264.142	3.98
264.611	-11.83
265.08	0.47
265.549	-1.62
266.018	3.27
266.487	-0.13
266.955	-3.52
267.424	-1.02
267.893	2.18
268.362	-4.23
268.83	-2.62
269.299	11.18
269.768	9.17
270.236	5.88
270.705	-4.12
271.174	4.58
271.642	2.07
272.111	7.08
272.579	8.47
273.048	4.97
273.516	5.98
273.985	8.98
274.453	15.17
274.922	10.27
275.39	3.37
275.858	-1.43
276.327	8.77
276.795	18.77
277.263	5.88
277.731	12.87
278.2	11.67
278.668	17.67
279.136	16.67
279.604	6.88
280.072	13.17
280.54	13.48
281.008	9.27
281.477	18.38
281.945	13.98
282.413	11.88
282.881	15.38
283.348	9.68
283.816	9.88
284.284	17.57
284.752	19.77
285.22	12.88
285.688	16.97
286.156	10.98
286.623	13.38
287.091	16.58
287.559	18.88
288.026	17.88
288.494	13.27
288.962	5.17
289.429	10.17
289.897	12.98
290.364	11.07
290.832	22.38
291.3	16.67
291.767	17.68
292.234	13.77
292.702	11.08
293.169	19.27
293.637	24.67
294.104	23.17
294.571	13.57
295.039	14.38
295.506	11.48
295.973	15.07
296.44	17.08
296.908	15.27
297.375	17.07
297.842	17.57
298.309	15.38
298.776	12.77
299.243	20.97
299.71	17.47
300.177	14.98
300.644	24.77
301.111	19.88
301.578	21.38
302.045	15.98
302.512	22.88
302.979	27.38
303.446	22.17
303.913	21.38
304.379	22.07
304.846	25.27
305.313	26.17
305.78	21.07
306.246	25.88
306.713	24.87
307.18	24.98
307.646	29.67
308.113	32.57
308.579	27.27
309.046	27.48
309.512	28.68
309.979	22.47
310.445	30.38
310.912	28.97
311.378	33.98
311.845	25.27
312.311	34.57
312.777	38.17
313.244	35.38
313.71	39.17
314.176	34.68
314.642	34.27
315.109	33.57
315.575	31.58
316.041	41.98
316.507	34.77
316.973	35.77
317.439	32.98
317.905	34.18
318.371	38.88
318.837	38.18
319.303	40.77
319.769	35.58
320.235	35.27
320.701	38.77
321.167	32.67
321.633	31.48
322.099	41.57
322.564	40.98
323.03	42.27
323.496	40.17
323.962	41.38
324.427	34.07
324.893	46.57
325.359	38.27
325.824	37.47
326.29	31.97
326.755	39.77
327.221	42.37
327.686	42.38
328.152	51.18
328.617	37.77
329.083	47.07
329.548	52.57
330.014	48.88
330.479	40.07
330.944	44.97
331.41	43.47
331.875	54.18
332.34	41.98
332.805	42.97
333.271	49.48
333.736	38.48
334.201	49.88
334.666	53.67
335.131	55.07
335.596	46.77
336.061	56.38
336.526	40.77
336.991	45.88
337.456	56.18
337.921	52.97
338.386	48.98
338.851	46.37
339.316	51.07
339.781	52.27
340.246	49.48
340.711	48.67
341.175	56.27
341.64	48.67
342.105	52.38
342.569	61.97
343.034	59.17
343.499	56.38
343.963	57.58
344.428	67.18
344.893	64.67
345.357	65.27
345.822	64.07
346.286	70.67
346.751	78.08
347.215	70.17
347.679	80.98
348.144	88.57
348.608	92.27
349.073	68.98
349.537	80.58
350.001	82.57
350.465	94.38
350.93	85.98
351.394	85.17
351.858	74.18
352.322	84.58
352.786	90.98
353.25	106.17
353.715	115.77
354.179	111.97
354.643	121.77
355.107	125.17
355.571	107.67
356.035	105.38
356.498	120.97
356.962	115.87
357.426	124.07
357.89	115.88
358.354	90.17
358.818	85.88
359.281	88.27
359.745	78.68
360.209	79.58
360.673	76.77
361.136	86.77
361.6	79.27
362.064	83.88
362.527	93.87
362.991	92.38
363.454	87.67
363.918	81.07
364.381	82.88
364.845	83.07
365.308	95.47
365.772	97.57
366.235	89.48
366.698	87.57
367.162	88.17
367.625	90.97
368.088	89.77
368.552	94.07
369.015	92.98
369.478	93.58
369.941	99.97
370.404	99.37
370.867	108.57
371.331	109.07
371.794	115.77
372.257	105.67
372.72	115.17
373.183	100.58
373.646	101.98
374.109	95.27
374.572	110.47
375.035	100.47
375.497	101.27
375.96	111.48
376.423	113.07
376.886	115.48
377.349	114.77
377.811	110.58
378.274	113.27
378.737	103.17
379.199	113.98
379.662	117.88
380.125	123.88
380.587	106.98
381.05	113.68
381.512	122.97
381.975	132.38
382.437	129.77
382.9	125.07
383.362	130.27
383.825	135.38
384.287	135.98
384.75	124.38
385.212	124.27
385.674	134.67
386.136	137.38
386.599	124.77
387.061	130.48
387.523	133.17
387.985	131.37
388.447	142.88
388.91	133.88
389.372	134.38
389.834	137.37
390.296	134.88
390.758	132.67
391.22	148.27
391.682	159.77
392.144	173.77
392.606	151.27
393.068	146.48
393.529	155.47
393.991	149.38
394.453	140.77
394.915	138.57
395.377	145.17
395.838	143.88
396.3	142.17
396.762	153.48
397.224	143.77
397.685	138.77
398.147	142.27
398.608	139.98
399.07	136.38
399.531	141.98
399.993	145.18
400.454	162.27
400.916	159.17
401.377	151.48
401.839	158.17
402.3	158.77
402.762	178.48
403.223	181.17
403.684	178.87
404.145	166.77
404.607	173.88
405.068	173.27
405.529	181.38
405.99	201.38
406.451	188.87
406.913	179.57
407.374	172.38
407.835	167.77
408.296	174.88
408.757	179.48
409.218	197.77
409.679	183.18
410.14	182.27
410.601	178.38
411.062	185.88
411.522	186.38
411.983	189.07
412.444	181.27
412.905	195.88
413.366	191.38
413.826	207.57
414.287	238.78
414.748	282.78
415.208	264.27
415.669	228.87
416.13	224.87
416.59	207.27
417.051	227.27
417.511	238.37
417.972	263.27
418.432	268.67
418.893	310.67
419.353	270.77
419.814	211.67
420.274	194.67
420.734	195.98
421.195	207.67
421.655	205.48
422.115	210.07
422.576	204.87
423.036	218.87
423.496	222.98
423.956	232.07
424.416	255.57
424.876	284.57
425.336	280.07
425.797	270.48
426.257	268.07
426.717	253.27
427.177	248.88
427.637	241.37
428.097	252.77
428.556	260.78
429.016	281.97
429.476	273.18
429.936	285.57
430.396	298.88
430.856	302.67
431.315	322.87
431.775	362.57
432.235	394.27
432.694	368.87
433.154	377.47
433.614	413.67
434.073	350.57
434.533	306.87
434.993	279.97
435.452	294.67
435.912	317.17
436.371	308.48
436.83	297.18
437.29	276.07
437.749	264.47
438.209	259.58
438.668	297.97
439.127	305.67
439.587	285.48
440.046	269.17
440.505	273.88
440.964	308.07
441.424	344.98
441.883	334.68
442.342	278.27
442.801	244.58
443.26	238.67
443.719	237.97
444.178	237.17
444.637	226.88
445.096	243.98
445.555	242.38
446.014	242.18
446.473	247.38
446.932	256.87
447.391	246.97
447.849	250.37
448.308	238.08
448.767	240.57
449.226	262.18
449.685	258.67
450.143	273.17
450.602	262.48
451.061	255.77
451.519	256.98
451.978	253.58
452.436	265.17
452.895	264.48
453.353	274.68
453.812	266.68
454.27	266.17
454.729	261.07
455.187	270.67
455.646	262.57
456.104	272.78
456.562	285.87
457.021	296.27
457.479	276.38
457.937	296.68
458.395	288.98
458.854	269.47
459.312	278.88
459.77	303.17
460.228	276.57
460.686	264.77
461.144	272.27
461.602	270.87
462.06	275.18
462.518	283.07
462.976	279.87
463.434	283.88
463.892	289.88
464.35	299.77
464.808	319.17
465.266	293.28
465.724	294.77
466.181	297.67
466.639	295.38
467.097	320.97
467.555	327.58
468.012	328.97
468.47	344.78
468.928	361.67
469.385	364.18
469.843	382.08
470.3	382.07
470.758	395.08
471.215	408.67
471.673	440.88
472.13	441.07
472.588	466.17
473.045	405.88
473.503	412.07
473.96	432.88
474.417	446.17
474.875	475.48
475.332	511.58
475.789	497.68
476.246	500.98
476.704	523.48
477.161	541.17
477.618	570.47
478.075	604.38
478.532	665.28
478.989	741.08
479.446	861.57
479.903	815.07
480.36	836.88
480.817	885.27
481.274	1006.77
481.731	1090.78
482.188	1185.38
482.645	1310.78
483.102	1394.18
483.558	1520.68
484.015	1567.58
484.472	1530.97
484.929	1492.58
485.385	1444.08
485.842	1416.68
486.299	1370.38
486.755	1318.58
487.212	1133.78
487.668	969.58
488.125	892.27
488.582	821.18
489.038	786.97
489.494	761.48
489.951	734.38
490.407	711.98
490.864	685.87
491.32	697.78
491.776	693.97
492.233	697.17
492.689	660.58
493.145	658.87
493.602	650.47
494.058	665.27
494.514	664.18
494.97	691.88
495.426	713.67
495.882	674.47
496.338	670.97
496.794	669.08
497.251	670.77
497.707	677.57
498.163	685.88
498.618	694.17
499.074	700.28
499.53	730.57
499.986	732.27
500.442	707.48
500.898	685.68
501.354	677.67
501.809	683.37
502.265	683.78
502.721	691.67
503.177	697.48
503.632	702.27
504.088	710.37
504.543	730.77
504.999	756.58
505.455	721.67
505.91	695.97
506.366	704.38
506.821	684.37
507.277	687.17
507.732	690.67
508.187	690.38
508.643	698.88
509.098	697.78
509.553	716.27
510.009	726.37
510.464	729.47
510.919	760.58
511.375	750.48
511.83	766.17
512.285	790.67
512.74	827.28
513.195	865.08
513.65	849.88
514.105	840.67
514.56	847.27
515.015	863.07
515.47	877.47
515.925	851.57
516.38	864.67
516.835	858.38
517.29	850.48
517.745	845.27
518.2	836.87
518.655	820.57
519.109	810.77
519.564	811.27
520.019	801.97
520.474	787.18
520.928	803.68
521.383	786.87
521.838	783.67
522.292	779.47
522.747	776.47
523.201	773.77
523.656	758.38
524.11	754.98
524.565	759.67
525.019	761.77
525.474	755.88
525.928	761.88
526.382	761.17
526.837	764.17
527.291	774.77
527.745	759.07
528.2	762.57
528.654	752.28
529.108	745.67
529.562	747.97
530.016	753.38
530.47	757.27
530.925	755.97
531.379	749.28
531.833	771.77
532.287	767.98
532.741	767.48
533.195	780.98
533.649	790.58
534.103	787.88
534.556	777.67
535.01	770.57
535.464	776.58
535.918	774.77
536.372	786.18
536.826	784.87
537.279	773.18
537.733	775.17
538.187	785.08
538.64	773.77
539.094	795.97
539.548	793.07
540.001	788.77
540.455	794.27
540.908	793.38
541.362	800.78
541.815	812.08
542.269	819.17
542.722	829.67
543.175	840.58
543.629	845.27
544.082	853.67
544.536	864.88
544.989	849.77
545.442	873.97
545.895	877.37
546.349	876.07
546.802	869.98
547.255	871.67
547.708	871.78
548.161	895.67
548.614	897.27
549.067	910.88
549.52	902.97
549.973	887.47
550.426	890.57
550.879	875.27
551.332	882.77
551.785	892.38
552.238	891.77
552.691	897.38
553.144	912.37
553.596	934.58
554.049	952.27
554.502	974.37
554.955	996.58
555.407	989.37
555.86	987.77
556.313	975.38
556.765	959.47
557.218	963.88
557.67	957.77
558.123	955.77
558.576	952.58
559.028	950.17
559.48	974.68
559.933	950.28
560.385	921.27
560.838	901.48
561.29	862.77
561.742	861.38
562.195	848.58
562.647	837.18
563.099	855.57
563.551	850.58
564.004	861.98
564.456	843.57
564.908	833.07
565.36	809.47
565.812	795.68
566.264	782.48
566.716	779.38
567.168	765.98
567.62	783.07
568.072	765.58
568.524	761.38
568.976	748.67
569.428	746.67
569.88	734.17
570.332	745.38
570.784	746.17
571.235	748.07
571.687	761.47
572.139	768.27
572.59	777.87
573.042	772.17
573.494	782.18
573.945	774.98
574.397	748.38
574.849	755.38
575.3	759.17
575.752	759.08
576.203	746.67
576.655	747.77
577.106	741.78
577.557	729.77
578.009	730.68
578.46	726.87
578.912	724.18
579.363	737.08
579.814	730.98
580.265	723.68
580.717	737.27
581.168	733.97
581.619	741.18
582.07	735.68
582.521	737.87
582.972	732.68
583.423	740.37
583.875	741.28
584.326	740.37
584.777	769.48
585.227	794.47
585.678	817.17
586.129	834.07
586.58	853.77
587.031	879.38
587.482	938.57
587.933	979.17
588.384	938.38
588.834	873.08
589.285	835.48
589.736	841.08
590.186	838.48
590.637	828.47
591.088	806.77
591.538	802.28
591.989	795.97
592.439	789.07
592.89	773.57
593.34	774.38
593.791	771.87
594.241	756.87
594.692	762.58
595.142	751.88
595.593	763.97
596.043	760.87
596.493	765.08
596.943	762.77
597.394	780.17
597.844	778.28
598.294	792.48
598.744	821.58
599.195	856.47
599.645	886.78
600.095	934.57
600.545	1001.38
600.995	1056.47
601.445	1107.77
601.895	1178.17
602.345	1228.68
602.795	1210.18
603.245	1156.97
603.695	1100.28
604.145	1049.28
604.594	987.38
605.044	935.18
605.494	875.68
605.944	827.97
606.393	802.57
606.843	791.38
607.293	790.48
607.743	798.08
608.192	807.57
608.642	807.97
609.091	826.48
609.541	825.47
609.99	821.68
610.44	815.27
610.889	770.38
611.339	757.17
611.788	742.07
612.238	750.68
612.687	756.07
613.136	750.47
613.586	759.87
614.035	753.27
614.484	766.77
614.933	769.97
615.383	760.47
615.832	765.07
616.281	758.77
616.73	731.38
617.179	709.18
617.628	697.77
618.077	675.77
618.526	671.98
618.975	658.77
619.424	663.37
619.873	663.18
620.322	668.88
620.771	658.28
621.22	647.98
621.669	639.77
622.118	631.77
622.567	632.48
623.015	620.97
623.464	617.47
623.913	609.77
624.361	601.17
624.81	599.88
625.259	598.68
625.707	597.27
626.156	601.27
626.604	608.27
627.053	605.87
627.501	612.27
627.95	618.57
628.398	627.98
628.847	620.38
629.295	609.17
629.744	627.57
630.192	612.07
630.64	608.87
631.089	592.67
631.537	574.47
631.985	573.58
632.433	580.67
632.881	578.27
633.33	578.48
633.778	568.47
634.226	567.68
634.674	586.48
635.122	580.77
635.57	601.57
636.018	602.08
636.466	611.58
636.914	602.08
637.362	618.07
637.81	622.18
638.258	628.98
638.705	625.88
639.153	655.97
639.601	663.27
640.049	687.67
640.497	710.68
640.944	741.98
641.392	701.27
641.84	658.07
642.287	629.17
642.735	611.37
643.182	606.68
643.63	611.67
644.078	610.07
644.525	609.67
644.973	622.17
645.42	634.87
645.867	655.78
646.315	680.18
646.762	703.48
647.21	728.07
647.657	739.07
648.104	787.17
648.551	803.08
648.999	876.38
649.446	944.28
649.893	1036.18
650.34	1180.57
650.787	1416.18
651.234	1722.58
651.682	2206.07
652.129	2997.47
652.576	4274.68
653.023	6228.98
653.47	8403.27
653.917	10483.57
654.363	12059.88
654.81	13340.88
655.257	12601.07
655.704	8383.07
656.151	5049.68
656.598	3320.57
657.044	2398.48
657.491	1848.58
657.938	1504.18
658.385	1253.48
658.831	1098.17
659.278	990.77
659.724	886.98
660.171	822.87
660.618	751.77
661.064	717.77
661.511	697.88
661.957	681.18
662.404	672.88
662.85	687.18
663.296	665.77
663.743	589.07
664.189	579.27
664.635	567.47
665.082	559.38
665.528	559.77
665.974	561.17
666.42	549.48
666.867	547.47
667.313	523.38
667.759	501.48
668.205	479.87
668.651	483.48
669.097	481.98
669.543	476.87
669.989	484.97
670.435	474.48
670.881	483.38
671.327	486.08
671.773	508.37
672.219	523.67
672.665	586.77
673.11	623.77
673.556	682.08
674.002	724.47
674.448	717.77
674.893	597.38
675.339	515.18
675.785	474.47
676.23	453.27
676.676	431.67
677.122	413.18
677.567	400.67
678.013	404.67
678.458	379.67
678.904	388.57
679.349	372.08
679.794	386.88
680.24	377.07
680.685	378.58
681.131	374.77
681.576	377.17
682.021	382.47
682.466	378.07
682.912	376.07
683.357	384.38
683.802	408.57
684.247	441.37
684.692	483.57
685.137	538.88
685.583	588.58
686.028	611.48
686.473	556.48
686.918	488.07
687.363	449.57
687.807	424.48
688.252	390.68
688.697	380.57
689.142	371.47
689.587	356.68
690.032	351.07
690.477	362.27
690.921	379.68
691.366	406.77
691.811	428.87
692.255	459.47
692.7	495.08
693.145	544.48
693.589	753.57
694.034	1224.98
694.478	1667.58
694.923	1879.78
695.367	2434.68
695.812	1294.78
696.256	542.37
696.701	398.77
697.145	369.17
697.59	353.07
698.034	348.17
698.478	349.27
698.922	343.07
699.367	354.97
699.811	359.08
700.255	372.77
700.699	409.38
701.143	450.38
701.588	509.87
702.032	558.28
702.476	555.77
702.92	522.07
703.364	531.77
703.808	691.37
704.252	1111.68
704.696	1575.08
705.14	1819.18
705.584	2302.48
706.027	1141.98
706.471	564.07
706.915	433.07
707.359	377.08
707.803	349.17
708.246	340.18
708.69	337.98
709.134	332.47
709.577	328.17
710.021	339.07
710.465	326.48
710.908	323.47
711.352	315.67
711.795	334.87
712.239	375.67
712.682	414.57
713.126	445.27
713.569	481.97
714.012	386.47
714.456	325.18
714.899	309.38
715.342	294.77
715.786	280.47
716.229	277.87
716.672	279.88
717.115	264.88
717.558	273.18
718.002	270.68
718.445	272.28
718.888	304.18
719.331	311.27
719.774	333.67
720.217	332.88
720.66	309.37
721.103	289.18
721.546	277.98
721.989	272.87
722.432	247.88
722.874	256.07
723.317	249.17
723.76	253.27
724.203	278.77
724.645	337.67
725.088	478.48
725.531	615.98
725.974	694.48
726.416	589.67
726.859	334.77
727.301	263.58
727.744	258.57
728.187	255.18
728.629	258.48
729.071	260.17
729.514	282.97
729.956	290.98
730.399	300.17
730.841	315.48
731.283	297.48
731.726	286.77
732.168	284.17
732.61	296.87
733.053	299.68
733.495	338.38
733.937	374.38
734.379	431.27
734.821	475.67
735.263	587.18
735.705	898.27
736.148	1691.68
736.59	2797.57
737.032	3312.57
737.474	2690.88
737.916	873.08
738.357	473.08
738.799	356.38
739.241	318.97
739.683	306.98
740.125	313.17
740.567	309.38
741.008	340.27
741.45	341.67
741.892	344.38
742.334	368.57
742.775	389.17
743.217	368.27
743.658	303.57
744.1	276.57
744.542	288.78
744.983	342.08
745.425	380.37
745.866	374.58
746.307	296.38
746.749	301.78
747.19	348.98
747.632	497.27
748.073	944.18
748.514	2019.58
748.956	3093.97
749.397	3868.08
749.838	3213.28
750.279	3213.28
750.72	1633.98
751.162	592.28
751.603	354.18
752.044	272.77
752.485	234.47
752.926	225.27
753.367	218.48
753.808	213.87
754.249	207.77
754.69	205.58
755.131	200.67
755.572	199.07
756.013	199.38
756.453	201.38
756.894	205.88
757.335	203.68
757.776	207.57
758.216	206.27
758.657	217.18
759.098	220.17
759.538	238.28
759.979	284.87
760.42	406.38
760.86	759.27
761.301	1971.78
761.741	4784.88
762.182	6956.88
762.622	4902.28
763.063	1419.78
763.503	576.98
763.943	350.77
764.384	308.07
764.824	288.07
765.264	280.08
765.705	238.37
766.145	201.38
766.585	189.88
767.025	186.07
767.465	179.77
767.906	197.97
768.346	226.68
768.786	242.77
769.226	236.47
769.666	325.27
770.106	664.98
770.546	1675.68
770.986	2862.38
771.426	2558.98
771.866	857.18
772.306	349.08
772.745	216.17
773.185	179.97
773.625	179.88
774.065	161.67
774.505	170.87
774.944	221.68
775.384	393.27
775.824	651.77
776.263	635.17
776.703	305.87
777.142	178.38
777.582	142.17
778.021	130.58
778.461	134.27
778.9	132.48
779.34	134.48
779.779	120.88
780.219	122.38
780.658	114.88
781.097	119.27
781.537	118.88
781.976	118.17
782.415	110.37
782.855	109.27
783.294	110.77
783.733	111.27
784.172	115.07
784.611	109.67
785.05	120.57
785.489	116.18
785.928	121.07
786.367	128.27
786.806	126.97
787.245	141.27
787.684	140.27
788.123	151.38
788.562	136.88
789.001	137.68
789.44	124.98
789.879	127.77
790.317	128.38
790.756	137.88
791.195	136.88
791.634	158.68
792.072	217.77
792.511	388.48
792.95	1062.47
793.388	2268.68
793.827	2056.38
794.265	723.58
794.704	303.78
795.142	190.48
795.581	161.07
796.019	145.88
796.458	127.98
796.896	129.67
797.334	141.38
797.773	163.67
798.211	236.27
798.649	470.98
799.087	1105.17
799.526	1728.28
799.964	2170.47
800.402	2175.08
800.84	811.17
801.278	325.88
801.716	205.18
802.154	165.57
802.592	164.27
803.03	155.08
803.468	145.48
803.906	156.48
804.344	165.38
804.782	154.38
805.22	148.57
805.658	143.88
806.096	164.58
806.533	170.27
806.971	197.27
807.409	235.77
807.847	340.27
808.284	713.68
808.722	2004.77
809.16	3580.68
809.597	3371.78
810.035	5856.28
810.472	6241.57
810.91	2256.68
811.347	862.27
811.785	437.77
812.222	273.27
812.66	211.98
813.097	180.37
813.535	153.87
813.972	135.67
814.409	124.88
814.846	117.18
815.284	112.57
815.721	110.38
816.158	109.18
816.595	116.77
817.032	161.47
817.47	194.17
817.907	143.98
818.344	114.37
818.781	111.48
819.218	101.88
819.655	135.88
820.092	199.88
820.529	238.87
820.966	178.77
821.403	138.88
821.839	100.17
822.276	101.88
822.713	131.07
823.15	142.58
823.587	128.77
824.023	149.88
824.46	322.88
824.897	963.57
825.333	1446.68
825.77	620.07
826.206	249.57
826.643	139.67
827.08	110.08
827.516	93.08
827.953	87.27
828.389	86.57
828.825	69.67
829.262	67.27
829.698	62.38
830.135	66.17
830.571	64.47
831.007	67.08
831.443	65.48
831.88	61.98
832.316	67.67
832.752	65.88
833.188	69.58
833.624	77.98
834.06	75.48
834.497	76.77
834.933	77.38
835.369	78.98
835.805	66.27
836.241	80.27
836.677	87.27
837.112	98.67
837.548	110.38
837.984	148.17
838.42	215.48
838.856	540.38
839.292	1615.68
839.727	2468.28
840.163	1153.78
840.599	996.28
841.034	2177.28
841.47	2285.88
841.906	836.68
842.341	349.38
842.777	214.88
843.212	220.07
843.648	204.17
844.083	121.27
844.519	86.58
844.954	77.18
845.39	62.27
845.825	51.07
846.261	58.18
846.696	64.77
847.131	59.77
847.566	56.17
848.002	57.88
848.437	57.38
848.872	64.38
849.307	64.68
849.742	93.88
850.177	191.27
850.613	593.57
851.048	953.88
851.483	405.48
851.918	168.77
852.353	89.97
852.788	60.47
853.223	58.77
853.657	57.07
854.092	44.58
854.527	42.88
854.962	46.27
855.397	47.08
855.832	51.57
856.266	42.68
856.701	42.68
857.136	40.58
857.57	47.68
858.005	50.08
858.44	59.48
858.874	47.18
859.309	51.58
859.743	43.07
860.178	44.57
860.612	44.97
861.047	57.17
861.481	73.27
861.915	75.58
862.35	56.57
862.784	37.87
863.218	39.77
863.653	34.27
864.087	48.77
864.521	60.08
864.955	68.38
865.39	160.37
865.824	178.77
866.258	118.58
866.692	178.27
867.126	190.88
867.56	120.57
867.994	61.07
868.428	42.77
868.862	53.58
869.296	66.27
869.73	61.47
870.164	58.07
870.598	51.77
871.031	41.27
871.465	33.47
871.899	29.08
872.333	23.58
872.766	25.77
873.2	26.97
873.634	32.88
874.067	26.67
874.501	25.67
874.935	38.67
875.368	33.17
875.802	34.38
876.235	28.38
876.669	27.27
877.102	28.98
877.535	27.27
877.969	23.88
878.402	27.97
878.836	17.88
879.269	26.98
879.702	25.17
880.135	22.37
880.569	17.17
881.002	24.08
881.435	23.47
881.868	18.67
882.301	27.58
882.734	19.07
883.167	26.08
883.601	19.38
884.034	22.47
884.467	16.77
884.899	28.57
885.332	25.08
885.765	17.18
886.198	19.77
886.631	24.77
887.064	20.48
887.497	19.07
887.929	26.38
888.362	24.27
888.795	14.47
889.228	20.27
889.66	14.97
890.093	19.77
890.526	14.17
890.958	20.77
891.391	19.27
891.823	20.17
892.256	17.77
892.688	16.47
893.121	19.27
893.553	18.38
893.985	22.57
894.418	19.17
894.85	13.08
895.282	12.07
895.715	15.17
896.147	21.18
896.579	17.88
897.011	15.68
897.444	22.98
897.876	14.38
898.308	18.47
898.74	17.18
899.172	20.08
899.604	23.68
900.036	17.17
900.468	18.38
900.9	13.88
901.332	17.97
901.764	15.67
902.196	18.58
902.628	19.38
903.06	18.27
903.491	33.48
903.923	19.98
904.355	26.08
904.787	23.27
905.218	20.27
905.65	18.27
906.082	12.17
906.513	10.57
906.945	16.38
907.376	17.87
907.808	19.77
908.239	25.27
908.671	13.98
909.102	18.27
909.534	25.77
909.965	57.48
910.397	98.77
910.828	337.47
911.259	508.98
911.691	231.88
912.122	118.98
912.553	54.57
912.984	33.77
913.415	28.68
913.847	26.88
914.278	10.57
914.709	17.47
915.14	13.27
915.571	16.98
916.002	8.67
916.433	18.98
916.864	19.27
917.295	15.38
917.726	19.98
918.157	13.97
918.587	32.98
919.018	25.58
919.449	17.88
919.88	22.27
920.311	32.17
920.741	49.87
921.172	181.08
921.603	164.67
922.033	73.67
922.464	47.08
922.895	22.57
923.325	18.67
923.756	21.17
924.186	9.77
924.617	22.98
925.047	23.98
925.478	26.58
925.908	24.98
926.338	16.17
926.769	13.38
927.199	16.08
927.629	7.98
928.06	21.98
928.49	14.58
928.92	10.38
929.35	12.27
929.78	10.67
930.21	5.47
930.641	4.17
931.071	11.57
931.501	-0.23
931.931	6.98
932.361	5.08
932.791	2.88
933.221	12.27
933.651	6.77
934.08	26.97
934.51	30.57
934.94	11.08
935.37	9.88
935.8	10.97
936.229	8.38
936.659	10.27
937.089	6.58
937.519	16.27
937.948	26.97
938.378	14.27
938.807	6.07
939.237	8.18
939.666	9.18
940.096	-0.83
940.525	2.27
940.955	2.98
941.384	3.88
941.814	-0.73
942.243	-2.52
942.672	1.77
943.102	-5.42
943.531	-4.02
943.96	2.88
944.39	4.47
944.819	-0.13
945.248	8.27
945.677	5.48
946.106	5.58
946.535	6.67
946.964	-1.33
947.393	3.27
947.822	5.38
948.251	-2.43
948.68	-1.42
949.109	2.47
949.538	11.68
949.967	0.77
950.396	4.97
950.825	-0.13
951.254	7.27
951.682	-5.73
952.111	5.67
952.54	4.98
952.969	0.07
953.397	0.47
953.826	-1.12
954.254	-8.93
954.683	0.27
955.112	-3.52
955.54	-2.12
955.969	0.77
956.397	2.98
956.826	-4.02
957.254	8.68
957.682	-1.43
958.111	0.57
958.539	-4.73
958.967	1.17
959.396	-1.13
959.824	4.88
960.252	5.47
960.68	-6.33
961.109	-2.53
961.537	-2.23
961.965	1.47
962.393	1.58
962.821	-0.32
963.249	5.57
963.677	5.08
964.105	8.27
964.533	46.38
964.961	38.07
965.389	20.08
965.817	9.87
966.245	-8.73
966.672	-4.73
967.1	-2.73
967.528	1.87
967.956	-6.02
968.383	-0.03
968.811	0.08
969.239	-1.53
969.666	-3.62
970.094	-3.92
970.522	-2.12
970.949	-0.03
971.377	-0.62
971.804	-2.33
972.232	-3.23
972.659	-2.52
973.087	-0.23
973.514	-1.83
973.941	-11.83
974.369	0.67
974.796	-1.02
975.223	-1.33
975.651	-2.32
976.078	7.77
976.505	2.17
976.932	3.27
977.359	19.57
977.786	17.38
978.214	1.38
978.641	-2.12
979.068	-2.73
979.495	-4.03
979.922	1.87
980.349	-1.12
980.776	1.07
981.202	3.47
981.629	7.48
982.056	0.37
982.483	-4.62
982.91	1.17
983.337	-10.83
983.763	-4.33
984.19	-3.53
984.617	-5.12
985.043	-9.83
985.47	-6.42
985.897	-3.73
986.323	-6.73
986.75	2.18
987.176	2.27
987.603	-2.53
988.029	-0.53
988.456	-7.53
988.882	7.48
989.308	-4.73
989.735	-2.83
990.161	-1.83
990.587	-6.13
991.014	-4.52
991.44	5.17
991.866	-2.62
992.292	-5.82
992.719	-3.73
993.145	-0.52
993.571	-11.23
993.997	-3.33
994.423	1.27
994.849	-6.23
995.275	0.18
995.701	4.88
996.127	-1.53
996.553	3.08
996.979	-5.33
997.405	-3.52
997.83	-9.62
998.256	-3.83
998.682	-7.12
999.108	-6.83
999.534	-5.53
999.959	-2.83
1000.385	1.17
1000.811	-0.93
1001.236	-8.83
1001.662	-8.73
1002.087	-6.62
1002.513	-2.63
1002.938	-3.62
1003.364	-3.92
1003.789	-3.33
1004.215	6.77
1004.64	-0.62
1005.066	0.88
1005.491	1.98
1005.916	-3.13
1006.342	-4.73
1006.767	-2.92
1007.192	1.77
1007.617	-5.83
1008.042	-9.73
1008.468	-9.62
1008.893	-2.42
1009.318	-6.33
1009.743	-0.23
1010.168	7.07
1010.593	1.98
1011.018	-10.92
1011.443	-7.83
1011.868	2.48
1012.293	-9.92
1012.718	-10.12
1013.143	0.37
1013.567	0.07
1013.992	-0.93
1014.417	-14.03
1014.842	-0.93
1015.267	-3.03
1015.691	-7.23
1016.116	2.47
1016.541	1.67
1016.965	2.37
1017.39	1.88
1017.814	-2.12
1018.239	5.27
1018.663	-5.12
1019.088	-10.73
1019.512	2.47
1019.937	-2.83
1020.361	-2.12
1020.785	-7.53
1021.21	-6.02
1021.634	-4.23
1022.058	-0.12
1022.483	-0.83
1022.907	-5.12
1023.331	-3.52
1023.755	-3.33
1024.179	-0.02
1024.604	-8.23
1025.028	-0.73
1025.452	-4.93
1025.876	1.57
1026.3	-1.43
1026.724	-12.43
1027.148	-5.23
1027.572	-5.23
1027.996	-8.73
1028.42	3.17
1028.843	-2.63
1029.267	-5.12
1029.691	-1.73
1030.115	-3.02
1030.539	-8.83
1030.962	-3.23
1031.386	-13.62
1031.81	-2.82
1032.233	-1.62
1032.657	-1.23
1033.08	-2.33
1033.504	-7.13
1033.927	-3.82
1034.351	-4.52
1034.774	-1.33
1035.198	-1.83
1035.621	-7.23
1036.045	-11.12
1036.468	2.27
1036.891	-14.53
1037.315	-9.33
1037.738	-12.02
1038.161	-4.23
1038.584	-7.73
1039.008	-7.12
1039.431	-2.73
1039.854	-3.83
1040.277	-9.23
1040.7	-10.23
1041.123	-0.62
1041.546	-10.12
1041.969	-6.33
1042.392	-2.62
1042.815	-4.13
1043.238	2.27
1043.661	-1.03
1044.084	-8.42
1044.507	-5.43
1044.93	-6.12
1045.352	-5.53
1045.775	-8.33
1046.198	-3.92
1046.621	2.77
1047.043	-4.32
1047.466	0.88
1047.889	-0.73
1048.311	-4.23
1048.734	-0.83
1049.156	-8.02
1049.579	1.07
1050.001	-4.23
1050.424	-2.63
1050.846	-4.83
1051.269	-5.42
1051.691	-7.42
1052.113	-6.12
1052.536	-2.83
1052.958	-5.52
1053.38	-2.43
1053.802	-13.03
1054.225	-0.23
1054.647	-5.52
1055.069	-8.53
1055.491	-1.42
1055.913	-11.93
1056.335	3.27
1056.757	-1.62
1057.179	-4.73
1057.601	-10.42
1058.023	-7.52
1058.445	-9.43
1058.867	-2.12
1059.289	-2.93
1059.711	-6.92
1060.133	-3.93
1060.555	-7.83
1060.976	-3.23
1061.398	-9.62
1061.82	-5.33
1062.241	-9.13
1062.663	-14.12
1063.085	-11.62
1063.506	-3.12
1063.928	-1.83
1064.35	-3.02
1064.771	-7.63
1065.193	-2.03
1065.614	-10.02
1066.035	2.68
1066.457	-3.93
1066.878	-4.93
1067.3	-5.83
1067.721	-3.62
1068.142	-3.63
1068.564	-4.83
1068.985	-7.33
1069.406	-4.73
1069.827	-7.33
1070.248	-2.33
1070.67	-6.93
1071.091	-11.02
1071.512	-6.63
1071.933	-4.83
1072.354	-14.02
1072.775	-7.33
1073.196	-3.23
1073.617	-6.93
1074.038	-9.73
1074.459	-1.82
1074.88	-12.12
1075.3	-0.23
1075.721	-11.63
1076.142	1.58
1076.563	-3.73
1076.983	-9.33
1077.404	-3.62
1077.825	-9.32
1078.246	-0.62
1078.666	-12.33
1079.087	0.68
1079.507	-5.53
1079.928	-4.43
1080.348	-2.62
1080.769	-4.12
1081.189	-1.82
1081.61	-4.52
1082.03	-9.02
1082.451	-4.93
1082.871	-3.82
1083.291	-7.53
1083.711	-6.62
1084.132	-8.52
1084.552	-4.12
1084.972	-0.52
1085.392	-8.43
1085.813	-11.43
1086.233	-7.23
1086.653	-8.23
1087.073	0.88
1087.493	-10.43
1087.913	-13.03
1088.333	-7.73
1088.753	-9.83
1089.173	-2.33
1089.593	-3.73
1090.013	3.27
1090.433	3.97
1090.852	-7.02
1091.272	-7.33
1091.692	-8.62
1092.112	-3.83
1092.531	-14.62
1092.951	-4.33
1093.371	-0.33
1093.79	3.38
1094.21	-5.23
1094.63	-7.12
1095.049	-4.23
1095.469	-3.33
1095.888	-1.23
1096.308	0.47
1096.727	1.48
1097.146	-1.52
1097.566	-2.12
1097.985	-7.43
1098.405	-3.92
1098.824	-5.62
1099.243	-7.02
1099.662	-7.43
1100.082	-5.52
1100.501	-3.93
1100.92	-5.93
1101.339	-8.73
1101.758	-7.62
