Data from 20171114-ORNL-Ar_H_NY_Subt18_08-05-21-225.txt Node
Date: Tue Nov 14 08:05:21 EST 2017
User: Ender
Spectrometer: HR+D1039
Trigger mode: 0
Integration Time (sec): 2.730000E-2
Scans to average: 10
Electric dark correction enabled: true
Nonlinearity correction enabled: false
Boxcar width: 0
XAxis mode: Wavelengths
Number of Pixels in Spectrum: 2048
>>>>>Begin Spectral Data<<<<<
187.836	-0.04
188.309	-0.04
188.782	-0.04
189.255	1.86
189.728	-1.24
190.201	2.66
190.674	1.26
191.147	1.36
191.619	-2.64
192.092	0.76
192.565	4.16
193.038	-0.94
193.511	0.76
193.984	1.86
194.456	-4.34
194.929	-3.14
195.402	-0.54
195.874	-1.74
196.347	-0.14
196.82	-8.04
197.292	5.46
197.765	-3.84
198.237	-12.74
198.71	-0.44
199.182	-1.64
199.655	-1.94
200.127	4.46
200.6	-0.24
201.072	-3.94
201.544	-4.34
202.017	-2.34
202.489	4.36
202.961	-7.24
203.433	-4.34
203.906	-10.34
204.378	-6.24
204.85	-3.94
205.322	-9.64
205.794	-1.34
206.266	-6.24
206.739	-3.94
207.211	8.16
207.683	-2.74
208.155	-4.74
208.627	-8.34
209.099	2.16
209.57	-0.54
210.042	-6.44
210.514	-1.34
210.986	-3.14
211.458	-9.34
211.93	-1.64
212.402	2.06
212.873	-4.24
213.345	-9.64
213.817	-14.34
214.288	-1.94
214.76	-8.54
215.232	-8.54
215.703	-6.24
216.175	0.46
216.646	-0.64
217.118	-6.44
217.589	-3.64
218.061	-3.34
218.532	-4.44
219.004	-3.24
219.475	-9.04
219.946	0.96
220.418	-2.54
220.889	4.66
221.36	1.16
221.832	-3.24
222.303	-4.44
222.774	2.06
223.245	-12.24
223.717	-4.24
224.188	-0.54
224.659	-5.84
225.13	-10.74
225.601	-0.44
226.072	-0.54
226.543	2.36
227.014	1.26
227.485	0.96
227.956	-3.84
228.427	-2.14
228.898	-0.84
229.369	3.66
229.839	-5.44
230.31	-0.74
230.781	6.26
231.252	-0.74
231.722	-3.74
232.193	-3.24
232.664	-2.24
233.135	6.06
233.605	1.66
234.076	-8.14
234.546	2.06
235.017	3.96
235.487	4.96
235.958	-3.24
236.428	-6.34
236.899	0.56
237.369	0.16
237.84	0.06
238.31	2.96
238.78	5.26
239.251	4.56
239.721	0.26
240.191	3.26
240.662	-2.84
241.132	0.26
241.602	6.36
242.072	7.86
242.542	6.86
243.013	2.96
243.483	6.36
243.953	6.66
244.423	5.66
244.893	-2.34
245.363	1.56
245.833	2.36
246.303	9.36
246.773	10.06
247.243	5.66
247.712	9.66
248.182	11.56
248.652	7.26
249.122	-2.04
249.592	14.96
250.061	23.46
250.531	33.26
251.001	20.66
251.471	29.16
251.94	19.56
252.41	8.56
252.879	-0.24
253.349	19.96
253.818	10.06
254.288	5.46
254.757	4.76
255.227	0.56
255.696	8.26
256.166	3.36
256.635	7.66
257.105	8.16
257.574	3.56
258.043	15.36
258.513	15.36
258.982	17.66
259.451	7.16
259.92	16.66
260.389	13.36
260.859	10.66
261.328	18.06
261.797	14.06
262.266	3.46
262.735	11.26
263.204	10.06
263.673	-0.54
264.142	7.06
264.611	0.56
265.08	0.96
265.549	6.16
266.018	11.96
266.487	-2.44
266.955	2.46
267.424	-0.04
267.893	9.06
268.362	3.16
268.83	5.26
269.299	13.96
269.768	8.86
270.236	9.76
270.705	4.86
271.174	17.26
271.642	8.16
272.111	11.46
272.579	17.86
273.048	26.96
273.516	38.16
273.985	31.56
274.453	29.26
274.922	19.86
275.39	10.46
275.858	3.66
276.327	9.76
276.795	19.26
277.263	10.46
277.731	36.06
278.2	59.86
278.668	64.46
279.136	53.66
279.604	23.56
280.072	20.86
280.54	11.66
281.008	6.76
281.477	17.16
281.945	13.06
282.413	18.06
282.881	11.36
283.348	16.56
283.816	16.36
284.284	13.76
284.752	24.86
285.22	19.06
285.688	18.06
286.156	20.36
286.623	46.56
287.091	55.16
287.559	32.96
288.026	24.96
288.494	11.36
288.962	10.46
289.429	15.36
289.897	19.16
290.364	12.36
290.832	21.46
291.3	18.86
291.767	15.46
292.234	23.06
292.702	14.86
293.169	20.76
293.637	21.06
294.104	20.66
294.571	13.16
295.039	10.86
295.506	17.96
295.973	18.06
296.44	16.36
296.908	18.16
297.375	22.16
297.842	20.06
298.309	19.56
298.776	18.96
299.243	23.26
299.71	18.86
300.177	24.26
300.644	28.06
301.111	23.96
301.578	30.16
302.045	20.06
302.512	29.76
302.979	31.86
303.446	22.36
303.913	19.06
304.379	18.96
304.846	29.26
305.313	25.66
305.78	27.46
306.246	29.86
306.713	35.36
307.18	27.96
307.646	34.96
308.113	34.46
308.579	28.66
309.046	25.46
309.512	31.86
309.979	21.96
310.445	32.66
310.912	28.76
311.378	36.36
311.845	29.46
312.311	36.16
312.777	34.56
313.244	33.76
313.71	43.36
314.176	34.86
314.642	30.76
315.109	36.96
315.575	44.06
316.041	43.66
316.507	33.26
316.973	39.96
317.439	37.16
317.905	41.56
318.371	36.36
318.837	38.96
319.303	43.46
319.769	34.86
320.235	39.96
320.701	34.86
321.167	38.76
321.633	36.06
322.099	40.36
322.564	45.56
323.03	45.96
323.496	39.36
323.962	43.56
324.427	40.66
324.893	46.16
325.359	43.36
325.824	35.86
326.29	36.06
326.755	41.76
327.221	42.46
327.686	37.66
328.152	44.36
328.617	47.86
329.083	44.86
329.548	54.96
330.014	48.66
330.479	40.46
330.944	51.26
331.41	45.36
331.875	44.96
332.34	47.96
332.805	46.26
333.271	52.46
333.736	43.66
334.201	55.66
334.666	53.96
335.131	58.16
335.596	53.56
336.061	53.46
336.526	43.76
336.991	50.66
337.456	57.06
337.921	52.76
338.386	47.56
338.851	42.36
339.316	45.26
339.781	49.66
340.246	50.36
340.711	49.46
341.175	55.16
341.64	46.86
342.105	54.36
342.569	58.96
343.034	60.76
343.499	54.56
343.963	53.76
344.428	64.76
344.893	66.36
345.357	60.36
345.822	59.86
346.286	77.86
346.751	81.96
347.215	67.36
347.679	81.36
348.144	99.96
348.608	83.56
349.073	70.06
349.537	72.86
350.001	79.76
350.465	85.76
350.93	86.46
351.394	84.16
351.858	70.56
352.322	91.36
352.786	96.06
353.25	97.36
353.715	108.26
354.179	105.46
354.643	123.46
355.107	120.26
355.571	103.36
356.035	104.36
356.498	124.66
356.962	134.16
357.426	137.26
357.89	113.26
358.354	94.36
358.818	88.26
359.281	78.86
359.745	85.56
360.209	77.16
360.673	79.46
361.136	85.06
361.6	84.66
362.064	81.36
362.527	87.66
362.991	96.56
363.454	82.86
363.918	76.36
364.381	76.66
364.845	87.36
365.308	86.76
365.772	84.76
366.235	90.36
366.698	88.16
367.162	88.86
367.625	86.46
368.088	94.96
368.552	86.46
369.015	86.16
369.478	93.76
369.941	97.86
370.404	96.16
370.867	103.06
371.331	105.66
371.794	116.36
372.257	105.86
372.72	124.96
373.183	115.96
373.646	111.96
374.109	107.16
374.572	110.16
375.035	99.06
375.497	107.16
375.96	110.76
376.423	108.96
376.886	109.96
377.349	105.46
377.811	104.96
378.274	98.96
378.737	107.46
379.199	114.06
379.662	113.66
380.125	118.26
380.587	114.16
381.05	121.36
381.512	131.56
381.975	137.56
382.437	131.16
382.9	131.36
383.362	135.06
383.825	138.36
384.287	148.36
384.75	146.16
385.212	134.56
385.674	140.86
386.136	133.56
386.599	130.16
387.061	121.76
387.523	126.86
387.985	131.06
388.447	144.96
388.91	148.46
389.372	165.06
389.834	153.66
390.296	142.46
390.758	153.46
391.22	170.56
391.682	206.16
392.144	300.06
392.606	234.46
393.068	170.26
393.529	162.56
393.991	153.26
394.453	146.36
394.915	152.46
395.377	197.56
395.838	217.86
396.3	155.76
396.762	141.36
397.224	129.06
397.685	136.36
398.147	129.96
398.608	130.16
399.07	128.16
399.531	129.96
399.993	138.56
400.454	153.66
400.916	144.86
401.377	144.06
401.839	154.46
402.3	151.36
402.762	163.86
403.223	179.16
403.684	170.76
404.145	158.26
404.607	154.36
405.068	160.86
405.529	173.86
405.99	187.96
406.451	176.16
406.913	168.96
407.374	164.76
407.835	158.86
408.296	164.16
408.757	167.16
409.218	178.26
409.679	174.76
410.14	178.46
410.601	172.16
411.062	182.36
411.522	186.56
411.983	191.76
412.444	175.56
412.905	173.56
413.366	179.26
413.826	191.56
414.287	213.46
414.748	255.36
415.208	237.86
415.669	206.96
416.13	202.86
416.59	204.06
417.051	209.56
417.511	212.96
417.972	234.06
418.432	245.86
418.893	278.56
419.353	251.16
419.814	197.36
420.274	182.76
420.734	172.56
421.195	202.06
421.655	183.46
422.115	191.76
422.576	190.56
423.036	194.56
423.496	204.16
423.956	210.96
424.416	226.46
424.876	260.96
425.336	257.56
425.797	268.26
426.257	250.66
426.717	237.86
427.177	232.76
427.637	222.66
428.097	228.56
428.556	242.36
429.016	264.56
429.476	255.96
429.936	271.46
430.396	277.06
430.856	289.06
431.315	314.06
431.775	341.96
432.235	382.06
432.694	345.76
433.154	360.76
433.614	380.46
434.073	329.26
434.533	281.96
434.993	268.86
435.452	277.66
435.912	294.46
436.371	284.96
436.83	286.16
437.29	275.86
437.749	242.96
438.209	249.36
438.668	271.96
439.127	284.26
439.587	250.86
440.046	239.66
440.505	255.26
440.964	269.66
441.424	313.26
441.883	300.26
442.342	258.56
442.801	217.26
443.26	216.86
443.719	211.66
444.178	212.06
444.637	207.96
445.096	207.76
445.555	215.26
446.014	229.26
446.473	220.76
446.932	233.26
447.391	224.16
447.849	225.86
448.308	217.26
448.767	220.66
449.226	237.86
449.685	231.36
450.143	246.06
450.602	234.16
451.061	221.66
451.519	232.96
451.978	233.26
452.436	233.86
452.895	244.56
453.353	249.56
453.812	238.36
454.27	237.26
454.729	230.96
455.187	239.56
455.646	242.26
456.104	245.16
456.562	251.86
457.021	268.56
457.479	260.26
457.937	262.36
458.395	259.76
458.854	242.56
459.312	254.76
459.77	269.36
460.228	256.26
460.686	237.66
461.144	244.06
461.602	236.06
462.06	228.46
462.518	247.36
462.976	253.16
463.434	258.96
463.892	262.66
464.35	267.06
464.808	292.56
465.266	262.76
465.724	270.76
466.181	272.86
466.639	268.66
467.097	283.06
467.555	296.36
468.012	302.76
468.47	301.16
468.928	321.86
469.385	335.66
469.843	347.36
470.3	344.86
470.758	361.36
471.215	374.36
471.673	404.46
472.13	401.66
472.588	420.46
473.045	369.76
473.503	373.46
473.96	391.66
474.417	400.26
474.875	431.86
475.332	460.06
475.789	460.56
476.246	461.76
476.704	487.26
477.161	507.56
477.618	518.96
478.075	554.46
478.532	615.36
478.989	684.86
479.446	802.56
479.903	762.26
480.36	803.16
480.817	867.76
481.274	983.06
481.731	1069.16
482.188	1160.26
482.645	1313.76
483.102	1406.16
483.558	1555.16
484.015	1607.46
484.472	1588.66
484.929	1532.96
485.385	1481.46
485.842	1436.56
486.299	1375.66
486.755	1290.66
487.212	1097.06
487.668	915.06
488.125	843.56
488.582	776.06
489.038	741.16
489.494	710.96
489.951	681.46
490.407	667.26
490.864	650.56
491.32	637.06
491.776	624.86
492.233	636.26
492.689	607.46
493.145	611.26
493.602	592.06
494.058	601.66
494.514	602.26
494.97	633.76
495.426	646.76
495.882	621.06
496.338	604.96
496.794	627.36
497.251	624.26
497.707	631.56
498.163	639.26
498.618	641.56
499.074	654.56
499.53	676.06
499.986	670.66
500.442	657.86
500.898	636.26
501.354	624.06
501.809	628.56
502.265	636.16
502.721	660.96
503.177	663.06
503.632	660.26
504.088	682.56
504.543	707.96
504.999	714.66
505.455	653.56
505.91	630.56
506.366	628.26
506.821	621.96
507.277	612.96
507.732	618.86
508.187	622.06
508.643	621.86
509.098	622.16
509.553	650.06
510.009	655.46
510.464	677.86
510.919	681.26
511.375	691.56
511.83	697.86
512.285	722.26
512.74	759.36
513.195	782.26
513.65	771.06
514.105	758.16
514.56	770.46
515.015	794.86
515.47	811.06
515.925	787.36
516.38	783.36
516.835	796.46
517.29	783.46
517.745	773.06
518.2	752.46
518.655	742.06
519.109	737.26
519.564	738.56
520.019	728.26
520.474	722.26
520.928	718.16
521.383	708.46
521.838	709.36
522.292	706.56
522.747	703.76
523.201	706.96
523.656	674.86
524.11	697.46
524.565	688.56
525.019	676.06
525.474	686.86
525.928	695.46
526.382	691.16
526.837	687.06
527.291	690.16
527.745	690.56
528.2	685.16
528.654	682.16
529.108	681.16
529.562	674.56
530.016	679.96
530.47	688.66
530.925	688.06
531.379	690.46
531.833	699.06
532.287	696.46
532.741	709.16
533.195	700.76
533.649	722.36
534.103	718.66
534.556	706.46
535.01	718.16
535.464	708.06
535.918	718.76
536.372	716.56
536.826	715.96
537.279	705.96
537.733	709.16
538.187	711.86
538.64	710.46
539.094	712.56
539.548	729.16
540.001	717.76
540.455	716.06
540.908	719.76
541.362	736.76
541.815	735.06
542.269	744.36
542.722	752.26
543.175	762.86
543.629	753.06
544.082	778.26
544.536	767.36
544.989	772.56
545.442	781.66
545.895	792.06
546.349	779.76
546.802	784.36
547.255	787.06
547.708	792.06
548.161	802.06
548.614	819.96
549.067	825.36
549.52	807.86
549.973	801.76
550.426	804.76
550.879	782.26
551.332	795.06
551.785	796.36
552.238	799.56
552.691	807.36
553.144	821.16
553.596	838.66
554.049	850.26
554.502	874.86
554.955	906.96
555.407	891.26
555.86	890.96
556.313	882.16
556.765	870.36
557.218	872.66
557.67	876.06
558.123	873.56
558.576	858.26
559.028	860.96
559.48	865.76
559.933	858.36
560.385	830.86
560.838	802.16
561.29	769.36
561.742	766.46
562.195	755.16
562.647	742.26
563.099	759.66
563.551	755.26
564.004	769.66
564.456	752.56
564.908	753.76
565.36	741.16
565.812	723.56
566.264	705.36
566.716	710.46
567.168	708.56
567.62	710.56
568.072	700.56
568.524	684.76
568.976	678.26
569.428	652.86
569.88	654.56
570.332	656.36
570.784	666.76
571.235	668.86
571.687	686.26
572.139	689.76
572.59	695.26
573.042	698.86
573.494	699.76
573.945	692.36
574.397	671.66
574.849	671.46
575.3	677.36
575.752	670.56
576.203	672.36
576.655	669.26
577.106	658.06
577.557	655.06
578.009	649.06
578.46	647.16
578.912	650.96
579.363	644.16
579.814	653.96
580.265	653.86
580.717	648.96
581.168	666.46
581.619	657.96
582.07	661.36
582.521	661.76
582.972	649.36
583.423	659.96
583.875	670.56
584.326	686.26
584.777	727.16
585.227	810.16
585.678	896.26
586.129	995.16
586.58	1071.46
587.031	1149.26
587.482	1314.36
587.933	1496.46
588.384	1306.36
588.834	971.26
589.285	783.76
589.736	765.16
590.186	762.66
590.637	745.36
591.088	718.56
591.538	710.66
591.989	711.36
592.439	708.26
592.89	710.16
593.34	692.56
593.791	693.36
594.241	685.06
594.692	688.76
595.142	695.66
595.593	687.06
596.043	691.96
596.493	684.76
596.943	698.96
597.394	707.66
597.844	693.66
598.294	704.76
598.744	726.26
599.195	749.86
599.645	795.06
600.095	818.96
600.545	873.86
600.995	933.56
601.445	987.56
601.895	1052.86
602.345	1093.76
602.795	1076.46
603.245	1023.56
603.695	973.56
604.145	926.96
604.594	877.16
605.044	817.66
605.494	760.56
605.944	725.66
606.393	714.26
606.843	702.56
607.293	710.36
607.743	709.06
608.192	713.46
608.642	741.46
609.091	748.66
609.541	748.76
609.99	746.36
610.44	743.66
610.889	706.06
611.339	680.56
611.788	668.26
612.238	672.46
612.687	697.26
613.136	696.66
613.586	718.36
614.035	714.86
614.484	729.66
614.933	741.66
615.383	723.46
615.832	717.26
616.281	703.16
616.73	661.36
617.179	638.26
617.628	627.36
618.077	609.26
618.526	602.76
618.975	598.36
619.424	591.86
619.873	583.06
620.322	593.26
620.771	577.66
621.22	587.46
621.669	571.66
622.118	563.46
622.567	560.26
623.015	542.66
623.464	554.16
623.913	545.36
624.361	540.26
624.81	525.56
625.259	530.16
625.707	540.06
626.156	533.06
626.604	540.76
627.053	536.96
627.501	545.96
627.95	542.06
628.398	550.36
628.847	551.86
629.295	547.46
629.744	549.86
630.192	552.16
630.64	542.16
631.089	539.36
631.537	566.66
631.985	566.26
632.433	580.26
632.881	590.36
633.33	640.26
633.778	619.96
634.226	547.86
634.674	553.76
635.122	556.16
635.57	576.16
636.018	603.16
636.466	570.86
636.914	533.86
637.362	547.46
637.81	539.46
638.258	549.96
638.705	551.86
639.153	583.36
639.601	581.36
640.049	614.46
640.497	643.96
640.944	656.76
641.392	617.66
641.84	585.56
642.287	558.16
642.735	543.66
643.182	548.76
643.63	556.86
644.078	549.86
644.525	562.06
644.973	563.76
645.42	580.76
645.867	593.96
646.315	610.86
646.762	636.06
647.21	662.26
647.657	682.26
648.104	713.36
648.551	738.56
648.999	794.86
649.446	868.06
649.893	962.36
650.34	1100.96
650.787	1314.96
651.234	1649.86
651.682	2141.96
652.129	2949.96
652.576	4233.56
653.023	6287.96
653.47	8663.06
653.917	10910.36
654.363	12641.06
654.81	14049.46
655.257	13400.26
655.704	8734.46
656.151	5141.16
656.598	3303.46
657.044	2364.56
657.491	1817.16
657.938	1443.36
658.385	1205.76
658.831	1043.96
659.278	924.26
659.724	828.66
660.171	758.36
660.618	688.36
661.064	652.36
661.511	642.56
661.957	622.26
662.404	602.26
662.85	622.46
663.296	594.56
663.743	540.36
664.189	516.06
664.635	513.46
665.082	495.86
665.528	497.36
665.974	494.56
666.42	485.36
666.867	477.36
667.313	471.16
667.759	460.96
668.205	459.26
668.651	465.66
669.097	460.46
669.543	486.46
669.989	447.56
670.435	425.26
670.881	421.66
671.327	421.46
671.773	448.76
672.219	466.56
672.665	508.46
673.11	549.76
673.556	589.86
674.002	632.76
674.448	622.86
674.893	516.96
675.339	450.56
675.785	416.76
676.23	406.86
676.676	364.46
677.122	368.66
677.567	356.56
678.013	338.86
678.458	335.16
678.904	342.96
679.349	324.86
679.794	333.76
680.24	327.26
680.685	323.76
681.131	332.36
681.576	318.86
682.021	335.76
682.466	330.46
682.912	326.86
683.357	328.86
683.802	357.46
684.247	384.46
684.692	429.56
685.137	464.96
685.583	499.26
686.028	519.96
686.473	489.86
686.918	426.06
687.363	391.86
687.807	370.76
688.252	344.16
688.697	331.56
689.142	315.26
689.587	305.96
690.032	308.56
690.477	319.76
690.921	324.26
691.366	357.16
691.811	378.86
692.255	409.96
692.7	430.06
693.145	472.76
693.589	638.66
694.034	1036.06
694.478	1430.96
694.923	1643.16
695.367	2140.76
695.812	1128.46
696.256	461.86
696.701	349.66
697.145	322.16
697.59	319.86
698.034	301.56
698.478	313.46
698.922	298.56
699.367	308.46
699.811	316.16
700.255	331.76
700.699	360.56
701.143	394.96
701.588	443.46
702.032	475.86
702.476	483.46
702.92	453.16
703.364	452.76
703.808	580.56
704.252	946.36
704.696	1344.06
705.14	1565.06
705.584	2015.06
706.027	989.46
706.471	484.76
706.915	372.86
707.359	329.36
707.803	286.76
708.246	292.66
708.69	293.56
709.134	292.96
709.577	285.96
710.021	295.16
710.465	284.46
710.908	276.06
711.352	280.26
711.795	287.66
712.239	333.66
712.682	361.76
713.126	394.56
713.569	445.76
714.012	348.76
714.456	292.16
714.899	283.96
715.342	257.06
715.786	241.76
716.229	240.26
716.672	242.16
717.115	230.06
717.558	242.36
718.002	243.16
718.445	245.06
718.888	267.86
719.331	274.36
719.774	288.96
720.217	286.66
720.66	270.26
721.103	251.76
721.546	234.66
721.989	241.96
722.432	224.66
722.874	218.76
723.317	216.96
723.76	220.76
724.203	238.06
724.645	296.16
725.088	409.56
725.531	524.06
725.974	597.86
726.416	509.96
726.859	289.36
727.301	227.16
727.744	219.26
728.187	216.86
728.629	221.96
729.071	226.76
729.514	247.86
729.956	251.76
730.399	264.36
730.841	266.06
731.283	258.26
731.726	252.66
732.168	241.06
732.61	245.26
733.053	261.56
733.495	291.46
733.937	320.96
734.379	361.66
734.821	394.86
735.263	491.06
735.705	757.66
736.148	1427.66
736.59	2374.76
737.032	2883.96
737.474	2341.56
737.916	751.66
738.357	400.86
738.799	303.06
739.241	285.06
739.683	258.36
740.125	267.66
740.567	273.56
741.008	294.46
741.45	295.86
741.892	289.26
742.334	327.36
742.775	327.66
743.217	317.06
743.658	247.56
744.1	236.26
744.542	240.06
744.983	285.26
745.425	327.06
745.866	323.46
746.307	268.56
746.749	264.56
747.19	299.16
747.632	413.26
748.073	789.36
748.514	1697.96
748.956	2633.56
749.397	3317.26
749.838	2760.76
750.279	2784.06
750.72	1400.56
751.162	507.96
751.603	299.56
752.044	239.76
752.485	203.36
752.926	194.66
753.367	188.16
753.808	176.26
754.249	179.36
754.69	175.26
755.131	176.46
755.572	175.96
756.013	162.86
756.453	171.06
756.894	177.56
757.335	179.36
757.776	181.56
758.216	182.56
758.657	181.76
759.098	191.56
759.538	205.46
759.979	255.86
760.42	337.36
760.86	633.16
761.301	1640.56
761.741	4027.66
762.182	6052.36
762.622	4275.36
763.063	1217.06
763.503	500.46
763.943	324.66
764.384	318.66
764.824	387.56
765.264	431.96
765.705	291.56
766.145	197.46
766.585	171.36
767.025	162.76
767.465	172.36
767.906	232.56
768.346	304.46
768.786	328.56
769.226	249.66
769.666	293.16
770.106	550.96
770.546	1409.06
770.986	2477.06
771.426	2237.36
771.866	735.46
772.306	303.16
772.745	189.76
773.185	166.56
773.625	154.96
774.065	155.26
774.505	184.26
774.944	295.16
775.384	643.36
775.824	1204.76
776.263	1189.96
776.703	494.66
777.142	213.36
777.582	146.36
778.021	127.16
778.461	134.56
778.9	137.86
779.34	118.46
779.779	100.66
780.219	98.26
780.658	100.96
781.097	105.96
781.537	107.96
781.976	103.76
782.415	98.56
782.855	97.86
783.294	98.26
783.733	98.46
784.172	94.16
784.611	95.06
785.05	92.86
785.489	102.86
785.928	108.26
786.367	106.86
786.806	106.36
787.245	120.36
787.684	124.06
788.123	145.16
788.562	126.36
789.001	120.96
789.44	119.76
789.879	114.66
790.317	113.66
790.756	123.16
791.195	115.66
791.634	137.06
792.072	182.06
792.511	318.36
792.95	910.96
793.388	1989.26
793.827	1844.96
794.265	632.46
794.704	257.46
795.142	168.36
795.581	140.56
796.019	128.56
796.458	117.16
796.896	116.76
797.334	120.06
797.773	140.66
798.211	192.16
798.649	383.06
799.087	922.96
799.526	1468.16
799.964	1848.86
800.402	1900.86
800.84	702.66
801.278	273.86
801.716	182.96
802.154	144.66
802.592	137.06
803.03	130.26
803.468	127.06
803.906	131.06
804.344	144.26
804.782	127.56
805.22	119.96
805.658	124.56
806.096	131.76
806.533	147.26
806.971	158.96
807.409	194.46
807.847	289.86
808.284	594.56
808.722	1678.56
809.16	3067.66
809.597	2827.86
810.035	5009.46
810.472	5493.16
810.91	1959.46
811.347	738.06
811.785	371.36
812.222	247.06
812.66	180.26
813.097	156.96
813.535	131.36
813.972	123.16
814.409	108.96
814.846	105.16
815.284	94.76
815.721	99.66
816.158	98.96
816.595	112.36
817.032	167.76
817.47	189.96
817.907	170.16
818.344	143.46
818.781	106.96
819.218	94.96
819.655	108.96
820.092	172.16
820.529	201.06
820.966	159.26
821.403	123.26
821.839	102.76
822.276	100.06
822.713	110.26
823.15	128.46
823.587	113.86
824.023	134.26
824.46	275.06
824.897	817.86
825.333	1270.76
825.77	537.06
826.206	215.36
826.643	125.16
827.08	95.86
827.516	75.36
827.953	70.56
828.389	75.86
828.825	62.46
829.262	63.26
829.698	56.86
830.135	59.46
830.571	58.66
831.007	59.26
831.443	54.96
831.88	62.86
832.316	55.66
832.752	59.26
833.188	60.46
833.624	60.86
834.06	62.26
834.497	64.66
834.933	62.86
835.369	64.96
835.805	60.86
836.241	70.66
836.677	72.46
837.112	77.86
837.548	93.36
837.984	120.76
838.42	176.16
838.856	440.16
839.292	1390.66
839.727	2165.56
840.163	999.36
840.599	825.06
841.034	1870.06
841.47	2007.86
841.906	726.86
842.341	320.76
842.777	214.76
843.212	302.86
843.648	309.96
844.083	147.96
844.519	101.96
844.954	73.36
845.39	60.86
845.825	48.36
846.261	53.16
846.696	54.56
847.131	56.46
847.566	54.46
848.002	45.76
848.437	49.26
848.872	56.66
849.307	60.26
849.742	84.06
850.177	163.06
850.613	506.96
851.048	824.96
851.483	350.66
851.918	145.36
852.353	87.26
852.788	51.46
853.223	58.56
853.657	51.96
854.092	45.36
854.527	37.76
854.962	36.76
855.397	41.56
855.832	44.56
856.266	38.16
856.701	34.86
857.136	39.06
857.57	40.06
858.005	48.26
858.44	56.76
858.874	39.66
859.309	51.56
859.743	41.26
860.178	49.86
860.612	38.86
861.047	44.46
861.481	66.86
861.915	61.66
862.35	45.26
862.784	34.96
863.218	37.86
863.653	34.96
864.087	42.16
864.521	49.86
864.955	61.16
865.39	147.26
865.824	170.96
866.258	109.66
866.692	151.06
867.126	163.66
867.56	97.46
867.994	46.06
868.428	32.96
868.862	42.86
869.296	48.86
869.73	54.26
870.164	52.46
870.598	38.66
871.031	36.56
871.465	27.76
871.899	32.96
872.333	22.36
872.766	25.16
873.2	19.86
873.634	27.16
874.067	22.66
874.501	17.86
874.935	28.76
875.368	29.06
875.802	27.66
876.235	22.16
876.669	22.46
877.102	23.46
877.535	25.36
877.969	22.86
878.402	21.26
878.836	21.16
879.269	23.06
879.702	29.46
880.135	18.56
880.569	18.56
881.002	26.46
881.435	20.56
881.868	18.56
882.301	23.26
882.734	15.56
883.167	24.96
883.601	23.46
884.034	16.76
884.467	12.16
884.899	14.46
885.332	16.06
885.765	9.86
886.198	17.56
886.631	16.66
887.064	19.76
887.497	21.16
887.929	18.56
888.362	11.06
888.795	6.76
889.228	15.56
889.66	13.46
890.093	11.26
890.526	22.06
890.958	15.86
891.391	14.36
891.823	22.06
892.256	15.96
892.688	9.46
893.121	18.96
893.553	18.16
893.985	19.16
894.418	22.76
894.85	11.46
895.282	9.86
895.715	18.46
896.147	16.96
896.579	7.96
897.011	13.76
897.444	14.96
897.876	6.26
898.308	18.06
898.74	15.36
899.172	10.16
899.604	17.66
900.036	19.16
900.468	19.06
900.9	20.36
901.332	16.86
901.764	11.96
902.196	16.76
902.628	16.06
903.06	14.56
903.491	24.46
903.923	18.56
904.355	21.46
904.787	22.46
905.218	19.06
905.65	18.86
906.082	14.76
906.513	11.76
906.945	12.36
907.376	16.46
907.808	17.66
908.239	20.06
908.671	20.86
909.102	20.86
909.534	21.96
909.965	38.46
910.397	85.56
910.828	290.56
911.259	448.96
911.691	201.16
912.122	95.46
912.553	51.06
912.984	35.26
913.415	20.16
913.847	26.36
914.278	17.66
914.709	12.36
915.14	13.16
915.571	16.66
916.002	13.26
916.433	14.36
916.864	11.46
917.295	14.06
917.726	20.26
918.157	10.76
918.587	28.06
919.018	21.36
919.449	18.76
919.88	16.56
920.311	27.76
920.741	39.46
921.172	151.16
921.603	136.16
922.033	67.26
922.464	43.06
922.895	20.66
923.325	16.86
923.756	12.96
924.186	18.36
924.617	26.06
925.047	43.86
925.478	51.06
925.908	39.36
926.338	19.26
926.769	19.86
927.199	24.46
927.629	8.76
928.06	21.56
928.49	12.56
928.92	14.66
929.35	11.66
929.78	12.66
930.21	5.06
930.641	3.16
931.071	15.96
931.501	4.96
931.931	7.96
932.361	4.96
932.791	2.46
933.221	6.36
933.651	-0.64
934.08	13.56
934.51	26.86
934.94	13.76
935.37	10.16
935.8	10.46
936.229	5.26
936.659	11.26
937.089	2.06
937.519	14.16
937.948	12.66
938.378	12.26
938.807	1.76
939.237	2.46
939.666	8.16
940.096	-3.84
940.525	-2.64
940.955	-2.34
941.384	2.26
941.814	-7.44
942.243	-6.34
942.672	-2.74
943.102	-5.04
943.531	2.26
943.96	4.86
944.39	-0.34
944.819	4.36
945.248	2.16
945.677	1.36
946.106	4.46
946.535	5.76
946.964	1.36
947.393	-0.54
947.822	4.16
948.251	-1.84
948.68	0.96
949.109	4.66
949.538	7.76
949.967	-2.34
950.396	0.36
950.825	-2.44
951.254	-2.94
951.682	-9.94
952.111	0.86
952.54	4.76
952.969	-3.74
953.397	-7.74
953.826	1.46
954.254	-2.54
954.683	1.96
955.112	1.36
955.54	-2.24
955.969	-4.34
956.397	0.46
956.826	-4.44
957.254	6.96
957.682	5.26
958.111	2.76
958.539	-0.64
958.967	0.46
959.396	-0.64
959.824	2.06
960.252	7.46
960.68	-5.24
961.109	-3.14
961.537	-7.74
961.965	-5.34
962.393	-2.74
962.821	-5.34
963.249	-2.34
963.677	2.86
964.105	5.56
964.533	45.16
964.961	39.86
965.389	21.26
965.817	9.46
966.245	-1.54
966.672	-2.04
967.1	-5.94
967.528	0.36
967.956	-0.24
968.383	2.66
968.811	1.26
969.239	-0.94
969.666	-2.44
970.094	5.16
970.522	4.56
970.949	-3.14
971.377	0.26
971.804	-5.14
972.232	-0.94
972.659	-6.94
973.087	-2.24
973.514	-3.44
973.941	-10.44
974.369	-1.04
974.796	2.36
975.223	-3.64
975.651	-3.24
976.078	5.06
976.505	-2.64
976.932	5.96
977.359	11.76
977.786	15.36
978.214	-6.44
978.641	1.26
979.068	-9.84
979.495	-1.64
979.922	-0.74
980.349	-3.94
980.776	4.86
981.202	-0.34
981.629	8.06
982.056	8.16
982.483	0.56
982.91	3.26
983.337	0.16
983.763	-0.74
984.19	-4.04
984.617	3.46
985.043	-6.14
985.47	0.06
985.897	-3.64
986.323	-6.84
986.75	4.86
987.176	-5.64
987.603	1.66
988.029	-1.84
988.456	3.06
988.882	3.06
989.308	-6.04
989.735	-4.64
990.161	1.46
990.587	2.86
991.014	0.26
991.44	-0.14
991.866	-6.04
992.292	-5.54
992.719	-4.54
993.145	0.06
993.571	-10.74
993.997	-3.54
994.423	0.56
994.849	-6.94
995.275	-0.54
995.701	0.06
996.127	-5.14
996.553	3.96
996.979	-2.44
997.405	-3.44
997.83	-5.94
998.256	-3.54
998.682	-3.44
999.108	-11.74
999.534	-0.84
999.959	-1.74
1000.385	-5.44
1000.811	0.76
1001.236	-3.34
1001.662	-5.74
1002.087	-11.04
1002.513	-0.14
1002.938	-0.04
1003.364	1.46
1003.789	0.06
1004.215	0.36
1004.64	-0.64
1005.066	3.56
1005.491	1.06
1005.916	2.46
1006.342	-3.44
1006.767	-6.04
1007.192	4.06
1007.617	-2.04
1008.042	-5.74
1008.468	-4.44
1008.893	-0.34
1009.318	0.86
1009.743	-1.14
1010.168	4.76
1010.593	-6.74
1011.018	-10.64
1011.443	-6.04
1011.868	-1.84
1012.293	2.16
1012.718	-6.34
1013.143	-2.44
1013.567	-0.64
1013.992	-3.14
1014.417	-13.04
1014.842	0.16
1015.267	-6.54
1015.691	-3.84
1016.116	3.36
1016.541	-0.64
1016.965	2.76
1017.39	5.56
1017.814	0.76
1018.239	2.16
1018.663	-5.94
1019.088	-9.34
1019.512	1.66
1019.937	-3.54
1020.361	-5.64
1020.785	-3.74
1021.21	-2.44
1021.634	-1.84
1022.058	2.16
1022.483	2.76
1022.907	-2.24
1023.331	-0.14
1023.755	0.56
1024.179	-1.74
1024.604	-8.74
1025.028	-1.04
1025.452	-4.24
1025.876	-2.84
1026.3	0.56
1026.724	-11.74
1027.148	-3.34
1027.572	-6.14
1027.996	-8.04
1028.42	-7.74
1028.843	-9.34
1029.267	-3.74
1029.691	-5.44
1030.115	-12.64
1030.539	-4.94
1030.962	-2.74
1031.386	-7.64
1031.81	1.16
1032.233	-3.14
1032.657	-1.04
1033.08	0.16
1033.504	-4.44
1033.927	-5.64
1034.351	0.76
1034.774	-3.64
1035.198	0.36
1035.621	-5.24
1036.045	-3.44
1036.468	-1.34
1036.891	-7.04
1037.315	-9.54
1037.738	-7.44
1038.161	1.26
1038.584	-4.54
1039.008	-4.44
1039.431	-3.04
1039.854	0.86
1040.277	-9.54
1040.7	-10.14
1041.123	5.36
1041.546	-4.54
1041.969	-6.64
1042.392	-7.24
1042.815	-4.84
1043.238	1.96
1043.661	6.76
1044.084	-4.74
1044.507	1.96
1044.93	-8.24
1045.352	-9.14
1045.775	1.56
1046.198	-2.64
1046.621	0.76
1047.043	0.46
1047.466	3.06
1047.889	-6.64
1048.311	-8.44
1048.734	-1.14
1049.156	3.66
1049.579	-1.24
1050.001	-7.54
1050.424	1.06
1050.846	-3.04
1051.269	-3.14
1051.691	-10.44
1052.113	-6.04
1052.536	1.46
1052.958	-5.24
1053.38	-7.34
1053.802	-8.04
1054.225	5.06
1054.647	-9.44
1055.069	-3.34
1055.491	1.66
1055.913	-8.44
1056.335	-3.74
1056.757	-10.24
1057.179	-5.94
1057.601	-2.94
1058.023	-5.74
1058.445	-5.94
1058.867	0.06
1059.289	-2.24
1059.711	-3.84
1060.133	-5.04
1060.555	-8.34
1060.976	-6.34
1061.398	-10.24
1061.82	-6.54
1062.241	-4.44
1062.663	-6.94
1063.085	-2.34
1063.506	-5.64
1063.928	-5.84
1064.35	0.06
1064.771	-9.74
1065.193	0.06
1065.614	-7.64
1066.035	-4.94
1066.457	-6.84
1066.878	0.56
1067.3	-8.94
1067.721	-9.44
1068.142	-0.64
1068.564	-5.44
1068.985	-4.94
1069.406	-5.24
1069.827	-2.24
1070.248	-0.34
1070.67	-7.54
1071.091	-9.14
1071.512	-1.84
1071.933	-3.64
1072.354	-3.74
1072.775	-9.94
1073.196	-12.64
1073.617	-4.14
1074.038	-5.84
1074.459	-3.34
1074.88	-5.74
1075.3	-1.24
1075.721	-7.84
1076.142	3.26
1076.563	1.66
1076.983	-6.64
1077.404	-3.44
1077.825	-5.64
1078.246	-2.44
1078.666	-16.24
1079.087	-6.44
1079.507	-4.84
1079.928	1.36
1080.348	-5.94
1080.769	-5.24
1081.189	-0.44
1081.61	-0.94
1082.03	-5.24
1082.451	-7.64
1082.871	-8.44
1083.291	-3.04
1083.711	-8.14
1084.132	-4.64
1084.552	-3.54
1084.972	0.86
1085.392	-13.04
1085.813	-13.64
1086.233	-7.74
1086.653	-3.34
1087.073	-1.14
1087.493	-8.64
1087.913	-9.44
1088.333	-11.74
1088.753	-5.54
1089.173	-0.74
1089.593	-3.64
1090.013	1.26
1090.433	2.36
1090.852	-7.64
1091.272	-2.94
1091.692	-1.14
1092.112	-3.74
1092.531	-6.74
1092.951	-11.14
1093.371	-0.74
1093.79	-2.44
1094.21	-7.84
1094.63	-4.54
1095.049	-5.44
1095.469	-7.54
1095.888	2.36
1096.308	5.46
1096.727	-0.34
1097.146	-2.74
1097.566	0.96
1097.985	-8.24
1098.405	-1.34
1098.824	-7.84
1099.243	-1.74
1099.662	-5.84
1100.082	-1.64
1100.501	-1.74
1100.92	-11.54
1101.339	-5.94
1101.758	-3.14
