Data from 20171114-ORNL-Ar_H_NY_Subt18_08-08-24-392.txt Node
Date: Tue Nov 14 08:08:24 EST 2017
User: Ender
Spectrometer: HR+D1039
Trigger mode: 0
Integration Time (sec): 2.730000E-2
Scans to average: 10
Electric dark correction enabled: true
Nonlinearity correction enabled: false
Boxcar width: 0
XAxis mode: Wavelengths
Number of Pixels in Spectrum: 2048
>>>>>Begin Spectral Data<<<<<
187.836	-5.57
188.309	-5.57
188.782	-5.57
189.255	-0.57
189.728	-1.67
190.201	6.13
190.674	3.83
191.147	0.03
191.619	-3.47
192.092	-0.87
192.565	6.83
193.038	3.23
193.511	-1.27
193.984	4.63
194.456	-6.47
194.929	0.53
195.402	-2.67
195.874	-2.67
196.347	-0.37
196.82	-8.47
197.292	11.93
197.765	-7.17
198.237	-5.87
198.71	-1.57
199.182	0.03
199.655	4.93
200.127	1.53
200.6	3.53
201.072	-1.97
201.544	2.63
202.017	-3.47
202.489	1.33
202.961	-1.87
203.433	-7.27
203.906	-3.37
204.378	-7.77
204.85	-5.67
205.322	-10.27
205.794	1.03
206.266	0.43
206.739	-6.07
207.211	2.03
207.683	-11.37
208.155	-9.97
208.627	-5.27
209.099	-3.77
209.57	-7.27
210.042	-4.77
210.514	-7.97
210.986	0.23
211.458	-7.67
211.93	-3.47
212.402	7.33
212.873	-7.87
213.345	-8.27
213.817	-10.77
214.288	-8.97
214.76	-13.37
215.232	0.93
215.703	-1.47
216.175	-4.47
216.646	-4.57
217.118	-4.97
217.589	-0.37
218.061	-1.17
218.532	-10.27
219.004	-0.47
219.475	-7.87
219.946	-3.77
220.418	-7.47
220.889	2.33
221.36	3.73
221.832	-6.47
222.303	-7.37
222.774	0.23
223.245	-6.67
223.717	-2.17
224.188	1.63
224.659	-5.97
225.13	-4.27
225.601	-6.07
226.072	3.83
226.543	-1.47
227.014	-9.97
227.485	-6.07
227.956	-6.17
228.427	-1.27
228.898	-1.37
229.369	1.83
229.839	-5.47
230.31	-12.07
230.781	0.13
231.252	-4.87
231.722	-5.77
232.193	1.03
232.664	2.73
233.135	-2.27
233.605	-0.67
234.076	-5.47
234.546	3.03
235.017	-0.77
235.487	-1.17
235.958	-7.87
236.428	-5.17
236.899	4.83
237.369	-4.97
237.84	-5.97
238.31	3.93
238.78	2.63
239.251	-4.77
239.721	-2.07
240.191	-5.07
240.662	-3.27
241.132	-3.77
241.602	-0.67
242.072	-1.07
242.542	2.03
243.013	-4.97
243.483	2.13
243.953	-1.57
244.423	-0.07
244.893	-4.17
245.363	4.63
245.833	4.93
246.303	-0.77
246.773	3.93
247.243	-0.67
247.712	4.03
248.182	5.13
248.652	2.83
249.122	-4.97
249.592	3.13
250.061	9.53
250.531	19.63
251.001	7.13
251.471	11.13
251.94	11.23
252.41	-0.87
252.879	-2.57
253.349	9.03
253.818	3.63
254.288	4.83
254.757	7.73
255.227	-2.67
255.696	1.93
256.166	4.43
256.635	6.93
257.105	8.03
257.574	2.53
258.043	5.53
258.513	5.43
258.982	13.73
259.451	1.23
259.92	4.43
260.389	3.83
260.859	6.63
261.328	10.73
261.797	10.93
262.266	7.13
262.735	6.63
263.204	3.63
263.673	-0.37
264.142	5.73
264.611	-3.87
265.08	-1.57
265.549	-0.87
266.018	5.63
266.487	-7.17
266.955	-3.67
267.424	1.03
267.893	-2.67
268.362	4.13
268.83	3.53
269.299	10.03
269.768	4.43
270.236	5.73
270.705	1.73
271.174	-0.07
271.642	6.03
272.111	-0.87
272.579	9.43
273.048	14.73
273.516	16.33
273.985	10.83
274.453	13.33
274.922	17.53
275.39	3.43
275.858	1.33
276.327	7.43
276.795	11.23
277.263	5.93
277.731	22.33
278.2	26.03
278.668	29.93
279.136	30.93
279.604	14.73
280.072	10.63
280.54	5.93
281.008	11.23
281.477	19.73
281.945	10.53
282.413	10.03
282.881	13.23
283.348	7.33
283.816	11.33
284.284	8.33
284.752	17.73
285.22	13.03
285.688	11.73
286.156	11.03
286.623	30.43
287.091	25.53
287.559	15.53
288.026	16.73
288.494	10.23
288.962	4.23
289.429	7.63
289.897	14.13
290.364	8.13
290.832	12.63
291.3	14.53
291.767	13.93
292.234	14.13
292.702	10.13
293.169	13.93
293.637	18.13
294.104	17.83
294.571	8.93
295.039	9.43
295.506	10.03
295.973	19.23
296.44	12.43
296.908	11.03
297.375	14.53
297.842	14.43
298.309	17.73
298.776	13.43
299.243	21.93
299.71	9.43
300.177	13.23
300.644	20.83
301.111	19.13
301.578	16.53
302.045	15.33
302.512	15.43
302.979	22.73
303.446	25.13
303.913	21.53
304.379	16.33
304.846	31.53
305.313	25.43
305.78	23.63
306.246	30.13
306.713	25.13
307.18	19.03
307.646	22.33
308.113	23.73
308.579	22.83
309.046	19.53
309.512	19.53
309.979	17.73
310.445	27.33
310.912	29.63
311.378	26.53
311.845	28.03
312.311	28.33
312.777	33.03
313.244	29.53
313.71	35.23
314.176	30.93
314.642	24.13
315.109	28.13
315.575	31.13
316.041	34.73
316.507	28.43
316.973	34.53
317.439	34.13
317.905	36.93
318.371	34.63
318.837	32.13
319.303	35.93
319.769	36.23
320.235	29.43
320.701	35.03
321.167	40.23
321.633	26.23
322.099	30.23
322.564	39.43
323.03	36.13
323.496	38.73
323.962	44.93
324.427	35.83
324.893	43.63
325.359	36.83
325.824	37.33
326.29	33.63
326.755	40.33
327.221	37.53
327.686	37.63
328.152	44.03
328.617	48.03
329.083	42.83
329.548	51.93
330.014	43.13
330.479	36.53
330.944	48.33
331.41	43.13
331.875	46.13
332.34	35.43
332.805	40.53
333.271	39.63
333.736	42.03
334.201	53.73
334.666	48.33
335.131	50.33
335.596	51.03
336.061	44.23
336.526	40.93
336.991	45.63
337.456	59.93
337.921	45.63
338.386	40.33
338.851	50.53
339.316	43.73
339.781	49.43
340.246	55.83
340.711	54.23
341.175	43.33
341.64	49.63
342.105	52.43
342.569	56.53
343.034	54.53
343.499	52.73
343.963	50.23
344.428	59.43
344.893	64.23
345.357	60.13
345.822	63.53
346.286	69.33
346.751	69.23
347.215	67.33
347.679	73.03
348.144	100.23
348.608	83.93
349.073	68.43
349.537	72.23
350.001	78.73
350.465	87.73
350.93	80.93
351.394	82.23
351.858	73.33
352.322	90.73
352.786	86.63
353.25	106.73
353.715	114.63
354.179	97.53
354.643	122.23
355.107	126.93
355.571	111.43
356.035	105.33
356.498	117.63
356.962	118.13
357.426	134.43
357.89	118.03
358.354	92.03
358.818	82.43
359.281	90.43
359.745	73.63
360.209	73.63
360.673	70.23
361.136	78.73
361.6	87.13
362.064	85.73
362.527	82.63
362.991	87.73
363.454	78.33
363.918	75.43
364.381	77.13
364.845	85.33
365.308	85.83
365.772	90.53
366.235	87.83
366.698	85.33
367.162	88.83
367.625	81.43
368.088	86.83
368.552	92.63
369.015	89.03
369.478	100.53
369.941	99.23
370.404	95.93
370.867	103.63
371.331	101.53
371.794	114.43
372.257	102.03
372.72	117.33
373.183	105.53
373.646	100.23
374.109	102.33
374.572	104.03
375.035	109.43
375.497	111.13
375.96	107.63
376.423	103.93
376.886	110.83
377.349	114.13
377.811	101.03
378.274	111.23
378.737	110.33
379.199	107.73
379.662	111.83
380.125	116.93
380.587	109.33
381.05	117.93
381.512	127.23
381.975	124.73
382.437	125.23
382.9	124.23
383.362	126.33
383.825	140.43
384.287	145.33
384.75	131.63
385.212	130.53
385.674	140.63
386.136	136.53
386.599	123.93
387.061	123.03
387.523	130.83
387.985	136.03
388.447	135.83
388.91	134.03
389.372	144.23
389.834	145.43
390.296	141.53
390.758	144.93
391.22	156.83
391.682	187.23
392.144	232.23
392.606	199.23
393.068	163.03
393.529	160.63
393.991	147.93
394.453	141.23
394.915	150.83
395.377	162.93
395.838	176.33
396.3	148.83
396.762	140.53
397.224	135.53
397.685	132.93
398.147	131.53
398.608	132.93
399.07	136.43
399.531	138.53
399.993	158.43
400.454	159.03
400.916	150.23
401.377	149.53
401.839	159.73
402.3	155.93
402.762	173.33
403.223	187.73
403.684	169.13
404.145	161.93
404.607	169.13
405.068	169.43
405.529	173.83
405.99	194.13
406.451	173.83
406.913	184.53
407.374	171.73
407.835	164.53
408.296	171.53
408.757	174.93
409.218	197.93
409.679	189.83
410.14	175.43
410.601	180.53
411.062	185.13
411.522	184.43
411.983	192.73
412.444	187.23
412.905	179.23
413.366	183.93
413.826	191.53
414.287	225.03
414.748	270.53
415.208	252.33
415.669	222.33
416.13	214.83
416.59	202.83
417.051	220.73
417.511	229.63
417.972	248.73
418.432	257.33
418.893	308.93
419.353	261.53
419.814	209.03
420.274	193.73
420.734	197.33
421.195	208.73
421.655	200.93
422.115	203.33
422.576	202.23
423.036	216.73
423.496	218.03
423.956	221.03
424.416	243.23
424.876	279.83
425.336	277.33
425.797	280.73
426.257	273.33
426.717	251.33
427.177	238.23
427.637	229.33
428.097	237.93
428.556	246.23
429.016	278.63
429.476	266.93
429.936	286.63
430.396	292.63
430.856	301.13
431.315	326.73
431.775	356.83
432.235	393.33
432.694	359.53
433.154	369.93
433.614	411.23
434.073	353.13
434.533	295.83
434.993	276.23
435.452	297.13
435.912	306.53
436.371	296.93
436.83	300.33
437.29	282.03
437.749	261.93
438.209	257.53
438.668	290.63
439.127	300.43
439.587	275.33
440.046	259.83
440.505	269.23
440.964	293.93
441.424	339.73
441.883	329.23
442.342	274.13
442.801	234.83
443.26	235.03
443.719	232.83
444.178	230.53
444.637	219.13
445.096	231.33
445.555	237.33
446.014	232.03
446.473	247.53
446.932	251.13
447.391	236.63
447.849	236.63
448.308	228.73
448.767	222.83
449.226	243.43
449.685	243.73
450.143	262.83
450.602	246.43
451.061	233.83
451.519	241.83
451.978	250.03
452.436	237.23
452.895	248.53
453.353	268.33
453.812	254.03
454.27	246.23
454.729	253.23
455.187	254.23
455.646	260.83
456.104	268.43
456.562	281.93
457.021	284.03
457.479	273.23
457.937	284.53
458.395	273.33
458.854	261.63
459.312	266.23
459.77	291.63
460.228	271.93
460.686	254.13
461.144	262.33
461.602	254.83
462.06	257.23
462.518	273.23
462.976	272.83
463.434	268.93
463.892	274.03
464.35	290.53
464.808	297.93
465.266	276.83
465.724	285.03
466.181	288.03
466.639	285.63
467.097	300.03
467.555	315.73
468.012	320.03
468.47	324.93
468.928	344.43
469.385	354.33
469.843	370.73
470.3	378.63
470.758	388.33
471.215	411.73
471.673	436.23
472.13	428.43
472.588	441.43
473.045	390.33
473.503	396.03
473.96	412.83
474.417	424.03
474.875	457.23
475.332	494.13
475.789	488.43
476.246	485.63
476.704	514.53
477.161	531.83
477.618	543.33
478.075	581.63
478.532	645.43
478.989	722.23
479.446	840.53
479.903	791.83
480.36	813.93
480.817	881.93
481.274	962.13
481.731	1064.43
482.188	1149.93
482.645	1274.03
483.102	1371.13
483.558	1498.93
484.015	1535.63
484.472	1505.23
484.929	1482.03
485.385	1427.03
485.842	1386.63
486.299	1327.23
486.755	1292.83
487.212	1097.73
487.668	923.13
488.125	853.53
488.582	798.63
489.038	758.63
489.494	727.53
489.951	707.13
490.407	687.83
490.864	666.03
491.32	662.93
491.776	662.93
492.233	668.53
492.689	634.43
493.145	643.53
493.602	620.53
494.058	629.63
494.514	634.13
494.97	658.43
495.426	663.73
495.882	644.73
496.338	633.63
496.794	641.13
497.251	648.53
497.707	656.13
498.163	659.83
498.618	663.53
499.074	668.53
499.53	697.33
499.986	700.83
500.442	665.33
500.898	650.33
501.354	646.43
501.809	653.53
502.265	668.13
502.721	669.53
503.177	685.93
503.632	684.43
504.088	683.13
504.543	704.23
504.999	722.93
505.455	683.93
505.91	657.23
506.366	666.33
506.821	656.03
507.277	643.53
507.732	655.73
508.187	659.13
508.643	671.13
509.098	662.13
509.553	684.63
510.009	696.13
510.464	707.13
510.919	723.13
511.375	728.03
511.83	739.53
512.285	745.73
512.74	782.93
513.195	818.43
513.65	795.93
514.105	794.63
514.56	807.53
515.015	813.53
515.47	836.83
515.925	808.33
516.38	817.13
516.835	819.23
517.29	813.63
517.745	804.83
518.2	792.33
518.655	781.23
519.109	761.43
519.564	765.93
520.019	748.13
520.474	755.83
520.928	755.23
521.383	743.63
521.838	737.33
522.292	742.13
522.747	748.43
523.201	737.63
523.656	724.03
524.11	728.63
524.565	709.93
525.019	722.93
525.474	732.03
525.928	725.23
526.382	718.03
526.837	733.23
527.291	725.33
527.745	715.53
528.2	721.13
528.654	716.33
529.108	716.43
529.562	721.33
530.016	711.93
530.47	719.73
530.925	711.03
531.379	719.03
531.833	731.43
532.287	722.33
532.741	737.93
533.195	731.23
533.649	738.83
534.103	749.23
534.556	736.73
535.01	732.73
535.464	733.03
535.918	746.63
536.372	749.53
536.826	738.03
537.279	738.03
537.733	753.53
538.187	734.53
538.64	750.83
539.094	754.83
539.548	755.93
540.001	746.23
540.455	756.83
540.908	755.03
541.362	765.53
541.815	777.63
542.269	790.33
542.722	791.83
543.175	802.03
543.629	796.13
544.082	820.23
544.536	817.83
544.989	825.13
545.442	829.73
545.895	826.13
546.349	828.03
546.802	825.23
547.255	827.33
547.708	851.13
548.161	849.63
548.614	858.53
549.067	871.93
549.52	846.83
549.973	844.63
550.426	838.33
550.879	832.03
551.332	831.33
551.785	845.23
552.238	842.73
552.691	850.33
553.144	865.13
553.596	884.83
554.049	897.33
554.502	925.63
554.955	941.23
555.407	946.83
555.86	934.73
556.313	928.43
556.765	915.23
557.218	916.13
557.67	913.03
558.123	907.13
558.576	913.93
559.028	922.43
559.48	931.83
559.933	905.83
560.385	874.33
560.838	842.63
561.29	822.33
561.742	819.13
562.195	796.53
562.647	795.03
563.099	800.23
563.551	814.63
564.004	816.73
564.456	805.43
564.908	792.73
565.36	782.83
565.812	759.63
566.264	751.63
566.716	746.53
567.168	738.33
567.62	748.03
568.072	738.33
568.524	724.93
568.976	719.93
569.428	707.23
569.88	704.83
570.332	712.13
570.784	711.73
571.235	719.43
571.687	723.43
572.139	731.73
572.59	733.13
573.042	739.03
573.494	745.23
573.945	739.73
574.397	720.33
574.849	716.83
575.3	723.43
575.752	715.43
576.203	706.13
576.655	717.93
577.106	702.03
577.557	696.33
578.009	698.23
578.46	691.83
578.912	686.93
579.363	689.63
579.814	693.13
580.265	700.63
580.717	693.63
581.168	703.83
581.619	702.23
582.07	711.93
582.521	708.23
582.972	700.63
583.423	701.93
583.875	709.13
584.326	713.73
584.777	745.13
585.227	786.33
585.678	830.73
586.129	887.93
586.58	920.63
587.031	970.53
587.482	1056.73
587.933	1142.03
588.384	1046.73
588.834	890.73
589.285	812.13
589.736	812.43
590.186	806.63
590.637	795.23
591.088	771.43
591.538	771.73
591.989	759.93
592.439	758.83
592.89	757.83
593.34	740.23
593.791	734.33
594.241	727.03
594.692	735.73
595.142	733.13
595.593	722.13
596.043	740.53
596.493	743.63
596.943	745.93
597.394	743.33
597.844	747.73
598.294	773.53
598.744	791.23
599.195	810.13
599.645	850.83
600.095	903.13
600.545	961.83
600.995	1014.03
601.445	1072.73
601.895	1132.23
602.345	1187.03
602.795	1150.43
603.245	1113.53
603.695	1055.33
604.145	1008.33
604.594	954.73
605.044	903.23
605.494	832.13
605.944	783.43
606.393	771.33
606.843	772.63
607.293	769.33
607.743	763.83
608.192	776.13
608.642	796.33
609.091	791.33
609.541	794.23
609.99	800.83
610.44	796.93
610.889	751.73
611.339	723.03
611.788	716.83
612.238	720.33
612.687	735.63
613.136	737.63
613.586	746.33
614.035	749.43
614.484	756.13
614.933	756.73
615.383	751.93
615.832	749.83
616.281	750.23
616.73	721.23
617.179	694.23
617.628	672.33
618.077	660.93
618.526	649.93
618.975	648.73
619.424	647.13
619.873	637.43
620.322	645.03
620.771	632.23
621.22	630.03
621.669	622.93
622.118	617.03
622.567	609.53
623.015	595.03
623.464	605.63
623.913	579.63
624.361	577.73
624.81	581.63
625.259	575.43
625.707	565.63
626.156	572.33
626.604	594.13
627.053	597.53
627.501	591.43
627.95	595.83
628.398	613.53
628.847	587.93
629.295	584.93
629.744	607.13
630.192	597.63
630.64	601.53
631.089	580.13
631.537	581.63
631.985	578.23
632.433	589.03
632.881	590.43
633.33	609.73
633.778	600.43
634.226	562.43
634.674	571.83
635.122	572.63
635.57	592.83
636.018	623.23
636.466	590.43
636.914	587.23
637.362	598.03
637.81	602.83
638.258	605.23
638.705	611.63
639.153	641.63
639.601	644.03
640.049	662.93
640.497	707.93
640.944	719.13
641.392	667.13
641.84	637.73
642.287	605.63
642.735	591.73
643.182	594.93
643.63	598.33
644.078	593.13
644.525	606.43
644.973	618.33
645.42	631.43
645.867	647.53
646.315	666.93
646.762	685.53
647.21	719.23
647.657	738.03
648.104	775.33
648.551	795.53
648.999	853.13
649.446	938.53
649.893	1026.93
650.34	1171.23
650.787	1399.73
651.234	1732.03
651.682	2245.33
652.129	3056.33
652.576	4364.63
653.023	6355.93
653.47	8635.03
653.917	10639.93
654.363	12183.53
654.81	13384.23
655.257	12711.23
655.704	8406.23
656.151	5036.33
656.598	3307.33
657.044	2359.93
657.491	1838.73
657.938	1473.03
658.385	1234.83
658.831	1088.83
659.278	979.33
659.724	872.43
660.171	800.83
660.618	739.13
661.064	708.83
661.511	685.93
661.957	674.53
662.404	657.33
662.85	669.53
663.296	653.43
663.743	581.63
664.189	551.03
664.635	555.23
665.082	542.53
665.528	555.53
665.974	547.43
666.42	531.73
666.867	536.23
667.313	514.33
667.759	497.83
668.205	483.63
668.651	488.13
669.097	480.93
669.543	482.33
669.989	474.43
670.435	474.83
670.881	468.83
671.327	471.23
671.773	493.13
672.219	517.73
672.665	581.73
673.11	618.03
673.556	658.03
674.002	695.53
674.448	691.03
674.893	587.73
675.339	499.93
675.785	469.23
676.23	438.33
676.676	412.83
677.122	409.03
677.567	400.03
678.013	388.83
678.458	381.23
678.904	384.13
679.349	367.93
679.794	375.53
680.24	372.03
680.685	370.33
681.131	364.33
681.576	357.03
682.021	373.03
682.466	372.53
682.912	366.73
683.357	374.63
683.802	400.53
684.247	441.03
684.692	477.53
685.137	515.63
685.583	564.73
686.028	587.23
686.473	539.13
686.918	469.53
687.363	438.83
687.807	416.83
688.252	383.03
688.697	377.23
689.142	356.13
689.587	349.73
690.032	344.03
690.477	365.43
690.921	360.83
691.366	409.13
691.811	421.93
692.255	447.93
692.7	487.33
693.145	542.73
693.589	751.73
694.034	1215.63
694.478	1630.53
694.923	1811.03
695.367	2352.53
695.812	1259.53
696.256	528.23
696.701	401.33
697.145	361.43
697.59	343.13
698.034	337.33
698.478	344.13
698.922	343.23
699.367	341.63
699.811	346.13
700.255	367.73
700.699	400.33
701.143	450.33
701.588	493.23
702.032	535.03
702.476	536.23
702.92	515.13
703.364	526.53
703.808	689.03
704.252	1110.13
704.696	1541.53
705.14	1738.33
705.584	2211.33
706.027	1119.33
706.471	553.73
706.915	423.63
707.359	375.93
707.803	341.33
708.246	322.13
708.69	328.23
709.134	328.53
709.577	326.93
710.021	333.93
710.465	319.03
710.908	307.33
711.352	312.83
711.795	327.73
712.239	369.43
712.682	418.33
713.126	437.73
713.569	473.53
714.012	385.03
714.456	330.43
714.899	310.93
715.342	290.23
715.786	272.43
716.229	275.53
716.672	276.73
717.115	263.83
717.558	264.73
718.002	266.73
718.445	279.13
718.888	297.93
719.331	311.53
719.774	324.23
720.217	318.13
720.66	294.83
721.103	285.73
721.546	270.13
721.989	258.73
722.432	251.93
722.874	249.13
723.317	250.93
723.76	245.73
724.203	271.63
724.645	332.83
725.088	474.93
725.531	602.33
725.974	665.73
726.416	578.03
726.859	320.53
727.301	267.63
727.744	245.03
728.187	242.03
728.629	245.93
729.071	255.33
729.514	268.93
729.956	282.93
730.399	303.03
730.841	304.13
731.283	299.63
731.726	280.53
732.168	281.43
732.61	288.23
733.053	307.43
733.495	333.13
733.937	374.63
734.379	420.93
734.821	460.73
735.263	588.13
735.705	919.33
736.148	1724.33
736.59	2751.83
737.032	3166.83
737.474	2590.03
737.916	858.43
738.357	457.23
738.799	339.73
739.241	316.13
739.683	302.33
740.125	306.93
740.567	305.23
741.008	331.73
741.45	329.53
741.892	336.33
742.334	363.83
742.775	373.13
743.217	349.43
743.658	283.03
744.1	272.83
744.542	278.93
744.983	330.63
745.425	361.73
745.866	360.33
746.307	302.73
746.749	295.03
747.19	347.23
747.632	496.63
748.073	970.63
748.514	2021.33
748.956	3022.03
749.397	3796.03
749.838	3145.43
750.279	3076.73
750.72	1566.83
751.162	583.93
751.603	336.33
752.044	265.33
752.485	235.23
752.926	215.03
753.367	211.63
753.808	202.13
754.249	198.63
754.69	189.93
755.131	193.13
755.572	191.13
756.013	194.33
756.453	191.13
756.894	196.23
757.335	202.13
757.776	205.73
758.216	205.43
758.657	207.73
759.098	219.43
759.538	231.43
759.979	287.23
760.42	402.63
760.86	773.23
761.301	2012.23
761.741	4773.53
762.182	6660.03
762.622	4712.63
763.063	1386.13
763.503	564.63
763.943	356.53
764.384	323.73
764.824	338.63
765.264	345.23
765.705	265.93
766.145	207.63
766.585	185.63
767.025	191.23
767.465	185.63
767.906	225.03
768.346	263.63
768.786	269.53
769.226	247.23
769.666	333.33
770.106	679.73
770.546	1700.83
770.986	2746.33
771.426	2434.43
771.866	840.13
772.306	342.03
772.745	221.73
773.185	179.43
773.625	170.53
774.065	164.33
774.505	182.63
774.944	258.13
775.384	493.33
775.824	823.03
776.263	791.63
776.703	368.13
777.142	188.03
777.582	145.13
778.021	135.53
778.461	139.73
778.9	136.83
779.34	134.73
779.779	120.93
780.219	115.13
780.658	110.33
781.097	116.33
781.537	120.93
781.976	114.63
782.415	111.23
782.855	116.73
783.294	106.03
783.733	112.73
784.172	111.93
784.611	108.43
785.05	114.53
785.489	109.33
785.928	123.33
786.367	126.43
786.806	127.03
787.245	137.03
787.684	146.93
788.123	152.83
788.562	142.23
789.001	129.63
789.44	130.33
789.879	122.23
790.317	120.63
790.756	132.83
791.195	140.93
791.634	156.93
792.072	221.43
792.511	400.63
792.95	1098.93
793.388	2218.03
793.827	1979.63
794.265	709.93
794.704	295.53
795.142	191.03
795.581	162.83
796.019	144.23
796.458	127.73
796.896	128.73
797.334	137.63
797.773	163.53
798.211	229.33
798.649	483.83
799.087	1099.43
799.526	1696.13
799.964	2138.13
800.402	2090.03
800.84	805.93
801.278	329.83
801.716	203.93
802.154	159.43
802.592	149.53
803.03	144.43
803.468	135.63
803.906	155.63
804.344	153.33
804.782	148.93
805.22	138.13
805.658	138.23
806.096	156.03
806.533	168.53
806.971	184.63
807.409	235.53
807.847	342.83
808.284	731.83
808.722	2003.13
809.16	3450.23
809.597	3359.93
810.035	5730.13
810.472	5929.13
810.91	2182.93
811.347	845.53
811.785	429.23
812.222	277.73
812.66	203.13
813.097	169.33
813.535	150.03
813.972	136.93
814.409	125.73
814.846	112.63
815.284	112.43
815.721	108.63
816.158	114.53
816.595	120.73
817.032	164.53
817.47	191.33
817.907	148.63
818.344	121.83
818.781	108.43
819.218	105.13
819.655	130.63
820.092	196.73
820.529	221.83
820.966	178.23
821.403	135.63
821.839	116.63
822.276	103.93
822.713	124.93
823.15	134.83
823.587	120.93
824.023	163.83
824.46	328.43
824.897	957.23
825.333	1403.53
825.77	602.73
826.206	239.83
826.643	146.33
827.08	107.73
827.516	80.83
827.953	81.13
828.389	86.03
828.825	76.93
829.262	68.13
829.698	62.93
830.135	69.23
830.571	62.73
831.007	69.13
831.443	65.03
831.88	70.63
832.316	61.23
832.752	65.63
833.188	68.93
833.624	70.83
834.06	64.83
834.497	65.23
834.933	74.53
835.369	79.13
835.805	71.43
836.241	80.93
836.677	84.63
837.112	96.93
837.548	108.03
837.984	140.73
838.42	217.13
838.856	540.33
839.292	1616.03
839.727	2376.83
840.163	1121.33
840.599	1000.33
841.034	2156.93
841.47	2175.53
841.906	812.13
842.341	343.13
842.777	214.13
843.212	250.83
843.648	228.03
844.083	129.33
844.519	91.23
844.954	75.53
845.39	60.23
845.825	58.43
846.261	58.33
846.696	52.83
847.131	60.33
847.566	58.13
848.002	60.43
848.437	54.23
848.872	61.63
849.307	63.03
849.742	90.23
850.177	195.33
850.613	599.03
851.048	918.43
851.483	403.63
851.918	167.83
852.353	86.73
852.788	63.83
853.223	53.13
853.657	51.63
854.092	45.93
854.527	45.03
854.962	40.33
855.397	48.53
855.832	55.73
856.266	44.33
856.701	41.63
857.136	41.13
857.57	42.43
858.005	52.73
858.44	64.83
858.874	46.33
859.309	57.63
859.743	40.83
860.178	49.73
860.612	41.43
861.047	61.23
861.481	72.53
861.915	74.63
862.35	52.03
862.784	40.43
863.218	45.93
863.653	35.03
864.087	44.73
864.521	55.23
864.955	71.73
865.39	163.13
865.824	180.03
866.258	127.83
866.692	166.23
867.126	181.13
867.56	112.33
867.994	54.53
868.428	38.33
868.862	51.13
869.296	60.43
869.73	58.93
870.164	57.13
870.598	48.93
871.031	38.13
871.465	30.83
871.899	36.53
872.333	22.23
872.766	19.43
873.2	26.23
873.634	25.93
874.067	25.83
874.501	26.83
874.935	34.03
875.368	34.03
875.802	25.83
876.235	24.83
876.669	25.03
877.102	20.13
877.535	29.43
877.969	14.93
878.402	22.73
878.836	18.83
879.269	24.53
879.702	19.43
880.135	18.93
880.569	17.83
881.002	23.73
881.435	19.93
881.868	14.43
882.301	25.03
882.734	18.63
883.167	21.63
883.601	17.43
884.034	24.03
884.467	11.43
884.899	22.13
885.332	19.33
885.765	15.03
886.198	15.83
886.631	16.93
887.064	17.03
887.497	18.93
887.929	25.43
888.362	12.73
888.795	10.03
889.228	13.53
889.66	24.63
890.093	19.53
890.526	18.53
890.958	15.53
891.391	26.83
891.823	26.03
892.256	16.83
892.688	15.33
893.121	20.63
893.553	18.83
893.985	21.93
894.418	22.13
894.85	13.33
895.282	13.23
895.715	20.63
896.147	18.73
896.579	16.03
897.011	17.13
897.444	17.23
897.876	13.23
898.308	11.53
898.74	16.23
899.172	8.13
899.604	21.43
900.036	21.73
900.468	18.63
900.9	13.03
901.332	14.43
901.764	14.23
902.196	18.63
902.628	15.53
903.06	20.53
903.491	31.03
903.923	24.13
904.355	25.53
904.787	21.93
905.218	25.73
905.65	14.23
906.082	5.33
906.513	11.93
906.945	16.93
907.376	8.43
907.808	18.13
908.239	14.03
908.671	17.93
909.102	18.43
909.534	26.63
909.965	47.33
910.397	93.33
910.828	328.83
911.259	490.13
911.691	225.43
912.122	115.03
912.553	51.03
912.984	30.63
913.415	22.43
913.847	20.43
914.278	15.63
914.709	11.63
915.14	21.33
915.571	18.83
916.002	9.93
916.433	12.63
916.864	15.73
917.295	11.03
917.726	26.53
918.157	11.43
918.587	26.43
919.018	23.43
919.449	16.53
919.88	23.43
920.311	31.23
920.741	48.23
921.172	171.93
921.603	157.93
922.033	72.03
922.464	47.93
922.895	20.03
923.325	17.53
923.756	12.63
924.186	12.63
924.617	19.33
925.047	30.63
925.478	33.13
925.908	31.63
926.338	11.93
926.769	16.03
927.199	18.23
927.629	4.83
928.06	13.33
928.49	13.63
928.92	16.63
929.35	9.43
929.78	12.23
930.21	8.13
930.641	1.43
931.071	12.03
931.501	3.63
931.931	4.43
932.361	4.53
932.791	3.13
933.221	5.33
933.651	4.63
934.08	20.43
934.51	29.73
934.94	8.73
935.37	10.03
935.8	9.43
936.229	9.03
936.659	10.13
937.089	-1.37
937.519	9.53
937.948	18.73
938.378	19.33
938.807	8.63
939.237	6.33
939.666	10.13
940.096	-3.47
940.525	0.83
940.955	0.83
941.384	3.83
941.814	-10.17
942.243	-1.77
942.672	1.73
943.102	-5.17
943.531	2.73
943.96	6.93
944.39	6.73
944.819	-0.97
945.248	9.03
945.677	4.93
946.106	7.73
946.535	3.43
946.964	-0.37
947.393	0.83
947.822	2.13
948.251	-0.77
948.68	4.43
949.109	6.13
949.538	5.43
949.967	5.43
950.396	-3.37
950.825	-4.37
951.254	7.53
951.682	-5.97
952.111	0.93
952.54	1.13
952.969	1.53
953.397	-5.47
953.826	-2.57
954.254	-3.97
954.683	5.03
955.112	1.53
955.54	0.83
955.969	-0.07
956.397	-2.87
956.826	-4.37
957.254	4.23
957.682	-1.37
958.111	0.93
958.539	-1.47
958.967	4.13
959.396	-7.67
959.824	-1.27
960.252	-0.77
960.68	-6.07
961.109	0.33
961.537	-4.27
961.965	-3.67
962.393	4.93
962.821	-0.97
963.249	-2.87
963.677	6.93
964.105	3.13
964.533	45.13
964.961	48.23
965.389	19.03
965.817	8.83
966.245	3.83
966.672	-3.17
967.1	-9.97
967.528	-2.87
967.956	-1.87
968.383	0.03
968.811	3.53
969.239	-1.07
969.666	1.03
970.094	-1.27
970.522	-3.47
970.949	-2.47
971.377	-5.67
971.804	-6.27
972.232	-3.07
972.659	-1.07
973.087	-0.97
973.514	-5.67
973.941	-2.37
974.369	0.33
974.796	-2.17
975.223	1.43
975.651	1.13
976.078	0.53
976.505	-3.17
976.932	0.73
977.359	15.83
977.786	16.93
978.214	2.03
978.641	-1.87
979.068	-5.87
979.495	-7.77
979.922	0.83
980.349	-1.97
980.776	4.83
981.202	0.63
981.629	0.33
982.056	5.13
982.483	-4.87
982.91	4.73
983.337	-5.47
983.763	2.33
984.19	-1.87
984.617	-3.47
985.043	-7.07
985.47	1.13
985.897	0.03
986.323	-1.87
986.75	4.13
987.176	5.63
987.603	1.33
988.029	-2.27
988.456	-5.97
988.882	2.73
989.308	-8.77
989.735	-2.37
990.161	-0.67
990.587	-10.97
991.014	-1.47
991.44	4.23
991.866	-4.17
992.292	-5.07
992.719	-6.27
993.145	2.33
993.571	-8.57
993.997	-1.27
994.423	1.53
994.849	-2.07
995.275	2.73
995.701	0.13
996.127	-4.97
996.553	0.13
996.979	-5.97
997.405	-4.57
997.83	-3.97
998.256	-10.97
998.682	-6.57
999.108	-11.67
999.534	-5.17
999.959	-4.17
1000.385	-3.07
1000.811	6.23
1001.236	-7.97
1001.662	-4.27
1002.087	-13.17
1002.513	0.23
1002.938	-4.57
1003.364	-2.47
1003.789	-5.57
1004.215	2.63
1004.64	-2.67
1005.066	0.73
1005.491	-3.67
1005.916	-2.17
1006.342	-4.67
1006.767	-6.57
1007.192	10.43
1007.617	-2.97
1008.042	-8.87
1008.468	-9.07
1008.893	-2.47
1009.318	-0.97
1009.743	-1.47
1010.168	4.63
1010.593	2.43
1011.018	-9.37
1011.443	-2.97
1011.868	5.83
1012.293	-5.47
1012.718	-9.97
1013.143	-5.57
1013.567	-0.47
1013.992	-2.27
1014.417	-12.97
1014.842	0.33
1015.267	-5.87
1015.691	-5.17
1016.116	3.43
1016.541	-2.57
1016.965	0.63
1017.39	1.43
1017.814	-1.77
1018.239	-3.07
1018.663	-8.17
1019.088	-15.97
1019.512	-1.87
1019.937	-7.37
1020.361	-7.87
1020.785	-7.07
1021.21	-3.77
1021.634	-2.67
1022.058	-1.07
1022.483	0.53
1022.907	-10.57
1023.331	-3.47
1023.755	-4.57
1024.179	-5.87
1024.604	-5.27
1025.028	-3.17
1025.452	-10.17
1025.876	-8.27
1026.3	-8.27
1026.724	-11.87
1027.148	-3.57
1027.572	-5.07
1027.996	-5.27
1028.42	-3.97
1028.843	-0.47
1029.267	-6.17
1029.691	-8.67
1030.115	-17.27
1030.539	-6.37
1030.962	-4.07
1031.386	-11.47
1031.81	-3.17
1032.233	2.03
1032.657	-4.07
1033.08	-4.17
1033.504	-6.37
1033.927	-6.77
1034.351	2.33
1034.774	-6.57
1035.198	-1.87
1035.621	-10.77
1036.045	-7.77
1036.468	3.03
1036.891	-16.07
1037.315	-11.17
1037.738	-10.87
1038.161	-0.77
1038.584	-2.07
1039.008	-6.27
1039.431	-4.07
1039.854	-9.17
1040.277	-5.27
1040.7	-15.47
1041.123	-0.97
1041.546	-8.07
1041.969	-1.97
1042.392	-7.47
1042.815	-4.47
1043.238	-0.07
1043.661	3.73
1044.084	-5.87
1044.507	-1.67
1044.93	-6.87
1045.352	-7.87
1045.775	-1.07
1046.198	-2.17
1046.621	-3.07
1047.043	1.83
1047.466	7.23
1047.889	-4.77
1048.311	-1.47
1048.734	-7.27
1049.156	2.63
1049.579	-4.07
1050.001	-6.87
1050.424	-5.97
1050.846	-8.37
1051.269	-7.27
1051.691	-10.97
1052.113	-8.57
1052.536	-6.17
1052.958	-2.67
1053.38	-5.87
1053.802	-11.37
1054.225	0.83
1054.647	-14.87
1055.069	-6.97
1055.491	-5.87
1055.913	-7.57
1056.335	-4.27
1056.757	-8.37
1057.179	-8.07
1057.601	-3.67
1058.023	-3.37
1058.445	-4.57
1058.867	-7.27
1059.289	-5.37
1059.711	-12.07
1060.133	-0.57
1060.555	-4.57
1060.976	-6.67
1061.398	-5.07
1061.82	-5.87
1062.241	-8.37
1062.663	-8.47
1063.085	-7.77
1063.506	-2.57
1063.928	-0.97
1064.35	-2.87
1064.771	-12.27
1065.193	-6.37
1065.614	-9.57
1066.035	-7.77
1066.457	-5.67
1066.878	0.33
1067.3	-3.97
1067.721	-5.17
1068.142	-3.97
1068.564	-9.27
1068.985	-8.47
1069.406	-4.77
1069.827	-6.57
1070.248	-2.67
1070.67	-15.37
1071.091	-5.97
1071.512	-12.57
1071.933	-13.17
1072.354	-5.87
1072.775	-4.77
1073.196	-3.47
1073.617	-0.67
1074.038	-6.87
1074.459	-6.37
1074.88	-5.47
1075.3	-1.37
1075.721	-2.47
1076.142	-4.57
1076.563	-5.17
1076.983	-14.77
1077.404	-6.57
1077.825	-9.97
1078.246	-10.67
1078.666	-10.77
1079.087	-7.47
1079.507	-4.37
1079.928	-0.27
1080.348	-4.27
1080.769	-2.37
1081.189	0.83
1081.61	-1.67
1082.03	-7.57
1082.451	-8.17
1082.871	-4.87
1083.291	-5.17
1083.711	-8.47
1084.132	-8.97
1084.552	-3.97
1084.972	-0.67
1085.392	-14.17
1085.813	-9.47
1086.233	-13.27
1086.653	-8.97
1087.073	1.43
1087.493	-3.37
1087.913	-9.57
1088.333	-6.57
1088.753	-3.77
1089.173	1.43
1089.593	-3.87
1090.013	-0.47
1090.433	-5.07
1090.852	-1.57
1091.272	-4.97
1091.692	-5.97
1092.112	-2.57
1092.531	-8.17
1092.951	-12.07
1093.371	-2.97
1093.79	-0.47
1094.21	-8.57
1094.63	-3.37
1095.049	-5.37
1095.469	-9.67
1095.888	-4.07
1096.308	6.33
1096.727	4.03
1097.146	-5.87
1097.566	1.43
1097.985	-4.37
1098.405	-0.47
1098.824	-5.47
1099.243	-6.27
1099.662	-5.37
1100.082	-5.77
1100.501	-5.87
1100.92	-3.87
1101.339	-2.67
1101.758	-1.97
