Data from 20171114-ORNL-Ar_H_NY_Subt18_08-08-36-949.txt Node
Date: Tue Nov 14 08:08:36 EST 2017
User: Ender
Spectrometer: HR+D1039
Trigger mode: 0
Integration Time (sec): 2.730000E-2
Scans to average: 10
Electric dark correction enabled: true
Nonlinearity correction enabled: false
Boxcar width: 0
XAxis mode: Wavelengths
Number of Pixels in Spectrum: 2048
>>>>>Begin Spectral Data<<<<<
187.836	2.38
188.309	2.38
188.782	2.38
189.255	2.18
189.728	-2.72
190.201	-0.72
190.674	-1.72
191.147	2.48
191.619	-5.22
192.092	1.38
192.565	-1.02
193.038	0.68
193.511	-0.92
193.984	4.68
194.456	0.58
194.929	1.58
195.402	-2.52
195.874	-1.12
196.347	0.58
196.82	-2.62
197.292	4.88
197.765	0.08
198.237	-1.22
198.71	1.58
199.182	0.38
199.655	-1.02
200.127	0.88
200.6	4.58
201.072	-3.82
201.544	-3.72
202.017	-2.62
202.489	6.28
202.961	-4.72
203.433	-6.72
203.906	-10.52
204.378	-10.22
204.85	-5.32
205.322	-10.62
205.794	-0.22
206.266	-4.62
206.739	-7.72
207.211	2.38
207.683	-9.42
208.155	-7.52
208.627	-5.32
209.099	-1.02
209.57	-8.42
210.042	-3.72
210.514	-7.82
210.986	1.48
211.458	-9.72
211.93	-7.12
212.402	-2.52
212.873	-6.52
213.345	-8.72
213.817	-10.22
214.288	-3.22
214.76	-11.22
215.232	-1.42
215.703	-6.72
216.175	-0.52
216.646	-3.42
217.118	-8.42
217.589	-1.12
218.061	-9.72
218.532	-4.62
219.004	-1.72
219.475	-8.22
219.946	-3.02
220.418	-5.22
220.889	-6.12
221.36	3.28
221.832	0.08
222.303	-5.52
222.774	0.28
223.245	-10.82
223.717	-5.92
224.188	-5.12
224.659	-4.62
225.13	-7.42
225.601	-5.12
226.072	-0.32
226.543	-2.42
227.014	-2.62
227.485	-3.22
227.956	-4.82
228.427	-6.72
228.898	1.48
229.369	1.48
229.839	-1.92
230.31	-3.82
230.781	2.48
231.252	0.38
231.722	-5.92
232.193	-4.62
232.664	-6.32
233.135	-8.02
233.605	-6.12
234.076	-7.42
234.546	-1.42
235.017	5.68
235.487	-0.72
235.958	-7.52
236.428	-5.42
236.899	-1.32
237.369	-2.02
237.84	-5.72
238.31	-3.72
238.78	1.48
239.251	-2.32
239.721	1.18
240.191	-2.52
240.662	-4.02
241.132	-0.42
241.602	-8.52
242.072	0.98
242.542	3.68
243.013	-8.62
243.483	-4.32
243.953	2.08
244.423	-6.12
244.893	-7.82
245.363	-0.92
245.833	0.58
246.303	-4.92
246.773	-0.72
247.243	1.28
247.712	0.88
248.182	5.18
248.652	1.38
249.122	-8.02
249.592	-0.72
250.061	4.58
250.531	11.08
251.001	-0.92
251.471	9.68
251.94	11.08
252.41	4.18
252.879	-4.02
253.349	4.58
253.818	6.28
254.288	2.68
254.757	-1.72
255.227	-1.42
255.696	-1.22
256.166	-3.02
256.635	2.38
257.105	3.48
257.574	2.08
258.043	0.98
258.513	-2.72
258.982	1.48
259.451	-3.12
259.92	3.18
260.389	-1.32
260.859	9.18
261.328	-4.22
261.797	4.28
262.266	-0.32
262.735	9.18
263.204	4.98
263.673	-1.32
264.142	4.88
264.611	-8.32
265.08	-0.92
265.549	-2.12
266.018	6.18
266.487	-5.02
266.955	0.28
267.424	-0.12
267.893	5.98
268.362	-1.32
268.83	5.28
269.299	9.48
269.768	-1.02
270.236	6.78
270.705	1.78
271.174	4.98
271.642	8.28
272.111	1.98
272.579	8.98
273.048	11.18
273.516	1.68
273.985	1.58
274.453	11.18
274.922	6.18
275.39	4.88
275.858	0.28
276.327	5.98
276.795	12.08
277.263	2.38
277.731	13.68
278.2	15.48
278.668	15.48
279.136	9.28
279.604	5.28
280.072	12.28
280.54	7.48
281.008	8.98
281.477	9.98
281.945	10.38
282.413	8.78
282.881	14.18
283.348	4.48
283.816	10.68
284.284	8.98
284.752	15.48
285.22	10.68
285.688	13.48
286.156	12.68
286.623	19.08
287.091	10.38
287.559	9.18
288.026	12.58
288.494	8.68
288.962	0.98
289.429	5.18
289.897	18.28
290.364	12.68
290.832	13.18
291.3	10.88
291.767	8.68
292.234	14.08
292.702	8.88
293.169	13.58
293.637	20.38
294.104	16.38
294.571	8.68
295.039	6.18
295.506	12.08
295.973	13.08
296.44	11.18
296.908	12.98
297.375	11.78
297.842	13.08
298.309	11.88
298.776	12.08
299.243	16.68
299.71	12.28
300.177	16.88
300.644	14.18
301.111	16.18
301.578	20.88
302.045	20.08
302.512	22.18
302.979	23.38
303.446	19.38
303.913	17.58
304.379	16.28
304.846	20.68
305.313	14.88
305.78	18.28
306.246	24.28
306.713	24.88
307.18	20.08
307.646	17.58
308.113	26.08
308.579	17.18
309.046	27.08
309.512	20.68
309.979	17.98
310.445	25.68
310.912	19.28
311.378	25.48
311.845	28.58
312.311	30.68
312.777	21.68
313.244	33.18
313.71	34.28
314.176	25.18
314.642	24.18
315.109	19.68
315.575	25.38
316.041	31.98
316.507	23.58
316.973	30.18
317.439	31.88
317.905	25.58
318.371	34.08
318.837	31.48
319.303	23.18
319.769	28.08
320.235	29.08
320.701	27.28
321.167	32.08
321.633	27.08
322.099	28.28
322.564	40.78
323.03	32.88
323.496	30.58
323.962	34.68
324.427	31.98
324.893	35.48
325.359	30.38
325.824	31.38
326.29	25.98
326.755	30.08
327.221	38.08
327.686	43.18
328.152	43.38
328.617	34.48
329.083	39.18
329.548	45.18
330.014	42.18
330.479	33.38
330.944	38.98
331.41	36.88
331.875	38.98
332.34	35.18
332.805	28.28
333.271	33.58
333.736	28.48
334.201	45.28
334.666	45.08
335.131	51.68
335.596	43.48
336.061	44.58
336.526	34.98
336.991	45.28
337.456	51.38
337.921	35.18
338.386	44.38
338.851	42.78
339.316	42.18
339.781	37.08
340.246	51.98
340.711	39.78
341.175	48.18
341.64	43.28
342.105	47.88
342.569	52.28
343.034	50.68
343.499	49.58
343.963	42.58
344.428	61.98
344.893	48.38
345.357	56.58
345.822	54.88
346.286	58.58
346.751	61.78
347.215	57.88
347.679	66.58
348.144	82.58
348.608	72.88
349.073	62.18
349.537	62.48
350.001	71.18
350.465	79.68
350.93	75.48
351.394	70.48
351.858	62.68
352.322	75.68
352.786	72.88
353.25	90.38
353.715	96.88
354.179	86.78
354.643	112.98
355.107	114.38
355.571	89.58
356.035	87.48
356.498	104.88
356.962	112.98
357.426	117.18
357.89	101.58
358.354	84.38
358.818	73.68
359.281	71.88
359.745	61.28
360.209	73.78
360.673	66.88
361.136	69.78
361.6	70.88
362.064	74.28
362.527	76.88
362.991	87.18
363.454	69.88
363.918	65.68
364.381	76.68
364.845	75.78
365.308	79.18
365.772	83.78
366.235	80.48
366.698	74.38
367.162	80.18
367.625	74.78
368.088	77.88
368.552	79.18
369.015	77.18
369.478	89.78
369.941	87.78
370.404	85.68
370.867	98.68
371.331	99.68
371.794	106.98
372.257	94.08
372.72	100.88
373.183	93.18
373.646	85.78
374.109	93.28
374.572	95.68
375.035	101.68
375.497	96.78
375.96	95.18
376.423	100.28
376.886	101.78
377.349	95.68
377.811	96.98
378.274	98.68
378.737	94.08
379.199	105.48
379.662	98.58
380.125	104.58
380.587	99.68
381.05	105.58
381.512	104.28
381.975	122.18
382.437	111.88
382.9	107.88
383.362	116.68
383.825	125.68
384.287	123.98
384.75	112.58
385.212	112.58
385.674	125.58
386.136	131.28
386.599	108.88
387.061	117.48
387.523	119.58
387.985	120.78
388.447	127.58
388.91	119.68
389.372	124.78
389.834	119.78
390.296	120.58
390.758	130.08
391.22	137.78
391.682	145.18
392.144	171.78
392.606	162.68
393.068	137.58
393.529	146.88
393.991	130.38
394.453	136.18
394.915	135.38
395.377	142.78
395.838	143.18
396.3	132.58
396.762	137.48
397.224	128.78
397.685	123.98
398.147	132.58
398.608	137.38
399.07	126.18
399.531	135.48
399.993	143.38
400.454	155.88
400.916	144.58
401.377	136.58
401.839	143.88
402.3	147.48
402.762	163.28
403.223	170.18
403.684	165.18
404.145	156.08
404.607	149.78
405.068	161.28
405.529	164.28
405.99	185.68
406.451	170.68
406.913	162.08
407.374	155.88
407.835	158.28
408.296	164.88
408.757	162.68
409.218	176.08
409.679	170.28
410.14	172.38
410.601	170.78
411.062	174.58
411.522	174.18
411.983	171.38
412.444	169.68
412.905	180.48
413.366	178.88
413.826	197.38
414.287	215.58
414.748	271.48
415.208	251.28
415.669	213.58
416.13	210.08
416.59	203.08
417.051	215.58
417.511	216.08
417.972	239.68
418.432	254.28
418.893	283.68
419.353	255.28
419.814	198.68
420.274	187.58
420.734	187.78
421.195	191.88
421.655	192.98
422.115	193.28
422.576	195.28
423.036	203.78
423.496	199.58
423.956	222.08
424.416	228.88
424.876	255.98
425.336	264.48
425.797	254.08
426.257	251.88
426.717	244.48
427.177	230.28
427.637	227.58
428.097	233.68
428.556	246.38
429.016	265.38
429.476	258.18
429.936	266.68
430.396	271.78
430.856	288.78
431.315	300.28
431.775	330.98
432.235	370.48
432.694	347.38
433.154	362.98
433.614	386.68
434.073	328.78
434.533	278.38
434.993	264.78
435.452	283.28
435.912	289.68
436.371	275.08
436.83	283.38
437.29	260.28
437.749	246.78
438.209	249.18
438.668	267.88
439.127	285.98
439.587	262.78
440.046	244.28
440.505	258.78
440.964	282.68
441.424	322.08
441.883	311.48
442.342	255.38
442.801	229.08
443.26	225.08
443.719	228.68
444.178	222.78
444.637	217.58
445.096	228.48
445.555	226.18
446.014	232.08
446.473	239.18
446.932	236.78
447.391	242.78
447.849	232.68
448.308	233.78
448.767	232.68
449.226	244.78
449.685	241.08
450.143	246.78
450.602	240.78
451.061	239.48
451.519	240.78
451.978	233.08
452.436	240.38
452.895	240.48
453.353	261.88
453.812	244.88
454.27	242.48
454.729	246.48
455.187	250.88
455.646	253.08
456.104	252.78
456.562	264.58
457.021	275.88
457.479	271.58
457.937	278.18
458.395	266.58
458.854	252.78
459.312	260.58
459.77	283.18
460.228	263.18
460.686	250.18
461.144	257.98
461.602	252.48
462.06	248.18
462.518	264.18
462.976	261.48
463.434	266.08
463.892	268.08
464.35	277.08
464.808	299.28
465.266	273.98
465.724	279.68
466.181	278.68
466.639	276.18
467.097	293.78
467.555	313.08
468.012	307.68
468.47	325.58
468.928	336.38
469.385	347.68
469.843	352.98
470.3	357.08
470.758	370.68
471.215	399.68
471.673	407.18
472.13	413.78
472.588	426.78
473.045	379.98
473.503	390.48
473.96	404.28
474.417	406.58
474.875	438.48
475.332	479.08
475.789	468.38
476.246	477.88
476.704	496.08
477.161	509.68
477.618	526.58
478.075	561.88
478.532	621.48
478.989	688.58
479.446	802.98
479.903	759.58
480.36	788.98
480.817	831.78
481.274	935.58
481.731	1019.38
482.188	1091.98
482.645	1208.98
483.102	1304.08
483.558	1422.38
484.015	1469.48
484.472	1439.58
484.929	1398.28
485.385	1368.08
485.842	1329.18
486.299	1284.58
486.755	1240.78
487.212	1057.58
487.668	905.08
488.125	833.08
488.582	765.68
489.038	741.18
489.494	700.78
489.951	687.58
490.407	670.68
490.864	645.58
491.32	650.68
491.776	638.88
492.233	646.18
492.689	617.68
493.145	613.28
493.602	607.58
494.058	619.38
494.514	618.88
494.97	638.28
495.426	667.68
495.882	623.18
496.338	618.88
496.794	622.48
497.251	615.58
497.707	636.48
498.163	641.88
498.618	645.78
499.074	653.18
499.53	687.98
499.986	686.48
500.442	659.18
500.898	635.78
501.354	621.58
501.809	639.18
502.265	636.88
502.721	636.78
503.177	641.08
503.632	652.78
504.088	656.58
504.543	689.88
504.999	697.28
505.455	670.18
505.91	646.18
506.366	652.68
506.821	644.38
507.277	643.48
507.732	639.38
508.187	650.88
508.643	663.28
509.098	654.98
509.553	675.88
510.009	688.28
510.464	690.28
510.919	709.88
511.375	714.58
511.83	730.48
512.285	735.98
512.74	775.58
513.195	786.88
513.65	793.08
514.105	781.38
514.56	790.58
515.015	798.18
515.47	807.78
515.925	796.08
516.38	794.08
516.835	803.88
517.29	798.98
517.745	789.78
518.2	791.78
518.655	775.18
519.109	766.88
519.564	748.98
520.019	750.78
520.474	740.28
520.928	740.98
521.383	738.38
521.838	727.28
522.292	729.18
522.747	732.98
523.201	734.38
523.656	709.48
524.11	711.88
524.565	707.68
525.019	705.28
525.474	714.58
525.928	706.38
526.382	706.18
526.837	715.48
527.291	715.38
527.745	721.58
528.2	710.68
528.654	706.78
529.108	704.58
529.562	705.28
530.016	702.38
530.47	703.78
530.925	700.08
531.379	701.78
531.833	710.28
532.287	715.68
532.741	714.78
533.195	716.28
533.649	723.38
534.103	729.28
534.556	720.88
535.01	729.48
535.464	729.08
535.918	729.78
536.372	746.18
536.826	729.58
537.279	713.48
537.733	720.48
538.187	728.88
538.64	721.28
539.094	733.48
539.548	748.48
540.001	738.68
540.455	737.48
540.908	744.48
541.362	758.48
541.815	767.08
542.269	781.88
542.722	771.58
543.175	786.28
543.629	789.58
544.082	807.38
544.536	812.48
544.989	806.58
545.442	819.68
545.895	811.98
546.349	816.28
546.802	815.98
547.255	811.08
547.708	817.18
548.161	832.68
548.614	837.08
549.067	851.98
549.52	845.08
549.973	838.08
550.426	830.08
550.879	809.98
551.332	826.38
551.785	836.88
552.238	826.48
552.691	851.48
553.144	853.08
553.596	870.78
554.049	892.88
554.502	918.38
554.955	936.18
555.407	930.58
555.86	915.18
556.313	916.68
556.765	898.08
557.218	906.48
557.67	902.58
558.123	894.08
558.576	898.88
559.028	905.98
559.48	913.28
559.933	901.48
560.385	861.08
560.838	834.48
561.29	820.68
561.742	813.38
562.195	802.48
562.647	791.18
563.099	795.88
563.551	783.38
564.004	796.48
564.456	808.38
564.908	783.98
565.36	759.78
565.812	743.48
566.264	747.08
566.716	739.68
567.168	726.68
567.62	739.18
568.072	728.38
568.524	716.38
568.976	707.08
569.428	703.38
569.88	693.88
570.332	706.08
570.784	701.38
571.235	702.08
571.687	720.88
572.139	721.48
572.59	737.88
573.042	739.28
573.494	732.28
573.945	732.38
574.397	717.48
574.849	716.28
575.3	709.68
575.752	715.18
576.203	703.68
576.655	707.88
577.106	693.08
577.557	688.08
578.009	696.78
578.46	680.88
578.912	684.98
579.363	687.38
579.814	685.58
580.265	687.68
580.717	696.48
581.168	689.88
581.619	708.68
582.07	706.98
582.521	696.18
582.972	699.28
583.423	692.38
583.875	692.18
584.326	697.78
584.777	730.88
585.227	753.78
585.678	777.38
586.129	808.18
586.58	834.68
587.031	867.58
587.482	915.18
587.933	972.98
588.384	921.88
588.834	844.98
589.285	792.98
589.736	795.28
590.186	799.88
590.637	792.68
591.088	774.58
591.538	759.18
591.989	760.08
592.439	753.48
592.89	736.38
593.34	732.08
593.791	733.98
594.241	715.88
594.692	723.28
595.142	719.88
595.593	724.28
596.043	723.98
596.493	731.98
596.943	735.88
597.394	736.48
597.844	742.98
598.294	762.48
598.744	776.08
599.195	811.78
599.645	849.68
600.095	895.58
600.545	946.68
600.995	998.28
601.445	1060.38
601.895	1112.58
602.345	1169.38
602.795	1140.08
603.245	1096.08
603.695	1043.38
604.145	994.18
604.594	947.38
605.044	891.88
605.494	830.68
605.944	776.28
606.393	766.28
606.843	747.58
607.293	756.98
607.743	744.98
608.192	774.48
608.642	787.28
609.091	778.18
609.541	781.38
609.99	789.08
610.44	788.28
610.889	729.58
611.339	718.58
611.788	702.18
612.238	720.38
612.687	732.98
613.136	717.68
613.586	726.18
614.035	731.38
614.484	738.88
614.933	737.18
615.383	738.88
615.832	736.68
616.281	733.38
616.73	694.28
617.179	668.78
617.628	659.68
618.077	649.98
618.526	639.48
618.975	631.98
619.424	632.68
619.873	630.28
620.322	636.18
620.771	622.28
621.22	620.38
621.669	610.98
622.118	605.88
622.567	600.98
623.015	588.98
623.464	589.38
623.913	582.58
624.361	564.78
624.81	566.58
625.259	562.38
625.707	573.78
626.156	570.48
626.604	588.28
627.053	583.18
627.501	585.38
627.95	598.18
628.398	606.68
628.847	592.88
629.295	599.58
629.744	602.88
630.192	584.48
630.64	578.58
631.089	565.28
631.537	569.58
631.985	557.38
632.433	559.68
632.881	557.58
633.33	564.78
633.778	559.68
634.226	546.38
634.674	561.28
635.122	556.98
635.57	570.78
636.018	587.58
636.466	580.68
636.914	572.08
637.362	587.18
637.81	598.28
638.258	602.58
638.705	609.28
639.153	630.68
639.601	641.88
640.049	659.78
640.497	697.08
640.944	721.18
641.392	662.28
641.84	634.28
642.287	604.98
642.735	592.48
643.182	583.28
643.63	580.88
644.078	584.68
644.525	600.98
644.973	604.88
645.42	609.18
645.867	624.38
646.315	648.08
646.762	669.28
647.21	705.18
647.657	720.78
648.104	755.78
648.551	774.18
648.999	845.98
649.446	914.48
649.893	1006.78
650.34	1137.48
650.787	1363.38
651.234	1686.48
651.682	2176.38
652.129	2949.18
652.576	4209.28
653.023	6149.98
653.47	8262.08
653.917	10264.78
654.363	11719.08
654.81	12883.68
655.257	12215.48
655.704	8112.58
656.151	4882.28
656.598	3204.48
657.044	2290.98
657.491	1792.08
657.938	1447.98
658.385	1216.68
658.831	1060.48
659.278	960.78
659.724	839.58
660.171	793.38
660.618	733.58
661.064	689.68
661.511	677.88
661.957	664.48
662.404	657.68
662.85	658.78
663.296	627.88
663.743	582.08
664.189	552.08
664.635	555.48
665.082	542.68
665.528	541.88
665.974	535.48
666.42	524.98
666.867	526.38
667.313	511.28
667.759	484.68
668.205	468.58
668.651	472.88
669.097	461.08
669.543	466.68
669.989	467.28
670.435	460.98
670.881	463.98
671.327	464.58
671.773	480.58
672.219	512.08
672.665	573.48
673.11	610.98
673.556	663.38
674.002	693.98
674.448	686.38
674.893	580.88
675.339	495.68
675.785	463.38
676.23	427.08
676.676	414.58
677.122	401.18
677.567	394.38
678.013	385.98
678.458	378.18
678.904	385.38
679.349	361.58
679.794	368.38
680.24	366.18
680.685	364.78
681.131	360.28
681.576	368.38
682.021	380.08
682.466	370.68
682.912	363.48
683.357	371.08
683.802	405.88
684.247	428.38
684.692	477.68
685.137	521.18
685.583	562.08
686.028	582.28
686.473	548.68
686.918	472.58
687.363	432.98
687.807	417.28
688.252	384.48
688.697	370.58
689.142	353.88
689.587	351.18
690.032	340.38
690.477	367.58
690.921	373.18
691.366	404.88
691.811	422.78
692.255	453.18
692.7	489.68
693.145	531.38
693.589	764.88
694.034	1220.78
694.478	1645.18
694.923	1812.88
695.367	2346.78
695.812	1245.88
696.256	531.48
696.701	397.68
697.145	356.88
697.59	348.88
698.034	329.08
698.478	340.18
698.922	337.18
699.367	336.18
699.811	356.58
700.255	363.78
700.699	404.48
701.143	442.38
701.588	490.18
702.032	541.78
702.476	528.98
702.92	511.88
703.364	520.38
703.808	684.28
704.252	1120.18
704.696	1548.38
705.14	1744.08
705.584	2203.48
706.027	1127.18
706.471	548.78
706.915	416.98
707.359	370.68
707.803	335.78
708.246	325.88
708.69	325.58
709.134	320.18
709.577	332.28
710.021	330.78
710.465	314.98
710.908	308.78
711.352	307.28
711.795	330.58
712.239	369.48
712.682	405.38
713.126	430.18
713.569	474.88
714.012	373.48
714.456	321.58
714.899	301.98
715.342	282.58
715.786	266.98
716.229	270.08
716.672	264.08
717.115	260.68
717.558	261.18
718.002	257.78
718.445	278.48
718.888	297.68
719.331	302.28
719.774	323.28
720.217	323.08
720.66	291.78
721.103	274.78
721.546	266.68
721.989	256.28
722.432	251.18
722.874	246.08
723.317	242.68
723.76	241.28
724.203	266.98
724.645	331.98
725.088	474.08
725.531	597.18
725.974	665.28
726.416	575.78
726.859	318.88
727.301	257.98
727.744	249.18
728.187	241.48
728.629	253.58
729.071	253.78
729.514	266.38
729.956	283.78
730.399	292.58
730.841	299.58
731.283	287.28
731.726	281.58
732.168	276.78
732.61	287.78
733.053	304.48
733.495	329.18
733.937	366.88
734.379	422.58
734.821	458.48
735.263	581.28
735.705	904.08
736.148	1719.58
736.59	2739.78
737.032	3161.98
737.474	2601.58
737.916	863.98
738.357	457.88
738.799	337.68
739.241	316.18
739.683	299.88
740.125	317.08
740.567	317.48
741.008	332.78
741.45	330.68
741.892	336.78
742.334	368.88
742.775	370.98
743.217	362.28
743.658	293.38
744.1	274.08
744.542	279.58
744.983	339.78
745.425	360.58
745.866	358.18
746.307	292.88
746.749	294.98
747.19	337.38
747.632	499.08
748.073	965.58
748.514	2016.08
748.956	2996.58
749.397	3778.88
749.838	3133.28
750.279	3066.38
750.72	1579.28
751.162	584.98
751.603	338.08
752.044	266.28
752.485	231.68
752.926	214.98
753.367	210.78
753.808	201.38
754.249	205.08
754.69	206.98
755.131	190.88
755.572	187.88
756.013	186.08
756.453	194.68
756.894	198.38
757.335	192.88
757.776	201.58
758.216	205.58
758.657	206.58
759.098	215.38
759.538	242.08
759.979	284.18
760.42	407.98
760.86	778.08
761.301	2026.98
761.741	4781.78
762.182	6656.98
762.622	4716.18
763.063	1391.88
763.503	569.98
763.943	350.88
764.384	292.58
764.824	287.18
765.264	279.48
765.705	224.88
766.145	203.08
766.585	187.18
767.025	185.68
767.465	174.68
767.906	203.18
768.346	225.58
768.786	237.48
769.226	237.78
769.666	326.68
770.106	679.58
770.546	1694.28
770.986	2755.38
771.426	2427.38
771.866	836.48
772.306	345.68
772.745	218.78
773.185	178.78
773.625	158.38
774.065	158.38
774.505	174.58
774.944	237.28
775.384	418.38
775.824	692.18
776.263	661.38
776.703	312.88
777.142	176.38
777.582	150.48
778.021	131.98
778.461	131.18
778.9	132.38
779.34	130.08
779.779	123.18
780.219	117.88
780.658	111.28
781.097	116.08
781.537	120.28
781.976	111.98
782.415	111.18
782.855	108.88
783.294	105.98
783.733	110.68
784.172	112.78
784.611	99.58
785.05	108.88
785.489	111.58
785.928	122.68
786.367	127.98
786.806	122.38
787.245	132.88
787.684	140.38
788.123	147.08
788.562	137.18
789.001	132.18
789.44	129.48
789.879	123.88
790.317	119.18
790.756	137.28
791.195	138.38
791.634	158.38
792.072	218.48
792.511	411.18
792.95	1099.58
793.388	2222.58
793.827	1990.88
794.265	702.58
794.704	301.98
795.142	187.18
795.581	158.68
796.019	145.38
796.458	135.98
796.896	135.08
797.334	140.88
797.773	166.68
798.211	238.28
798.649	479.78
799.087	1088.48
799.526	1692.08
799.964	2126.28
800.402	2080.18
800.84	795.58
801.278	323.08
801.716	205.88
802.154	160.18
802.592	155.58
803.03	147.58
803.468	140.88
803.906	150.48
804.344	159.28
804.782	149.98
805.22	144.38
805.658	137.68
806.096	155.88
806.533	169.68
806.971	186.98
807.409	233.88
807.847	348.28
808.284	737.08
808.722	2021.98
809.16	3471.88
809.597	3401.48
810.035	5760.88
810.472	5929.58
810.91	2202.98
811.347	846.88
811.785	435.88
812.222	274.48
812.66	207.08
813.097	176.08
813.535	152.48
813.972	137.38
814.409	130.58
814.846	114.68
815.284	111.88
815.721	104.18
816.158	114.48
816.595	118.38
817.032	166.58
817.47	199.08
817.907	133.08
818.344	109.88
818.781	102.18
819.218	99.98
819.655	127.68
820.092	202.48
820.529	228.68
820.966	182.78
821.403	130.38
821.839	96.68
822.276	105.58
822.713	128.98
823.15	144.78
823.587	127.38
824.023	164.18
824.46	323.98
824.897	955.98
825.333	1406.68
825.77	611.28
826.206	249.78
826.643	140.68
827.08	113.18
827.516	89.68
827.953	85.78
828.389	87.08
828.825	77.28
829.262	68.28
829.698	66.48
830.135	65.68
830.571	59.18
831.007	74.18
831.443	65.88
831.88	61.58
832.316	63.58
832.752	61.98
833.188	67.58
833.624	69.18
834.06	73.68
834.497	72.88
834.933	76.68
835.369	76.78
835.805	69.38
836.241	80.68
836.677	83.28
837.112	95.08
837.548	112.78
837.984	143.98
838.42	217.48
838.856	551.68
839.292	1620.98
839.727	2376.78
840.163	1128.68
840.599	1008.68
841.034	2160.08
841.47	2170.78
841.906	817.58
842.341	350.18
842.777	210.98
843.212	229.68
843.648	206.68
844.083	127.68
844.519	91.58
844.954	76.58
845.39	59.18
845.825	60.78
846.261	56.68
846.696	57.88
847.131	51.98
847.566	61.18
848.002	51.18
848.437	59.58
848.872	66.38
849.307	66.48
849.742	95.28
850.177	204.68
850.613	604.78
851.048	907.18
851.483	397.08
851.918	163.08
852.353	91.98
852.788	55.38
853.223	56.68
853.657	54.38
854.092	55.48
854.527	49.78
854.962	45.98
855.397	49.38
855.832	53.08
856.266	47.28
856.701	45.68
857.136	44.18
857.57	46.18
858.005	46.38
858.44	66.08
858.874	47.08
859.309	59.28
859.743	39.18
860.178	50.78
860.612	43.48
861.047	51.48
861.481	68.68
861.915	74.58
862.35	52.48
862.784	30.58
863.218	42.58
863.653	36.08
864.087	52.78
864.521	51.78
864.955	71.58
865.39	164.38
865.824	181.78
866.258	125.08
866.692	180.78
867.126	193.68
867.56	113.28
867.994	58.68
868.428	46.08
868.862	48.08
869.296	55.28
869.73	61.48
870.164	58.18
870.598	45.68
871.031	40.68
871.465	29.18
871.899	30.88
872.333	25.18
872.766	28.78
873.2	28.38
873.634	29.58
874.067	26.18
874.501	30.38
874.935	38.38
875.368	39.18
875.802	32.48
876.235	23.58
876.669	21.78
877.102	20.48
877.535	26.08
877.969	23.88
878.402	23.38
878.836	21.88
879.269	19.88
879.702	31.68
880.135	25.48
880.569	23.68
881.002	28.48
881.435	23.28
881.868	21.48
882.301	23.98
882.734	20.68
883.167	19.78
883.601	24.78
884.034	23.98
884.467	11.38
884.899	25.68
885.332	16.78
885.765	10.88
886.198	18.78
886.631	18.38
887.064	21.98
887.497	24.88
887.929	26.88
888.362	15.68
888.795	14.28
889.228	17.48
889.66	23.38
890.093	16.88
890.526	20.18
890.958	9.68
891.391	19.18
891.823	25.68
892.256	15.38
892.688	14.68
893.121	17.68
893.553	19.78
893.985	22.18
894.418	22.68
894.85	13.88
895.282	19.38
895.715	24.18
896.147	17.08
896.579	18.68
897.011	15.38
897.444	18.48
897.876	17.68
898.308	22.78
898.74	18.28
899.172	19.88
899.604	24.28
900.036	24.68
900.468	11.58
900.9	13.68
901.332	20.78
901.764	19.48
902.196	19.18
902.628	17.48
903.06	19.38
903.491	27.18
903.923	23.18
904.355	20.88
904.787	32.78
905.218	23.38
905.65	15.88
906.082	17.18
906.513	12.58
906.945	20.58
907.376	13.88
907.808	20.88
908.239	26.48
908.671	19.18
909.102	24.78
909.534	25.38
909.965	49.28
910.397	96.18
910.828	332.18
911.259	486.28
911.691	233.88
912.122	115.98
912.553	57.78
912.984	40.28
913.415	27.08
913.847	30.48
914.278	15.58
914.709	11.68
915.14	15.78
915.571	20.28
916.002	16.48
916.433	18.88
916.864	19.28
917.295	15.88
917.726	23.58
918.157	16.38
918.587	31.98
919.018	18.98
919.449	24.58
919.88	20.18
920.311	35.98
920.741	54.98
921.172	171.38
921.603	158.08
922.033	79.78
922.464	52.68
922.895	22.18
923.325	16.68
923.756	15.88
924.186	14.48
924.617	18.28
925.047	22.68
925.478	25.78
925.908	26.88
926.338	18.48
926.769	11.68
927.199	18.38
927.629	11.68
928.06	20.48
928.49	12.18
928.92	12.68
929.35	14.18
929.78	6.48
930.21	5.18
930.641	5.58
931.071	10.88
931.501	-1.32
931.931	11.88
932.361	9.98
932.791	3.78
933.221	13.28
933.651	4.68
934.08	21.68
934.51	29.28
934.94	12.68
935.37	10.58
935.8	14.48
936.229	6.38
936.659	11.78
937.089	7.98
937.519	14.88
937.948	29.38
938.378	19.38
938.807	3.28
939.237	1.98
939.666	4.48
940.096	-9.12
940.525	4.28
940.955	-0.02
941.384	4.18
941.814	-4.92
942.243	-0.22
942.672	3.08
943.102	-2.52
943.531	-2.02
943.96	4.48
944.39	2.58
944.819	2.68
945.248	-1.82
945.677	2.08
946.106	4.88
946.535	6.58
946.964	2.78
947.393	3.88
947.822	-1.52
948.251	-6.02
948.68	1.08
949.109	1.78
949.538	10.68
949.967	5.68
950.396	7.08
950.825	4.98
951.254	0.28
951.682	-6.42
952.111	2.78
952.54	4.18
952.969	-3.12
953.397	-4.12
953.826	-3.52
954.254	-3.62
954.683	-1.22
955.112	-0.12
955.54	-0.82
955.969	3.18
956.397	-0.02
956.826	-2.02
957.254	9.38
957.682	-1.72
958.111	6.98
958.539	-6.72
958.967	2.08
959.396	3.98
959.824	4.28
960.252	2.98
960.68	-1.02
961.109	1.18
961.537	2.18
961.965	-0.62
962.393	5.38
962.821	-0.02
963.249	-1.22
963.677	9.08
964.105	9.38
964.533	50.48
964.961	45.28
965.389	21.28
965.817	6.18
966.245	3.68
966.672	0.78
967.1	-6.72
967.528	1.78
967.956	0.68
968.383	-5.32
968.811	-3.52
969.239	-7.62
969.666	-3.72
970.094	-2.12
970.522	2.48
970.949	-1.82
971.377	1.28
971.804	6.08
972.232	0.68
972.659	0.48
973.087	-1.52
973.514	0.48
973.941	-4.42
974.369	9.68
974.796	2.18
975.223	-3.12
975.651	-5.62
976.078	1.18
976.505	-2.92
976.932	2.98
977.359	18.58
977.786	16.58
978.214	2.68
978.641	0.08
979.068	-4.42
979.495	-8.22
979.922	3.08
980.349	-5.72
980.776	2.18
981.202	3.48
981.629	3.48
982.056	2.98
982.483	1.28
982.91	3.58
983.337	-4.02
983.763	5.88
984.19	-4.02
984.617	-3.72
985.043	-0.82
985.47	-2.92
985.897	-3.92
986.323	-9.52
986.75	2.68
987.176	0.78
987.603	-4.72
988.029	-0.92
988.456	-2.12
988.882	-0.52
989.308	-5.62
989.735	1.28
990.161	-9.12
990.587	-0.42
991.014	1.68
991.44	3.88
991.866	0.48
992.292	-7.32
992.719	-7.82
993.145	1.28
993.571	-3.02
993.997	2.68
994.423	-0.62
994.849	-6.12
995.275	3.28
995.701	1.68
996.127	-7.02
996.553	5.78
996.979	-5.52
997.405	-2.02
997.83	-5.22
998.256	-6.02
998.682	-3.32
999.108	-2.32
999.534	-1.42
999.959	-1.42
1000.385	-1.12
1000.811	-2.82
1001.236	-11.32
1001.662	-9.02
1002.087	-10.82
1002.513	-2.52
1002.938	1.28
1003.364	-7.42
1003.789	-0.42
1004.215	4.08
1004.64	1.28
1005.066	1.58
1005.491	-1.02
1005.916	1.98
1006.342	-6.12
1006.767	-10.52
1007.192	2.88
1007.617	-4.82
1008.042	-9.72
1008.468	-11.62
1008.893	-4.92
1009.318	-6.32
1009.743	1.38
1010.168	3.78
1010.593	0.78
1011.018	-7.62
1011.443	0.88
1011.868	1.68
1012.293	-7.02
1012.718	-7.32
1013.143	-0.02
1013.567	-0.22
1013.992	-3.12
1014.417	-10.32
1014.842	2.88
1015.267	-5.92
1015.691	-0.72
1016.116	3.78
1016.541	-1.02
1016.965	-2.82
1017.39	4.18
1017.814	-4.02
1018.239	4.98
1018.663	-3.82
1019.088	-13.02
1019.512	-1.62
1019.937	-2.92
1020.361	-8.42
1020.785	-9.62
1021.21	1.98
1021.634	-3.32
1022.058	1.78
1022.483	6.88
1022.907	-0.52
1023.331	-5.32
1023.755	-2.92
1024.179	2.68
1024.604	-5.32
1025.028	-5.42
1025.452	-3.22
1025.876	3.18
1026.3	6.28
1026.724	-7.92
1027.148	-2.22
1027.572	-12.82
1027.996	-2.32
1028.42	1.28
1028.843	-2.02
1029.267	-5.72
1029.691	-5.02
1030.115	-6.52
1030.539	-7.02
1030.962	-0.92
1031.386	-9.02
1031.81	0.98
1032.233	0.38
1032.657	-4.22
1033.08	-3.02
1033.504	-3.22
1033.927	-1.82
1034.351	-1.52
1034.774	-3.12
1035.198	-6.22
1035.621	-4.72
1036.045	-5.22
1036.468	0.38
1036.891	-4.92
1037.315	-7.32
1037.738	-11.02
1038.161	3.98
1038.584	-8.32
1039.008	-1.32
1039.431	-1.02
1039.854	-2.32
1040.277	-8.32
1040.7	-15.12
1041.123	-2.72
1041.546	-11.42
1041.969	-4.22
1042.392	-6.92
1042.815	-4.92
1043.238	2.78
1043.661	1.28
1044.084	-5.12
1044.507	0.98
1044.93	-2.82
1045.352	-1.82
1045.775	-2.82
1046.198	-2.62
1046.621	0.98
1047.043	-0.32
1047.466	5.48
1047.889	-3.12
1048.311	-4.32
1048.734	-1.32
1049.156	0.78
1049.579	-0.12
1050.001	0.08
1050.424	-4.12
1050.846	-3.02
1051.269	-3.92
1051.691	-4.32
1052.113	-7.82
1052.536	-3.92
1052.958	-2.32
1053.38	-2.22
1053.802	-10.12
1054.225	-3.82
1054.647	-9.32
1055.069	-3.12
1055.491	1.88
1055.913	-7.02
1056.335	1.38
1056.757	-5.52
1057.179	-13.12
1057.601	-4.72
1058.023	-1.82
1058.445	-6.12
1058.867	-2.52
1059.289	-3.62
1059.711	-11.12
1060.133	1.88
1060.555	-11.02
1060.976	-6.42
1061.398	-3.52
1061.82	-11.92
1062.241	-9.02
1062.663	-7.62
1063.085	-5.62
1063.506	-2.72
1063.928	-1.22
1064.35	-1.82
1064.771	-13.42
1065.193	-5.52
1065.614	-8.02
1066.035	-6.42
1066.457	-2.62
1066.878	1.58
1067.3	-8.32
1067.721	1.18
1068.142	-1.82
1068.564	-6.12
1068.985	-7.62
1069.406	-6.92
1069.827	-6.42
1070.248	3.28
1070.67	-3.32
1071.091	-4.22
1071.512	-2.62
1071.933	-3.62
1072.354	-5.82
1072.775	-7.52
1073.196	-8.12
1073.617	-4.02
1074.038	-7.82
1074.459	-1.12
1074.88	-3.22
1075.3	-3.32
1075.721	-6.92
1076.142	3.28
1076.563	-6.92
1076.983	-11.32
1077.404	-6.42
1077.825	-12.02
1078.246	-6.22
1078.666	-3.82
1079.087	-5.32
1079.507	-9.82
1079.928	-0.92
1080.348	-2.12
1080.769	-4.82
1081.189	6.98
1081.61	-4.62
1082.03	-1.02
1082.451	-6.02
1082.871	-3.72
1083.291	-9.02
1083.711	-7.02
1084.132	-5.42
1084.552	-4.82
1084.972	1.58
1085.392	-9.72
1085.813	-11.52
1086.233	-9.82
1086.653	-5.52
1087.073	-1.52
1087.493	-5.32
1087.913	-6.82
1088.333	-8.22
1088.753	-4.12
1089.173	3.18
1089.593	-2.02
1090.013	-1.62
1090.433	1.58
1090.852	-1.42
1091.272	-3.22
1091.692	6.48
1092.112	-5.52
1092.531	-9.02
1092.951	-8.92
1093.371	-4.52
1093.79	0.98
1094.21	-5.52
1094.63	-1.42
1095.049	-6.42
1095.469	-0.42
1095.888	-0.72
1096.308	3.78
1096.727	0.98
1097.146	-5.32
1097.566	2.68
1097.985	-3.12
1098.405	-2.72
1098.824	-4.72
1099.243	-8.22
1099.662	-10.42
1100.082	-10.32
1100.501	2.38
1100.92	-4.62
1101.339	-3.92
1101.758	-3.22
