Data from 20171114-ORNL-Ar_H_NY_Subt18_08-07-08-505.txt Node
Date: Tue Nov 14 08:07:08 EST 2017
User: Ender
Spectrometer: HR+D1039
Trigger mode: 0
Integration Time (sec): 2.730000E-2
Scans to average: 10
Electric dark correction enabled: true
Nonlinearity correction enabled: false
Boxcar width: 0
XAxis mode: Wavelengths
Number of Pixels in Spectrum: 2048
>>>>>Begin Spectral Data<<<<<
187.836	-3.68
188.309	-3.68
188.782	-3.68
189.255	-2.58
189.728	2.22
190.201	7.62
190.674	1.92
191.147	-1.78
191.619	-7.08
192.092	-1.28
192.565	-0.98
193.038	1.22
193.511	-0.88
193.984	5.92
194.456	-3.68
194.929	4.52
195.402	0.52
195.874	-1.98
196.347	-3.28
196.82	-6.68
197.292	5.12
197.765	-4.38
198.237	-9.98
198.71	3.42
199.182	2.12
199.655	0.72
200.127	4.22
200.6	-4.88
201.072	-8.28
201.544	-6.68
202.017	-5.18
202.489	5.52
202.961	-6.38
203.433	-9.38
203.906	-3.38
204.378	-4.18
204.85	-2.48
205.322	-12.98
205.794	-5.08
206.266	-8.28
206.739	-3.68
207.211	0.42
207.683	-5.28
208.155	-2.38
208.627	-8.88
209.099	-2.58
209.57	-16.98
210.042	-3.68
210.514	-7.28
210.986	-6.18
211.458	-15.68
211.93	-2.28
212.402	-5.98
212.873	-9.18
213.345	-7.98
213.817	-12.28
214.288	-6.98
214.76	-12.78
215.232	-2.28
215.703	-8.78
216.175	-2.28
216.646	-5.58
217.118	-1.98
217.589	-5.98
218.061	-1.18
218.532	-4.58
219.004	-7.18
219.475	0.72
219.946	-5.08
220.418	-4.28
220.889	-0.38
221.36	-9.98
221.832	-8.68
222.303	-12.08
222.774	0.32
223.245	-13.28
223.717	-14.78
224.188	-1.18
224.659	-6.68
225.13	-9.18
225.601	-1.28
226.072	-0.78
226.543	-3.28
227.014	-1.78
227.485	-3.38
227.956	-8.78
228.427	-2.48
228.898	2.72
229.369	5.32
229.839	-4.68
230.31	-13.78
230.781	2.72
231.252	-8.28
231.722	-12.48
232.193	-4.48
232.664	-5.68
233.135	-4.78
233.605	-10.48
234.076	-16.38
234.546	-2.98
235.017	0.02
235.487	-3.48
235.958	-4.48
236.428	-13.78
236.899	-8.18
237.369	-3.38
237.84	-12.28
238.31	1.62
238.78	-3.98
239.251	-8.88
239.721	-3.88
240.191	-7.58
240.662	-5.08
241.132	-6.08
241.602	-9.48
242.072	-7.08
242.542	2.22
243.013	-6.38
243.483	-3.98
243.953	0.12
244.423	-3.78
244.893	-3.38
245.363	-0.48
245.833	-2.08
246.303	-4.38
246.773	-2.38
247.243	-2.38
247.712	0.92
248.182	1.32
248.652	-5.78
249.122	-6.68
249.592	-1.68
250.061	0.52
250.531	1.52
251.001	-8.58
251.471	-2.18
251.94	3.32
252.41	1.82
252.879	-7.48
253.349	3.52
253.818	-4.48
254.288	4.02
254.757	3.12
255.227	-7.08
255.696	-6.88
256.166	2.72
256.635	0.72
257.105	-3.88
257.574	-4.78
258.043	-4.68
258.513	-3.98
258.982	-0.28
259.451	-3.78
259.92	-4.78
260.389	-6.88
260.859	4.12
261.328	-2.48
261.797	2.72
262.266	-5.08
262.735	9.42
263.204	-6.48
263.673	-1.68
264.142	-0.78
264.611	-2.98
265.08	-4.78
265.549	-8.78
266.018	2.82
266.487	-12.58
266.955	-4.98
267.424	-5.78
267.893	2.32
268.362	-2.68
268.83	1.32
269.299	2.82
269.768	0.92
270.236	1.02
270.705	-1.78
271.174	2.52
271.642	0.42
272.111	3.22
272.579	-4.98
273.048	-3.58
273.516	-0.18
273.985	5.82
274.453	5.32
274.922	1.72
275.39	2.22
275.858	-6.88
276.327	4.42
276.795	5.82
277.263	3.12
277.731	11.72
278.2	9.62
278.668	4.62
279.136	2.12
279.604	2.52
280.072	4.12
280.54	8.02
281.008	4.72
281.477	8.72
281.945	4.22
282.413	5.92
282.881	5.92
283.348	-2.08
283.816	4.52
284.284	5.12
284.752	13.82
285.22	3.32
285.688	12.72
286.156	-0.18
286.623	8.72
287.091	2.12
287.559	6.22
288.026	8.12
288.494	6.82
288.962	-0.48
289.429	2.72
289.897	11.92
290.364	4.52
290.832	9.72
291.3	1.32
291.767	7.92
292.234	10.72
292.702	1.22
293.169	12.32
293.637	17.92
294.104	11.62
294.571	-2.98
295.039	8.62
295.506	9.12
295.973	11.22
296.44	13.62
296.908	10.72
297.375	14.82
297.842	10.72
298.309	9.92
298.776	0.22
299.243	10.92
299.71	7.02
300.177	15.52
300.644	12.42
301.111	5.22
301.578	13.72
302.045	3.92
302.512	14.42
302.979	15.22
303.446	16.12
303.913	11.92
304.379	8.52
304.846	19.72
305.313	15.12
305.78	16.62
306.246	15.52
306.713	22.72
307.18	20.92
307.646	25.52
308.113	20.52
308.579	13.12
309.046	19.22
309.512	16.62
309.979	12.52
310.445	22.52
310.912	19.92
311.378	26.72
311.845	18.62
312.311	32.22
312.777	19.52
313.244	18.52
313.71	25.82
314.176	15.42
314.642	21.82
315.109	20.72
315.575	20.52
316.041	29.82
316.507	18.72
316.973	22.72
317.439	24.72
317.905	19.02
318.371	26.92
318.837	22.72
319.303	22.82
319.769	22.52
320.235	22.82
320.701	24.82
321.167	27.62
321.633	24.92
322.099	25.92
322.564	33.62
323.03	30.12
323.496	28.22
323.962	22.52
324.427	27.82
324.893	30.92
325.359	32.82
325.824	27.42
326.29	30.72
326.755	28.92
327.221	30.62
327.686	35.62
328.152	32.22
328.617	35.52
329.083	39.22
329.548	37.32
330.014	41.62
330.479	29.12
330.944	33.32
331.41	29.32
331.875	35.12
332.34	29.82
332.805	34.22
333.271	34.32
333.736	31.12
334.201	41.92
334.666	41.32
335.131	46.02
335.596	40.42
336.061	40.92
336.526	29.82
336.991	35.72
337.456	46.42
337.921	43.32
338.386	33.22
338.851	32.52
339.316	38.02
339.781	38.62
340.246	44.02
340.711	40.72
341.175	45.32
341.64	34.62
342.105	40.72
342.569	47.82
343.034	40.82
343.499	42.32
343.963	41.22
344.428	57.52
344.893	48.42
345.357	48.72
345.822	49.82
346.286	57.22
346.751	61.22
347.215	57.92
347.679	55.22
348.144	68.22
348.608	65.82
349.073	51.82
349.537	61.92
350.001	60.92
350.465	71.12
350.93	70.52
351.394	72.32
351.858	62.52
352.322	69.92
352.786	69.92
353.25	76.02
353.715	91.12
354.179	77.42
354.643	98.32
355.107	97.72
355.571	92.12
356.035	78.72
356.498	91.82
356.962	92.32
357.426	98.92
357.89	94.42
358.354	76.42
358.818	75.72
359.281	68.52
359.745	58.82
360.209	65.52
360.673	58.12
361.136	75.42
361.6	74.72
362.064	69.42
362.527	70.42
362.991	76.92
363.454	66.82
363.918	68.62
364.381	69.52
364.845	74.62
365.308	76.22
365.772	73.72
366.235	76.42
366.698	66.92
367.162	78.82
367.625	78.02
368.088	75.22
368.552	80.32
369.015	71.52
369.478	89.52
369.941	84.62
370.404	83.92
370.867	88.12
371.331	89.52
371.794	90.82
372.257	87.62
372.72	100.42
373.183	102.62
373.646	88.12
374.109	88.02
374.572	86.42
375.035	95.52
375.497	96.42
375.96	92.52
376.423	97.42
376.886	97.82
377.349	99.12
377.811	95.92
378.274	95.32
378.737	92.62
379.199	93.92
379.662	102.72
380.125	103.82
380.587	103.22
381.05	94.52
381.512	100.52
381.975	117.02
382.437	108.72
382.9	103.32
383.362	113.62
383.825	123.52
384.287	112.42
384.75	105.82
385.212	125.72
385.674	124.22
386.136	123.52
386.599	113.42
387.061	116.72
387.523	106.52
387.985	115.32
388.447	117.62
388.91	116.12
389.372	119.22
389.834	120.62
390.296	110.82
390.758	119.12
391.22	127.22
391.682	132.32
392.144	138.32
392.606	129.72
393.068	125.92
393.529	138.92
393.991	126.72
394.453	122.32
394.915	122.92
395.377	124.02
395.838	129.82
396.3	130.12
396.762	130.72
397.224	124.02
397.685	125.12
398.147	130.62
398.608	128.42
399.07	130.12
399.531	133.02
399.993	136.72
400.454	151.22
400.916	138.42
401.377	137.62
401.839	142.92
402.3	141.42
402.762	163.32
403.223	172.82
403.684	169.12
404.145	156.22
404.607	155.62
405.068	159.32
405.529	166.42
405.99	177.92
406.451	169.72
406.913	169.82
407.374	157.82
407.835	153.72
408.296	157.92
408.757	175.02
409.218	173.02
409.679	173.32
410.14	165.92
410.601	176.72
411.062	169.82
411.522	171.62
411.983	174.22
412.444	166.12
412.905	181.62
413.366	180.02
413.826	193.32
414.287	217.42
414.748	265.82
415.208	242.92
415.669	212.22
416.13	204.92
416.59	199.92
417.051	219.92
417.511	218.52
417.972	238.42
418.432	239.72
418.893	299.62
419.353	252.62
419.814	201.02
420.274	183.32
420.734	183.22
421.195	193.62
421.655	187.12
422.115	193.62
422.576	194.12
423.036	202.12
423.496	209.12
423.956	220.02
424.416	225.12
424.876	260.62
425.336	264.12
425.797	252.32
426.257	253.72
426.717	239.62
427.177	235.42
427.637	223.72
428.097	231.42
428.556	243.02
429.016	261.12
429.476	265.92
429.936	267.52
430.396	269.42
430.856	279.72
431.315	308.12
431.775	328.32
432.235	372.22
432.694	340.72
433.154	349.22
433.614	381.42
434.073	327.72
434.533	282.22
434.993	263.82
435.452	272.92
435.912	278.22
436.371	281.52
436.83	276.22
437.29	256.42
437.749	246.72
438.209	243.02
438.668	275.22
439.127	283.22
439.587	257.72
440.046	246.92
440.505	264.12
440.964	274.42
441.424	320.12
441.883	313.12
442.342	260.32
442.801	235.32
443.26	225.22
443.719	230.72
444.178	223.42
444.637	214.22
445.096	229.42
445.555	235.72
446.014	223.92
446.473	232.92
446.932	241.72
447.391	232.32
447.849	246.02
448.308	224.92
448.767	225.62
449.226	240.42
449.685	239.42
450.143	256.82
450.602	250.92
451.061	234.72
451.519	236.32
451.978	244.82
452.436	238.92
452.895	240.72
453.353	254.62
453.812	242.32
454.27	244.52
454.729	246.92
455.187	254.82
455.646	246.92
456.104	255.12
456.562	262.42
457.021	272.32
457.479	267.52
457.937	280.62
458.395	273.82
458.854	255.92
459.312	263.72
459.77	283.42
460.228	257.42
460.686	249.42
461.144	260.42
461.602	257.32
462.06	256.02
462.518	259.52
462.976	268.32
463.434	266.32
463.892	270.82
464.35	286.12
464.808	298.42
465.266	279.82
465.724	278.92
466.181	287.82
466.639	281.82
467.097	302.02
467.555	317.22
468.012	315.92
468.47	323.42
468.928	333.22
469.385	351.22
469.843	355.82
470.3	357.42
470.758	367.02
471.215	388.12
471.673	419.42
472.13	413.92
472.588	429.62
473.045	384.92
473.503	395.92
473.96	407.92
474.417	412.82
474.875	448.32
475.332	483.62
475.789	470.72
476.246	478.52
476.704	499.92
477.161	514.62
477.618	532.02
478.075	565.02
478.532	612.32
478.989	690.82
479.446	793.52
479.903	762.82
480.36	793.92
480.817	846.02
481.274	935.02
481.731	1031.52
482.188	1096.92
482.645	1207.72
483.102	1308.02
483.558	1434.32
484.015	1480.32
484.472	1449.92
484.929	1392.52
485.385	1352.42
485.842	1333.02
486.299	1284.72
486.755	1247.82
487.212	1061.92
487.668	912.02
488.125	840.92
488.582	780.22
489.038	757.82
489.494	722.32
489.951	702.12
490.407	678.42
490.864	665.72
491.32	659.02
491.776	657.92
492.233	660.92
492.689	630.02
493.145	623.32
493.602	617.52
494.058	621.62
494.514	637.42
494.97	651.32
495.426	663.52
495.882	645.22
496.338	636.02
496.794	626.72
497.251	632.52
497.707	643.82
498.163	643.02
498.618	651.72
499.074	659.02
499.53	694.92
499.986	675.02
500.442	664.22
500.898	644.02
501.354	633.32
501.809	643.92
502.265	634.82
502.721	660.12
503.177	664.02
503.632	668.72
504.088	670.42
504.543	688.42
504.999	713.62
505.455	672.22
505.91	663.72
506.366	670.72
506.821	656.62
507.277	658.62
507.732	654.92
508.187	657.72
508.643	660.52
509.098	656.42
509.553	685.82
510.009	691.22
510.464	702.02
510.919	714.62
511.375	729.82
511.83	729.22
512.285	747.52
512.74	781.62
513.195	804.72
513.65	798.02
514.105	789.02
514.56	789.82
515.015	806.42
515.47	826.62
515.925	805.02
516.38	812.32
516.835	824.02
517.29	809.42
517.745	808.12
518.2	792.72
518.655	774.62
519.109	770.62
519.564	762.12
520.019	768.52
520.474	761.12
520.928	752.82
521.383	748.62
521.838	744.52
522.292	738.12
522.747	734.62
523.201	724.92
523.656	729.82
524.11	725.62
524.565	728.82
525.019	724.32
525.474	724.22
525.928	718.92
526.382	715.82
526.837	730.92
527.291	726.52
527.745	714.22
528.2	724.32
528.654	728.42
529.108	713.02
529.562	724.42
530.016	714.12
530.47	714.52
530.925	711.02
531.379	716.82
531.833	727.62
532.287	718.12
532.741	729.52
533.195	725.02
533.649	730.52
534.103	734.82
534.556	727.42
535.01	731.02
535.464	720.62
535.918	735.12
536.372	746.42
536.826	734.62
537.279	729.52
537.733	745.22
538.187	737.82
538.64	738.12
539.094	742.02
539.548	751.82
540.001	752.32
540.455	754.12
540.908	760.92
541.362	769.22
541.815	769.42
542.269	792.92
542.722	781.82
543.175	792.82
543.629	801.62
544.082	810.32
544.536	817.02
544.989	828.22
545.442	830.22
545.895	828.32
546.349	831.12
546.802	831.82
547.255	837.52
547.708	839.52
548.161	851.72
548.614	850.82
549.067	863.72
549.52	853.92
549.973	853.32
550.426	846.72
550.879	832.72
551.332	825.12
551.785	829.72
552.238	850.42
552.691	854.92
553.144	876.62
553.596	876.42
554.049	892.02
554.502	925.92
554.955	941.42
555.407	941.22
555.86	941.32
556.313	920.22
556.765	916.02
557.218	911.92
557.67	917.32
558.123	911.12
558.576	909.72
559.028	910.92
559.48	923.22
559.933	914.72
560.385	872.52
560.838	835.22
561.29	809.12
561.742	820.62
562.195	811.12
562.647	792.82
563.099	807.52
563.551	804.32
564.004	810.12
564.456	804.52
564.908	780.42
565.36	779.02
565.812	751.02
566.264	741.92
566.716	741.42
567.168	736.02
567.62	732.02
568.072	723.82
568.524	723.32
568.976	712.52
569.428	703.72
569.88	698.52
570.332	713.92
570.784	716.82
571.235	707.32
571.687	722.72
572.139	728.12
572.59	737.42
573.042	738.42
573.494	738.02
573.945	736.52
574.397	715.72
574.849	714.42
575.3	725.62
575.752	715.42
576.203	712.52
576.655	715.42
577.106	699.22
577.557	691.32
578.009	697.32
578.46	692.82
578.912	690.02
579.363	688.42
579.814	702.42
580.265	689.72
580.717	690.72
581.168	693.62
581.619	707.72
582.07	707.72
582.521	698.62
582.972	697.22
583.423	697.12
583.875	700.52
584.326	712.82
584.777	726.92
585.227	730.52
585.678	740.02
586.129	757.12
586.58	773.12
587.031	791.92
587.482	820.32
587.933	829.42
588.384	827.02
588.834	804.22
589.285	801.52
589.736	806.22
590.186	793.82
590.637	786.42
591.088	764.02
591.538	759.32
591.989	756.22
592.439	749.32
592.89	736.92
593.34	734.62
593.791	738.62
594.241	719.02
594.692	727.12
595.142	714.52
595.593	714.82
596.043	732.02
596.493	726.32
596.943	716.92
597.394	740.42
597.844	754.72
598.294	757.32
598.744	788.12
599.195	803.32
599.645	850.52
600.095	881.22
600.545	945.92
600.995	998.22
601.445	1054.82
601.895	1110.42
602.345	1170.32
602.795	1143.92
603.245	1103.92
603.695	1039.92
604.145	999.72
604.594	942.72
605.044	889.02
605.494	829.52
605.944	778.72
606.393	780.22
606.843	752.52
607.293	753.52
607.743	747.22
608.192	757.32
608.642	771.02
609.091	772.12
609.541	782.22
609.99	775.52
610.44	778.22
610.889	738.92
611.339	710.72
611.788	694.62
612.238	708.32
612.687	728.22
613.136	704.02
613.586	724.82
614.035	724.52
614.484	730.62
614.933	718.32
615.383	728.02
615.832	722.52
616.281	708.72
616.73	695.92
617.179	672.72
617.628	663.92
618.077	653.52
618.526	630.62
618.975	635.72
619.424	636.22
619.873	631.72
620.322	633.42
620.771	626.62
621.22	607.72
621.669	611.42
622.118	599.62
622.567	583.22
623.015	579.32
623.464	577.42
623.913	565.52
624.361	554.12
624.81	565.72
625.259	566.82
625.707	574.62
626.156	573.32
626.604	579.42
627.053	569.12
627.501	583.32
627.95	583.12
628.398	591.92
628.847	592.42
629.295	590.22
629.744	586.62
630.192	577.52
630.64	572.22
631.089	557.92
631.537	546.62
631.985	541.22
632.433	542.02
632.881	523.52
633.33	545.82
633.778	539.92
634.226	539.52
634.674	546.92
635.122	551.22
635.57	563.22
636.018	573.22
636.466	568.82
636.914	575.52
637.362	576.42
637.81	587.52
638.258	593.72
638.705	594.72
639.153	623.72
639.601	630.02
640.049	656.52
640.497	672.62
640.944	713.42
641.392	651.72
641.84	628.32
642.287	595.12
642.735	579.92
643.182	572.32
643.63	577.62
644.078	572.52
644.525	578.22
644.973	591.72
645.42	607.12
645.867	630.62
646.315	643.42
646.762	669.22
647.21	696.42
647.657	710.42
648.104	755.02
648.551	770.72
648.999	824.42
649.446	898.02
649.893	982.82
650.34	1119.52
650.787	1322.32
651.234	1636.72
651.682	2093.22
652.129	2841.22
652.576	4041.22
653.023	5869.42
653.47	7949.52
653.917	9915.92
654.363	11406.12
654.81	12575.22
655.257	11874.12
655.704	7866.12
656.151	4756.82
656.598	3112.52
657.044	2253.32
657.491	1742.12
657.938	1411.62
658.385	1178.52
658.831	1041.42
659.278	932.52
659.724	828.92
660.171	773.82
660.618	710.82
661.064	686.22
661.511	665.02
661.957	664.32
662.404	647.42
662.85	659.62
663.296	632.62
663.743	563.92
664.189	545.22
664.635	540.42
665.082	542.52
665.528	537.02
665.974	524.72
666.42	517.02
666.867	506.92
667.313	487.52
667.759	467.82
668.205	463.92
668.651	458.52
669.097	450.92
669.543	449.02
669.989	457.82
670.435	456.42
670.881	458.02
671.327	458.22
671.773	480.42
672.219	505.02
672.665	557.82
673.11	602.42
673.556	644.02
674.002	686.02
674.448	671.12
674.893	567.02
675.339	493.12
675.785	452.92
676.23	429.72
676.676	399.02
677.122	396.72
677.567	379.52
678.013	374.02
678.458	374.52
678.904	379.22
679.349	356.52
679.794	365.22
680.24	362.82
680.685	362.82
681.131	352.42
681.576	361.92
682.021	368.02
682.466	357.62
682.912	353.32
683.357	370.62
683.802	390.22
684.247	424.02
684.692	475.42
685.137	508.72
685.583	550.32
686.028	581.72
686.473	539.32
686.918	468.52
687.363	432.22
687.807	404.22
688.252	377.82
688.697	368.42
689.142	353.02
689.587	342.92
690.032	334.32
690.477	350.72
690.921	356.82
691.366	390.32
691.811	415.42
692.255	438.82
692.7	474.02
693.145	511.52
693.589	721.72
694.034	1179.42
694.478	1597.32
694.923	1793.92
695.367	2350.92
695.812	1235.92
696.256	506.22
696.701	378.82
697.145	361.62
697.59	338.72
698.034	330.62
698.478	324.92
698.922	322.02
699.367	332.72
699.811	345.32
700.255	360.12
700.699	389.92
701.143	431.32
701.588	486.22
702.032	531.42
702.476	526.32
702.92	506.32
703.364	515.12
703.808	661.72
704.252	1081.42
704.696	1506.72
705.14	1728.52
705.584	2203.92
706.027	1108.82
706.471	546.52
706.915	408.52
707.359	365.02
707.803	326.72
708.246	312.82
708.69	322.72
709.134	326.12
709.577	313.42
710.021	322.02
710.465	310.92
710.908	309.12
711.352	298.72
711.795	319.92
712.239	364.82
712.682	395.62
713.126	422.32
713.569	467.42
714.012	365.92
714.456	298.72
714.899	300.02
715.342	284.02
715.786	269.12
716.229	256.62
716.672	258.32
717.115	257.42
717.558	262.92
718.002	256.32
718.445	270.22
718.888	286.82
719.331	292.72
719.774	310.12
720.217	307.72
720.66	300.82
721.103	272.32
721.546	263.72
721.989	257.92
722.432	231.12
722.874	237.72
723.317	233.72
723.76	240.12
724.203	257.62
724.645	326.82
725.088	462.72
725.531	584.02
725.974	667.52
726.416	562.52
726.859	316.42
727.301	250.22
727.744	239.02
728.187	240.72
728.629	240.62
729.071	253.52
729.514	273.82
729.956	285.52
730.399	295.82
730.841	297.52
731.283	283.62
731.726	277.32
732.168	268.92
732.61	277.62
733.053	296.62
733.495	328.52
733.937	365.72
734.379	412.12
734.821	455.92
735.263	570.42
735.705	878.22
736.148	1644.22
736.59	2708.82
737.032	3174.32
737.474	2585.12
737.916	847.82
738.357	445.72
738.799	345.92
739.241	305.22
739.683	294.62
740.125	301.62
740.567	307.42
741.008	322.52
741.45	329.82
741.892	323.32
742.334	360.82
742.775	373.52
743.217	360.02
743.658	285.12
744.1	266.62
744.542	280.12
744.983	327.42
745.425	358.92
745.866	355.32
746.307	293.52
746.749	292.72
747.19	335.12
747.632	484.52
748.073	926.82
748.514	1960.92
748.956	2963.72
749.397	3733.22
749.838	3089.42
750.279	3085.92
750.72	1557.92
751.162	568.42
751.603	333.22
752.044	264.32
752.485	229.82
752.926	216.92
753.367	210.82
753.808	203.32
754.249	199.12
754.69	192.82
755.131	191.32
755.572	193.32
756.013	186.02
756.453	190.02
756.894	189.32
757.335	195.22
757.776	202.92
758.216	202.92
758.657	200.22
759.098	201.22
759.538	233.12
759.979	272.02
760.42	396.32
760.86	744.52
761.301	1936.82
761.741	4643.22
762.182	6681.72
762.622	4730.42
763.063	1365.12
763.503	558.32
763.943	328.52
764.384	271.12
764.824	241.02
765.264	221.12
765.705	210.02
766.145	187.32
766.585	180.42
767.025	176.42
767.465	169.62
767.906	173.82
768.346	186.82
768.786	192.12
769.226	219.42
769.666	316.22
770.106	647.92
770.546	1620.82
770.986	2733.92
771.426	2447.62
771.866	824.42
772.306	339.02
772.745	212.72
773.185	177.92
773.625	167.72
774.065	154.92
774.505	162.52
774.944	208.42
775.384	358.22
775.824	585.62
776.263	568.52
776.703	283.02
777.142	160.72
777.582	139.62
778.021	126.12
778.461	124.22
778.9	124.02
779.34	131.12
779.779	111.92
780.219	111.92
780.658	105.72
781.097	117.12
781.537	117.02
781.976	107.92
782.415	101.62
782.855	101.02
783.294	101.22
783.733	99.62
784.172	109.92
784.611	99.82
785.05	109.12
785.489	109.22
785.928	113.62
786.367	117.02
786.806	116.22
787.245	134.62
787.684	139.72
788.123	155.52
788.562	142.82
789.001	135.42
789.44	125.82
789.879	119.22
790.317	113.62
790.756	132.12
791.195	130.82
791.634	151.82
792.072	206.62
792.511	372.52
792.95	1042.92
793.388	2204.12
793.827	1977.32
794.265	695.92
794.704	294.82
795.142	196.62
795.581	148.12
796.019	138.32
796.458	126.82
796.896	123.42
797.334	131.32
797.773	160.12
798.211	227.12
798.649	464.42
799.087	1060.22
799.526	1657.42
799.964	2092.82
800.402	2078.52
800.84	791.32
801.278	322.32
801.716	190.92
802.154	160.72
802.592	148.42
803.03	140.92
803.468	133.62
803.906	146.92
804.344	152.62
804.782	145.02
805.22	138.32
805.658	132.22
806.096	145.82
806.533	160.12
806.971	180.12
807.409	228.82
807.847	327.82
808.284	699.82
808.722	1957.92
809.16	3421.42
809.597	3294.52
810.035	5663.92
810.472	6019.12
810.91	2195.02
811.347	837.72
811.785	422.22
812.222	265.22
812.66	204.62
813.097	170.12
813.535	146.62
813.972	132.22
814.409	122.22
814.846	114.92
815.284	113.12
815.721	99.42
816.158	100.02
816.595	113.52
817.032	157.22
817.47	181.92
817.907	138.72
818.344	109.92
818.781	98.02
819.218	104.12
819.655	128.12
820.092	199.92
820.529	222.82
820.966	172.52
821.403	132.22
821.839	99.42
822.276	98.72
822.713	130.52
823.15	142.72
823.587	114.42
824.023	154.52
824.46	314.92
824.897	937.12
825.333	1400.72
825.77	605.52
826.206	249.02
826.643	144.82
827.08	103.32
827.516	83.72
827.953	84.02
828.389	88.92
828.825	69.22
829.262	68.52
829.698	59.62
830.135	66.52
830.571	61.72
831.007	69.12
831.443	69.92
831.88	61.52
832.316	63.72
832.752	65.52
833.188	71.82
833.624	66.02
834.06	67.22
834.497	62.92
834.933	68.22
835.369	72.92
835.805	65.52
836.241	80.52
836.677	81.22
837.112	93.62
837.548	110.02
837.984	137.82
838.42	201.82
838.856	521.02
839.292	1579.12
839.727	2401.22
840.163	1121.32
840.599	975.92
841.034	2100.72
841.47	2198.22
841.906	810.72
842.341	342.52
842.777	200.62
843.212	205.52
843.648	187.72
844.083	114.42
844.519	81.92
844.954	73.02
845.39	58.42
845.825	59.82
846.261	55.92
846.696	60.22
847.131	54.92
847.566	57.42
848.002	55.92
848.437	60.22
848.872	58.82
849.307	62.02
849.742	86.42
850.177	180.92
850.613	574.72
851.048	905.22
851.483	397.82
851.918	155.62
852.353	88.62
852.788	58.22
853.223	48.72
853.657	54.92
854.092	46.12
854.527	42.32
854.962	37.82
855.397	50.42
855.832	54.82
856.266	40.82
856.701	43.12
857.136	37.62
857.57	42.62
858.005	45.22
858.44	56.42
858.874	48.22
859.309	51.72
859.743	44.12
860.178	51.12
860.612	44.32
861.047	50.62
861.481	69.62
861.915	73.22
862.35	53.82
862.784	35.12
863.218	42.72
863.653	35.32
864.087	45.32
864.521	52.92
864.955	68.32
865.39	159.32
865.824	177.62
866.258	124.82
866.692	179.82
867.126	190.42
867.56	113.62
867.994	52.82
868.428	34.22
868.862	46.42
869.296	63.42
869.73	60.52
870.164	55.32
870.598	48.62
871.031	38.92
871.465	29.12
871.899	26.52
872.333	23.52
872.766	22.42
873.2	23.02
873.634	28.22
874.067	28.62
874.501	21.02
874.935	30.42
875.368	29.12
875.802	26.92
876.235	23.82
876.669	24.52
877.102	17.12
877.535	21.62
877.969	26.52
878.402	28.42
878.836	19.62
879.269	18.82
879.702	24.42
880.135	17.82
880.569	17.82
881.002	28.72
881.435	18.92
881.868	16.22
882.301	16.12
882.734	18.12
883.167	17.22
883.601	14.22
884.034	27.52
884.467	14.12
884.899	20.92
885.332	14.82
885.765	16.12
886.198	14.42
886.631	13.32
887.064	17.52
887.497	12.82
887.929	18.82
888.362	14.42
888.795	11.22
889.228	16.82
889.66	27.42
890.093	13.32
890.526	19.22
890.958	13.02
891.391	20.52
891.823	17.32
892.256	15.32
892.688	17.32
893.121	16.32
893.553	18.22
893.985	17.12
894.418	16.12
894.85	6.12
895.282	11.22
895.715	14.12
896.147	16.52
896.579	15.32
897.011	16.82
897.444	17.42
897.876	8.22
898.308	17.32
898.74	11.82
899.172	13.02
899.604	19.72
900.036	23.32
900.468	21.22
900.9	13.12
901.332	17.32
901.764	8.92
902.196	22.82
902.628	15.62
903.06	13.32
903.491	26.02
903.923	25.82
904.355	25.92
904.787	23.52
905.218	25.12
905.65	24.22
906.082	10.02
906.513	11.42
906.945	16.02
907.376	13.62
907.808	20.02
908.239	18.72
908.671	19.12
909.102	24.22
909.534	22.42
909.965	50.22
910.397	98.02
910.828	331.22
911.259	478.72
911.691	230.52
912.122	110.82
912.553	55.42
912.984	37.62
913.415	25.22
913.847	23.82
914.278	17.02
914.709	15.12
915.14	16.32
915.571	17.32
916.002	12.82
916.433	14.52
916.864	20.22
917.295	10.92
917.726	20.12
918.157	10.42
918.587	31.02
919.018	22.02
919.449	22.72
919.88	25.92
920.311	32.22
920.741	45.22
921.172	172.12
921.603	159.82
922.033	70.82
922.464	52.12
922.895	22.52
923.325	24.82
923.756	15.32
924.186	9.82
924.617	15.72
925.047	22.72
925.478	27.42
925.908	19.62
926.338	13.82
926.769	3.32
927.199	15.42
927.629	5.22
928.06	12.82
928.49	10.22
928.92	8.42
929.35	14.12
929.78	8.12
930.21	9.22
930.641	6.12
931.071	11.42
931.501	2.12
931.931	6.92
932.361	9.22
932.791	1.72
933.221	13.52
933.651	4.12
934.08	16.92
934.51	29.82
934.94	11.32
935.37	12.02
935.8	13.72
936.229	9.92
936.659	1.62
937.089	1.62
937.519	7.92
937.948	23.52
938.378	16.72
938.807	6.92
939.237	2.72
939.666	7.32
940.096	-2.08
940.525	-2.28
940.955	-2.18
941.384	-0.28
941.814	-8.48
942.243	-1.98
942.672	3.22
943.102	-1.58
943.531	-5.58
943.96	5.82
944.39	-3.68
944.819	-2.98
945.248	-5.08
945.677	-2.48
946.106	5.42
946.535	9.32
946.964	-4.58
947.393	4.82
947.822	0.92
948.251	-4.98
948.68	0.12
949.109	4.62
949.538	11.02
949.967	-4.88
950.396	-6.28
950.825	1.62
951.254	0.92
951.682	-4.28
952.111	-1.08
952.54	4.72
952.969	-5.18
953.397	-0.08
953.826	-1.28
954.254	-5.88
954.683	-5.38
955.112	-5.38
955.54	-4.28
955.969	-3.88
956.397	-2.18
956.826	-4.28
957.254	4.02
957.682	2.12
958.111	9.82
958.539	-0.88
958.967	2.12
959.396	-0.18
959.824	4.72
960.252	-0.28
960.68	-0.38
961.109	-1.58
961.537	-10.98
961.965	-4.68
962.393	-2.98
962.821	-0.38
963.249	-0.08
963.677	4.42
964.105	4.92
964.533	47.62
964.961	46.32
965.389	18.82
965.817	12.52
966.245	3.32
966.672	-2.98
967.1	-5.68
967.528	-0.38
967.956	-1.68
968.383	1.02
968.811	-2.78
969.239	-8.18
969.666	-0.58
970.094	-2.48
970.522	-0.88
970.949	-6.88
971.377	-5.58
971.804	-4.48
972.232	-4.28
972.659	-3.88
973.087	-9.48
973.514	-9.78
973.941	-10.48
974.369	5.62
974.796	-3.28
975.223	-1.88
975.651	-0.28
976.078	-3.18
976.505	2.12
976.932	2.62
977.359	15.32
977.786	9.52
978.214	3.92
978.641	4.42
979.068	-7.28
979.495	-8.38
979.922	-4.48
980.349	-7.08
980.776	-2.88
981.202	-1.48
981.629	6.22
982.056	10.82
982.483	-4.58
982.91	2.32
983.337	-6.58
983.763	-0.28
984.19	-3.18
984.617	-0.58
985.043	-4.58
985.47	0.52
985.897	0.82
986.323	-8.18
986.75	-2.58
987.176	-4.18
987.603	-1.48
988.029	-4.58
988.456	-11.98
988.882	-0.08
989.308	-12.88
989.735	-2.78
990.161	-2.18
990.587	-6.18
991.014	-2.28
991.44	3.12
991.866	-5.78
992.292	-5.38
992.719	-3.28
993.145	2.52
993.571	-7.58
993.997	-8.38
994.423	-0.48
994.849	-6.58
995.275	0.42
995.701	-1.98
996.127	-11.38
996.553	2.82
996.979	-3.78
997.405	-1.88
997.83	-7.38
998.256	-10.08
998.682	-8.08
999.108	-11.18
999.534	-1.88
999.959	-8.18
1000.385	1.62
1000.811	-3.88
1001.236	-2.58
1001.662	-5.48
1002.087	-8.08
1002.513	0.92
1002.938	3.62
1003.364	-6.18
1003.789	-0.18
1004.215	5.42
1004.64	-4.88
1005.066	5.62
1005.491	-6.88
1005.916	-5.28
1006.342	-5.48
1006.767	-5.98
1007.192	2.62
1007.617	-10.18
1008.042	-4.78
1008.468	-6.28
1008.893	-1.88
1009.318	-6.98
1009.743	-3.98
1010.168	-0.18
1010.593	2.32
1011.018	-7.38
1011.443	-6.08
1011.868	-0.88
1012.293	-10.08
1012.718	-1.78
1013.143	-2.98
1013.567	-0.48
1013.992	-7.48
1014.417	-9.88
1014.842	1.22
1015.267	-3.48
1015.691	-5.98
1016.116	2.32
1016.541	-1.38
1016.965	4.02
1017.39	1.12
1017.814	-5.08
1018.239	1.62
1018.663	-2.28
1019.088	-11.58
1019.512	-5.28
1019.937	-3.38
1020.361	-3.38
1020.785	-11.38
1021.21	-0.68
1021.634	-4.88
1022.058	-3.88
1022.483	4.52
1022.907	-3.98
1023.331	-6.28
1023.755	-3.48
1024.179	-5.58
1024.604	-11.58
1025.028	-2.68
1025.452	-4.58
1025.876	-5.68
1026.3	-4.48
1026.724	-11.38
1027.148	-3.88
1027.572	-13.68
1027.996	-2.68
1028.42	-0.08
1028.843	-6.78
1029.267	-3.28
1029.691	3.32
1030.115	-10.08
1030.539	-4.08
1030.962	-2.78
1031.386	-13.88
1031.81	0.72
1032.233	-7.08
1032.657	5.02
1033.08	-5.48
1033.504	-3.58
1033.927	-6.48
1034.351	0.72
1034.774	-8.58
1035.198	-5.48
1035.621	-4.08
1036.045	-8.98
1036.468	2.72
1036.891	-10.38
1037.315	-15.58
1037.738	-13.68
1038.161	1.92
1038.584	1.32
1039.008	-5.38
1039.431	-4.98
1039.854	-4.08
1040.277	-2.78
1040.7	-17.58
1041.123	-2.58
1041.546	-7.18
1041.969	1.12
1042.392	-6.18
1042.815	-5.28
1043.238	-5.28
1043.661	-7.78
1044.084	-16.18
1044.507	-6.98
1044.93	-8.88
1045.352	-9.48
1045.775	-1.38
1046.198	0.72
1046.621	-0.48
1047.043	3.72
1047.466	1.32
1047.889	-7.38
1048.311	-8.48
1048.734	-3.08
1049.156	-2.88
1049.579	-1.78
1050.001	-0.88
1050.424	0.42
1050.846	0.12
1051.269	0.82
1051.691	-7.48
1052.113	-5.28
1052.536	-3.28
1052.958	-3.88
1053.38	-3.68
1053.802	-6.98
1054.225	-1.18
1054.647	-9.38
1055.069	-10.48
1055.491	7.52
1055.913	-15.58
1056.335	-1.78
1056.757	-3.98
1057.179	-2.38
1057.601	-8.18
1058.023	-3.28
1058.445	-1.78
1058.867	-3.28
1059.289	-0.08
1059.711	-6.68
1060.133	-5.28
1060.555	-3.08
1060.976	-9.78
1061.398	-5.18
1061.82	-9.68
1062.241	-10.28
1062.663	-8.48
1063.085	-1.88
1063.506	-1.28
1063.928	-7.28
1064.35	-4.68
1064.771	-13.98
1065.193	-10.18
1065.614	-12.68
1066.035	-3.98
1066.457	-10.48
1066.878	-2.48
1067.3	-8.88
1067.721	-1.88
1068.142	-5.28
1068.564	-4.18
1068.985	-3.88
1069.406	-8.68
1069.827	-7.78
1070.248	-6.48
1070.67	-5.08
1071.091	-10.58
1071.512	-4.58
1071.933	-9.58
1072.354	-8.68
1072.775	-7.38
1073.196	-11.58
1073.617	-2.78
1074.038	-2.88
1074.459	2.32
1074.88	-11.68
1075.3	-5.88
1075.721	-10.68
1076.142	3.92
1076.563	-5.88
1076.983	-7.78
1077.404	-9.88
1077.825	-8.88
1078.246	-7.78
1078.666	-17.88
1079.087	0.32
1079.507	-14.08
1079.928	-2.18
1080.348	-2.88
1080.769	-11.18
1081.189	0.02
1081.61	-2.38
1082.03	-0.98
1082.451	-8.48
1082.871	-5.58
1083.291	-7.78
1083.711	-5.78
1084.132	-4.68
1084.552	-5.88
1084.972	-2.88
1085.392	-9.68
1085.813	-15.38
1086.233	-10.58
1086.653	-8.98
1087.073	-9.28
1087.493	-5.78
1087.913	-2.38
1088.333	-1.18
1088.753	-6.98
1089.173	5.42
1089.593	-9.18
1090.013	0.72
1090.433	3.72
1090.852	-5.28
1091.272	-2.88
1091.692	-1.68
1092.112	-5.18
1092.531	-6.68
1092.951	-11.28
1093.371	-12.18
1093.79	1.62
1094.21	-4.18
1094.63	-6.58
1095.049	-7.18
1095.469	-7.58
1095.888	-6.88
1096.308	-5.78
1096.727	-2.48
1097.146	-11.48
1097.566	-2.18
1097.985	-3.48
1098.405	1.02
1098.824	-8.28
1099.243	-4.48
1099.662	-8.88
1100.082	-4.18
1100.501	-4.28
1100.92	-9.08
1101.339	-7.18
1101.758	-7.08
