Data from 20171114-ORNL-Ar_H_NY_Subt18_08-05-59-169.txt Node
Date: Tue Nov 14 08:05:59 EST 2017
User: Ender
Spectrometer: HR+D1039
Trigger mode: 0
Integration Time (sec): 2.730000E-2
Scans to average: 10
Electric dark correction enabled: true
Nonlinearity correction enabled: false
Boxcar width: 0
XAxis mode: Wavelengths
Number of Pixels in Spectrum: 2048
>>>>>Begin Spectral Data<<<<<
187.836	-1.34
188.309	-1.34
188.782	-1.34
189.255	3.86
189.728	-1.64
190.201	6.36
190.674	1.16
191.147	5.66
191.619	-9.64
192.092	1.16
192.565	3.46
193.038	-2.24
193.511	4.76
193.984	-0.54
194.456	-3.84
194.929	1.96
195.402	-3.44
195.874	-5.64
196.347	2.76
196.82	-8.84
197.292	8.36
197.765	3.26
198.237	-5.94
198.71	2.66
199.182	-3.84
199.655	5.96
200.127	5.06
200.6	-4.54
201.072	-3.04
201.544	-3.74
202.017	-2.04
202.489	6.86
202.961	-2.74
203.433	-1.14
203.906	-3.74
204.378	-11.64
204.85	-7.54
205.322	-7.14
205.794	-5.34
206.266	-5.54
206.739	-8.44
207.211	2.06
207.683	-5.04
208.155	-8.34
208.627	-9.84
209.099	-2.24
209.57	-7.34
210.042	-8.04
210.514	-4.74
210.986	-2.74
211.458	-10.74
211.93	-5.44
212.402	2.06
212.873	-6.14
213.345	-6.74
213.817	-11.24
214.288	-2.24
214.76	-13.04
215.232	-3.04
215.703	-5.84
216.175	-2.04
216.646	-7.94
217.118	-4.64
217.589	-2.14
218.061	-6.94
218.532	-8.94
219.004	-0.54
219.475	-1.74
219.946	-5.64
220.418	-5.94
220.889	0.66
221.36	-3.64
221.832	-0.54
222.303	-6.34
222.774	-1.04
223.245	-11.04
223.717	-6.44
224.188	-7.74
224.659	-10.44
225.13	-2.54
225.601	-6.14
226.072	2.86
226.543	0.26
227.014	-0.04
227.485	-5.94
227.956	-2.34
228.427	2.66
228.898	-0.54
229.369	6.86
229.839	-5.24
230.31	-7.04
230.781	1.66
231.252	-0.04
231.722	-5.64
232.193	-1.64
232.664	-1.44
233.135	1.86
233.605	4.16
234.076	-8.44
234.546	5.46
235.017	0.36
235.487	5.26
235.958	5.86
236.428	2.86
236.899	7.66
237.369	0.36
237.84	-2.94
238.31	7.76
238.78	5.36
239.251	0.56
239.721	2.66
240.191	2.26
240.662	1.26
241.132	-2.14
241.602	-2.84
242.072	2.46
242.542	6.76
243.013	3.86
243.483	2.76
243.953	9.46
244.423	1.66
244.893	-5.04
245.363	6.96
245.833	5.86
246.303	-0.54
246.773	7.16
247.243	2.46
247.712	4.76
248.182	7.56
248.652	4.16
249.122	-2.74
249.592	7.96
250.061	21.96
250.531	31.86
251.001	10.96
251.471	24.76
251.94	17.26
252.41	14.76
252.879	-0.64
253.349	9.26
253.818	9.56
254.288	0.86
254.757	6.76
255.227	2.56
255.696	6.76
256.166	2.86
256.635	8.06
257.105	8.26
257.574	5.76
258.043	6.16
258.513	13.86
258.982	14.26
259.451	6.56
259.92	12.46
260.389	12.76
260.859	18.46
261.328	14.56
261.797	23.06
262.266	12.76
262.735	11.46
263.204	8.36
263.673	4.06
264.142	8.66
264.611	-0.44
265.08	9.56
265.549	-0.34
266.018	9.46
266.487	-1.24
266.955	1.26
267.424	3.46
267.893	7.16
268.362	3.76
268.83	6.86
269.299	11.96
269.768	4.26
270.236	13.26
270.705	-5.54
271.174	7.86
271.642	10.66
272.111	6.16
272.579	17.86
273.048	17.86
273.516	27.26
273.985	24.06
274.453	25.06
274.922	18.36
275.39	9.96
275.858	7.06
276.327	13.36
276.795	17.76
277.263	10.36
277.731	29.16
278.2	53.66
278.668	68.86
279.136	48.16
279.604	28.16
280.072	15.76
280.54	1.06
281.008	13.46
281.477	13.66
281.945	6.66
282.413	12.66
282.881	15.56
283.348	6.96
283.816	20.96
284.284	16.96
284.752	22.66
285.22	11.96
285.688	13.86
286.156	21.56
286.623	45.96
287.091	56.96
287.559	25.26
288.026	11.06
288.494	17.06
288.962	6.26
289.429	12.96
289.897	15.26
290.364	19.96
290.832	20.66
291.3	14.56
291.767	17.46
292.234	22.46
292.702	16.86
293.169	16.16
293.637	22.96
294.104	22.16
294.571	10.16
295.039	13.96
295.506	16.66
295.973	22.26
296.44	17.26
296.908	20.16
297.375	18.76
297.842	23.06
298.309	16.06
298.776	12.26
299.243	22.26
299.71	14.56
300.177	22.86
300.644	21.86
301.111	19.56
301.578	29.66
302.045	12.56
302.512	20.66
302.979	25.36
303.446	18.06
303.913	17.16
304.379	19.16
304.846	27.56
305.313	23.86
305.78	23.56
306.246	28.96
306.713	29.76
307.18	26.16
307.646	25.06
308.113	32.06
308.579	22.76
309.046	24.86
309.512	26.96
309.979	18.96
310.445	27.26
310.912	30.96
311.378	33.36
311.845	27.56
312.311	30.06
312.777	27.76
313.244	32.16
313.71	38.66
314.176	33.66
314.642	33.06
315.109	35.76
315.575	42.96
316.041	36.56
316.507	34.86
316.973	32.76
317.439	37.56
317.905	35.76
318.371	39.66
318.837	38.36
319.303	38.96
319.769	32.46
320.235	35.86
320.701	36.96
321.167	42.36
321.633	36.06
322.099	38.66
322.564	49.36
323.03	39.46
323.496	36.76
323.962	45.96
324.427	37.46
324.893	43.46
325.359	35.86
325.824	40.56
326.29	43.06
326.755	45.16
327.221	53.26
327.686	36.86
328.152	46.96
328.617	39.16
329.083	51.46
329.548	51.06
330.014	51.06
330.479	41.86
330.944	45.46
331.41	44.76
331.875	52.66
332.34	46.86
332.805	49.96
333.271	47.46
333.736	49.46
334.201	60.06
334.666	49.16
335.131	54.36
335.596	49.46
336.061	57.66
336.526	49.86
336.991	52.66
337.456	58.96
337.921	51.96
338.386	47.16
338.851	48.26
339.316	48.16
339.781	46.36
340.246	53.76
340.711	47.26
341.175	51.86
341.64	42.96
342.105	51.16
342.569	56.36
343.034	53.86
343.499	55.66
343.963	55.56
344.428	67.96
344.893	57.86
345.357	67.36
345.822	62.26
346.286	69.16
346.751	72.56
347.215	71.56
347.679	74.56
348.144	99.96
348.608	87.06
349.073	70.86
349.537	81.86
350.001	78.56
350.465	93.76
350.93	91.06
351.394	83.46
351.858	74.46
352.322	87.06
352.786	84.16
353.25	101.26
353.715	114.76
354.179	109.16
354.643	125.06
355.107	133.36
355.571	106.46
356.035	114.36
356.498	124.36
356.962	128.66
357.426	129.86
357.89	114.26
358.354	92.96
358.818	89.76
359.281	87.46
359.745	80.06
360.209	82.76
360.673	85.26
361.136	86.56
361.6	86.16
362.064	91.96
362.527	86.56
362.991	95.76
363.454	82.36
363.918	82.06
364.381	82.26
364.845	83.16
365.308	94.66
365.772	86.76
366.235	88.56
366.698	81.76
367.162	90.76
367.625	85.76
368.088	90.26
368.552	95.56
369.015	96.86
369.478	106.16
369.941	101.56
370.404	96.46
370.867	111.26
371.331	109.06
371.794	118.86
372.257	115.96
372.72	125.36
373.183	112.66
373.646	110.56
374.109	108.16
374.572	120.46
375.035	116.86
375.497	112.46
375.96	112.66
376.423	113.96
376.886	115.06
377.349	114.36
377.811	109.36
378.274	107.46
378.737	117.26
379.199	111.96
379.662	121.76
380.125	117.16
380.587	126.06
381.05	134.86
381.512	127.46
381.975	146.16
382.437	134.16
382.9	137.56
383.362	137.46
383.825	143.56
384.287	156.56
384.75	145.96
385.212	143.86
385.674	153.56
386.136	147.76
386.599	127.46
387.061	136.96
387.523	126.06
387.985	142.76
388.447	154.56
388.91	151.56
389.372	170.06
389.834	158.16
390.296	153.86
390.758	160.86
391.22	178.66
391.682	212.46
392.144	302.76
392.606	238.96
393.068	173.76
393.529	175.26
393.991	159.56
394.453	153.06
394.915	159.76
395.377	200.76
395.838	222.26
396.3	162.86
396.762	149.96
397.224	140.36
397.685	136.16
398.147	133.86
398.608	137.86
399.07	132.16
399.531	145.56
399.993	151.36
400.454	160.06
400.916	149.26
401.377	148.86
401.839	156.96
402.3	165.06
402.762	170.36
403.223	191.66
403.684	181.26
404.145	161.56
404.607	164.86
405.068	171.46
405.529	175.86
405.99	197.46
406.451	184.56
406.913	183.06
407.374	173.96
407.835	168.96
408.296	172.56
408.757	177.66
409.218	191.06
409.679	183.76
410.14	188.46
410.601	182.06
411.062	196.66
411.522	196.46
411.983	200.26
412.444	189.76
412.905	182.16
413.366	184.46
413.826	197.06
414.287	220.56
414.748	271.26
415.208	253.46
415.669	216.06
416.13	211.46
416.59	211.36
417.051	229.06
417.511	226.06
417.972	249.16
418.432	258.16
418.893	295.66
419.353	261.26
419.814	203.76
420.274	195.06
420.734	191.26
421.195	200.66
421.655	202.26
422.115	201.86
422.576	205.66
423.036	201.66
423.496	218.36
423.956	228.26
424.416	230.76
424.876	278.36
425.336	267.56
425.797	272.76
426.257	265.06
426.717	252.26
427.177	241.46
427.637	233.36
428.097	237.26
428.556	256.76
429.016	282.66
429.476	274.86
429.936	280.76
430.396	286.46
430.856	306.16
431.315	331.86
431.775	367.96
432.235	391.36
432.694	366.16
433.154	377.46
433.614	406.86
434.073	348.76
434.533	294.56
434.993	280.96
435.452	300.26
435.912	308.66
436.371	298.06
436.83	296.86
437.29	283.66
437.749	263.76
438.209	259.56
438.668	291.76
439.127	298.36
439.587	276.36
440.046	260.86
440.505	267.16
440.964	288.36
441.424	330.46
441.883	326.46
442.342	268.76
442.801	229.66
443.26	220.66
443.719	226.26
444.178	229.46
444.637	215.66
445.096	221.66
445.555	233.66
446.014	233.06
446.473	231.96
446.932	244.46
447.391	235.66
447.849	237.86
448.308	222.06
448.767	226.36
449.226	242.96
449.685	248.26
450.143	255.96
450.602	243.86
451.061	234.86
451.519	240.76
451.978	247.56
452.436	244.06
452.895	250.56
453.353	259.96
453.812	243.46
454.27	250.86
454.729	248.96
455.187	245.96
455.646	255.26
456.104	259.56
456.562	272.06
457.021	282.06
457.479	259.66
457.937	274.36
458.395	270.96
458.854	253.96
459.312	270.46
459.77	280.66
460.228	261.26
460.686	251.06
461.144	256.36
461.602	251.36
462.06	252.36
462.518	265.86
462.976	265.26
463.434	269.66
463.892	277.96
464.35	281.56
464.808	292.16
465.266	278.46
465.724	283.96
466.181	286.86
466.639	281.56
467.097	300.26
467.555	317.26
468.012	310.96
468.47	315.16
468.928	337.06
469.385	345.96
469.843	365.06
470.3	359.86
470.758	378.66
471.215	391.56
471.673	431.86
472.13	418.66
472.588	427.66
473.045	386.36
473.503	388.86
473.96	399.16
474.417	408.46
474.875	450.76
475.332	489.26
475.789	473.26
476.246	487.46
476.704	495.66
477.161	515.36
477.618	539.66
478.075	579.36
478.532	639.96
478.989	714.16
479.446	832.86
479.903	796.86
480.36	824.76
480.817	900.16
481.274	1007.46
481.731	1115.86
482.188	1216.06
482.645	1354.36
483.102	1456.96
483.558	1598.06
484.015	1672.36
484.472	1636.16
484.929	1575.26
485.385	1534.76
485.842	1486.56
486.299	1408.66
486.755	1345.46
487.212	1147.96
487.668	961.56
488.125	871.96
488.582	804.36
489.038	771.96
489.494	739.46
489.951	700.16
490.407	685.16
490.864	666.36
491.32	656.16
491.776	656.56
492.233	669.36
492.689	634.66
493.145	631.86
493.602	620.66
494.058	632.86
494.514	630.16
494.97	657.96
495.426	661.36
495.882	638.36
496.338	633.86
496.794	645.86
497.251	638.26
497.707	650.76
498.163	653.26
498.618	660.06
499.074	667.56
499.53	705.56
499.986	696.66
500.442	669.76
500.898	656.86
501.354	644.46
501.809	651.66
502.265	661.76
502.721	671.56
503.177	703.26
503.632	684.86
504.088	695.56
504.543	739.26
504.999	738.96
505.455	671.16
505.91	651.26
506.366	654.46
506.821	649.06
507.277	641.56
507.732	637.26
508.187	636.26
508.643	654.66
509.098	650.66
509.553	676.26
510.009	678.26
510.464	689.86
510.919	710.26
511.375	710.06
511.83	720.36
512.285	731.16
512.74	784.86
513.195	801.06
513.65	790.86
514.105	782.46
514.56	795.36
515.015	803.86
515.47	827.76
515.925	812.76
516.38	796.66
516.835	812.46
517.29	808.56
517.745	800.46
518.2	775.96
518.655	764.56
519.109	759.16
519.564	771.36
520.019	745.66
520.474	743.36
520.928	737.96
521.383	730.06
521.838	735.86
522.292	731.26
522.747	725.96
523.201	718.96
523.656	719.96
524.11	713.56
524.565	713.56
525.019	703.56
525.474	721.56
525.928	708.66
526.382	709.26
526.837	713.66
527.291	714.46
527.745	706.96
528.2	712.96
528.654	709.56
529.108	703.66
529.562	711.76
530.016	702.16
530.47	704.56
530.925	708.76
531.379	698.76
531.833	722.56
532.287	720.76
532.741	731.26
533.195	727.16
533.649	726.36
534.103	744.86
534.556	724.26
535.01	727.36
535.464	720.06
535.918	734.76
536.372	729.76
536.826	732.66
537.279	722.76
537.733	727.46
538.187	718.56
538.64	729.76
539.094	738.26
539.548	745.96
540.001	745.46
540.455	743.26
540.908	751.36
541.362	743.66
541.815	763.06
542.269	781.26
542.722	778.96
543.175	781.96
543.629	780.56
544.082	802.56
544.536	804.56
544.989	795.76
545.442	812.56
545.895	803.96
546.349	803.66
546.802	810.36
547.255	808.46
547.708	815.16
548.161	825.06
548.614	832.06
549.067	841.26
549.52	841.16
549.973	825.26
550.426	817.36
550.879	814.76
551.332	821.96
551.785	817.66
552.238	833.56
552.691	827.36
553.144	844.56
553.596	863.76
554.049	885.16
554.502	911.56
554.955	926.16
555.407	928.66
555.86	911.66
556.313	906.76
556.765	899.96
557.218	897.96
557.67	903.96
558.123	898.46
558.576	886.66
559.028	881.06
559.48	899.46
559.933	881.26
560.385	861.06
560.838	825.76
561.29	793.76
561.742	788.26
562.195	788.76
562.647	782.76
563.099	787.96
563.551	782.26
564.004	796.16
564.456	783.46
564.908	773.26
565.36	767.56
565.812	742.16
566.264	735.16
566.716	734.86
567.168	725.76
567.62	731.56
568.072	715.66
568.524	704.76
568.976	699.66
569.428	688.86
569.88	689.76
570.332	689.56
570.784	696.06
571.235	690.46
571.687	710.46
572.139	713.66
572.59	727.16
573.042	723.76
573.494	720.16
573.945	716.46
574.397	694.66
574.849	706.86
575.3	696.56
575.752	686.66
576.203	681.66
576.655	688.96
577.106	681.26
577.557	671.56
578.009	676.06
578.46	675.76
578.912	669.86
579.363	673.36
579.814	674.86
580.265	671.36
580.717	682.36
581.168	675.56
581.619	683.56
582.07	687.76
582.521	685.06
582.972	679.76
583.423	692.86
583.875	683.36
584.326	700.26
584.777	756.76
585.227	835.66
585.678	927.96
586.129	1017.66
586.58	1095.06
587.031	1188.16
587.482	1357.86
587.933	1553.66
588.384	1340.06
588.834	996.76
589.285	817.56
589.736	793.76
590.186	788.46
590.637	772.06
591.088	760.56
591.538	745.16
591.989	740.16
592.439	730.86
592.89	734.46
593.34	711.26
593.791	722.56
594.241	707.86
594.692	713.66
595.142	708.66
595.593	712.26
596.043	724.56
596.493	729.26
596.943	714.86
597.394	725.36
597.844	721.66
598.294	733.16
598.744	751.76
599.195	782.36
599.645	812.96
600.095	866.86
600.545	909.86
600.995	962.76
601.445	1019.36
601.895	1077.16
602.345	1142.36
602.795	1120.16
603.245	1064.16
603.695	1015.86
604.145	956.36
604.594	914.46
605.044	858.66
605.494	807.06
605.944	763.06
606.393	742.96
606.843	733.96
607.293	735.86
607.743	744.16
608.192	749.06
608.642	774.66
609.091	770.26
609.541	771.46
609.99	778.36
610.44	769.26
610.889	726.46
611.339	693.66
611.788	697.56
612.238	708.36
612.687	730.16
613.136	724.36
613.586	749.56
614.035	734.66
614.484	753.96
614.933	763.36
615.383	758.96
615.832	742.26
616.281	722.86
616.73	691.36
617.179	671.76
617.628	653.66
618.077	638.96
618.526	619.66
618.975	610.16
619.424	616.56
619.873	618.66
620.322	617.26
620.771	606.66
621.22	609.46
621.669	594.76
622.118	584.96
622.567	586.46
623.015	578.06
623.464	574.26
623.913	563.76
624.361	551.56
624.81	551.66
625.259	558.06
625.707	558.36
626.156	554.96
626.604	559.26
627.053	566.46
627.501	565.56
627.95	572.36
628.398	578.56
628.847	573.66
629.295	564.46
629.744	571.96
630.192	574.46
630.64	565.56
631.089	569.36
631.537	583.56
631.985	596.26
632.433	597.66
632.881	612.56
633.33	663.76
633.778	630.76
634.226	565.16
634.674	564.86
635.122	569.16
635.57	591.06
636.018	620.16
636.466	578.56
636.914	553.06
637.362	566.46
637.81	563.26
638.258	574.36
638.705	576.46
639.153	613.16
639.601	621.76
640.049	641.56
640.497	669.26
640.944	690.66
641.392	641.86
641.84	617.66
642.287	580.16
642.735	570.06
643.182	578.36
643.63	572.96
644.078	579.36
644.525	592.46
644.973	598.16
645.42	603.96
645.867	619.26
646.315	639.06
646.762	663.16
647.21	693.16
647.657	704.46
648.104	746.56
648.551	769.36
648.999	829.06
649.446	912.66
649.893	1007.56
650.34	1156.56
650.787	1384.26
651.234	1709.16
651.682	2233.66
652.129	3093.56
652.576	4430.76
653.023	6586.96
653.47	9031.16
653.917	11303.66
654.363	13041.46
654.81	14521.66
655.257	13792.26
655.704	9060.46
656.151	5321.26
656.598	3442.66
657.044	2439.16
657.491	1875.46
657.938	1509.16
658.385	1242.46
658.831	1079.86
659.278	960.06
659.724	859.96
660.171	784.96
660.618	731.16
661.064	679.36
661.511	670.56
661.957	657.16
662.404	640.56
662.85	650.16
663.296	627.66
663.743	556.56
664.189	538.86
664.635	522.46
665.082	525.56
665.528	527.16
665.974	518.26
666.42	495.96
666.867	504.76
667.313	484.26
667.759	475.96
668.205	481.96
668.651	480.36
669.097	482.26
669.543	506.56
669.989	466.56
670.435	448.86
670.881	440.06
671.327	446.86
671.773	469.26
672.219	487.66
672.665	536.96
673.11	579.16
673.556	618.36
674.002	661.56
674.448	648.26
674.893	542.96
675.339	473.26
675.785	426.76
676.23	419.46
676.676	387.56
677.122	381.36
677.567	372.76
678.013	367.86
678.458	352.96
678.904	356.96
679.349	342.86
679.794	345.46
680.24	346.56
680.685	349.96
681.131	345.26
681.576	338.76
682.021	355.36
682.466	342.46
682.912	342.16
683.357	348.36
683.802	378.06
684.247	412.46
684.692	449.46
685.137	492.16
685.583	524.86
686.028	552.56
686.473	509.96
686.918	435.76
687.363	414.06
687.807	395.86
688.252	364.26
688.697	350.76
689.142	336.86
689.587	321.76
690.032	324.86
690.477	340.86
690.921	349.56
691.366	377.66
691.811	398.56
692.255	427.86
692.7	446.96
693.145	498.66
693.589	676.66
694.034	1099.36
694.478	1504.66
694.923	1712.76
695.367	2238.36
695.812	1179.46
696.256	489.16
696.701	367.26
697.145	337.66
697.59	319.76
698.034	321.36
698.478	328.46
698.922	330.16
699.367	323.96
699.811	334.36
700.255	346.96
700.699	376.36
701.143	425.36
701.588	475.66
702.032	502.46
702.476	504.86
702.92	474.96
703.364	477.36
703.808	617.66
704.252	1011.06
704.696	1404.86
705.14	1637.16
705.584	2110.86
706.027	1051.96
706.471	513.76
706.915	382.66
707.359	344.56
707.803	310.76
708.246	304.26
708.69	308.86
709.134	313.76
709.577	310.86
710.021	313.66
710.465	301.46
710.908	289.46
711.352	289.96
711.795	309.06
712.239	340.96
712.682	377.06
713.126	413.16
713.569	453.76
714.012	369.36
714.456	312.46
714.899	294.76
715.342	265.56
715.786	250.26
716.229	256.56
716.672	255.86
717.115	245.96
717.558	249.56
718.002	248.56
718.445	256.86
718.888	282.26
719.331	287.86
719.774	302.56
720.217	294.26
720.66	278.56
721.103	269.86
721.546	240.16
721.989	252.16
722.432	227.56
722.874	235.26
723.317	225.16
723.76	226.06
724.203	247.06
724.645	308.16
725.088	430.16
725.531	549.96
725.974	631.36
726.416	539.46
726.859	304.36
727.301	241.76
727.744	231.36
728.187	230.76
728.629	233.66
729.071	236.96
729.514	257.36
729.956	268.56
730.399	270.26
730.841	281.96
731.283	264.16
731.726	258.26
732.168	257.66
732.61	258.56
733.053	279.36
733.495	306.66
733.937	344.26
734.379	383.36
734.821	425.16
735.263	522.46
735.705	799.06
736.148	1523.86
736.59	2494.86
737.032	3002.56
737.474	2442.46
737.916	785.76
738.357	412.36
738.799	317.26
739.241	298.36
739.683	270.76
740.125	284.56
740.567	293.36
741.008	313.06
741.45	311.36
741.892	313.86
742.334	337.16
742.775	349.36
743.217	327.36
743.658	266.96
744.1	250.86
744.542	256.46
744.983	309.56
745.425	337.56
745.866	333.16
746.307	283.06
746.749	277.76
747.19	313.76
747.632	438.66
748.073	843.96
748.514	1801.16
748.956	2790.56
749.397	3489.66
749.838	2902.26
750.279	2913.36
750.72	1460.26
751.162	536.86
751.603	316.06
752.044	247.56
752.485	214.76
752.926	206.56
753.367	202.16
753.808	186.96
754.249	180.86
754.69	185.46
755.131	179.06
755.572	177.06
756.013	180.36
756.453	182.46
756.894	182.56
757.335	189.26
757.776	182.86
758.216	196.16
758.657	192.36
759.098	198.96
759.538	219.86
759.979	259.16
760.42	362.16
760.86	677.86
761.301	1736.96
761.741	4288.86
762.182	6293.86
762.622	4447.86
763.063	1277.06
763.503	532.66
763.943	343.06
764.384	340.36
764.824	409.76
765.264	446.66
765.705	307.76
766.145	198.56
766.585	184.46
767.025	178.46
767.465	189.36
767.906	241.06
768.346	324.76
768.786	350.06
769.226	262.46
769.666	309.76
770.106	612.06
770.546	1499.56
770.986	2598.96
771.426	2342.36
771.866	777.56
772.306	322.46
772.745	199.76
773.185	170.56
773.625	174.96
774.065	161.46
774.505	194.26
774.944	299.26
775.384	662.46
775.824	1205.56
776.263	1192.06
776.703	501.46
777.142	217.46
777.582	150.46
778.021	127.96
778.461	135.66
778.9	137.36
779.34	133.26
779.779	107.26
780.219	107.46
780.658	109.76
781.097	109.16
781.537	113.26
781.976	105.16
782.415	108.56
782.855	102.96
783.294	99.06
783.733	107.06
784.172	103.96
784.611	95.96
785.05	110.36
785.489	114.56
785.928	117.56
786.367	123.26
786.806	116.06
787.245	129.06
787.684	132.46
788.123	141.96
788.562	130.96
789.001	121.36
789.44	119.36
789.879	118.26
790.317	115.76
790.756	128.66
791.195	125.16
791.634	142.96
792.072	200.16
792.511	352.16
792.95	967.96
793.388	2078.66
793.827	1917.06
794.265	662.86
794.704	272.86
795.142	180.06
795.581	143.26
796.019	137.26
796.458	128.66
796.896	126.36
797.334	127.16
797.773	153.56
798.211	216.46
798.649	422.46
799.087	995.36
799.526	1557.86
799.964	1949.66
800.402	1966.76
800.84	739.96
801.278	293.36
801.716	184.46
802.154	154.36
802.592	137.56
803.03	136.86
803.468	119.96
803.906	143.66
804.344	146.76
804.782	135.06
805.22	130.96
805.658	129.06
806.096	142.76
806.533	156.26
806.971	166.36
807.409	210.86
807.847	303.36
808.284	633.66
808.722	1793.06
809.16	3207.66
809.597	3014.96
810.035	5261.76
810.472	5677.36
810.91	2043.66
811.347	771.06
811.785	391.86
812.222	247.36
812.66	191.96
813.097	160.96
813.535	139.16
813.972	119.36
814.409	116.96
814.846	103.96
815.284	106.36
815.721	97.76
816.158	106.36
816.595	121.06
817.032	178.66
817.47	193.56
817.907	166.86
818.344	147.76
818.781	121.96
819.218	98.96
819.655	119.76
820.092	173.96
820.529	211.96
820.966	170.76
821.403	132.56
821.839	101.66
822.276	103.26
822.713	122.56
823.15	129.86
823.587	105.46
824.023	141.96
824.46	292.86
824.897	864.56
825.333	1324.06
825.77	564.76
826.206	223.06
826.643	131.26
827.08	96.76
827.516	83.06
827.953	74.36
828.389	85.26
828.825	67.36
829.262	72.76
829.698	60.06
830.135	65.56
830.571	59.76
831.007	63.06
831.443	65.86
831.88	54.36
832.316	65.66
832.752	61.16
833.188	67.06
833.624	64.76
834.06	63.86
834.497	67.36
834.933	66.66
835.369	70.26
835.805	64.66
836.241	78.46
836.677	83.26
837.112	84.36
837.548	101.56
837.984	126.36
838.42	194.86
838.856	470.56
839.292	1459.46
839.727	2245.66
840.163	1045.66
840.599	889.56
841.034	1949.16
841.47	2081.66
841.906	753.46
842.341	320.06
842.777	221.86
843.212	308.96
843.648	318.56
844.083	157.86
844.519	93.26
844.954	84.66
845.39	62.86
845.825	56.26
846.261	58.56
846.696	55.06
847.131	54.76
847.566	56.96
848.002	52.36
848.437	54.66
848.872	68.26
849.307	58.26
849.742	80.16
850.177	172.56
850.613	539.16
851.048	861.96
851.483	371.76
851.918	149.06
852.353	94.46
852.788	56.66
853.223	49.96
853.657	55.46
854.092	40.46
854.527	42.46
854.962	39.36
855.397	48.56
855.832	48.46
856.266	40.76
856.701	36.06
857.136	31.56
857.57	35.76
858.005	47.16
858.44	60.06
858.874	42.06
859.309	55.66
859.743	38.66
860.178	41.66
860.612	40.26
861.047	48.56
861.481	63.66
861.915	63.66
862.35	46.26
862.784	36.46
863.218	40.46
863.653	32.66
864.087	36.96
864.521	53.66
864.955	64.76
865.39	151.76
865.824	161.26
866.258	106.26
866.692	151.76
867.126	174.46
867.56	106.56
867.994	49.06
868.428	38.96
868.862	46.06
869.296	51.66
869.73	53.86
870.164	55.06
870.598	45.96
871.031	42.16
871.465	29.46
871.899	24.66
872.333	25.26
872.766	24.86
873.2	25.16
873.634	31.56
874.067	29.16
874.501	25.46
874.935	29.76
875.368	36.26
875.802	27.66
876.235	21.96
876.669	25.36
877.102	19.16
877.535	20.26
877.969	26.06
878.402	18.46
878.836	20.46
879.269	17.36
879.702	24.36
880.135	17.96
880.569	20.26
881.002	27.06
881.435	17.26
881.868	17.16
882.301	19.16
882.734	19.16
883.167	23.36
883.601	18.86
884.034	22.16
884.467	19.56
884.899	24.16
885.332	19.86
885.765	21.56
886.198	15.56
886.631	18.36
887.064	19.46
887.497	19.36
887.929	24.66
888.362	20.66
888.795	14.56
889.228	14.36
889.66	23.56
890.093	17.56
890.526	17.16
890.958	10.86
891.391	20.26
891.823	21.16
892.256	19.46
892.688	16.16
893.121	17.26
893.553	17.86
893.985	17.86
894.418	19.36
894.85	12.66
895.282	16.06
895.715	17.26
896.147	20.16
896.579	19.26
897.011	15.16
897.444	20.96
897.876	19.86
898.308	20.46
898.74	8.76
899.172	14.66
899.604	28.86
900.036	20.86
900.468	13.46
900.9	11.46
901.332	16.86
901.764	10.96
902.196	16.56
902.628	17.16
903.06	15.76
903.491	32.66
903.923	15.06
904.355	23.86
904.787	21.26
905.218	25.16
905.65	18.46
906.082	12.46
906.513	13.86
906.945	13.96
907.376	13.86
907.808	21.66
908.239	23.96
908.671	22.06
909.102	26.86
909.534	26.96
909.965	47.36
910.397	99.16
910.828	308.26
911.259	464.76
911.691	210.16
912.122	102.26
912.553	52.16
912.984	36.76
913.415	26.76
913.847	22.16
914.278	13.66
914.709	10.66
915.14	21.26
915.571	16.86
916.002	12.86
916.433	25.56
916.864	20.56
917.295	12.36
917.726	18.16
918.157	16.46
918.587	30.66
919.018	22.76
919.449	22.86
919.88	25.06
920.311	30.66
920.741	50.26
921.172	158.76
921.603	148.06
922.033	74.66
922.464	52.26
922.895	20.56
923.325	22.76
923.756	16.16
924.186	21.56
924.617	26.96
925.047	41.16
925.478	58.26
925.908	44.76
926.338	28.46
926.769	20.86
927.199	20.96
927.629	15.86
928.06	16.36
928.49	19.86
928.92	16.56
929.35	16.96
929.78	9.06
930.21	9.86
930.641	4.96
931.071	8.46
931.501	9.06
931.931	10.56
932.361	11.96
932.791	4.76
933.221	6.06
933.651	1.16
934.08	18.56
934.51	29.96
934.94	11.56
935.37	9.46
935.8	10.36
936.229	9.96
936.659	14.06
937.089	6.46
937.519	18.66
937.948	24.46
938.378	16.96
938.807	10.36
939.237	8.96
939.666	7.86
940.096	-1.54
940.525	1.36
940.955	5.66
941.384	-0.04
941.814	-4.54
942.243	-4.54
942.672	6.96
943.102	2.46
943.531	3.86
943.96	3.56
944.39	5.26
944.819	-0.24
945.248	7.86
945.677	11.86
946.106	5.36
946.535	5.06
946.964	-2.34
947.393	5.76
947.822	1.96
948.251	-2.64
948.68	1.16
949.109	5.56
949.538	10.36
949.967	-1.04
950.396	-3.34
950.825	-4.44
951.254	1.46
951.682	-8.64
952.111	4.86
952.54	2.26
952.969	-0.94
953.397	-8.14
953.826	7.06
954.254	-4.84
954.683	0.96
955.112	-0.14
955.54	-2.24
955.969	5.66
956.397	2.86
956.826	-3.34
957.254	7.76
957.682	1.26
958.111	5.46
958.539	-4.04
958.967	4.96
959.396	4.26
959.824	-2.14
960.252	0.36
960.68	-2.44
961.109	0.96
961.537	-6.64
961.965	2.26
962.393	-2.74
962.821	-2.34
963.249	3.26
963.677	6.06
964.105	8.36
964.533	44.56
964.961	44.66
965.389	15.16
965.817	10.36
966.245	2.96
966.672	-2.14
967.1	-7.04
967.528	1.36
967.956	-0.34
968.383	3.56
968.811	-0.34
969.239	-0.34
969.666	-3.54
970.094	-2.24
970.522	2.36
970.949	-4.44
971.377	2.06
971.804	-0.84
972.232	0.26
972.659	-0.14
973.087	-4.44
973.514	-2.84
973.941	-7.44
974.369	4.66
974.796	2.66
975.223	-2.94
975.651	0.26
976.078	3.86
976.505	4.46
976.932	3.86
977.359	14.26
977.786	15.06
978.214	6.16
978.641	-9.44
979.068	-0.14
979.495	1.76
979.922	-2.44
980.349	-5.44
980.776	2.26
981.202	-0.14
981.629	7.06
982.056	10.56
982.483	-6.44
982.91	8.06
983.337	-3.24
983.763	6.86
984.19	-5.14
984.617	0.26
985.043	-2.14
985.47	3.46
985.897	-8.64
986.323	-8.14
986.75	0.26
987.176	-0.14
987.603	-3.44
988.029	1.56
988.456	0.86
988.882	1.56
989.308	-4.84
989.735	-3.94
990.161	-0.24
990.587	-5.14
991.014	0.96
991.44	2.76
991.866	2.96
992.292	-6.04
992.719	-2.74
993.145	4.96
993.571	-7.04
993.997	-6.34
994.423	4.56
994.849	-5.94
995.275	3.46
995.701	0.76
996.127	-4.04
996.553	-3.64
996.979	-8.44
997.405	-2.54
997.83	-2.24
998.256	-5.44
998.682	-5.34
999.108	-11.94
999.534	2.56
999.959	-4.54
1000.385	-3.24
1000.811	-2.14
1001.236	-4.74
1001.662	-8.34
1002.087	-3.54
1002.513	3.66
1002.938	4.46
1003.364	-4.04
1003.789	-3.54
1004.215	0.36
1004.64	-6.64
1005.066	0.16
1005.491	-0.14
1005.916	-6.24
1006.342	-4.44
1006.767	-6.04
1007.192	2.86
1007.617	-5.44
1008.042	-4.84
1008.468	-7.14
1008.893	-4.34
1009.318	-3.34
1009.743	-4.24
1010.168	6.06
1010.593	5.26
1011.018	-9.44
1011.443	-3.54
1011.868	4.16
1012.293	1.76
1012.718	-2.74
1013.143	1.16
1013.567	-1.94
1013.992	-1.24
1014.417	-13.24
1014.842	4.76
1015.267	-10.94
1015.691	-3.44
1016.116	5.76
1016.541	1.16
1016.965	-0.74
1017.39	5.46
1017.814	-1.44
1018.239	-1.94
1018.663	-10.34
1019.088	-9.14
1019.512	-5.44
1019.937	-1.74
1020.361	-2.94
1020.785	-15.54
1021.21	0.96
1021.634	-1.34
1022.058	-1.74
1022.483	1.76
1022.907	-5.74
1023.331	-7.24
1023.755	-1.84
1024.179	3.46
1024.604	-4.34
1025.028	-4.84
1025.452	-9.24
1025.876	-3.14
1026.3	3.36
1026.724	-13.34
1027.148	-8.84
1027.572	-11.94
1027.996	-6.04
1028.42	-6.94
1028.843	-4.24
1029.267	-7.54
1029.691	-2.64
1030.115	-8.04
1030.539	-6.34
1030.962	-8.94
1031.386	-6.84
1031.81	7.26
1032.233	-3.34
1032.657	-2.64
1033.08	-1.14
1033.504	-1.14
1033.927	-4.74
1034.351	-4.04
1034.774	-1.94
1035.198	-2.94
1035.621	0.06
1036.045	-9.94
1036.468	-0.44
1036.891	-9.04
1037.315	-8.64
1037.738	-11.54
1038.161	6.36
1038.584	-8.14
1039.008	-5.84
1039.431	-1.94
1039.854	-1.14
1040.277	-5.74
1040.7	-8.34
1041.123	0.76
1041.546	-7.94
1041.969	-10.24
1042.392	-9.14
1042.815	-8.14
1043.238	2.56
1043.661	0.66
1044.084	-5.84
1044.507	-6.94
1044.93	-8.94
1045.352	-10.44
1045.775	-0.74
1046.198	-4.44
1046.621	0.56
1047.043	0.86
1047.466	12.46
1047.889	-0.84
1048.311	-5.54
1048.734	0.76
1049.156	-5.74
1049.579	-6.24
1050.001	-2.04
1050.424	-3.44
1050.846	-3.04
1051.269	-7.64
1051.691	-11.44
1052.113	-10.44
1052.536	-4.44
1052.958	-11.44
1053.38	-1.54
1053.802	-12.54
1054.225	3.06
1054.647	-9.34
1055.069	-7.74
1055.491	0.46
1055.913	-7.94
1056.335	-0.04
1056.757	-3.74
1057.179	-1.74
1057.601	-8.34
1058.023	-3.34
1058.445	-3.34
1058.867	-11.24
1059.289	-4.44
1059.711	-6.24
1060.133	2.16
1060.555	-5.34
1060.976	-6.34
1061.398	-8.64
1061.82	-3.34
1062.241	-8.84
1062.663	-7.84
1063.085	-13.54
1063.506	1.76
1063.928	0.66
1064.35	-5.24
1064.771	-11.74
1065.193	-5.74
1065.614	-5.44
1066.035	-4.44
1066.457	-4.94
1066.878	1.86
1067.3	-7.84
1067.721	0.96
1068.142	-3.24
1068.564	-5.44
1068.985	-8.74
1069.406	-4.74
1069.827	-4.24
1070.248	-2.04
1070.67	-3.44
1071.091	-5.74
1071.512	-3.44
1071.933	-10.64
1072.354	-11.04
1072.775	-6.84
1073.196	-4.74
1073.617	-4.44
1074.038	-11.74
1074.459	-7.54
1074.88	-4.84
1075.3	1.76
1075.721	-5.84
1076.142	2.76
1076.563	-3.14
1076.983	-14.34
1077.404	-10.14
1077.825	-11.24
1078.246	-2.44
1078.666	-13.54
1079.087	-10.04
1079.507	-10.84
1079.928	1.46
1080.348	-3.94
1080.769	-2.04
1081.189	-2.04
1081.61	-8.44
1082.03	-5.04
1082.451	-7.94
1082.871	-2.14
1083.291	-6.34
1083.711	-6.04
1084.132	-5.34
1084.552	-2.54
1084.972	2.66
1085.392	-2.14
1085.813	-10.44
1086.233	-7.34
1086.653	-12.34
1087.073	-3.14
1087.493	-3.74
1087.913	-12.24
1088.333	-4.14
1088.753	-4.94
1089.173	0.56
1089.593	-4.74
1090.013	1.46
1090.433	0.86
1090.852	-0.84
1091.272	-3.54
1091.692	-1.44
1092.112	-3.14
1092.531	-6.74
1092.951	-7.74
1093.371	-9.54
1093.79	0.56
1094.21	-3.84
1094.63	-0.24
1095.049	-3.64
1095.469	-3.84
1095.888	-0.54
1096.308	2.76
1096.727	1.76
1097.146	-3.84
1097.566	-1.94
1097.985	-3.94
1098.405	-6.64
1098.824	-2.94
1099.243	-8.34
1099.662	-6.54
1100.082	-4.64
1100.501	-2.74
1100.92	-5.04
1101.339	-7.04
1101.758	-5.04
