Data from 20171114-ORNL-Ar_H_NY_Subt18_08-04-50-652.txt Node
Date: Tue Nov 14 08:04:50 EST 2017
User: Ender
Spectrometer: HR+D1039
Trigger mode: 0
Integration Time (sec): 2.730000E-2
Scans to average: 10
Electric dark correction enabled: true
Nonlinearity correction enabled: false
Boxcar width: 0
XAxis mode: Wavelengths
Number of Pixels in Spectrum: 2048
>>>>>Begin Spectral Data<<<<<
187.836	-4.71
188.309	-4.71
188.782	-4.71
189.255	-0.71
189.728	1.59
190.201	2.69
190.674	3.89
191.147	0.49
191.619	-4.31
192.092	1.79
192.565	2.99
193.038	-2.41
193.511	0.89
193.984	1.79
194.456	-1.01
194.929	-3.61
195.402	-0.61
195.874	1.29
196.347	-1.51
196.82	-5.41
197.292	6.39
197.765	1.69
198.237	-7.91
198.71	0.19
199.182	-2.61
199.655	2.99
200.127	1.89
200.6	-0.51
201.072	-0.51
201.544	-6.91
202.017	-2.81
202.489	3.79
202.961	-5.71
203.433	-0.31
203.906	-0.71
204.378	-4.81
204.85	-1.01
205.322	-8.01
205.794	-10.51
206.266	-11.71
206.739	-10.21
207.211	8.49
207.683	-4.01
208.155	-3.71
208.627	-1.01
209.099	-4.11
209.57	-9.61
210.042	0.69
210.514	3.09
210.986	4.09
211.458	-3.71
211.93	2.59
212.402	2.69
212.873	-3.91
213.345	-6.21
213.817	-12.81
214.288	-3.51
214.76	-4.21
215.232	-1.71
215.703	1.39
216.175	-2.11
216.646	-5.71
217.118	-6.01
217.589	-3.01
218.061	0.09
218.532	-0.11
219.004	1.79
219.475	-1.91
219.946	3.89
220.418	-7.41
220.889	3.99
221.36	1.19
221.832	-3.81
222.303	-6.11
222.774	-1.21
223.245	-6.51
223.717	-9.41
224.188	-4.61
224.659	-2.01
225.13	-5.21
225.601	-0.91
226.072	-0.41
226.543	-0.11
227.014	1.39
227.485	-4.21
227.956	-6.01
228.427	-2.91
228.898	0.59
229.369	2.29
229.839	-4.01
230.31	-8.51
230.781	-3.91
231.252	-0.81
231.722	-5.21
232.193	3.89
232.664	-4.61
233.135	3.29
233.605	-2.21
234.076	-1.31
234.546	-1.01
235.017	1.59
235.487	1.69
235.958	-1.61
236.428	-3.01
236.899	7.79
237.369	2.89
237.84	-4.71
238.31	9.89
238.78	3.09
239.251	0.39
239.721	2.69
240.191	-2.61
240.662	-2.31
241.132	-0.61
241.602	3.69
242.072	-1.71
242.542	9.09
243.013	6.49
243.483	6.39
243.953	5.69
244.423	-2.91
244.893	-1.61
245.363	2.69
245.833	2.89
246.303	-3.71
246.773	9.69
247.243	3.39
247.712	0.79
248.182	10.49
248.652	14.29
249.122	0.99
249.592	13.69
250.061	25.89
250.531	32.29
251.001	19.89
251.471	28.89
251.94	22.99
252.41	12.19
252.879	-3.51
253.349	18.89
253.818	14.69
254.288	7.69
254.757	5.49
255.227	3.79
255.696	5.59
256.166	5.69
256.635	7.39
257.105	9.49
257.574	9.29
258.043	7.49
258.513	13.59
258.982	14.89
259.451	12.89
259.92	14.49
260.389	13.09
260.859	17.19
261.328	15.69
261.797	22.99
262.266	8.79
262.735	11.09
263.204	9.59
263.673	4.19
264.142	8.49
264.611	-2.11
265.08	0.09
265.549	1.49
266.018	9.39
266.487	3.79
266.955	1.09
267.424	4.79
267.893	9.49
268.362	9.29
268.83	7.19
269.299	15.79
269.768	9.09
270.236	0.39
270.705	5.39
271.174	9.89
271.642	9.99
272.111	15.19
272.579	20.29
273.048	29.19
273.516	30.89
273.985	27.79
274.453	24.69
274.922	24.59
275.39	12.49
275.858	7.39
276.327	16.79
276.795	17.19
277.263	14.09
277.731	37.59
278.2	60.29
278.668	61.39
279.136	61.59
279.604	23.09
280.072	12.59
280.54	15.79
281.008	14.89
281.477	14.19
281.945	15.39
282.413	9.29
282.881	18.29
283.348	11.99
283.816	20.89
284.284	21.29
284.752	21.59
285.22	13.59
285.688	18.19
286.156	19.49
286.623	51.79
287.091	51.39
287.559	26.29
288.026	25.29
288.494	22.99
288.962	9.19
289.429	14.79
289.897	22.79
290.364	13.59
290.832	18.69
291.3	16.89
291.767	18.59
292.234	23.59
292.702	21.59
293.169	24.99
293.637	25.49
294.104	27.99
294.571	18.19
295.039	15.99
295.506	16.19
295.973	19.89
296.44	15.99
296.908	18.29
297.375	26.39
297.842	19.79
298.309	23.49
298.776	17.39
299.243	20.39
299.71	15.69
300.177	27.89
300.644	29.59
301.111	18.59
301.578	22.49
302.045	17.29
302.512	28.69
302.979	29.49
303.446	23.99
303.913	18.29
304.379	20.69
304.846	31.89
305.313	28.69
305.78	26.49
306.246	27.99
306.713	35.59
307.18	29.09
307.646	25.39
308.113	28.19
308.579	27.39
309.046	32.49
309.512	26.99
309.979	24.59
310.445	25.29
310.912	36.09
311.378	35.79
311.845	37.19
312.311	31.59
312.777	32.79
313.244	37.89
313.71	37.79
314.176	35.39
314.642	35.79
315.109	34.89
315.575	34.79
316.041	43.09
316.507	36.59
316.973	41.59
317.439	37.99
317.905	42.79
318.371	35.59
318.837	37.09
319.303	34.49
319.769	37.99
320.235	33.49
320.701	37.19
321.167	38.89
321.633	27.39
322.099	41.89
322.564	46.19
323.03	39.99
323.496	41.19
323.962	43.59
324.427	46.39
324.893	42.19
325.359	37.79
325.824	41.89
326.29	37.59
326.755	36.39
327.221	40.99
327.686	42.89
328.152	51.99
328.617	45.09
329.083	50.89
329.548	50.89
330.014	45.49
330.479	37.49
330.944	47.19
331.41	45.19
331.875	47.69
332.34	45.19
332.805	42.89
333.271	47.69
333.736	45.69
334.201	52.69
334.666	58.89
335.131	64.19
335.596	51.19
336.061	54.89
336.526	46.59
336.991	48.09
337.456	52.39
337.921	51.69
338.386	44.79
338.851	47.89
339.316	44.79
339.781	48.39
340.246	55.09
340.711	49.89
341.175	51.39
341.64	46.69
342.105	57.39
342.569	57.89
343.034	55.49
343.499	55.59
343.963	55.49
344.428	61.89
344.893	67.79
345.357	67.69
345.822	64.89
346.286	70.99
346.751	72.79
347.215	68.29
347.679	78.99
348.144	94.69
348.608	83.09
349.073	77.89
349.537	80.09
350.001	81.89
350.465	91.49
350.93	80.19
351.394	77.59
351.858	73.29
352.322	87.59
352.786	90.79
353.25	102.09
353.715	109.49
354.179	104.69
354.643	121.79
355.107	129.79
355.571	107.19
356.035	102.09
356.498	119.19
356.962	121.09
357.426	124.09
357.89	118.09
358.354	92.69
358.818	86.49
359.281	75.49
359.745	74.69
360.209	77.59
360.673	78.09
361.136	87.59
361.6	82.59
362.064	83.89
362.527	82.39
362.991	88.89
363.454	78.89
363.918	73.99
364.381	75.39
364.845	83.89
365.308	85.39
365.772	88.69
366.235	81.49
366.698	85.39
367.162	81.79
367.625	90.89
368.088	89.89
368.552	91.49
369.015	87.39
369.478	101.49
369.941	102.39
370.404	95.49
370.867	107.09
371.331	102.09
371.794	113.59
372.257	110.89
372.72	113.89
373.183	108.29
373.646	105.59
374.109	103.19
374.572	107.69
375.035	103.89
375.497	103.79
375.96	109.19
376.423	104.59
376.886	103.39
377.349	107.59
377.811	99.39
378.274	108.89
378.737	108.59
379.199	106.39
379.662	109.59
380.125	114.99
380.587	112.19
381.05	122.79
381.512	125.99
381.975	126.09
382.437	126.69
382.9	125.09
383.362	132.69
383.825	144.89
384.287	144.49
384.75	138.19
385.212	137.19
385.674	142.99
386.136	133.49
386.599	127.89
387.061	124.29
387.523	127.19
387.985	132.99
388.447	143.89
388.91	142.79
389.372	150.39
389.834	149.39
390.296	137.19
390.758	149.19
391.22	163.89
391.682	199.29
392.144	288.39
392.606	227.79
393.068	166.99
393.529	165.69
393.991	155.99
394.453	143.69
394.915	155.99
395.377	184.59
395.838	211.49
396.3	154.19
396.762	143.49
397.224	130.69
397.685	127.69
398.147	131.69
398.608	129.49
399.07	126.49
399.531	126.69
399.993	137.89
400.454	151.09
400.916	147.89
401.377	146.09
401.839	151.99
402.3	150.19
402.762	163.39
403.223	177.99
403.684	161.19
404.145	163.39
404.607	159.89
405.068	160.19
405.529	165.49
405.99	183.89
406.451	169.79
406.913	163.39
407.374	161.99
407.835	157.09
408.296	162.69
408.757	160.09
409.218	178.19
409.679	174.19
410.14	172.89
410.601	172.89
411.062	178.19
411.522	178.49
411.983	179.89
412.444	167.69
412.905	176.09
413.366	178.39
413.826	190.49
414.287	210.89
414.748	259.99
415.208	245.49
415.669	206.89
416.13	204.69
416.59	199.59
417.051	213.59
417.511	214.99
417.972	238.29
418.432	247.39
418.893	270.79
419.353	243.39
419.814	193.79
420.274	178.39
420.734	172.19
421.195	191.89
421.655	194.49
422.115	190.09
422.576	188.59
423.036	192.49
423.496	202.29
423.956	215.49
424.416	224.79
424.876	258.79
425.336	251.79
425.797	253.79
426.257	245.29
426.717	235.29
427.177	224.59
427.637	219.39
428.097	229.49
428.556	237.29
429.016	257.29
429.476	261.89
429.936	264.59
430.396	273.29
430.856	276.19
431.315	305.19
431.775	339.79
432.235	363.99
432.694	341.69
433.154	351.89
433.614	372.29
434.073	324.89
434.533	269.99
434.993	260.69
435.452	275.09
435.912	292.09
436.371	277.79
436.83	272.29
437.29	261.49
437.749	240.49
438.209	232.69
438.668	260.29
439.127	278.09
439.587	259.79
440.046	232.09
440.505	255.69
440.964	276.09
441.424	317.39
441.883	306.59
442.342	253.89
442.801	219.29
443.26	212.19
443.719	210.09
444.178	210.19
444.637	203.49
445.096	209.89
445.555	216.29
446.014	213.09
446.473	219.49
446.932	228.69
447.391	218.99
447.849	219.79
448.308	215.79
448.767	211.09
449.226	224.79
449.685	222.89
450.143	238.49
450.602	220.49
451.061	217.39
451.519	219.99
451.978	224.29
452.436	225.39
452.895	231.59
453.353	242.79
453.812	226.39
454.27	233.89
454.729	228.89
455.187	233.89
455.646	231.59
456.104	242.99
456.562	241.89
457.021	256.89
457.479	249.69
457.937	258.89
458.395	251.39
458.854	248.39
459.312	239.79
459.77	261.19
460.228	244.49
460.686	236.79
461.144	240.69
461.602	230.09
462.06	239.99
462.518	242.89
462.976	245.19
463.434	251.89
463.892	264.49
464.35	269.29
464.808	278.49
465.266	260.89
465.724	257.59
466.181	270.49
466.639	260.39
467.097	280.59
467.555	289.39
468.012	295.89
468.47	299.39
468.928	318.49
469.385	333.19
469.843	334.79
470.3	340.09
470.758	351.29
471.215	371.99
471.673	394.69
472.13	390.29
472.588	401.39
473.045	361.29
473.503	363.09
473.96	381.59
474.417	389.19
474.875	415.79
475.332	452.29
475.789	442.99
476.246	452.39
476.704	463.29
477.161	495.99
477.618	502.49
478.075	536.39
478.532	603.09
478.989	660.29
479.446	777.09
479.903	746.49
480.36	780.49
480.817	832.49
481.274	929.79
481.731	1045.89
482.188	1118.99
482.645	1246.19
483.102	1361.19
483.558	1488.39
484.015	1545.29
484.472	1520.89
484.929	1470.19
485.385	1428.09
485.842	1388.89
486.299	1320.39
486.755	1250.79
487.212	1058.49
487.668	898.29
488.125	815.49
488.582	755.49
489.038	735.29
489.494	684.39
489.951	668.89
490.407	643.79
490.864	623.09
491.32	617.99
491.776	615.59
492.233	622.19
492.689	585.79
493.145	587.19
493.602	574.19
494.058	593.59
494.514	599.29
494.97	616.79
495.426	629.69
495.882	593.99
496.338	589.89
496.794	612.59
497.251	603.09
497.707	611.39
498.163	607.29
498.618	622.29
499.074	627.59
499.53	656.39
499.986	660.89
500.442	632.09
500.898	612.79
501.354	607.89
501.809	626.49
502.265	633.89
502.721	639.69
503.177	647.19
503.632	641.89
504.088	653.19
504.543	692.19
504.999	688.29
505.455	635.39
505.91	606.69
506.366	616.89
506.821	609.09
507.277	600.79
507.732	607.59
508.187	602.09
508.643	614.09
509.098	611.49
509.553	640.59
510.009	634.69
510.464	642.99
510.919	654.99
511.375	666.99
511.83	678.99
512.285	695.89
512.74	741.09
513.195	761.09
513.65	746.79
514.105	745.69
514.56	753.29
515.015	770.59
515.47	785.59
515.925	764.39
516.38	768.59
516.835	768.99
517.29	759.79
517.745	753.99
518.2	746.39
518.655	730.39
519.109	727.99
519.564	720.29
520.019	703.39
520.474	709.49
520.928	699.49
521.383	700.29
521.838	679.89
522.292	689.29
522.747	681.69
523.201	679.49
523.656	669.89
524.11	665.19
524.565	655.49
525.019	659.59
525.474	671.49
525.928	673.99
526.382	665.99
526.837	664.39
527.291	676.79
527.745	671.79
528.2	670.79
528.654	665.19
529.108	668.19
529.562	660.19
530.016	664.89
530.47	657.79
530.925	660.69
531.379	672.49
531.833	671.59
532.287	674.59
532.741	681.29
533.195	669.59
533.649	694.59
534.103	696.59
534.556	682.79
535.01	688.39
535.464	685.29
535.918	692.19
536.372	695.19
536.826	688.99
537.279	669.29
537.733	680.69
538.187	681.19
538.64	690.99
539.094	701.79
539.548	709.89
540.001	691.49
540.455	692.19
540.908	700.49
541.362	697.29
541.815	716.09
542.269	721.29
542.722	716.89
543.175	736.79
543.629	733.69
544.082	740.89
544.536	755.09
544.989	744.99
545.442	755.79
545.895	748.89
546.349	760.19
546.802	755.69
547.255	759.89
547.708	763.79
548.161	772.09
548.614	775.29
549.067	783.39
549.52	781.59
549.973	770.39
550.426	771.19
550.879	754.59
551.332	758.89
551.785	764.69
552.238	763.49
552.691	780.69
553.144	784.69
553.596	799.09
554.049	817.29
554.502	854.89
554.955	866.09
555.407	868.39
555.86	862.19
556.313	853.49
556.765	841.19
557.218	843.99
557.67	844.19
558.123	836.69
558.576	829.89
559.028	836.89
559.48	839.49
559.933	828.99
560.385	799.59
560.838	768.99
561.29	746.19
561.742	748.39
562.195	721.29
562.647	730.09
563.099	733.49
563.551	724.79
564.004	742.19
564.456	732.59
564.908	722.29
565.36	708.79
565.812	694.09
566.264	688.69
566.716	689.39
567.168	672.59
567.62	679.09
568.072	670.89
568.524	656.89
568.976	654.99
569.428	630.29
569.88	631.89
570.332	646.49
570.784	644.89
571.235	643.99
571.687	665.39
572.139	656.09
572.59	664.89
573.042	670.49
573.494	680.89
573.945	662.59
574.397	644.19
574.849	654.79
575.3	651.59
575.752	642.29
576.203	634.39
576.655	651.09
577.106	634.99
577.557	619.79
578.009	632.79
578.46	622.59
578.912	617.99
579.363	627.79
579.814	628.29
580.265	612.99
580.717	626.09
581.168	627.79
581.619	628.89
582.07	647.69
582.521	631.29
582.972	624.79
583.423	622.39
583.875	637.99
584.326	649.59
584.777	695.09
585.227	770.89
585.678	841.39
586.129	929.19
586.58	993.99
587.031	1066.99
587.482	1220.89
587.933	1396.69
588.384	1207.99
588.834	899.59
589.285	754.29
589.736	735.39
590.186	723.59
590.637	705.19
591.088	684.09
591.538	687.79
591.989	681.39
592.439	668.49
592.89	674.69
593.34	659.59
593.791	665.29
594.241	652.49
594.692	663.69
595.142	651.09
595.593	647.19
596.043	661.69
596.493	654.59
596.943	656.59
597.394	670.19
597.844	656.49
598.294	677.59
598.744	697.09
599.195	724.99
599.645	751.69
600.095	776.59
600.545	830.49
600.995	886.09
601.445	946.49
601.895	994.49
602.345	1050.69
602.795	1033.49
603.245	994.09
603.695	938.89
604.145	885.09
604.594	835.89
605.044	784.89
605.494	736.29
605.944	700.69
606.393	694.29
606.843	673.09
607.293	670.79
607.743	662.19
608.192	689.19
608.642	693.29
609.091	692.49
609.541	697.99
609.99	705.29
610.44	708.19
610.889	668.29
611.339	646.69
611.788	627.89
612.238	634.69
612.687	659.69
613.136	657.39
613.586	667.89
614.035	670.59
614.484	692.79
614.933	686.39
615.383	687.69
615.832	672.99
616.281	668.39
616.73	626.89
617.179	614.19
617.628	601.59
618.077	573.29
618.526	569.69
618.975	568.49
619.424	565.69
619.873	555.99
620.322	561.69
620.771	549.29
621.22	546.69
621.669	541.99
622.118	539.79
622.567	525.99
623.015	517.99
623.464	514.49
623.913	512.19
624.361	498.59
624.81	509.49
625.259	503.19
625.707	504.59
626.156	502.29
626.604	519.69
627.053	505.89
627.501	514.79
627.95	512.99
628.398	522.79
628.847	506.19
629.295	519.69
629.744	528.69
630.192	509.69
630.64	516.39
631.089	515.59
631.537	520.59
631.985	535.99
632.433	534.69
632.881	538.69
633.33	597.39
633.778	577.69
634.226	509.99
634.674	517.49
635.122	526.99
635.57	534.19
636.018	560.39
636.466	527.99
636.914	501.79
637.362	518.09
637.81	528.79
638.258	518.09
638.705	520.79
639.153	543.99
639.601	547.39
640.049	581.49
640.497	608.49
640.944	616.89
641.392	574.69
641.84	553.59
642.287	528.49
642.735	522.99
643.182	516.39
643.63	514.29
644.078	519.69
644.525	532.09
644.973	535.49
645.42	542.99
645.867	565.59
646.315	578.99
646.762	594.59
647.21	627.49
647.657	643.89
648.104	679.39
648.551	701.79
648.999	746.59
649.446	818.09
649.893	904.89
650.34	1042.69
650.787	1238.39
651.234	1531.09
651.682	1992.29
652.129	2723.69
652.576	3918.79
653.023	5776.49
653.47	7998.49
653.917	10079.49
654.363	11760.49
654.81	13148.69
655.257	12512.89
655.704	8117.29
656.151	4775.09
656.598	3082.79
657.044	2192.89
657.491	1688.29
657.938	1343.09
658.385	1117.59
658.831	963.89
659.278	868.39
659.724	761.39
660.171	712.09
660.618	659.59
661.064	617.39
661.511	594.59
661.957	575.89
662.404	572.49
662.85	578.39
663.296	548.39
663.743	500.69
664.189	477.29
664.635	480.39
665.082	474.39
665.528	470.39
665.974	460.89
666.42	451.09
666.867	453.49
667.313	441.69
667.759	423.49
668.205	425.39
668.651	435.69
669.097	430.49
669.543	444.79
669.989	409.99
670.435	402.69
670.881	396.79
671.327	405.69
671.773	411.89
672.219	425.29
672.665	487.69
673.11	518.29
673.556	562.89
674.002	594.79
674.448	587.49
674.893	487.29
675.339	418.99
675.785	388.19
676.23	375.29
676.676	350.49
677.122	338.49
677.567	327.59
678.013	325.89
678.458	320.39
678.904	318.49
679.349	304.29
679.794	320.69
680.24	312.59
680.685	311.89
681.131	305.69
681.576	306.89
682.021	310.59
682.466	306.69
682.912	304.49
683.357	316.29
683.802	338.79
684.247	362.79
684.692	402.69
685.137	437.29
685.583	474.49
686.028	501.99
686.473	460.99
686.918	392.59
687.363	360.29
687.807	354.09
688.252	328.59
688.697	318.69
689.142	299.19
689.587	295.19
690.032	279.99
690.477	298.19
690.921	315.89
691.366	331.89
691.811	349.19
692.255	373.29
692.7	400.79
693.145	440.89
693.589	596.39
694.034	969.99
694.478	1338.29
694.923	1551.19
695.367	2056.49
695.812	1065.09
696.256	450.09
696.701	324.09
697.145	301.89
697.59	288.09
698.034	289.09
698.478	288.79
698.922	289.39
699.367	291.99
699.811	300.69
700.255	314.69
700.699	331.89
701.143	368.89
701.588	413.69
702.032	461.69
702.476	448.69
702.92	430.49
703.364	424.09
703.808	545.79
704.252	903.69
704.696	1278.29
705.14	1497.79
705.584	1912.09
706.027	943.49
706.471	456.19
706.915	347.69
707.359	306.09
707.803	280.39
708.246	275.09
708.69	275.09
709.134	281.09
709.577	276.89
710.021	283.19
710.465	270.89
710.908	260.69
711.352	265.39
711.795	280.59
712.239	308.39
712.682	335.19
713.126	375.19
713.569	410.79
714.012	329.49
714.456	287.29
714.899	264.29
715.342	241.19
715.786	229.29
716.229	225.89
716.672	227.19
717.115	217.39
717.558	217.29
718.002	220.19
718.445	230.99
718.888	257.09
719.331	259.79
719.774	264.09
720.217	265.69
720.66	246.79
721.103	227.69
721.546	226.99
721.989	214.09
722.432	209.39
722.874	214.79
723.317	198.59
723.76	214.19
724.203	227.59
724.645	280.59
725.088	378.39
725.531	492.79
725.974	578.99
726.416	497.09
726.859	267.19
727.301	218.39
727.744	209.79
728.187	203.79
728.629	211.19
729.071	216.89
729.514	231.79
729.956	238.49
730.399	246.79
730.841	254.99
731.283	239.99
731.726	232.39
732.168	230.39
732.61	229.29
733.053	250.69
733.495	273.19
733.937	300.79
734.379	341.09
734.821	378.69
735.263	473.49
735.705	710.09
736.148	1337.69
736.59	2253.79
737.032	2738.09
737.474	2216.59
737.916	697.79
738.357	373.39
738.799	291.69
739.241	260.09
739.683	243.59
740.125	256.29
740.567	255.39
741.008	276.19
741.45	281.19
741.892	274.09
742.334	304.89
742.775	310.39
743.217	297.39
743.658	231.09
744.1	216.69
744.542	240.29
744.983	276.69
745.425	301.39
745.866	303.49
746.307	252.49
746.749	244.19
747.19	275.69
747.632	386.39
748.073	735.09
748.514	1584.79
748.956	2491.29
749.397	3123.59
749.838	2603.89
750.279	2664.19
750.72	1331.79
751.162	477.79
751.603	283.59
752.044	219.39
752.485	191.09
752.926	177.79
753.367	178.69
753.808	165.79
754.249	161.89
754.69	157.09
755.131	162.09
755.572	156.99
756.013	151.39
756.453	156.69
756.894	161.99
757.335	164.69
757.776	173.39
758.216	171.39
758.657	169.69
759.098	169.89
759.538	191.39
759.979	230.89
760.42	320.29
760.86	591.09
761.301	1542.99
761.741	3800.19
762.182	5797.59
762.622	4080.99
763.063	1156.39
763.503	473.49
763.943	295.39
764.384	294.19
764.824	355.79
765.264	384.49
765.705	265.49
766.145	182.89
766.585	167.59
767.025	154.69
767.465	157.39
767.906	211.89
768.346	278.19
768.786	297.09
769.226	228.79
769.666	274.49
770.106	524.29
770.546	1323.09
770.986	2348.59
771.426	2133.79
771.866	700.69
772.306	288.39
772.745	185.29
773.185	152.29
773.625	147.09
774.065	144.79
774.505	175.79
774.944	265.89
775.384	569.19
775.824	1070.59
776.263	1057.29
776.703	442.79
777.142	195.39
777.582	135.69
778.021	118.79
778.461	117.49
778.9	118.99
779.34	121.29
779.779	100.19
780.219	95.79
780.658	88.69
781.097	96.89
781.537	102.09
781.976	97.59
782.415	91.69
782.855	89.29
783.294	87.49
783.733	88.49
784.172	90.19
784.611	85.79
785.05	95.19
785.489	99.49
785.928	99.39
786.367	112.79
786.806	97.79
787.245	115.39
787.684	122.89
788.123	132.39
788.562	115.69
789.001	114.09
789.44	109.19
789.879	103.89
790.317	110.09
790.756	103.39
791.195	108.19
791.634	119.39
792.072	174.29
792.511	309.39
792.95	841.69
793.388	1884.79
793.827	1743.39
794.265	602.49
794.704	250.49
795.142	161.99
795.581	133.99
796.019	117.99
796.458	114.09
796.896	107.99
797.334	107.59
797.773	128.79
798.211	187.09
798.649	370.89
799.087	878.69
799.526	1395.99
799.964	1742.59
800.402	1804.79
800.84	670.49
801.278	254.89
801.716	151.49
802.154	133.69
802.592	136.79
803.03	118.99
803.468	116.49
803.906	126.79
804.344	135.99
804.782	117.19
805.22	116.39
805.658	108.09
806.096	127.49
806.533	133.89
806.971	147.59
807.409	185.29
807.847	270.79
808.284	555.19
808.722	1589.19
809.16	2911.29
809.597	2690.09
810.035	4764.09
810.472	5267.49
810.91	1874.99
811.347	695.29
811.785	350.99
812.222	222.59
812.66	170.49
813.097	142.89
813.535	117.49
813.972	117.29
814.409	103.39
814.846	98.69
815.284	92.49
815.721	89.49
816.158	93.09
816.595	98.99
817.032	155.59
817.47	180.19
817.907	151.29
818.344	135.29
818.781	105.39
819.218	85.89
819.655	105.19
820.092	163.59
820.529	184.09
820.966	157.89
821.403	114.19
821.839	92.39
822.276	86.39
822.713	110.69
823.15	115.99
823.587	105.39
824.023	123.99
824.46	251.99
824.897	770.59
825.333	1209.69
825.77	519.19
826.206	196.49
826.643	119.99
827.08	83.49
827.516	72.09
827.953	68.89
828.389	68.29
828.825	58.29
829.262	58.99
829.698	57.59
830.135	52.39
830.571	50.69
831.007	50.79
831.443	59.59
831.88	53.99
832.316	54.49
832.752	54.89
833.188	54.29
833.624	57.89
834.06	59.89
834.497	63.49
834.933	62.39
835.369	66.59
835.805	63.59
836.241	59.99
836.677	72.19
837.112	75.39
837.548	86.99
837.984	114.99
838.42	170.39
838.856	409.69
839.292	1301.19
839.727	2060.09
840.163	958.29
840.599	793.99
841.034	1782.69
841.47	1936.69
841.906	694.79
842.341	293.99
842.777	201.19
843.212	274.39
843.648	273.09
844.083	140.09
844.519	82.39
844.954	61.69
845.39	55.39
845.825	52.09
846.261	53.19
846.696	46.79
847.131	51.19
847.566	52.99
848.002	44.59
848.437	56.89
848.872	52.49
849.307	52.79
849.742	74.29
850.177	150.49
850.613	468.69
851.048	781.19
851.483	333.19
851.918	133.29
852.353	66.19
852.788	52.29
853.223	53.59
853.657	48.79
854.092	40.99
854.527	35.69
854.962	33.19
855.397	38.49
855.832	41.59
856.266	37.79
856.701	36.39
857.136	29.59
857.57	43.19
858.005	46.19
858.44	58.69
858.874	38.49
859.309	47.49
859.743	36.19
860.178	38.99
860.612	33.89
861.047	41.59
861.481	54.49
861.915	63.69
862.35	43.99
862.784	28.49
863.218	36.49
863.653	28.69
864.087	39.49
864.521	43.99
864.955	61.09
865.39	135.19
865.824	151.99
866.258	108.39
866.692	143.89
867.126	152.99
867.56	91.59
867.994	52.99
868.428	34.69
868.862	35.89
869.296	45.29
869.73	46.89
870.164	44.99
870.598	46.79
871.031	34.19
871.465	30.69
871.899	25.19
872.333	20.59
872.766	23.59
873.2	22.29
873.634	27.69
874.067	22.79
874.501	18.59
874.935	28.69
875.368	23.59
875.802	26.29
876.235	24.59
876.669	23.99
877.102	20.89
877.535	23.99
877.969	15.39
878.402	17.49
878.836	17.19
879.269	19.69
879.702	26.59
880.135	15.99
880.569	13.79
881.002	26.19
881.435	19.69
881.868	9.99
882.301	15.69
882.734	15.59
883.167	15.39
883.601	16.39
884.034	17.19
884.467	12.39
884.899	17.39
885.332	18.49
885.765	10.59
886.198	15.89
886.631	13.69
887.064	18.89
887.497	15.09
887.929	20.29
888.362	14.89
888.795	15.49
889.228	14.79
889.66	19.19
890.093	18.09
890.526	14.89
890.958	13.79
891.391	14.69
891.823	22.99
892.256	15.09
892.688	8.89
893.121	16.39
893.553	17.59
893.985	15.19
894.418	16.59
894.85	10.29
895.282	15.69
895.715	20.19
896.147	15.49
896.579	22.89
897.011	9.19
897.444	19.29
897.876	9.69
898.308	14.59
898.74	11.99
899.172	14.09
899.604	23.39
900.036	14.59
900.468	6.39
900.9	11.79
901.332	15.99
901.764	9.69
902.196	13.29
902.628	14.49
903.06	12.09
903.491	30.39
903.923	24.29
904.355	23.29
904.787	26.69
905.218	21.69
905.65	14.29
906.082	5.99
906.513	8.29
906.945	16.69
907.376	15.79
907.808	15.99
908.239	16.29
908.671	13.79
909.102	18.39
909.534	18.59
909.965	40.29
910.397	81.99
910.828	274.49
911.259	424.89
911.691	188.09
912.122	91.79
912.553	41.89
912.984	27.69
913.415	24.49
913.847	28.69
914.278	17.49
914.709	12.99
915.14	17.19
915.571	15.89
916.002	10.29
916.433	12.49
916.864	12.19
917.295	10.79
917.726	20.69
918.157	9.69
918.587	22.39
919.018	14.49
919.449	17.89
919.88	15.49
920.311	29.49
920.741	42.49
921.172	148.09
921.603	134.19
922.033	59.79
922.464	45.79
922.895	14.89
923.325	17.09
923.756	11.39
924.186	11.39
924.617	24.49
925.047	37.19
925.478	48.09
925.908	40.79
926.338	22.79
926.769	17.99
927.199	18.09
927.629	11.29
928.06	13.59
928.49	11.09
928.92	7.59
929.35	10.49
929.78	10.69
930.21	5.99
930.641	2.09
931.071	4.99
931.501	3.99
931.931	9.89
932.361	5.49
932.791	-0.61
933.221	5.89
933.651	3.59
934.08	13.69
934.51	29.09
934.94	7.39
935.37	5.69
935.8	12.39
936.229	4.79
936.659	14.49
937.089	5.59
937.519	17.29
937.948	21.89
938.378	18.99
938.807	9.59
939.237	8.99
939.666	9.29
940.096	-0.41
940.525	1.99
940.955	3.69
941.384	1.19
941.814	-8.51
942.243	-3.91
942.672	4.79
943.102	-3.01
943.531	-5.41
943.96	4.19
944.39	-3.01
944.819	-3.91
945.248	3.49
945.677	1.99
946.106	4.99
946.535	4.99
946.964	1.79
947.393	2.19
947.822	5.19
948.251	-0.31
948.68	7.49
949.109	3.59
949.538	8.59
949.967	0.99
950.396	4.09
950.825	-2.61
951.254	-4.91
951.682	-5.31
952.111	2.49
952.54	3.99
952.969	-2.21
953.397	-6.11
953.826	-1.11
954.254	-6.11
954.683	3.09
955.112	1.49
955.54	3.39
955.969	0.49
956.397	1.19
956.826	-6.51
957.254	2.09
957.682	-0.81
958.111	1.89
958.539	3.39
958.967	-0.71
959.396	1.09
959.824	1.99
960.252	3.69
960.68	-4.41
961.109	-0.61
961.537	-4.11
961.965	-0.01
962.393	-3.11
962.821	-1.51
963.249	5.69
963.677	-0.71
964.105	6.69
964.533	43.19
964.961	38.69
965.389	17.49
965.817	6.19
966.245	3.09
966.672	0.69
967.1	-9.61
967.528	4.09
967.956	-1.41
968.383	4.49
968.811	-8.41
969.239	1.59
969.666	-4.31
970.094	2.19
970.522	2.49
970.949	-2.71
971.377	-6.81
971.804	0.19
972.232	-4.71
972.659	-5.01
973.087	-0.71
973.514	-2.61
973.941	-7.61
974.369	6.09
974.796	-1.81
975.223	-1.81
975.651	0.59
976.078	2.09
976.505	-2.61
976.932	1.09
977.359	14.89
977.786	14.49
978.214	-0.41
978.641	-0.11
979.068	-3.91
979.495	-2.71
979.922	4.19
980.349	-3.71
980.776	7.79
981.202	-1.91
981.629	2.29
982.056	3.59
982.483	-2.61
982.91	3.89
983.337	-5.61
983.763	0.79
984.19	-1.11
984.617	-6.41
985.043	-5.31
985.47	-0.81
985.897	-3.21
986.323	-4.81
986.75	-0.21
987.176	1.69
987.603	-1.61
988.029	-4.61
988.456	-0.71
988.882	-0.01
989.308	-4.61
989.735	-0.81
990.161	0.69
990.587	-5.01
991.014	-4.21
991.44	3.09
991.866	-5.81
992.292	-6.41
992.719	-0.11
993.145	7.09
993.571	-10.61
993.997	-1.41
994.423	5.09
994.849	-9.31
995.275	-0.51
995.701	1.59
996.127	3.59
996.553	-0.91
996.979	-4.21
997.405	-8.01
997.83	-5.11
998.256	-9.91
998.682	-5.01
999.108	-2.81
999.534	-2.81
999.959	-2.91
1000.385	-6.31
1000.811	3.09
1001.236	-8.51
1001.662	-5.61
1002.087	-6.81
1002.513	-1.31
1002.938	2.79
1003.364	-1.41
1003.789	0.29
1004.215	-1.01
1004.64	-7.71
1005.066	1.79
1005.491	0.09
1005.916	-5.01
1006.342	-6.41
1006.767	-3.11
1007.192	8.39
1007.617	-3.31
1008.042	-7.41
1008.468	-8.41
1008.893	-3.91
1009.318	1.79
1009.743	-3.61
1010.168	3.69
1010.593	5.09
1011.018	-2.21
1011.443	-0.71
1011.868	1.69
1012.293	-3.31
1012.718	-7.41
1013.143	-3.51
1013.567	4.19
1013.992	-3.71
1014.417	-14.81
1014.842	2.49
1015.267	-5.81
1015.691	0.59
1016.116	3.29
1016.541	0.29
1016.965	9.29
1017.39	-1.91
1017.814	-0.31
1018.239	0.39
1018.663	-4.01
1019.088	-6.01
1019.512	-6.71
1019.937	-1.21
1020.361	-2.31
1020.785	-10.01
1021.21	-0.81
1021.634	-6.71
1022.058	0.29
1022.483	-0.01
1022.907	-1.51
1023.331	-5.51
1023.755	-1.51
1024.179	0.99
1024.604	-5.61
1025.028	-4.41
1025.452	-5.71
1025.876	-3.11
1026.3	-7.91
1026.724	-8.81
1027.148	-0.61
1027.572	-8.21
1027.996	-2.71
1028.42	-3.91
1028.843	-6.31
1029.267	-8.31
1029.691	0.99
1030.115	-0.81
1030.539	-7.21
1030.962	-10.11
1031.386	-8.41
1031.81	1.09
1032.233	-2.31
1032.657	-0.31
1033.08	0.59
1033.504	-3.31
1033.927	-3.41
1034.351	-2.51
1034.774	-9.51
1035.198	-2.21
1035.621	-5.81
1036.045	-6.31
1036.468	-3.51
1036.891	-7.51
1037.315	-12.11
1037.738	-9.81
1038.161	-2.31
1038.584	-6.41
1039.008	-5.21
1039.431	-1.61
1039.854	1.69
1040.277	-11.71
1040.7	-9.91
1041.123	-0.11
1041.546	-5.41
1041.969	-4.71
1042.392	-4.61
1042.815	-1.41
1043.238	-4.61
1043.661	-0.81
1044.084	-3.21
1044.507	-4.71
1044.93	-2.51
1045.352	-5.71
1045.775	-0.31
1046.198	1.99
1046.621	1.49
1047.043	-2.61
1047.466	8.29
1047.889	-6.11
1048.311	-5.21
1048.734	-1.81
1049.156	-5.21
1049.579	0.89
1050.001	-3.51
1050.424	0.29
1050.846	0.79
1051.269	-0.51
1051.691	-10.31
1052.113	-7.41
1052.536	-4.51
1052.958	-1.91
1053.38	-9.01
1053.802	-10.91
1054.225	-0.31
1054.647	-6.91
1055.069	-5.81
1055.491	6.39
1055.913	-9.31
1056.335	0.89
1056.757	-2.51
1057.179	-7.91
1057.601	-2.71
1058.023	-5.61
1058.445	-4.81
1058.867	-8.41
1059.289	-6.71
1059.711	-9.91
1060.133	-4.11
1060.555	-9.71
1060.976	-8.81
1061.398	-10.91
1061.82	-6.91
1062.241	-0.31
1062.663	-5.91
1063.085	-3.41
1063.506	-0.51
1063.928	-6.21
1064.35	-2.91
1064.771	-12.81
1065.193	-5.21
1065.614	-5.51
1066.035	-5.31
1066.457	-11.01
1066.878	2.29
1067.3	-2.21
1067.721	-1.41
1068.142	-4.21
1068.564	-1.71
1068.985	-6.81
1069.406	-10.11
1069.827	-7.71
1070.248	-2.21
1070.67	-2.81
1071.091	-5.71
1071.512	-2.41
1071.933	-4.91
1072.354	-5.91
1072.775	-9.41
1073.196	-9.41
1073.617	-2.01
1074.038	-1.71
1074.459	-8.21
1074.88	-9.11
1075.3	0.19
1075.721	-7.51
1076.142	0.09
1076.563	0.89
1076.983	-14.81
1077.404	-8.71
1077.825	-11.31
1078.246	-7.01
1078.666	-11.01
1079.087	-9.51
1079.507	-10.41
1079.928	4.39
1080.348	-0.31
1080.769	-3.41
1081.189	2.59
1081.61	-4.61
1082.03	-2.81
1082.451	-6.21
1082.871	-3.41
1083.291	-6.21
1083.711	-9.51
1084.132	-6.71
1084.552	-5.41
1084.972	0.59
1085.392	-7.11
1085.813	-8.91
1086.233	-6.31
1086.653	-9.11
1087.073	-3.61
1087.493	-3.71
1087.913	-7.61
1088.333	-7.31
1088.753	-11.51
1089.173	3.69
1089.593	-0.81
1090.013	3.79
1090.433	3.89
1090.852	-4.01
1091.272	-0.31
1091.692	-5.11
1092.112	-7.91
1092.531	-10.21
1092.951	-12.41
1093.371	-0.21
1093.79	2.69
1094.21	-3.31
1094.63	-2.61
1095.049	-6.41
1095.469	-2.21
1095.888	-0.71
1096.308	0.69
1096.727	0.69
1097.146	-9.81
1097.566	-2.51
1097.985	-13.21
1098.405	-4.81
1098.824	-7.41
1099.243	-5.01
1099.662	-5.01
1100.082	-0.91
1100.501	-0.51
1100.92	-9.01
1101.339	-3.51
1101.758	-6.41
