Data from 20171114-ORNL-Ar_H_NY_Subt18_08-07-45-902.txt Node
Date: Tue Nov 14 08:07:45 EST 2017
User: Ender
Spectrometer: HR+D1039
Trigger mode: 0
Integration Time (sec): 2.730000E-2
Scans to average: 10
Electric dark correction enabled: true
Nonlinearity correction enabled: false
Boxcar width: 0
XAxis mode: Wavelengths
Number of Pixels in Spectrum: 2048
>>>>>Begin Spectral Data<<<<<
187.836	-2.89
188.309	-2.89
188.782	-2.89
189.255	0.41
189.728	-1.89
190.201	6.61
190.674	6.71
191.147	5.11
191.619	-5.79
192.092	-1.49
192.565	5.61
193.038	3.11
193.511	1.11
193.984	-7.59
194.456	-2.29
194.929	-0.19
195.402	-3.89
195.874	-2.69
196.347	-3.29
196.82	-0.69
197.292	1.71
197.765	-5.29
198.237	-4.59
198.71	1.41
199.182	-4.59
199.655	1.21
200.127	5.41
200.6	-3.19
201.072	-1.89
201.544	-6.19
202.017	0.81
202.489	-1.89
202.961	-5.09
203.433	-4.39
203.906	-1.49
204.378	-6.29
204.85	-4.89
205.322	-11.09
205.794	-1.49
206.266	-1.49
206.739	-4.89
207.211	3.91
207.683	-10.79
208.155	-4.19
208.627	-7.09
209.099	-2.89
209.57	-10.89
210.042	-2.59
210.514	-3.79
210.986	-0.79
211.458	-9.09
211.93	-2.69
212.402	0.81
212.873	-2.19
213.345	-5.69
213.817	-11.99
214.288	-3.29
214.76	-14.59
215.232	-2.69
215.703	-5.39
216.175	-4.09
216.646	-3.59
217.118	-7.99
217.589	-3.89
218.061	-7.99
218.532	-5.89
219.004	-6.29
219.475	-3.59
219.946	1.61
220.418	-4.89
220.889	-1.39
221.36	-2.29
221.832	-3.59
222.303	-9.99
222.774	2.91
223.245	-11.59
223.717	-4.29
224.188	-2.69
224.659	-7.09
225.13	-7.19
225.601	-1.09
226.072	0.51
226.543	-0.99
227.014	-0.89
227.485	-5.19
227.956	0.31
228.427	0.11
228.898	2.21
229.369	2.91
229.839	0.61
230.31	-8.59
230.781	0.41
231.252	-6.09
231.722	2.61
232.193	-1.19
232.664	-1.49
233.135	-4.39
233.605	0.61
234.076	-10.79
234.546	-0.29
235.017	2.31
235.487	-2.39
235.958	0.81
236.428	-6.89
236.899	-1.79
237.369	8.31
237.84	-3.39
238.31	6.31
238.78	7.11
239.251	-1.19
239.721	0.01
240.191	-1.79
240.662	0.21
241.132	-1.59
241.602	-1.79
242.072	3.31
242.542	4.71
243.013	-0.19
243.483	3.31
243.953	0.41
244.423	-6.49
244.893	-6.79
245.363	-1.09
245.833	1.91
246.303	-6.99
246.773	3.11
247.243	-0.39
247.712	2.81
248.182	6.61
248.652	4.81
249.122	0.61
249.592	8.71
250.061	18.51
250.531	30.51
251.001	18.21
251.471	18.81
251.94	19.51
252.41	7.61
252.879	-1.09
253.349	12.01
253.818	12.91
254.288	10.01
254.757	0.61
255.227	1.31
255.696	-0.99
256.166	-0.49
256.635	6.31
257.105	2.81
257.574	8.21
258.043	5.11
258.513	5.71
258.982	14.61
259.451	11.01
259.92	7.11
260.389	2.81
260.859	11.21
261.328	8.11
261.797	18.31
262.266	4.11
262.735	10.51
263.204	2.61
263.673	-1.59
264.142	3.11
264.611	-7.59
265.08	5.61
265.549	-4.19
266.018	4.01
266.487	-0.49
266.955	-6.19
267.424	3.51
267.893	7.01
268.362	6.11
268.83	1.51
269.299	12.41
269.768	1.11
270.236	4.31
270.705	5.41
271.174	3.11
271.642	4.81
272.111	4.31
272.579	13.51
273.048	19.11
273.516	26.01
273.985	20.71
274.453	20.61
274.922	17.41
275.39	10.81
275.858	-3.69
276.327	7.31
276.795	20.91
277.263	7.11
277.731	31.51
278.2	40.21
278.668	49.91
279.136	45.91
279.604	18.11
280.072	16.31
280.54	12.21
281.008	7.41
281.477	5.41
281.945	13.21
282.413	11.11
282.881	10.91
283.348	7.71
283.816	15.21
284.284	8.31
284.752	18.51
285.22	14.71
285.688	17.91
286.156	15.31
286.623	33.71
287.091	48.91
287.559	27.81
288.026	20.91
288.494	18.41
288.962	8.31
289.429	7.31
289.897	19.81
290.364	11.71
290.832	13.81
291.3	16.11
291.767	14.91
292.234	20.71
292.702	7.71
293.169	18.11
293.637	22.91
294.104	18.61
294.571	1.11
295.039	12.71
295.506	7.91
295.973	13.01
296.44	14.51
296.908	20.61
297.375	14.61
297.842	15.01
298.309	12.01
298.776	11.11
299.243	18.41
299.71	10.41
300.177	18.21
300.644	20.31
301.111	21.91
301.578	24.41
302.045	20.11
302.512	19.31
302.979	22.51
303.446	18.51
303.913	19.31
304.379	13.41
304.846	23.41
305.313	21.61
305.78	16.91
306.246	18.71
306.713	25.01
307.18	20.51
307.646	26.51
308.113	30.51
308.579	14.31
309.046	28.01
309.512	28.01
309.979	15.21
310.445	24.61
310.912	26.21
311.378	27.41
311.845	26.81
312.311	28.61
312.777	27.61
313.244	26.51
313.71	35.71
314.176	27.11
314.642	29.51
315.109	25.11
315.575	31.31
316.041	32.71
316.507	30.11
316.973	35.61
317.439	30.71
317.905	32.81
318.371	35.71
318.837	32.81
319.303	33.71
319.769	33.71
320.235	28.21
320.701	37.61
321.167	35.81
321.633	29.51
322.099	31.01
322.564	42.21
323.03	33.41
323.496	38.51
323.962	42.51
324.427	29.71
324.893	34.21
325.359	25.31
325.824	30.21
326.29	40.91
326.755	37.31
327.221	35.51
327.686	33.41
328.152	40.51
328.617	36.51
329.083	41.81
329.548	44.81
330.014	49.21
330.479	39.31
330.944	40.51
331.41	37.01
331.875	42.81
332.34	36.11
332.805	40.21
333.271	48.31
333.736	36.91
334.201	47.11
334.666	45.01
335.131	46.21
335.596	41.71
336.061	50.21
336.526	36.41
336.991	50.51
337.456	52.61
337.921	41.31
338.386	41.41
338.851	42.81
339.316	46.91
339.781	39.91
340.246	53.31
340.711	35.21
341.175	44.61
341.64	41.81
342.105	42.51
342.569	51.81
343.034	53.11
343.499	44.31
343.963	41.21
344.428	52.21
344.893	51.51
345.357	56.71
345.822	61.21
346.286	63.41
346.751	67.11
347.215	64.51
347.679	72.91
348.144	86.71
348.608	76.31
349.073	65.41
349.537	68.61
350.001	70.51
350.465	81.11
350.93	77.21
351.394	76.81
351.858	67.31
352.322	80.71
352.786	80.01
353.25	87.51
353.715	100.51
354.179	89.31
354.643	110.51
355.107	116.71
355.571	98.81
356.035	96.11
356.498	115.01
356.962	112.01
357.426	120.41
357.89	110.71
358.354	81.61
358.818	70.11
359.281	72.41
359.745	70.21
360.209	73.31
360.673	64.51
361.136	75.81
361.6	68.41
362.064	81.41
362.527	74.21
362.991	88.81
363.454	77.61
363.918	74.71
364.381	73.51
364.845	73.11
365.308	87.71
365.772	82.61
366.235	79.21
366.698	78.81
367.162	81.91
367.625	84.71
368.088	83.31
368.552	84.61
369.015	85.11
369.478	94.31
369.941	96.41
370.404	90.71
370.867	98.81
371.331	100.71
371.794	108.61
372.257	107.01
372.72	109.41
373.183	109.11
373.646	98.11
374.109	90.31
374.572	100.21
375.035	98.41
375.497	104.11
375.96	104.61
376.423	97.51
376.886	113.51
377.349	111.31
377.811	99.61
378.274	104.41
378.737	95.61
379.199	105.31
379.662	109.51
380.125	109.71
380.587	106.31
381.05	114.11
381.512	125.21
381.975	130.61
382.437	117.81
382.9	115.91
383.362	125.51
383.825	133.61
384.287	140.41
384.75	138.71
385.212	135.31
385.674	131.21
386.136	129.81
386.599	118.21
387.061	118.91
387.523	121.61
387.985	124.41
388.447	140.61
388.91	140.01
389.372	161.81
389.834	141.31
390.296	140.41
390.758	158.21
391.22	162.31
391.682	196.31
392.144	286.31
392.606	219.41
393.068	158.31
393.529	162.11
393.991	150.51
394.453	145.51
394.915	139.91
395.377	186.81
395.838	205.71
396.3	144.21
396.762	132.31
397.224	129.41
397.685	127.41
398.147	128.61
398.608	121.21
399.07	125.61
399.531	127.71
399.993	139.41
400.454	148.31
400.916	145.61
401.377	134.51
401.839	141.51
402.3	141.61
402.762	164.61
403.223	178.91
403.684	167.71
404.145	153.31
404.607	154.71
405.068	159.51
405.529	160.61
405.99	181.51
406.451	176.31
406.913	171.91
407.374	161.01
407.835	153.81
408.296	163.11
408.757	163.91
409.218	179.91
409.679	170.81
410.14	164.81
410.601	168.21
411.062	177.11
411.522	182.81
411.983	178.61
412.444	170.01
412.905	175.41
413.366	173.81
413.826	181.11
414.287	211.61
414.748	251.91
415.208	236.51
415.669	204.21
416.13	197.21
416.59	191.71
417.051	206.71
417.511	211.41
417.972	237.01
418.432	238.81
418.893	280.51
419.353	244.61
419.814	189.61
420.274	177.71
420.734	168.41
421.195	197.11
421.655	180.71
422.115	191.51
422.576	186.91
423.036	186.91
423.496	203.61
423.956	215.71
424.416	225.91
424.876	261.61
425.336	258.91
425.797	265.21
426.257	248.11
426.717	234.91
427.177	236.91
427.637	219.41
428.097	224.91
428.556	241.51
429.016	264.61
429.476	259.31
429.936	261.71
430.396	272.01
430.856	277.01
431.315	312.11
431.775	336.21
432.235	369.11
432.694	343.71
433.154	349.91
433.614	375.91
434.073	326.61
434.533	274.11
434.993	264.81
435.452	287.61
435.912	290.41
436.371	274.91
436.83	274.81
437.29	262.01
437.749	242.31
438.209	244.61
438.668	270.01
439.127	281.91
439.587	258.71
440.046	237.91
440.505	251.71
440.964	273.81
441.424	309.01
441.883	307.01
442.342	251.11
442.801	221.01
443.26	214.61
443.719	217.61
444.178	208.51
444.637	209.11
445.096	217.71
445.555	214.81
446.014	217.71
446.473	228.41
446.932	231.61
447.391	218.01
447.849	225.61
448.308	213.31
448.767	217.11
449.226	235.21
449.685	229.51
450.143	246.71
450.602	229.01
451.061	223.31
451.519	229.71
451.978	230.11
452.436	227.01
452.895	229.21
453.353	251.61
453.812	237.01
454.27	235.61
454.729	237.21
455.187	237.21
455.646	238.91
456.104	252.21
456.562	255.11
457.021	269.31
457.479	256.21
457.937	265.21
458.395	258.11
458.854	235.21
459.312	253.21
459.77	270.81
460.228	251.31
460.686	241.01
461.144	239.81
461.602	237.21
462.06	236.61
462.518	249.71
462.976	256.11
463.434	251.51
463.892	265.01
464.35	268.81
464.808	280.31
465.266	264.51
465.724	265.31
466.181	266.71
466.639	260.11
467.097	280.91
467.555	289.11
468.012	295.01
468.47	296.81
468.928	318.01
469.385	332.81
469.843	340.41
470.3	343.91
470.758	366.91
471.215	375.91
471.673	396.81
472.13	405.51
472.588	414.81
473.045	370.11
473.503	371.61
473.96	381.51
474.417	394.61
474.875	424.21
475.332	466.01
475.789	454.91
476.246	454.01
476.704	473.11
477.161	496.71
477.618	515.81
478.075	557.61
478.532	598.21
478.989	685.01
479.446	792.61
479.903	757.51
480.36	795.01
480.817	851.61
481.274	951.31
481.731	1041.01
482.188	1127.51
482.645	1258.11
483.102	1358.51
483.558	1505.11
484.015	1547.31
484.472	1520.21
484.929	1474.81
485.385	1433.81
485.842	1390.31
486.299	1345.01
486.755	1264.91
487.212	1072.31
487.668	901.71
488.125	831.11
488.582	759.71
489.038	731.01
489.494	699.01
489.951	675.51
490.407	650.11
490.864	642.51
491.32	635.51
491.776	630.31
492.233	630.01
492.689	598.81
493.145	603.81
493.602	587.31
494.058	598.31
494.514	605.31
494.97	625.11
495.426	635.41
495.882	614.21
496.338	596.81
496.794	609.31
497.251	609.51
497.707	614.61
498.163	621.91
498.618	631.21
499.074	631.21
499.53	657.91
499.986	664.51
500.442	638.31
500.898	620.31
501.354	627.81
501.809	623.81
502.265	639.71
502.721	641.51
503.177	655.11
503.632	651.31
504.088	667.01
504.543	701.71
504.999	695.61
505.455	649.91
505.91	621.51
506.366	625.61
506.821	615.81
507.277	617.41
507.732	621.71
508.187	617.81
508.643	626.01
509.098	617.91
509.553	643.61
510.009	660.91
510.464	654.11
510.919	675.51
511.375	678.51
511.83	702.11
512.285	714.61
512.74	745.11
513.195	772.51
513.65	757.51
514.105	756.31
514.56	752.71
515.015	776.11
515.47	794.01
515.925	777.41
516.38	779.11
516.835	773.41
517.29	773.01
517.745	764.81
518.2	756.21
518.655	736.31
519.109	728.31
519.564	731.41
520.019	710.51
520.474	713.61
520.928	710.81
521.383	705.91
521.838	696.11
522.292	700.11
522.747	697.11
523.201	693.01
523.656	692.01
524.11	682.51
524.565	680.91
525.019	680.21
525.474	691.61
525.928	684.81
526.382	700.71
526.837	693.11
527.291	696.81
527.745	688.51
528.2	684.61
528.654	682.31
529.108	675.71
529.562	680.91
530.016	671.41
530.47	675.51
530.925	683.81
531.379	682.51
531.833	698.51
532.287	692.31
532.741	693.11
533.195	700.91
533.649	692.31
534.103	715.21
534.556	695.81
535.01	709.41
535.464	704.81
535.918	712.81
536.372	706.51
536.826	706.31
537.279	699.31
537.733	702.91
538.187	709.51
538.64	706.41
539.094	719.71
539.548	725.81
540.001	714.01
540.455	715.91
540.908	719.61
541.362	728.11
541.815	740.61
542.269	744.21
542.722	748.41
543.175	757.61
543.629	763.11
544.082	778.41
544.536	773.21
544.989	767.21
545.442	785.31
545.895	782.51
546.349	779.01
546.802	784.51
547.255	785.31
547.708	793.11
548.161	809.41
548.614	800.71
549.067	812.81
549.52	808.61
549.973	803.11
550.426	800.41
550.879	784.51
551.332	791.51
551.785	798.91
552.238	800.31
552.691	798.91
553.144	817.31
553.596	833.61
554.049	852.71
554.502	880.81
554.955	902.41
555.407	894.71
555.86	884.61
556.313	876.11
556.765	862.31
557.218	878.51
557.67	873.71
558.123	868.81
558.576	853.91
559.028	857.01
559.48	871.61
559.933	862.61
560.385	829.41
560.838	801.81
561.29	776.91
561.742	778.41
562.195	760.81
562.647	760.71
563.099	766.51
563.551	768.41
564.004	768.81
564.456	762.71
564.908	750.61
565.36	741.31
565.812	726.21
566.264	713.91
566.716	720.01
567.168	704.41
567.62	725.41
568.072	689.71
568.524	691.51
568.976	682.81
569.428	670.91
569.88	672.31
570.332	681.51
570.784	675.51
571.235	672.61
571.687	685.31
572.139	691.21
572.59	710.81
573.042	710.41
573.494	705.71
573.945	690.31
574.397	684.71
574.849	683.41
575.3	686.51
575.752	674.31
576.203	667.41
576.655	676.71
577.106	662.21
577.557	658.61
578.009	668.31
578.46	655.11
578.912	649.41
579.363	658.01
579.814	665.81
580.265	656.41
580.717	659.81
581.168	671.51
581.619	674.81
582.07	683.71
582.521	670.81
582.972	665.51
583.423	677.01
583.875	672.61
584.326	702.41
584.777	746.91
585.227	812.21
585.678	899.81
586.129	975.01
586.58	1043.81
587.031	1129.31
587.482	1265.91
587.933	1432.31
588.384	1242.51
588.834	956.21
589.285	795.51
589.736	783.91
590.186	767.41
590.637	760.71
591.088	742.81
591.538	729.71
591.989	726.41
592.439	722.31
592.89	707.61
593.34	707.91
593.791	710.01
594.241	694.21
594.692	705.61
595.142	693.61
595.593	700.41
596.043	702.11
596.493	704.21
596.943	707.91
597.394	719.41
597.844	720.71
598.294	730.11
598.744	749.11
599.195	780.21
599.645	814.91
600.095	869.11
600.545	906.81
600.995	959.41
601.445	1012.61
601.895	1085.01
602.345	1128.41
602.795	1100.11
603.245	1069.81
603.695	1005.71
604.145	942.71
604.594	907.31
605.044	859.11
605.494	789.71
605.944	750.71
606.393	733.01
606.843	719.81
607.293	728.21
607.743	720.71
608.192	738.91
608.642	745.81
609.091	762.51
609.541	763.61
609.99	767.91
610.44	767.71
610.889	720.61
611.339	697.21
611.788	688.01
612.238	703.01
612.687	722.51
613.136	720.31
613.586	737.21
614.035	725.01
614.484	744.41
614.933	757.31
615.383	732.81
615.832	735.71
616.281	724.21
616.73	681.11
617.179	662.41
617.628	645.61
618.077	632.31
618.526	629.51
618.975	613.11
619.424	606.21
619.873	604.81
620.322	618.31
620.771	599.81
621.22	599.81
621.669	597.11
622.118	580.31
622.567	581.31
623.015	564.01
623.464	564.11
623.913	554.11
624.361	545.91
624.81	543.11
625.259	542.51
625.707	553.91
626.156	557.61
626.604	564.41
627.053	560.11
627.501	560.81
627.95	574.81
628.398	578.61
628.847	561.31
629.295	568.01
629.744	577.41
630.192	568.21
630.64	562.01
631.089	560.81
631.537	578.51
631.985	586.91
632.433	586.01
632.881	598.91
633.33	664.71
633.778	633.61
634.226	570.01
634.674	566.81
635.122	570.51
635.57	595.21
636.018	627.81
636.466	577.21
636.914	558.91
637.362	569.61
637.81	574.11
638.258	572.91
638.705	580.01
639.153	608.61
639.601	617.11
640.049	640.81
640.497	680.81
640.944	685.01
641.392	631.81
641.84	603.91
642.287	590.61
642.735	570.51
643.182	567.21
643.63	574.61
644.078	572.71
644.525	595.01
644.973	590.41
645.42	599.31
645.867	619.81
646.315	632.91
646.762	661.81
647.21	690.81
647.657	715.71
648.104	750.31
648.551	765.71
648.999	836.11
649.446	919.41
649.893	1001.11
650.34	1170.81
650.787	1387.31
651.234	1737.71
651.682	2245.21
652.129	3104.81
652.576	4474.11
653.023	6586.31
653.47	8981.01
653.917	11190.81
654.363	12836.11
654.81	14117.01
655.257	13418.81
655.704	8786.91
656.151	5189.91
656.598	3374.01
657.044	2392.71
657.491	1838.71
657.938	1479.01
658.385	1236.11
658.831	1074.31
659.278	961.21
659.724	848.31
660.171	785.51
660.618	723.51
661.064	687.81
661.511	661.31
661.957	658.81
662.404	644.91
662.85	645.11
663.296	632.31
663.743	557.51
664.189	538.11
664.635	532.21
665.082	519.81
665.528	529.71
665.974	517.31
666.42	502.21
666.867	504.91
667.313	495.21
667.759	481.51
668.205	475.41
668.651	484.01
669.097	479.11
669.543	490.71
669.989	462.31
670.435	455.31
670.881	439.11
671.327	447.01
671.773	465.81
672.219	489.61
672.665	547.21
673.11	584.21
673.556	628.91
674.002	668.11
674.448	649.31
674.893	542.81
675.339	474.71
675.785	439.01
676.23	417.01
676.676	386.61
677.122	375.91
677.567	374.21
678.013	379.61
678.458	357.71
678.904	353.31
679.349	351.11
679.794	353.91
680.24	345.21
680.685	345.81
681.131	349.71
681.576	348.21
682.021	355.41
682.466	343.81
682.912	347.21
683.357	349.41
683.802	378.41
684.247	413.01
684.692	456.91
685.137	496.51
685.583	530.51
686.028	569.71
686.473	515.31
686.918	443.71
687.363	426.01
687.807	388.51
688.252	365.51
688.697	356.51
689.142	333.91
689.587	336.61
690.032	323.91
690.477	336.71
690.921	344.31
691.366	386.21
691.811	405.41
692.255	427.01
692.7	459.51
693.145	508.21
693.589	708.71
694.034	1145.81
694.478	1548.51
694.923	1734.91
695.367	2242.31
695.812	1172.31
696.256	489.91
696.701	373.11
697.145	353.01
697.59	337.21
698.034	314.71
698.478	321.91
698.922	320.41
699.367	336.61
699.811	347.01
700.255	360.41
700.699	386.21
701.143	431.61
701.588	473.51
702.032	526.41
702.476	519.41
702.92	484.81
703.364	497.81
703.808	646.31
704.252	1044.81
704.696	1466.91
705.14	1661.61
705.584	2096.81
706.027	1057.91
706.471	520.71
706.915	392.61
707.359	348.71
707.803	333.11
708.246	308.81
708.69	313.21
709.134	318.81
709.577	307.11
710.021	301.61
710.465	303.51
710.908	295.61
711.352	291.81
711.795	306.01
712.239	357.11
712.682	389.81
713.126	419.61
713.569	455.21
714.012	373.31
714.456	325.31
714.899	299.51
715.342	276.31
715.786	260.91
716.229	262.91
716.672	261.01
717.115	250.71
717.558	250.61
718.002	254.01
718.445	271.11
718.888	277.91
719.331	304.31
719.774	310.91
720.217	302.81
720.66	274.91
721.103	268.51
721.546	253.61
721.989	253.31
722.432	224.81
722.874	235.91
723.317	229.01
723.76	240.21
724.203	250.81
724.645	320.71
725.088	454.61
725.531	569.31
725.974	639.61
726.416	548.21
726.859	311.81
727.301	243.91
727.744	238.51
728.187	238.71
728.629	237.31
729.071	244.71
729.514	256.61
729.956	271.21
730.399	282.71
730.841	291.71
731.283	267.71
731.726	261.51
732.168	255.91
732.61	267.51
733.053	290.91
733.495	320.51
733.937	353.51
734.379	396.31
734.821	442.41
735.263	547.91
735.705	851.11
736.148	1618.11
736.59	2591.91
737.032	3022.71
737.474	2457.51
737.916	797.91
738.357	432.61
738.799	334.71
739.241	300.11
739.683	280.11
740.125	292.61
740.567	292.71
741.008	318.31
741.45	311.11
741.892	317.41
742.334	348.01
742.775	360.81
743.217	342.51
743.658	276.21
744.1	257.91
744.542	271.81
744.983	315.51
745.425	339.41
745.866	341.01
746.307	286.81
746.749	287.21
747.19	323.51
747.632	463.31
748.073	906.61
748.514	1893.11
748.956	2850.31
749.397	3569.01
749.838	2951.01
750.279	2911.81
750.72	1463.61
751.162	548.31
751.603	319.01
752.044	247.61
752.485	218.91
752.926	206.91
753.367	199.21
753.808	194.21
754.249	187.21
754.69	183.61
755.131	185.51
755.572	184.81
756.013	183.01
756.453	181.51
756.894	190.21
757.335	185.71
757.776	190.61
758.216	196.81
758.657	196.71
759.098	204.91
759.538	230.61
759.979	269.51
760.42	381.61
760.86	715.11
761.301	1886.01
761.741	4474.51
762.182	6303.71
762.622	4441.61
763.063	1298.41
763.503	537.31
763.943	347.21
764.384	332.41
764.824	390.81
765.264	416.01
765.705	304.91
766.145	210.61
766.585	188.31
767.025	180.41
767.465	184.71
767.906	234.11
768.346	304.31
768.786	333.61
769.226	262.71
769.666	330.21
770.106	642.41
770.546	1591.41
770.986	2595.91
771.426	2333.11
771.866	783.21
772.306	322.01
772.745	210.21
773.185	175.31
773.625	171.51
774.065	161.11
774.505	191.91
774.944	305.41
775.384	653.91
775.824	1163.61
776.263	1118.81
776.703	489.31
777.142	211.91
777.582	152.71
778.021	135.21
778.461	137.81
778.9	132.91
779.34	131.81
779.779	124.01
780.219	112.91
780.658	113.01
781.097	110.81
781.537	110.61
781.976	109.81
782.415	111.61
782.855	105.01
783.294	102.21
783.733	105.31
784.172	110.11
784.611	109.61
785.05	104.61
785.489	112.71
785.928	117.01
786.367	124.41
786.806	121.01
787.245	127.61
787.684	136.01
788.123	150.51
788.562	135.21
789.001	128.11
789.44	124.01
789.879	115.51
790.317	116.81
790.756	127.01
791.195	125.61
791.634	140.81
792.072	205.91
792.511	375.11
792.95	1024.51
793.388	2137.81
793.827	1903.51
794.265	673.51
794.704	273.01
795.142	188.61
795.581	154.01
796.019	142.91
796.458	126.61
796.896	125.61
797.334	131.71
797.773	152.71
798.211	225.51
798.649	444.31
799.087	1032.61
799.526	1600.21
799.964	2011.31
800.402	1984.11
800.84	754.41
801.278	303.11
801.716	186.21
802.154	155.01
802.592	142.41
803.03	143.11
803.468	133.61
803.906	142.71
804.344	153.11
804.782	143.21
805.22	141.41
805.658	127.81
806.096	151.41
806.533	157.51
806.971	180.81
807.409	215.01
807.847	323.11
808.284	681.41
808.722	1887.71
809.16	3236.21
809.597	3157.71
810.035	5418.71
810.472	5635.91
810.91	2065.81
811.347	793.61
811.785	408.91
812.222	252.61
812.66	192.41
813.097	171.11
813.535	147.21
813.972	132.01
814.409	119.71
814.846	107.51
815.284	115.31
815.721	103.71
816.158	104.61
816.595	120.21
817.032	171.81
817.47	187.21
817.907	159.51
818.344	148.01
818.781	121.11
819.218	103.41
819.655	128.71
820.092	182.11
820.529	205.31
820.966	168.01
821.403	131.51
821.839	110.31
822.276	100.81
822.713	130.61
823.15	135.41
823.587	117.71
824.023	153.11
824.46	310.91
824.897	906.81
825.333	1331.71
825.77	580.71
826.206	229.01
826.643	142.81
827.08	103.51
827.516	84.91
827.953	73.21
828.389	80.11
828.825	76.11
829.262	70.51
829.698	62.31
830.135	60.61
830.571	65.81
831.007	64.81
831.443	60.11
831.88	60.61
832.316	63.41
832.752	60.71
833.188	63.61
833.624	66.31
834.06	71.21
834.497	74.71
834.933	73.61
835.369	74.91
835.805	67.81
836.241	80.61
836.677	82.41
837.112	94.11
837.548	105.01
837.984	130.91
838.42	206.61
838.856	505.61
839.292	1541.31
839.727	2260.71
840.163	1067.31
840.599	939.11
841.034	2027.71
841.47	2076.01
841.906	764.11
842.341	332.21
842.777	232.51
843.212	312.21
843.648	294.81
844.083	140.91
844.519	98.51
844.954	78.31
845.39	58.71
845.825	58.21
846.261	57.81
846.696	54.31
847.131	50.01
847.566	59.91
848.002	59.51
848.437	55.01
848.872	65.11
849.307	65.91
849.742	88.11
850.177	185.71
850.613	568.11
851.048	864.91
851.483	373.61
851.918	152.61
852.353	83.81
852.788	61.41
853.223	59.41
853.657	57.31
854.092	41.41
854.527	39.61
854.962	43.01
855.397	46.11
855.832	47.61
856.266	40.61
856.701	36.81
857.136	36.71
857.57	42.21
858.005	54.21
858.44	57.31
858.874	42.11
859.309	51.31
859.743	43.91
860.178	42.71
860.612	38.31
861.047	56.21
861.481	66.71
861.915	72.81
862.35	49.21
862.784	30.61
863.218	40.11
863.653	31.31
864.087	43.61
864.521	52.31
864.955	67.81
865.39	148.81
865.824	175.61
866.258	117.41
866.692	170.01
867.126	167.41
867.56	100.41
867.994	55.91
868.428	41.91
868.862	49.41
869.296	50.91
869.73	58.61
870.164	50.71
870.598	50.21
871.031	36.41
871.465	32.71
871.899	40.01
872.333	29.01
872.766	21.91
873.2	22.81
873.634	32.21
874.067	27.71
874.501	25.81
874.935	40.21
875.368	33.11
875.802	27.51
876.235	27.71
876.669	25.01
877.102	22.31
877.535	29.51
877.969	21.61
878.402	27.71
878.836	24.11
879.269	27.61
879.702	27.51
880.135	22.51
880.569	23.61
881.002	27.41
881.435	27.61
881.868	12.41
882.301	21.71
882.734	11.81
883.167	26.31
883.601	20.71
884.034	22.71
884.467	14.81
884.899	18.81
885.332	16.11
885.765	17.81
886.198	19.61
886.631	20.91
887.064	19.01
887.497	22.71
887.929	24.91
888.362	14.01
888.795	12.31
889.228	20.21
889.66	18.01
890.093	18.01
890.526	14.61
890.958	15.21
891.391	12.61
891.823	16.71
892.256	18.91
892.688	18.51
893.121	20.01
893.553	15.81
893.985	24.01
894.418	10.41
894.85	12.31
895.282	17.81
895.715	17.11
896.147	19.41
896.579	15.81
897.011	15.21
897.444	18.81
897.876	17.91
898.308	17.71
898.74	17.81
899.172	10.61
899.604	18.61
900.036	21.61
900.468	13.41
900.9	15.11
901.332	12.51
901.764	12.01
902.196	18.81
902.628	9.91
903.06	14.11
903.491	31.21
903.923	23.81
904.355	22.41
904.787	22.61
905.218	22.91
905.65	22.41
906.082	11.61
906.513	17.21
906.945	17.91
907.376	10.41
907.808	18.41
908.239	22.81
908.671	16.51
909.102	21.51
909.534	26.01
909.965	48.71
910.397	92.91
910.828	312.01
911.259	470.91
911.691	216.11
912.122	111.11
912.553	55.21
912.984	34.81
913.415	29.21
913.847	25.41
914.278	13.71
914.709	15.21
915.14	18.71
915.571	20.01
916.002	12.51
916.433	19.01
916.864	16.81
917.295	13.91
917.726	21.61
918.157	14.81
918.587	30.11
919.018	26.51
919.449	22.51
919.88	22.81
920.311	33.81
920.741	46.31
921.172	170.81
921.603	157.51
922.033	71.81
922.464	41.81
922.895	21.11
923.325	24.71
923.756	19.11
924.186	17.21
924.617	29.01
925.047	41.11
925.478	52.61
925.908	43.31
926.338	25.71
926.769	23.91
927.199	19.71
927.629	7.61
928.06	16.61
928.49	16.71
928.92	11.61
929.35	11.41
929.78	5.81
930.21	5.01
930.641	12.01
931.071	9.41
931.501	3.91
931.931	4.41
932.361	7.11
932.791	5.51
933.221	7.61
933.651	3.01
934.08	13.11
934.51	27.81
934.94	12.41
935.37	6.61
935.8	6.01
936.229	8.11
936.659	13.91
937.089	4.31
937.519	16.51
937.948	25.71
938.378	19.81
938.807	10.21
939.237	6.51
939.666	7.61
940.096	-10.29
940.525	0.21
940.955	-2.89
941.384	1.91
941.814	-6.29
942.243	-3.99
942.672	2.41
943.102	-2.99
943.531	2.31
943.96	4.11
944.39	4.11
944.819	-1.39
945.248	2.11
945.677	-0.29
946.106	9.91
946.535	4.81
946.964	-1.29
947.393	-1.09
947.822	1.21
948.251	4.31
948.68	3.91
949.109	9.51
949.538	3.71
949.967	-1.49
950.396	0.01
950.825	1.81
951.254	0.91
951.682	-8.49
952.111	0.31
952.54	5.61
952.969	-2.19
953.397	-7.59
953.826	2.51
954.254	-5.49
954.683	-1.99
955.112	-1.69
955.54	-0.09
955.969	0.91
956.397	0.01
956.826	3.21
957.254	1.41
957.682	1.91
958.111	0.61
958.539	3.11
958.967	0.31
959.396	-1.19
959.824	1.21
960.252	3.71
960.68	-6.19
961.109	-3.39
961.537	-8.09
961.965	2.21
962.393	-5.59
962.821	-3.89
963.249	-0.39
963.677	1.81
964.105	4.41
964.533	45.51
964.961	39.31
965.389	21.91
965.817	10.71
966.245	2.71
966.672	0.71
967.1	-8.89
967.528	-1.79
967.956	-0.99
968.383	1.31
968.811	-2.79
969.239	-6.39
969.666	-2.99
970.094	4.41
970.522	1.01
970.949	-1.69
971.377	-4.29
971.804	-3.89
972.232	3.21
972.659	0.41
973.087	-3.69
973.514	-1.59
973.941	-6.99
974.369	2.41
974.796	4.91
975.223	-3.09
975.651	-5.99
976.078	-0.39
976.505	-2.59
976.932	4.81
977.359	16.91
977.786	17.61
978.214	0.61
978.641	1.21
979.068	-2.59
979.495	-3.59
979.922	-1.59
980.349	-3.29
980.776	0.21
981.202	-4.39
981.629	0.01
982.056	7.71
982.483	-1.49
982.91	1.21
983.337	-2.09
983.763	9.11
984.19	-8.39
984.617	1.61
985.043	-6.89
985.47	-4.19
985.897	-7.19
986.323	-7.39
986.75	4.81
987.176	5.21
987.603	-4.29
988.029	-3.89
988.456	5.01
988.882	4.21
989.308	-3.49
989.735	-4.59
990.161	-1.89
990.587	-3.59
991.014	-0.59
991.44	7.51
991.866	-3.59
992.292	-4.79
992.719	-7.49
993.145	6.71
993.571	-12.39
993.997	-5.39
994.423	0.21
994.849	-6.39
995.275	0.41
995.701	-1.19
996.127	3.51
996.553	-3.99
996.979	-1.79
997.405	-1.79
997.83	-4.89
998.256	-8.09
998.682	-6.79
999.108	-3.99
999.534	-3.99
999.959	-0.99
1000.385	-0.89
1000.811	-1.89
1001.236	-10.59
1001.662	-5.89
1002.087	-14.89
1002.513	0.21
1002.938	4.91
1003.364	-1.89
1003.789	3.01
1004.215	4.41
1004.64	1.41
1005.066	-0.49
1005.491	9.01
1005.916	0.21
1006.342	-0.19
1006.767	-2.99
1007.192	7.81
1007.617	-2.09
1008.042	-3.89
1008.468	-0.19
1008.893	-8.89
1009.318	-4.99
1009.743	-8.19
1010.168	5.01
1010.593	1.91
1011.018	-4.99
1011.443	-2.79
1011.868	2.91
1012.293	0.41
1012.718	-6.49
1013.143	1.71
1013.567	2.21
1013.992	-2.79
1014.417	-5.19
1014.842	-1.69
1015.267	-2.89
1015.691	0.61
1016.116	7.21
1016.541	-5.19
1016.965	7.21
1017.39	3.21
1017.814	0.71
1018.239	-3.59
1018.663	-6.79
1019.088	-9.99
1019.512	-1.89
1019.937	2.21
1020.361	-6.99
1020.785	-10.39
1021.21	-1.39
1021.634	-2.49
1022.058	-1.69
1022.483	6.71
1022.907	-1.69
1023.331	-3.29
1023.755	-4.29
1024.179	-8.19
1024.604	-10.69
1025.028	-11.79
1025.452	-6.39
1025.876	-2.39
1026.3	-3.29
1026.724	-11.79
1027.148	-7.89
1027.572	-10.49
1027.996	-4.09
1028.42	2.61
1028.843	-5.89
1029.267	-5.89
1029.691	-1.99
1030.115	-11.99
1030.539	-5.29
1030.962	-9.79
1031.386	-11.09
1031.81	-7.59
1032.233	5.51
1032.657	-5.39
1033.08	-1.99
1033.504	-0.59
1033.927	-6.39
1034.351	-0.99
1034.774	0.41
1035.198	-4.09
1035.621	-4.59
1036.045	-10.09
1036.468	-0.49
1036.891	-5.29
1037.315	-7.79
1037.738	-12.39
1038.161	4.91
1038.584	-4.19
1039.008	-2.09
1039.431	-4.79
1039.854	-5.69
1040.277	-10.29
1040.7	-7.09
1041.123	-0.59
1041.546	-7.59
1041.969	-5.29
1042.392	-8.29
1042.815	-0.29
1043.238	-2.59
1043.661	0.11
1044.084	-7.69
1044.507	-2.79
1044.93	-9.09
1045.352	-7.49
1045.775	2.01
1046.198	1.61
1046.621	-3.99
1047.043	-5.89
1047.466	7.61
1047.889	-4.89
1048.311	-2.39
1048.734	-1.29
1049.156	2.21
1049.579	-0.79
1050.001	0.71
1050.424	-0.49
1050.846	-1.39
1051.269	-0.29
1051.691	-5.99
1052.113	-3.89
1052.536	-5.09
1052.958	1.11
1053.38	-3.79
1053.802	-11.19
1054.225	-0.79
1054.647	-10.19
1055.069	-4.39
1055.491	-3.79
1055.913	-4.29
1056.335	-3.09
1056.757	-2.29
1057.179	-4.89
1057.601	-4.89
1058.023	-3.19
1058.445	-3.19
1058.867	-2.49
1059.289	-1.69
1059.711	-5.39
1060.133	-3.59
1060.555	-4.89
1060.976	-7.89
1061.398	-4.39
1061.82	-1.99
1062.241	-2.19
1062.663	-5.49
1063.085	-9.89
1063.506	-3.39
1063.928	-1.59
1064.35	-3.29
1064.771	-11.29
1065.193	-4.69
1065.614	-11.49
1066.035	-1.39
1066.457	-3.29
1066.878	1.91
1067.3	-1.29
1067.721	-7.89
1068.142	-5.99
1068.564	-0.49
1068.985	-0.89
1069.406	-3.39
1069.827	-7.79
1070.248	-1.29
1070.67	-7.19
1071.091	-7.39
1071.512	0.71
1071.933	-7.39
1072.354	-14.99
1072.775	-8.19
1073.196	-12.79
1073.617	-4.89
1074.038	-3.49
1074.459	-2.59
1074.88	-3.19
1075.3	-4.59
1075.721	-8.89
1076.142	-0.89
1076.563	5.01
1076.983	-6.49
1077.404	-10.09
1077.825	-5.19
1078.246	-4.79
1078.666	-4.99
1079.087	-8.99
1079.507	-7.49
1079.928	-0.59
1080.348	-3.29
1080.769	-4.99
1081.189	-1.59
1081.61	-10.99
1082.03	-11.49
1082.451	-9.19
1082.871	-0.69
1083.291	-7.59
1083.711	-10.59
1084.132	-6.29
1084.552	-4.89
1084.972	-3.39
1085.392	-11.39
1085.813	-6.89
1086.233	-4.69
1086.653	-11.89
1087.073	-1.09
1087.493	-6.89
1087.913	-9.39
1088.333	-6.89
1088.753	-5.69
1089.173	0.41
1089.593	-6.89
1090.013	-6.99
1090.433	3.31
1090.852	-1.59
1091.272	-0.49
1091.692	2.71
1092.112	-6.09
1092.531	-8.59
1092.951	-9.79
1093.371	-2.69
1093.79	-3.09
1094.21	-7.29
1094.63	-0.49
1095.049	-7.89
1095.469	-0.09
1095.888	-3.99
1096.308	3.71
1096.727	0.41
1097.146	-9.29
1097.566	3.01
1097.985	-10.49
1098.405	-1.99
1098.824	-3.89
1099.243	-5.69
1099.662	-7.39
1100.082	-3.49
1100.501	-0.89
1100.92	-9.09
1101.339	-6.19
1101.758	-6.89
