Data from 20171114-ORNL-Ar_H_NY_Subt18_08-07-54-911.txt Node
Date: Tue Nov 14 08:07:54 EST 2017
User: Ender
Spectrometer: HR+D1039
Trigger mode: 0
Integration Time (sec): 2.730000E-2
Scans to average: 10
Electric dark correction enabled: true
Nonlinearity correction enabled: false
Boxcar width: 0
XAxis mode: Wavelengths
Number of Pixels in Spectrum: 2048
>>>>>Begin Spectral Data<<<<<
187.836	-10.54
188.309	-10.54
188.782	-10.54
189.255	3.36
189.728	0.36
190.201	7.96
190.674	2.86
191.147	2.26
191.619	-7.84
192.092	2.96
192.565	3.86
193.038	-0.84
193.511	1.06
193.984	-2.24
194.456	-3.24
194.929	4.56
195.402	-3.84
195.874	-0.74
196.347	3.86
196.82	-9.34
197.292	4.16
197.765	0.06
198.237	-9.44
198.71	0.76
199.182	-2.54
199.655	6.76
200.127	0.96
200.6	-2.24
201.072	-3.14
201.544	-1.24
202.017	0.36
202.489	5.06
202.961	-0.34
203.433	-7.64
203.906	-8.74
204.378	-4.54
204.85	-6.44
205.322	-12.44
205.794	-2.24
206.266	1.46
206.739	-3.14
207.211	0.56
207.683	-7.54
208.155	-5.14
208.627	-9.54
209.099	-7.74
209.57	-12.64
210.042	-6.34
210.514	-7.44
210.986	0.26
211.458	-0.64
211.93	-5.24
212.402	-2.04
212.873	-1.34
213.345	-9.14
213.817	-11.24
214.288	1.56
214.76	-9.64
215.232	-3.54
215.703	-5.74
216.175	-2.54
216.646	-7.74
217.118	-5.54
217.589	-2.94
218.061	-6.04
218.532	-2.94
219.004	-4.54
219.475	-3.24
219.946	-2.44
220.418	-0.34
220.889	1.36
221.36	0.46
221.832	-6.84
222.303	-7.04
222.774	1.26
223.245	-2.54
223.717	-5.54
224.188	-1.44
224.659	-4.34
225.13	-9.24
225.601	-3.64
226.072	4.16
226.543	2.76
227.014	-0.54
227.485	-1.04
227.956	-5.64
228.427	-3.94
228.898	-1.44
229.369	3.56
229.839	-6.44
230.31	-13.14
230.781	3.26
231.252	-1.14
231.722	-4.94
232.193	-3.94
232.664	-1.14
233.135	3.56
233.605	-3.34
234.076	-4.94
234.546	0.46
235.017	2.16
235.487	1.56
235.958	-2.14
236.428	0.46
236.899	0.16
237.369	7.46
237.84	-5.24
238.31	5.46
238.78	2.76
239.251	-1.74
239.721	4.36
240.191	2.36
240.662	-3.44
241.132	-1.14
241.602	-0.44
242.072	0.26
242.542	5.86
243.013	-7.64
243.483	-3.64
243.953	3.66
244.423	-5.24
244.893	-2.24
245.363	6.16
245.833	5.26
246.303	-1.04
246.773	4.06
247.243	-0.34
247.712	0.46
248.182	7.06
248.652	7.66
249.122	1.36
249.592	11.66
250.061	15.86
250.531	29.76
251.001	15.76
251.471	18.16
251.94	12.46
252.41	7.66
252.879	1.76
253.349	17.36
253.818	10.06
254.288	2.86
254.757	9.06
255.227	-1.14
255.696	1.66
256.166	2.56
256.635	9.16
257.105	10.06
257.574	4.96
258.043	7.26
258.513	7.26
258.982	10.96
259.451	9.56
259.92	12.16
260.389	8.96
260.859	16.96
261.328	11.46
261.797	16.36
262.266	6.56
262.735	8.76
263.204	2.36
263.673	-2.74
264.142	8.36
264.611	-6.24
265.08	2.56
265.549	-6.54
266.018	6.66
266.487	-6.44
266.955	-3.64
267.424	5.66
267.893	3.76
268.362	-2.24
268.83	7.16
269.299	12.66
269.768	8.46
270.236	7.96
270.705	1.06
271.174	14.46
271.642	8.96
272.111	10.96
272.579	14.36
273.048	18.46
273.516	23.96
273.985	20.96
274.453	23.66
274.922	14.96
275.39	7.36
275.858	4.16
276.327	11.86
276.795	14.76
277.263	4.76
277.731	27.36
278.2	50.36
278.668	58.16
279.136	44.46
279.604	12.76
280.072	10.26
280.54	7.06
281.008	5.76
281.477	14.26
281.945	7.06
282.413	13.16
282.881	16.16
283.348	8.06
283.816	14.76
284.284	15.36
284.752	12.66
285.22	9.26
285.688	13.36
286.156	16.66
286.623	41.96
287.091	55.86
287.559	30.86
288.026	17.56
288.494	12.16
288.962	0.86
289.429	11.16
289.897	17.86
290.364	10.36
290.832	20.86
291.3	11.86
291.767	12.86
292.234	17.96
292.702	14.76
293.169	19.76
293.637	24.26
294.104	18.06
294.571	8.76
295.039	12.16
295.506	12.56
295.973	14.76
296.44	16.06
296.908	19.36
297.375	12.66
297.842	19.56
298.309	21.36
298.776	10.36
299.243	18.56
299.71	15.76
300.177	18.36
300.644	20.76
301.111	21.56
301.578	21.36
302.045	12.46
302.512	21.06
302.979	19.36
303.446	16.76
303.913	18.16
304.379	21.26
304.846	27.16
305.313	24.56
305.78	17.26
306.246	26.86
306.713	28.06
307.18	23.66
307.646	25.06
308.113	29.36
308.579	23.06
309.046	24.36
309.512	29.76
309.979	19.66
310.445	34.06
310.912	27.36
311.378	34.86
311.845	24.36
312.311	28.56
312.777	30.36
313.244	30.96
313.71	33.26
314.176	32.56
314.642	36.96
315.109	34.46
315.575	33.16
316.041	32.26
316.507	25.96
316.973	36.56
317.439	33.36
317.905	36.66
318.371	34.76
318.837	34.46
319.303	30.06
319.769	30.36
320.235	25.26
320.701	35.66
321.167	33.96
321.633	30.86
322.099	35.26
322.564	36.86
323.03	37.26
323.496	35.26
323.962	36.46
324.427	33.26
324.893	38.76
325.359	30.36
325.824	32.36
326.29	30.16
326.755	35.86
327.221	39.46
327.686	35.66
328.152	43.96
328.617	36.76
329.083	43.36
329.548	47.06
330.014	42.96
330.479	33.96
330.944	40.36
331.41	37.96
331.875	41.56
332.34	45.06
332.805	40.46
333.271	45.86
333.736	44.86
334.201	51.26
334.666	53.06
335.131	52.66
335.596	46.46
336.061	47.96
336.526	44.36
336.991	45.96
337.456	54.16
337.921	45.86
338.386	42.66
338.851	45.66
339.316	41.76
339.781	46.66
340.246	50.36
340.711	47.06
341.175	49.46
341.64	42.76
342.105	56.56
342.569	52.06
343.034	48.96
343.499	54.16
343.963	52.06
344.428	62.16
344.893	55.56
345.357	57.56
345.822	60.66
346.286	69.06
346.751	68.26
347.215	64.46
347.679	63.26
348.144	92.66
348.608	83.16
349.073	71.36
349.537	68.26
350.001	76.96
350.465	82.76
350.93	80.26
351.394	77.26
351.858	76.16
352.322	85.16
352.786	82.96
353.25	98.16
353.715	108.86
354.179	98.26
354.643	121.56
355.107	121.86
355.571	101.76
356.035	101.96
356.498	111.16
356.962	113.26
357.426	128.06
357.89	112.96
358.354	85.86
358.818	89.26
359.281	73.86
359.745	77.06
360.209	74.26
360.673	73.06
361.136	74.66
361.6	82.76
362.064	80.66
362.527	80.06
362.991	88.26
363.454	77.36
363.918	73.46
364.381	76.86
364.845	82.36
365.308	78.66
365.772	80.66
366.235	77.56
366.698	85.76
367.162	80.56
367.625	78.76
368.088	86.86
368.552	91.36
369.015	84.66
369.478	92.06
369.941	95.36
370.404	91.16
370.867	100.26
371.331	110.16
371.794	114.76
372.257	105.46
372.72	114.86
373.183	109.86
373.646	100.86
374.109	100.56
374.572	110.46
375.035	107.56
375.497	111.26
375.96	105.76
376.423	102.56
376.886	112.56
377.349	110.46
377.811	93.16
378.274	105.06
378.737	105.16
379.199	106.66
379.662	106.56
380.125	120.16
380.587	116.96
381.05	126.36
381.512	127.66
381.975	129.36
382.437	130.06
382.9	123.06
383.362	129.66
383.825	141.16
384.287	148.46
384.75	150.26
385.212	137.36
385.674	134.76
386.136	135.46
386.599	124.36
387.061	132.96
387.523	128.96
387.985	144.26
388.447	145.46
388.91	145.36
389.372	164.46
389.834	155.86
390.296	148.96
390.758	150.96
391.22	173.16
391.682	212.46
392.144	298.96
392.606	235.36
393.068	169.56
393.529	170.16
393.991	145.96
394.453	146.56
394.915	164.56
395.377	197.16
395.838	222.06
396.3	164.76
396.762	140.16
397.224	132.26
397.685	125.46
398.147	129.36
398.608	129.86
399.07	130.16
399.531	133.46
399.993	140.76
400.454	152.46
400.916	144.26
401.377	141.16
401.839	146.46
402.3	149.26
402.762	167.26
403.223	176.36
403.684	171.46
404.145	157.96
404.607	158.06
405.068	165.06
405.529	166.36
405.99	181.96
406.451	182.26
406.913	168.86
407.374	166.66
407.835	161.26
408.296	167.86
408.757	177.16
409.218	184.56
409.679	178.76
410.14	174.66
410.601	177.26
411.062	185.76
411.522	198.96
411.983	194.76
412.444	181.36
412.905	187.66
413.366	180.26
413.826	196.26
414.287	211.06
414.748	259.46
415.208	243.36
415.669	209.56
416.13	202.96
416.59	203.36
417.051	217.56
417.511	218.36
417.972	238.26
418.432	249.56
418.893	286.76
419.353	252.76
419.814	198.86
420.274	192.06
420.734	182.66
421.195	193.36
421.655	192.16
422.115	197.76
422.576	193.16
423.036	199.36
423.496	209.76
423.956	225.26
424.416	231.16
424.876	260.96
425.336	259.66
425.797	259.66
426.257	265.96
426.717	241.86
427.177	235.06
427.637	222.66
428.097	231.56
428.556	248.36
429.016	268.66
429.476	269.06
429.936	279.46
430.396	282.16
430.856	289.36
431.315	313.56
431.775	346.76
432.235	373.96
432.694	365.56
433.154	371.66
433.614	404.36
434.073	344.86
434.533	284.36
434.993	276.16
435.452	283.06
435.912	307.26
436.371	287.76
436.83	287.46
437.29	269.96
437.749	246.36
438.209	247.56
438.668	276.66
439.127	290.16
439.587	262.96
440.046	251.76
440.505	261.16
440.964	278.26
441.424	328.36
441.883	306.96
442.342	261.56
442.801	227.56
443.26	217.46
443.719	222.76
444.178	224.16
444.637	213.86
445.096	223.86
445.555	218.26
446.014	221.56
446.473	234.36
446.932	238.26
447.391	220.16
447.849	225.56
448.308	218.36
448.767	224.36
449.226	231.06
449.685	234.86
450.143	245.66
450.602	244.96
451.061	224.86
451.519	228.16
451.978	236.06
452.436	235.36
452.895	245.76
453.353	252.96
453.812	240.06
454.27	239.56
454.729	247.96
455.187	243.06
455.646	248.86
456.104	252.96
456.562	261.36
457.021	272.16
457.479	261.96
457.937	273.46
458.395	262.16
458.854	246.76
459.312	255.16
459.77	280.46
460.228	266.36
460.686	244.06
461.144	249.06
461.602	249.26
462.06	242.76
462.518	254.86
462.976	256.66
463.434	259.26
463.892	258.16
464.35	268.16
464.808	281.06
465.266	264.16
465.724	271.66
466.181	281.96
466.639	267.16
467.097	293.26
467.555	303.06
468.012	300.06
468.47	309.66
468.928	336.36
469.385	339.86
469.843	344.36
470.3	355.46
470.758	368.86
471.215	389.56
471.673	407.26
472.13	413.06
472.588	418.86
473.045	373.46
473.503	384.76
473.96	394.96
474.417	402.16
474.875	435.96
475.332	473.16
475.789	456.66
476.246	471.96
476.704	488.66
477.161	510.56
477.618	523.56
478.075	563.96
478.532	617.66
478.989	689.66
479.446	809.66
479.903	770.56
480.36	801.76
480.817	855.26
481.274	962.56
481.731	1064.06
482.188	1172.06
482.645	1295.76
483.102	1396.96
483.558	1536.56
484.015	1591.26
484.472	1571.06
484.929	1505.06
485.385	1465.76
485.842	1416.86
486.299	1361.96
486.755	1303.16
487.212	1095.56
487.668	916.26
488.125	849.96
488.582	779.86
489.038	746.36
489.494	712.16
489.951	676.16
490.407	663.76
490.864	647.26
491.32	649.86
491.776	641.66
492.233	636.96
492.689	603.36
493.145	609.06
493.602	594.76
494.058	601.76
494.514	614.76
494.97	636.36
495.426	651.96
495.882	612.76
496.338	610.46
496.794	621.66
497.251	604.26
497.707	629.26
498.163	636.96
498.618	639.26
499.074	631.56
499.53	671.96
499.986	664.66
500.442	660.96
500.898	629.66
501.354	627.56
501.809	635.56
502.265	644.46
502.721	656.76
503.177	666.96
503.632	666.56
504.088	671.76
504.543	709.06
504.999	708.56
505.455	652.06
505.91	636.46
506.366	633.86
506.821	623.36
507.277	611.76
507.732	623.46
508.187	625.76
508.643	628.26
509.098	632.96
509.553	649.96
510.009	654.66
510.464	672.86
510.919	679.26
511.375	691.66
511.83	705.56
512.285	719.96
512.74	748.86
513.195	768.26
513.65	759.06
514.105	761.46
514.56	763.46
515.015	786.46
515.47	806.66
515.925	782.16
516.38	781.86
516.835	786.06
517.29	767.86
517.745	766.96
518.2	755.56
518.655	749.46
519.109	740.86
519.564	730.26
520.019	717.66
520.474	711.56
520.928	718.66
521.383	718.76
521.838	705.96
522.292	704.56
522.747	705.06
523.201	698.86
523.656	699.76
524.11	687.26
524.565	694.06
525.019	681.76
525.474	700.96
525.928	692.76
526.382	681.76
526.837	697.36
527.291	696.76
527.745	688.56
528.2	685.66
528.654	686.86
529.108	679.26
529.562	685.06
530.016	680.66
530.47	681.76
530.925	687.96
531.379	688.26
531.833	695.16
532.287	700.76
532.741	695.76
533.195	698.86
533.649	707.36
534.103	710.26
534.556	697.66
535.01	696.26
535.464	696.16
535.918	704.26
536.372	706.36
536.826	710.96
537.279	694.26
537.733	708.46
538.187	711.76
538.64	712.56
539.094	719.86
539.548	723.26
540.001	707.16
540.455	730.46
540.908	719.06
541.362	727.96
541.815	737.36
542.269	751.76
542.722	758.56
543.175	755.46
543.629	764.46
544.082	786.36
544.536	789.26
544.989	776.76
545.442	784.16
545.895	789.66
546.349	786.96
546.802	784.96
547.255	793.76
547.708	798.06
548.161	806.16
548.614	806.86
549.067	823.96
549.52	815.86
549.973	804.16
550.426	795.36
550.879	787.96
551.332	784.36
551.785	792.66
552.238	793.96
552.691	816.56
553.144	827.06
553.596	835.86
554.049	854.86
554.502	885.06
554.955	887.66
555.407	892.56
555.86	891.36
556.313	890.66
556.765	871.06
557.218	878.06
557.67	877.96
558.123	867.06
558.576	875.06
559.028	853.16
559.48	867.16
559.933	862.76
560.385	834.16
560.838	806.76
561.29	775.46
561.742	771.66
562.195	758.26
562.647	760.96
563.099	776.16
563.551	767.96
564.004	777.26
564.456	762.96
564.908	754.46
565.36	750.26
565.812	732.56
566.264	718.76
566.716	719.26
567.168	705.46
567.62	724.36
568.072	701.36
568.524	694.26
568.976	683.56
569.428	670.46
569.88	679.46
570.332	680.46
570.784	674.66
571.235	680.66
571.687	691.46
572.139	697.46
572.59	701.46
573.042	707.06
573.494	716.86
573.945	704.06
574.397	683.46
574.849	686.56
575.3	686.66
575.752	680.96
576.203	669.86
576.655	680.96
577.106	671.46
577.557	665.06
578.009	667.56
578.46	663.36
578.912	657.26
579.363	659.76
579.814	661.46
580.265	643.36
580.717	660.16
581.168	662.56
581.619	669.96
582.07	675.06
582.521	666.76
582.972	671.46
583.423	679.06
583.875	689.26
584.326	699.36
584.777	741.16
585.227	829.16
585.678	920.56
586.129	1002.36
586.58	1070.66
587.031	1161.86
587.482	1305.06
587.933	1486.36
588.384	1297.26
588.834	974.76
589.285	796.26
589.736	784.46
590.186	772.86
590.637	763.16
591.088	744.96
591.538	740.86
591.989	723.76
592.439	721.76
592.89	719.46
593.34	701.36
593.791	704.86
594.241	701.26
594.692	710.66
595.142	702.36
595.593	692.36
596.043	716.56
596.493	703.86
596.943	712.46
597.394	708.76
597.844	713.26
598.294	729.76
598.744	756.56
599.195	771.86
599.645	820.16
600.095	852.26
600.545	911.86
600.995	967.06
601.445	1023.26
601.895	1080.76
602.345	1116.46
602.795	1113.56
603.245	1048.26
603.695	1002.86
604.145	952.86
604.594	905.16
605.044	856.76
605.494	788.26
605.944	750.76
606.393	736.96
606.843	726.56
607.293	732.16
607.743	727.06
608.192	734.46
608.642	753.16
609.091	762.76
609.541	766.76
609.99	773.06
610.44	765.46
610.889	713.46
611.339	702.16
611.788	689.06
612.238	696.66
612.687	716.86
613.136	715.36
613.586	733.86
614.035	732.66
614.484	759.46
614.933	763.26
615.383	748.36
615.832	733.56
616.281	718.46
616.73	690.96
617.179	667.66
617.628	650.66
618.077	644.56
618.526	619.06
618.975	622.16
619.424	609.76
619.873	610.76
620.322	615.46
620.771	611.46
621.22	600.56
621.669	600.26
622.118	579.46
622.567	579.36
623.015	560.86
623.464	574.26
623.913	563.86
624.361	556.56
624.81	544.86
625.259	558.46
625.707	550.16
626.156	558.36
626.604	559.56
627.053	559.56
627.501	561.56
627.95	572.26
628.398	581.36
628.847	560.06
629.295	561.76
629.744	565.26
630.192	574.76
630.64	567.46
631.089	563.26
631.537	575.26
631.985	586.26
632.433	596.66
632.881	609.26
633.33	662.56
633.778	646.66
634.226	572.26
634.674	571.46
635.122	580.16
635.57	589.06
636.018	615.66
636.466	578.56
636.914	564.36
637.362	570.86
637.81	570.36
638.258	576.26
638.705	578.66
639.153	598.66
639.601	614.36
640.049	645.46
640.497	675.46
640.944	690.36
641.392	645.66
641.84	618.46
642.287	576.56
642.735	556.56
643.182	573.76
643.63	566.46
644.078	571.86
644.525	588.06
644.973	596.76
645.42	605.46
645.867	621.36
646.315	639.16
646.762	656.86
647.21	684.16
647.657	695.66
648.104	748.26
648.551	773.36
648.999	837.46
649.446	911.56
649.893	1000.16
650.34	1155.86
650.787	1394.96
651.234	1736.46
651.682	2274.96
652.129	3142.26
652.576	4540.36
653.023	6684.96
653.47	9153.26
653.917	11301.56
654.363	13004.36
654.81	14282.96
655.257	13632.06
655.704	8899.56
656.151	5258.36
656.598	3395.56
657.044	2408.16
657.491	1854.96
657.938	1481.96
658.385	1246.56
658.831	1074.66
659.278	964.56
659.724	850.26
660.171	786.86
660.618	725.66
661.064	696.86
661.511	669.86
661.957	647.76
662.404	648.36
662.85	662.26
663.296	628.16
663.743	558.56
664.189	535.76
664.635	534.06
665.082	522.96
665.528	528.16
665.974	511.86
666.42	505.96
666.867	511.56
667.313	494.86
667.759	484.36
668.205	477.96
668.651	487.86
669.097	486.36
669.543	505.46
669.989	473.26
670.435	450.06
670.881	444.16
671.327	448.56
671.773	464.86
672.219	489.66
672.665	543.46
673.11	577.36
673.556	622.46
674.002	664.16
674.448	649.76
674.893	543.86
675.339	480.26
675.785	430.16
676.23	421.96
676.676	389.96
677.122	387.06
677.567	372.66
678.013	365.96
678.458	359.66
678.904	362.36
679.349	345.76
679.794	345.06
680.24	344.76
680.685	343.46
681.131	341.36
681.576	350.26
682.021	343.76
682.466	344.56
682.912	345.46
683.357	355.66
683.802	381.06
684.247	408.46
684.692	453.16
685.137	483.66
685.583	525.76
686.028	553.36
686.473	506.96
686.918	440.26
687.363	418.76
687.807	386.36
688.252	369.06
688.697	350.76
689.142	333.76
689.587	329.86
690.032	327.16
690.477	341.76
690.921	345.16
691.366	390.36
691.811	404.36
692.255	426.26
692.7	460.86
693.145	510.16
693.589	707.36
694.034	1144.46
694.478	1539.36
694.923	1704.26
695.367	2224.26
695.812	1178.96
696.256	499.36
696.701	372.56
697.145	347.86
697.59	325.56
698.034	314.46
698.478	326.86
698.922	327.76
699.367	331.06
699.811	335.96
700.255	356.86
700.699	387.76
701.143	425.76
701.588	475.96
702.032	518.96
702.476	512.26
702.92	494.56
703.364	495.66
703.808	653.16
704.252	1047.26
704.696	1452.26
705.14	1645.76
705.584	2105.36
706.027	1045.46
706.471	519.96
706.915	392.56
707.359	343.86
707.803	311.46
708.246	304.66
708.69	308.16
709.134	305.96
709.577	310.06
710.021	311.06
710.465	315.56
710.908	305.96
711.352	300.46
711.795	316.26
712.239	345.46
712.682	389.06
713.126	407.26
713.569	465.96
714.012	374.96
714.456	321.26
714.899	293.96
715.342	278.96
715.786	258.96
716.229	263.76
716.672	261.96
717.115	248.26
717.558	247.76
718.002	245.46
718.445	259.26
718.888	284.36
719.331	295.06
719.774	308.96
720.217	307.86
720.66	284.26
721.103	265.06
721.546	254.96
721.989	248.66
722.432	236.06
722.874	237.16
723.317	231.46
723.76	241.56
724.203	260.86
724.645	308.16
725.088	450.86
725.531	573.56
725.974	642.76
726.416	538.66
726.859	308.76
727.301	245.56
727.744	238.76
728.187	239.06
728.629	236.96
729.071	249.36
729.514	251.06
729.956	274.96
730.399	289.66
730.841	277.16
731.283	268.36
731.726	256.26
732.168	266.36
732.61	266.26
733.053	287.16
733.495	308.66
733.937	352.56
734.379	403.06
734.821	434.16
735.263	550.06
735.705	846.66
736.148	1605.16
736.59	2579.46
737.032	2987.46
737.474	2443.56
737.916	804.26
738.357	422.86
738.799	330.76
739.241	303.56
739.683	280.56
740.125	298.46
740.567	300.66
741.008	316.26
741.45	314.86
741.892	310.56
742.334	341.56
742.775	351.36
743.217	342.46
743.658	264.96
744.1	254.86
744.542	264.16
744.983	303.66
745.425	341.76
745.866	342.96
746.307	287.26
746.749	286.26
747.19	326.46
747.632	461.86
748.073	911.96
748.514	1882.86
748.956	2834.46
749.397	3573.36
749.838	2949.16
750.279	2918.56
750.72	1479.86
751.162	545.06
751.603	324.16
752.044	254.26
752.485	208.46
752.926	209.06
753.367	203.36
753.808	187.86
754.249	192.56
754.69	180.06
755.131	181.96
755.572	180.16
756.013	186.06
756.453	184.06
756.894	185.76
757.335	186.46
757.776	200.66
758.216	201.26
758.657	194.76
759.098	205.26
759.538	225.26
759.979	269.26
760.42	373.96
760.86	723.06
761.301	1878.36
761.741	4437.96
762.182	6299.86
762.622	4393.56
763.063	1292.16
763.503	533.76
763.943	350.36
764.384	335.76
764.824	397.86
765.264	435.06
765.705	308.26
766.145	209.56
766.585	191.46
767.025	188.96
767.465	185.86
767.906	247.36
768.346	321.76
768.786	339.56
769.226	259.36
769.666	329.56
770.106	648.36
770.546	1596.56
770.986	2612.76
771.426	2311.36
771.866	792.36
772.306	332.46
772.745	215.16
773.185	179.86
773.625	171.76
774.065	163.56
774.505	205.76
774.944	319.06
775.384	690.06
775.824	1216.26
776.263	1172.46
776.703	501.66
777.142	216.96
777.582	159.26
778.021	134.26
778.461	140.86
778.9	142.16
779.34	133.46
779.779	115.76
780.219	108.96
780.658	109.86
781.097	112.76
781.537	119.66
781.976	109.06
782.415	105.36
782.855	110.66
783.294	100.86
783.733	107.26
784.172	110.26
784.611	98.76
785.05	108.86
785.489	116.76
785.928	118.76
786.367	124.56
786.806	115.26
787.245	134.96
787.684	134.36
788.123	143.26
788.562	132.16
789.001	122.86
789.44	116.16
789.879	118.26
790.317	117.86
790.756	127.36
791.195	133.26
791.634	147.86
792.072	207.86
792.511	382.96
792.95	1031.46
793.388	2111.46
793.827	1878.56
794.265	671.36
794.704	283.26
795.142	184.66
795.581	152.16
796.019	138.66
796.458	128.16
796.896	120.96
797.334	137.96
797.773	163.16
798.211	223.46
798.649	456.86
799.087	1024.66
799.526	1591.86
799.964	2009.66
800.402	1963.86
800.84	748.96
801.278	299.36
801.716	183.96
802.154	152.46
802.592	138.76
803.03	144.86
803.468	138.16
803.906	147.16
804.344	150.96
804.782	146.46
805.22	135.16
805.658	128.06
806.096	144.06
806.533	151.46
806.971	172.36
807.409	214.46
807.847	312.96
808.284	671.76
808.722	1887.16
809.16	3252.36
809.597	3149.16
810.035	5405.66
810.472	5621.46
810.91	2047.66
811.347	782.36
811.785	405.06
812.222	257.86
812.66	195.46
813.097	163.36
813.535	141.36
813.972	131.06
814.409	119.36
814.846	111.06
815.284	105.16
815.721	107.86
816.158	111.66
816.595	120.46
817.032	181.76
817.47	190.76
817.907	169.86
818.344	148.76
818.781	110.26
819.218	105.66
819.655	118.86
820.092	184.66
820.529	215.86
820.966	172.16
821.403	138.86
821.839	110.96
822.276	105.66
822.713	122.06
823.15	137.06
823.587	118.56
824.023	154.96
824.46	313.46
824.897	902.16
825.333	1318.36
825.77	573.96
826.206	236.36
826.643	134.56
827.08	99.76
827.516	88.76
827.953	70.26
828.389	79.26
828.825	73.66
829.262	69.26
829.698	59.46
830.135	62.66
830.571	59.26
831.007	63.46
831.443	64.76
831.88	60.96
832.316	64.26
832.752	64.06
833.188	64.16
833.624	63.66
834.06	67.06
834.497	68.36
834.933	68.76
835.369	77.56
835.805	72.36
836.241	74.66
836.677	84.46
837.112	84.46
837.548	111.06
837.984	124.06
838.42	207.06
838.856	511.86
839.292	1544.46
839.727	2254.26
840.163	1060.26
840.599	943.06
841.034	2047.76
841.47	2058.86
841.906	768.26
842.341	340.96
842.777	238.36
843.212	317.16
843.648	305.76
844.083	153.96
844.519	101.36
844.954	72.16
845.39	61.16
845.825	60.66
846.261	59.36
846.696	58.96
847.131	53.86
847.566	64.16
848.002	53.96
848.437	57.86
848.872	55.56
849.307	68.56
849.742	89.56
850.177	185.66
850.613	561.06
851.048	865.06
851.483	374.36
851.918	153.96
852.353	85.46
852.788	61.66
853.223	59.66
853.657	60.06
854.092	53.46
854.527	47.56
854.962	36.76
855.397	49.36
855.832	48.66
856.266	37.76
856.701	40.46
857.136	37.56
857.57	39.36
858.005	50.76
858.44	51.66
858.874	45.96
859.309	52.16
859.743	35.76
860.178	48.56
860.612	39.46
861.047	55.36
861.481	70.26
861.915	67.56
862.35	45.36
862.784	36.16
863.218	36.86
863.653	35.76
864.087	44.46
864.521	59.16
864.955	69.96
865.39	152.96
865.824	169.76
866.258	116.06
866.692	155.96
867.126	172.96
867.56	100.96
867.994	51.46
868.428	38.86
868.862	47.06
869.296	59.26
869.73	58.06
870.164	54.76
870.598	52.16
871.031	39.56
871.465	35.96
871.899	31.66
872.333	22.16
872.766	26.76
873.2	21.26
873.634	30.36
874.067	23.26
874.501	23.16
874.935	36.96
875.368	38.96
875.802	31.16
876.235	25.16
876.669	28.36
877.102	22.96
877.535	28.16
877.969	17.06
878.402	26.96
878.836	22.06
879.269	29.56
879.702	24.66
880.135	20.16
880.569	28.06
881.002	27.76
881.435	19.86
881.868	16.46
882.301	24.46
882.734	12.16
883.167	23.96
883.601	19.56
884.034	19.96
884.467	12.46
884.899	16.96
885.332	21.86
885.765	19.86
886.198	20.46
886.631	20.56
887.064	15.96
887.497	21.16
887.929	21.76
888.362	16.26
888.795	10.76
889.228	20.06
889.66	19.36
890.093	16.26
890.526	19.86
890.958	18.56
891.391	19.36
891.823	16.96
892.256	16.46
892.688	10.56
893.121	14.06
893.553	21.76
893.985	27.06
894.418	16.06
894.85	15.66
895.282	14.86
895.715	16.56
896.147	19.36
896.579	20.36
897.011	20.56
897.444	19.76
897.876	17.16
898.308	24.96
898.74	15.16
899.172	9.76
899.604	21.56
900.036	25.86
900.468	11.76
900.9	19.66
901.332	20.46
901.764	15.56
902.196	14.96
902.628	22.56
903.06	17.76
903.491	30.96
903.923	24.06
904.355	23.96
904.787	25.86
905.218	22.56
905.65	21.86
906.082	14.26
906.513	18.56
906.945	11.46
907.376	11.66
907.808	20.86
908.239	21.56
908.671	26.56
909.102	24.56
909.534	29.26
909.965	48.86
910.397	93.56
910.828	314.86
911.259	463.06
911.691	214.36
912.122	103.46
912.553	49.46
912.984	28.76
913.415	23.56
913.847	30.26
914.278	15.66
914.709	13.56
915.14	18.06
915.571	17.86
916.002	8.56
916.433	25.06
916.864	15.06
917.295	12.26
917.726	29.16
918.157	18.26
918.587	33.06
919.018	26.06
919.449	24.56
919.88	26.16
920.311	35.66
920.741	45.26
921.172	163.86
921.603	147.06
922.033	74.56
922.464	41.86
922.895	21.36
923.325	22.46
923.756	11.56
924.186	18.86
924.617	28.86
925.047	39.96
925.478	48.86
925.908	41.66
926.338	23.76
926.769	14.66
927.199	22.06
927.629	8.56
928.06	21.66
928.49	17.36
928.92	18.16
929.35	16.16
929.78	10.26
930.21	7.66
930.641	9.46
931.071	5.36
931.501	2.66
931.931	12.36
932.361	5.96
932.791	2.16
933.221	5.36
933.651	5.56
934.08	18.66
934.51	30.76
934.94	13.96
935.37	11.56
935.8	10.76
936.229	2.16
936.659	12.56
937.089	7.06
937.519	15.36
937.948	26.56
938.378	14.96
938.807	6.36
939.237	4.06
939.666	10.06
940.096	-0.74
940.525	-2.04
940.955	0.96
941.384	6.26
941.814	-7.94
942.243	-0.14
942.672	0.06
943.102	0.26
943.531	4.16
943.96	-0.74
944.39	2.96
944.819	-5.14
945.248	1.96
945.677	-2.34
946.106	5.66
946.535	5.76
946.964	0.16
947.393	4.66
947.822	-0.54
948.251	-0.54
948.68	5.36
949.109	8.36
949.538	4.66
949.967	4.16
950.396	2.76
950.825	2.66
951.254	-0.84
951.682	-4.24
952.111	2.36
952.54	5.56
952.969	-6.54
953.397	-0.44
953.826	8.26
954.254	-2.24
954.683	0.86
955.112	-0.84
955.54	-5.24
955.969	1.96
956.397	5.16
956.826	-1.24
957.254	-3.34
957.682	5.26
958.111	6.96
958.539	-1.34
958.967	3.66
959.396	-3.94
959.824	1.56
960.252	2.26
960.68	-10.94
961.109	-2.04
961.537	0.56
961.965	4.96
962.393	-2.34
962.821	-2.24
963.249	2.46
963.677	4.06
964.105	5.16
964.533	49.76
964.961	37.76
965.389	14.66
965.817	9.36
966.245	6.86
966.672	3.56
967.1	-13.34
967.528	4.26
967.956	-0.94
968.383	1.16
968.811	-1.14
969.239	-2.34
969.666	-4.44
970.094	5.96
970.522	-2.04
970.949	1.76
971.377	-0.14
971.804	1.56
972.232	-0.64
972.659	-5.04
973.087	-1.14
973.514	-2.14
973.941	-0.44
974.369	3.36
974.796	9.66
975.223	2.36
975.651	0.06
976.078	2.66
976.505	-0.44
976.932	6.86
977.359	14.56
977.786	19.26
978.214	4.16
978.641	-6.24
979.068	-3.14
979.495	-3.34
979.922	3.66
980.349	-1.74
980.776	2.46
981.202	-2.64
981.629	6.86
982.056	3.96
982.483	-8.74
982.91	-1.24
983.337	-4.44
983.763	7.26
984.19	-0.94
984.617	-5.04
985.043	-2.64
985.47	-0.84
985.897	-4.84
986.323	-5.04
986.75	4.56
987.176	-10.24
987.603	-0.54
988.029	2.46
988.456	-2.64
988.882	-3.44
989.308	-6.24
989.735	-2.84
990.161	4.86
990.587	0.46
991.014	1.76
991.44	4.86
991.866	-0.74
992.292	-2.44
992.719	-0.54
993.145	6.36
993.571	-7.74
993.997	-2.84
994.423	-0.14
994.849	-7.54
995.275	2.26
995.701	-0.24
996.127	-4.24
996.553	1.26
996.979	-2.74
997.405	-1.64
997.83	-5.14
998.256	-5.04
998.682	-5.44
999.108	-7.54
999.534	-3.24
999.959	-1.04
1000.385	-7.44
1000.811	-3.24
1001.236	-9.84
1001.662	-6.64
1002.087	-6.44
1002.513	-0.44
1002.938	0.06
1003.364	-0.34
1003.789	2.36
1004.215	1.86
1004.64	5.06
1005.066	4.56
1005.491	0.36
1005.916	-4.54
1006.342	1.06
1006.767	-6.54
1007.192	3.26
1007.617	-4.74
1008.042	-7.34
1008.468	-2.94
1008.893	-8.24
1009.318	-9.04
1009.743	-4.54
1010.168	6.26
1010.593	0.56
1011.018	-6.64
1011.443	-2.74
1011.868	-1.04
1012.293	-1.04
1012.718	-2.94
1013.143	-0.14
1013.567	0.46
1013.992	-6.24
1014.417	-8.64
1014.842	-2.44
1015.267	-2.54
1015.691	-5.04
1016.116	1.86
1016.541	-2.04
1016.965	1.76
1017.39	2.56
1017.814	-1.74
1018.239	-3.94
1018.663	-6.94
1019.088	-10.34
1019.512	-3.14
1019.937	0.66
1020.361	-4.74
1020.785	-4.94
1021.21	-1.44
1021.634	-4.94
1022.058	-3.04
1022.483	3.06
1022.907	-0.44
1023.331	-3.74
1023.755	2.66
1024.179	-6.04
1024.604	-4.84
1025.028	-3.74
1025.452	-6.44
1025.876	-4.14
1026.3	-1.74
1026.724	-8.94
1027.148	-7.34
1027.572	-8.24
1027.996	-8.44
1028.42	0.66
1028.843	-9.14
1029.267	-11.54
1029.691	0.16
1030.115	-5.34
1030.539	-7.14
1030.962	-10.34
1031.386	-11.44
1031.81	-1.04
1032.233	5.36
1032.657	-1.64
1033.08	2.46
1033.504	-0.64
1033.927	-6.24
1034.351	0.36
1034.774	-6.94
1035.198	-0.44
1035.621	-6.14
1036.045	-11.04
1036.468	0.26
1036.891	-8.34
1037.315	-14.04
1037.738	-10.74
1038.161	2.46
1038.584	-12.44
1039.008	-7.44
1039.431	-2.34
1039.854	1.76
1040.277	-12.34
1040.7	-6.94
1041.123	0.26
1041.546	-6.74
1041.969	-4.54
1042.392	-5.34
1042.815	-3.24
1043.238	-4.14
1043.661	6.56
1044.084	-8.14
1044.507	-7.24
1044.93	-7.74
1045.352	-7.34
1045.775	-3.14
1046.198	-3.44
1046.621	-3.04
1047.043	-3.74
1047.466	6.06
1047.889	0.26
1048.311	-4.44
1048.734	-5.04
1049.156	-6.04
1049.579	-2.04
1050.001	-1.84
1050.424	4.96
1050.846	-7.04
1051.269	-5.94
1051.691	-12.84
1052.113	-1.64
1052.536	0.16
1052.958	-4.64
1053.38	0.16
1053.802	-1.84
1054.225	-6.44
1054.647	-11.24
1055.069	-8.74
1055.491	3.36
1055.913	-7.94
1056.335	0.86
1056.757	-4.24
1057.179	-9.24
1057.601	-7.44
1058.023	-2.54
1058.445	-4.14
1058.867	-5.44
1059.289	-5.54
1059.711	-5.24
1060.133	-1.44
1060.555	-2.84
1060.976	-8.94
1061.398	-6.14
1061.82	-5.14
1062.241	-3.64
1062.663	-8.34
1063.085	-5.74
1063.506	0.06
1063.928	-3.04
1064.35	-2.64
1064.771	-18.74
1065.193	-1.14
1065.614	-8.04
1066.035	-3.14
1066.457	-3.84
1066.878	-4.44
1067.3	-6.84
1067.721	-0.54
1068.142	-1.04
1068.564	-7.54
1068.985	-5.84
1069.406	-4.84
1069.827	-4.94
1070.248	-2.44
1070.67	-6.44
1071.091	-3.14
1071.512	-9.64
1071.933	-2.84
1072.354	-5.24
1072.775	1.06
1073.196	-2.64
1073.617	-3.44
1074.038	-7.54
1074.459	-7.64
1074.88	-6.84
1075.3	0.16
1075.721	-8.04
1076.142	-1.74
1076.563	-4.94
1076.983	-9.94
1077.404	-7.44
1077.825	-9.54
1078.246	-1.64
1078.666	-6.44
1079.087	-2.24
1079.507	-8.14
1079.928	-2.34
1080.348	2.66
1080.769	-8.34
1081.189	-2.54
1081.61	-0.64
1082.03	-2.04
1082.451	-1.74
1082.871	-0.44
1083.291	-6.24
1083.711	-4.74
1084.132	-5.34
1084.552	-6.04
1084.972	-1.24
1085.392	-11.04
1085.813	-16.14
1086.233	-8.24
1086.653	-13.94
1087.073	-4.04
1087.493	-7.14
1087.913	-11.44
1088.333	-4.24
1088.753	-2.34
1089.173	3.16
1089.593	-6.24
1090.013	-1.74
1090.433	-0.34
1090.852	-1.24
1091.272	-3.54
1091.692	1.06
1092.112	-5.44
1092.531	-6.34
1092.951	-8.84
1093.371	-1.44
1093.79	3.26
1094.21	-7.54
1094.63	-8.14
1095.049	-1.14
1095.469	-4.04
1095.888	-10.04
1096.308	-0.54
1096.727	6.26
1097.146	-9.04
1097.566	-3.64
1097.985	-5.94
1098.405	0.06
1098.824	-3.44
1099.243	-8.24
1099.662	-10.64
1100.082	-4.24
1100.501	-4.94
1100.92	-4.94
1101.339	-3.14
1101.758	-8.54
