Data from 20171114-ORNL-Ar_H_NY_Subt18_08-07-38-259.txt Node
Date: Tue Nov 14 08:07:38 EST 2017
User: Ender
Spectrometer: HR+D1039
Trigger mode: 0
Integration Time (sec): 2.730000E-2
Scans to average: 10
Electric dark correction enabled: true
Nonlinearity correction enabled: false
Boxcar width: 0
XAxis mode: Wavelengths
Number of Pixels in Spectrum: 2048
>>>>>Begin Spectral Data<<<<<
187.836	-4.78
188.309	-4.78
188.782	-4.78
189.255	-0.68
189.728	1.42
190.201	8.22
190.674	-4.88
191.147	1.32
191.619	-12.48
192.092	4.52
192.565	4.42
193.038	0.22
193.511	-4.28
193.984	3.22
194.456	2.12
194.929	1.72
195.402	0.62
195.874	-0.78
196.347	-4.28
196.82	-4.48
197.292	2.72
197.765	1.12
198.237	-7.88
198.71	3.32
199.182	-0.88
199.655	3.22
200.127	8.02
200.6	-1.18
201.072	2.42
201.544	-5.88
202.017	-4.18
202.489	5.32
202.961	-5.68
203.433	-2.38
203.906	-2.78
204.378	-1.58
204.85	6.72
205.322	-4.88
205.794	4.92
206.266	-4.38
206.739	-7.58
207.211	-2.28
207.683	-7.18
208.155	-0.68
208.627	-6.98
209.099	-0.88
209.57	-7.88
210.042	-4.18
210.514	-3.08
210.986	-1.58
211.458	-8.88
211.93	-8.28
212.402	2.82
212.873	-7.38
213.345	-7.78
213.817	-9.48
214.288	-3.18
214.76	-7.48
215.232	-3.48
215.703	-1.88
216.175	-0.88
216.646	-4.78
217.118	-9.88
217.589	-3.28
218.061	-3.98
218.532	-2.48
219.004	-5.48
219.475	-2.58
219.946	-3.78
220.418	-2.08
220.889	3.52
221.36	-4.98
221.832	-4.58
222.303	-6.38
222.774	4.62
223.245	-3.18
223.717	-6.08
224.188	-3.08
224.659	-6.98
225.13	-10.28
225.601	1.02
226.072	-0.18
226.543	0.22
227.014	-4.88
227.485	2.42
227.956	-3.78
228.427	2.12
228.898	4.62
229.369	2.92
229.839	1.42
230.31	-4.58
230.781	-0.48
231.252	-3.48
231.722	-4.58
232.193	0.82
232.664	-1.58
233.135	-1.18
233.605	0.62
234.076	-7.78
234.546	-2.58
235.017	0.12
235.487	-1.98
235.958	-2.68
236.428	-2.78
236.899	8.52
237.369	1.72
237.84	-0.08
238.31	6.22
238.78	3.92
239.251	-1.58
239.721	3.02
240.191	0.82
240.662	-1.58
241.132	3.42
241.602	-2.58
242.072	2.52
242.542	5.32
243.013	-4.88
243.483	3.42
243.953	2.22
244.423	9.42
244.893	0.82
245.363	0.22
245.833	2.92
246.303	1.22
246.773	9.82
247.243	6.52
247.712	-1.68
248.182	8.32
248.652	4.42
249.122	-4.28
249.592	5.42
250.061	19.82
250.531	33.32
251.001	16.52
251.471	24.22
251.94	20.72
252.41	9.22
252.879	-3.58
253.349	7.82
253.818	7.12
254.288	8.32
254.757	7.22
255.227	-0.88
255.696	2.62
256.166	3.72
256.635	4.32
257.105	6.82
257.574	9.02
258.043	4.42
258.513	10.22
258.982	14.72
259.451	5.12
259.92	10.02
260.389	10.12
260.859	15.42
261.328	9.52
261.797	10.12
262.266	6.52
262.735	8.22
263.204	1.52
263.673	0.32
264.142	7.92
264.611	-7.68
265.08	-1.68
265.549	-2.08
266.018	2.12
266.487	-3.68
266.955	-1.68
267.424	2.52
267.893	8.82
268.362	4.82
268.83	2.32
269.299	11.22
269.768	6.42
270.236	8.02
270.705	4.22
271.174	5.02
271.642	3.62
272.111	4.72
272.579	15.12
273.048	17.72
273.516	23.52
273.985	22.72
274.453	17.52
274.922	17.72
275.39	12.82
275.858	2.82
276.327	11.22
276.795	20.82
277.263	5.72
277.731	28.82
278.2	45.62
278.668	48.12
279.136	39.82
279.604	15.52
280.072	15.72
280.54	7.82
281.008	12.72
281.477	15.12
281.945	9.62
282.413	10.42
282.881	8.82
283.348	5.22
283.816	8.02
284.284	15.82
284.752	17.62
285.22	12.62
285.688	12.42
286.156	22.12
286.623	41.42
287.091	50.32
287.559	28.12
288.026	14.02
288.494	10.92
288.962	2.52
289.429	12.92
289.897	16.92
290.364	12.72
290.832	7.02
291.3	12.62
291.767	10.92
292.234	15.72
292.702	12.82
293.169	20.52
293.637	21.12
294.104	21.32
294.571	5.42
295.039	10.12
295.506	16.42
295.973	16.92
296.44	15.12
296.908	23.32
297.375	16.62
297.842	23.72
298.309	13.62
298.776	11.52
299.243	13.82
299.71	8.72
300.177	18.02
300.644	18.82
301.111	19.42
301.578	20.32
302.045	14.92
302.512	17.12
302.979	18.32
303.446	18.32
303.913	13.12
304.379	13.62
304.846	24.42
305.313	24.32
305.78	27.32
306.246	18.82
306.713	25.32
307.18	28.22
307.646	23.22
308.113	28.62
308.579	13.72
309.046	21.12
309.512	24.72
309.979	14.12
310.445	24.12
310.912	23.32
311.378	30.92
311.845	27.02
312.311	27.12
312.777	27.22
313.244	28.82
313.71	34.72
314.176	29.02
314.642	30.72
315.109	26.02
315.575	32.62
316.041	32.62
316.507	23.92
316.973	35.22
317.439	32.42
317.905	26.72
318.371	31.12
318.837	31.42
319.303	29.42
319.769	26.52
320.235	27.12
320.701	32.02
321.167	27.62
321.633	31.42
322.099	37.52
322.564	36.12
323.03	35.62
323.496	32.42
323.962	28.72
324.427	27.02
324.893	44.22
325.359	35.72
325.824	30.52
326.29	30.62
326.755	34.62
327.221	35.62
327.686	32.82
328.152	40.02
328.617	36.52
329.083	44.82
329.548	47.02
330.014	43.62
330.479	34.12
330.944	39.72
331.41	38.12
331.875	41.32
332.34	37.72
332.805	35.62
333.271	44.62
333.736	39.32
334.201	47.22
334.666	41.72
335.131	50.12
335.596	47.02
336.061	43.02
336.526	38.92
336.991	42.32
337.456	54.62
337.921	39.92
338.386	42.72
338.851	40.42
339.316	37.32
339.781	46.22
340.246	44.72
340.711	40.52
341.175	44.52
341.64	43.52
342.105	44.22
342.569	57.92
343.034	52.42
343.499	50.72
343.963	43.52
344.428	61.02
344.893	56.62
345.357	48.82
345.822	55.32
346.286	58.72
346.751	64.12
347.215	60.02
347.679	68.82
348.144	83.22
348.608	65.12
349.073	56.22
349.537	66.42
350.001	69.92
350.465	77.02
350.93	67.62
351.394	72.12
351.858	70.82
352.322	75.72
352.786	72.02
353.25	84.82
353.715	95.32
354.179	90.22
354.643	103.02
355.107	106.02
355.571	101.22
356.035	98.22
356.498	102.82
356.962	106.82
357.426	116.92
357.89	104.02
358.354	77.72
358.818	79.62
359.281	71.42
359.745	69.82
360.209	74.72
360.673	69.22
361.136	69.82
361.6	76.62
362.064	71.82
362.527	78.22
362.991	73.42
363.454	77.32
363.918	70.02
364.381	67.82
364.845	75.82
365.308	76.22
365.772	81.52
366.235	69.82
366.698	78.82
367.162	76.02
367.625	77.32
368.088	71.12
368.552	78.22
369.015	75.82
369.478	89.92
369.941	94.72
370.404	90.82
370.867	96.92
371.331	98.92
371.794	97.22
372.257	104.32
372.72	106.52
373.183	105.42
373.646	99.82
374.109	92.32
374.572	101.42
375.035	94.92
375.497	96.72
375.96	99.42
376.423	96.42
376.886	108.22
377.349	94.42
377.811	95.62
378.274	95.32
378.737	98.92
379.199	96.22
379.662	98.02
380.125	102.82
380.587	106.92
381.05	113.32
381.512	112.02
381.975	119.12
382.437	120.92
382.9	114.52
383.362	120.62
383.825	131.32
384.287	129.22
384.75	128.02
385.212	127.02
385.674	128.12
386.136	129.62
386.599	116.42
387.061	119.22
387.523	122.02
387.985	122.22
388.447	139.32
388.91	130.52
389.372	157.52
389.834	146.72
390.296	130.62
390.758	144.52
391.22	162.32
391.682	200.92
392.144	296.92
392.606	218.12
393.068	152.22
393.529	159.92
393.991	150.12
394.453	142.52
394.915	148.42
395.377	179.02
395.838	199.62
396.3	150.12
396.762	131.72
397.224	122.62
397.685	120.72
398.147	125.92
398.608	117.92
399.07	124.42
399.531	125.82
399.993	126.82
400.454	144.82
400.916	137.72
401.377	132.22
401.839	144.12
402.3	139.32
402.762	155.72
403.223	163.72
403.684	159.52
404.145	154.42
404.607	148.02
405.068	159.32
405.529	161.82
405.99	182.02
406.451	164.02
406.913	161.42
407.374	153.92
407.835	152.52
408.296	162.12
408.757	165.02
409.218	174.92
409.679	164.92
410.14	171.52
410.601	174.32
411.062	174.52
411.522	177.02
411.983	183.82
412.444	158.72
412.905	168.82
413.366	176.52
413.826	184.12
414.287	209.62
414.748	244.32
415.208	229.62
415.669	203.92
416.13	191.52
416.59	197.42
417.051	202.02
417.511	206.82
417.972	225.42
418.432	232.92
418.893	278.82
419.353	233.92
419.814	189.82
420.274	175.22
420.734	175.22
421.195	187.92
421.655	187.82
422.115	180.52
422.576	181.02
423.036	191.42
423.496	199.82
423.956	208.52
424.416	221.32
424.876	254.22
425.336	245.52
425.797	254.62
426.257	239.62
426.717	231.92
427.177	224.62
427.637	217.32
428.097	227.12
428.556	232.82
429.016	263.42
429.476	251.22
429.936	266.72
430.396	264.12
430.856	282.22
431.315	302.52
431.775	332.52
432.235	367.62
432.694	331.02
433.154	342.62
433.614	376.92
434.073	324.12
434.533	276.42
434.993	254.02
435.452	273.12
435.912	276.82
436.371	270.62
436.83	273.62
437.29	261.92
437.749	239.92
438.209	235.92
438.668	260.12
439.127	279.92
439.587	251.72
440.046	238.02
440.505	253.92
440.964	270.32
441.424	305.92
441.883	294.22
442.342	249.42
442.801	215.92
443.26	211.02
443.719	213.22
444.178	216.72
444.637	210.42
445.096	209.32
445.555	213.62
446.014	216.22
446.473	217.32
446.932	222.72
447.391	213.22
447.849	218.62
448.308	209.12
448.767	214.42
449.226	224.42
449.685	230.02
450.143	242.42
450.602	228.12
451.061	223.42
451.519	225.42
451.978	226.62
452.436	228.92
452.895	228.22
453.353	244.72
453.812	231.62
454.27	233.42
454.729	232.12
455.187	230.22
455.646	231.82
456.104	230.32
456.562	249.42
457.021	250.32
457.479	258.02
457.937	266.22
458.395	253.42
458.854	238.62
459.312	248.92
459.77	269.22
460.228	247.22
460.686	231.22
461.144	239.52
461.602	236.32
462.06	230.22
462.518	245.22
462.976	241.52
463.434	248.62
463.892	249.92
464.35	266.92
464.808	283.92
465.266	263.42
465.724	259.12
466.181	265.22
466.639	260.42
467.097	282.62
467.555	286.12
468.012	290.92
468.47	299.12
468.928	314.02
469.385	327.82
469.843	344.02
470.3	331.42
470.758	344.62
471.215	368.82
471.673	394.32
472.13	388.52
472.588	404.52
473.045	362.22
473.503	372.42
473.96	378.72
474.417	389.92
474.875	412.12
475.332	449.72
475.789	447.52
476.246	455.22
476.704	468.82
477.161	490.72
477.618	517.12
478.075	545.22
478.532	589.22
478.989	672.02
479.446	778.72
479.903	743.22
480.36	783.52
480.817	844.02
481.274	943.52
481.731	1035.12
482.188	1135.52
482.645	1266.53
483.102	1364.12
483.558	1481.02
484.015	1543.62
484.472	1509.72
484.929	1470.62
485.385	1428.52
485.842	1388.02
486.299	1318.32
486.755	1259.42
487.212	1060.92
487.668	894.02
488.125	818.72
488.582	751.62
489.038	718.62
489.494	688.22
489.951	664.02
490.407	647.32
490.864	632.12
491.32	626.32
491.776	629.52
492.233	627.42
492.689	582.52
493.145	588.22
493.602	586.72
494.058	592.92
494.514	602.52
494.97	625.42
495.426	625.62
495.882	600.32
496.338	594.72
496.794	601.12
497.251	599.22
497.707	619.42
498.163	615.02
498.618	629.92
499.074	627.32
499.53	665.62
499.986	652.52
500.442	634.42
500.898	606.52
501.354	601.92
501.809	622.32
502.265	624.72
502.721	648.32
503.177	655.42
503.632	651.32
504.088	658.12
504.543	691.52
504.999	690.12
505.455	643.12
505.91	617.22
506.366	622.52
506.821	612.82
507.277	608.42
507.732	603.42
508.187	614.32
508.643	620.62
509.098	625.42
509.553	638.22
510.009	655.22
510.464	650.52
510.919	671.62
511.375	673.42
511.83	687.12
512.285	703.92
512.74	739.02
513.195	762.72
513.65	752.72
514.105	738.72
514.56	747.82
515.015	779.72
515.47	791.62
515.925	770.72
516.38	762.72
516.835	772.12
517.29	760.82
517.745	754.42
518.2	755.32
518.655	732.32
519.109	732.12
519.564	722.12
520.019	711.82
520.474	709.62
520.928	710.02
521.383	704.92
521.838	696.92
522.292	693.92
522.747	693.62
523.201	693.52
523.656	681.42
524.11	686.22
524.565	679.52
525.019	690.22
525.474	688.32
525.928	683.52
526.382	676.32
526.837	682.72
527.291	688.52
527.745	685.22
528.2	681.22
528.654	676.02
529.108	679.72
529.562	667.12
530.016	678.12
530.47	669.82
530.925	676.62
531.379	683.32
531.833	693.02
532.287	683.02
532.741	687.02
533.195	688.22
533.649	703.02
534.103	699.92
534.556	695.72
535.01	690.72
535.464	690.92
535.918	696.22
536.372	692.62
536.826	701.72
537.279	698.52
537.733	702.72
538.187	712.02
538.64	696.92
539.094	714.12
539.548	718.72
540.001	714.02
540.455	705.02
540.908	715.62
541.362	729.92
541.815	738.12
542.269	746.82
542.722	738.32
543.175	758.72
543.629	760.12
544.082	765.92
544.536	777.42
544.989	767.02
545.442	791.72
545.895	778.22
546.349	773.32
546.802	787.62
547.255	782.32
547.708	789.32
548.161	799.22
548.614	806.62
549.067	815.12
549.52	801.52
549.973	798.02
550.426	790.52
550.879	775.12
551.332	784.92
551.785	785.52
552.238	785.22
552.691	796.42
553.144	828.22
553.596	829.72
554.049	843.82
554.502	871.62
554.955	897.52
555.407	884.22
555.86	885.92
556.313	876.82
556.765	862.82
557.218	865.72
557.67	865.52
558.123	855.72
558.576	853.02
559.028	858.92
559.48	870.22
559.933	864.62
560.385	823.72
560.838	794.92
561.29	767.02
561.742	762.92
562.195	753.72
562.647	749.62
563.099	760.02
563.551	766.42
564.004	763.82
564.456	759.22
564.908	765.32
565.36	730.42
565.812	713.32
566.264	711.32
566.716	722.72
567.168	695.72
567.62	710.62
568.072	688.72
568.524	684.42
568.976	682.92
569.428	676.32
569.88	665.32
570.332	682.02
570.784	672.52
571.235	673.12
571.687	683.42
572.139	689.42
572.59	698.72
573.042	699.62
573.494	704.42
573.945	698.22
574.397	681.12
574.849	676.02
575.3	678.52
575.752	672.32
576.203	672.32
576.655	679.32
577.106	666.02
577.557	664.12
578.009	664.12
578.46	653.62
578.912	656.02
579.363	663.02
579.814	663.82
580.265	654.82
580.717	666.52
581.168	669.32
581.619	676.62
582.07	672.02
582.521	679.22
582.972	664.32
583.423	662.32
583.875	675.42
584.326	685.72
584.777	744.52
585.227	813.52
585.678	904.02
586.129	996.12
586.58	1073.32
587.031	1152.92
587.482	1316.22
587.933	1480.32
588.384	1290.52
588.834	967.32
589.285	796.62
589.736	774.72
590.186	768.32
590.637	755.82
591.088	736.22
591.538	719.02
591.989	719.52
592.439	711.42
592.89	710.32
593.34	706.92
593.791	703.62
594.241	692.62
594.692	709.82
595.142	700.92
595.593	695.22
596.043	701.22
596.493	706.32
596.943	711.62
597.394	717.32
597.844	696.72
598.294	726.42
598.744	749.62
599.195	773.32
599.645	813.52
600.095	851.22
600.545	913.22
600.995	960.42
601.445	1014.42
601.895	1066.02
602.345	1123.32
602.795	1097.82
603.245	1055.12
603.695	997.32
604.145	954.02
604.594	902.32
605.044	853.62
605.494	793.32
605.944	736.62
606.393	732.52
606.843	720.62
607.293	725.82
607.743	730.12
608.192	735.12
608.642	755.82
609.091	756.12
609.541	751.72
609.99	761.22
610.44	757.32
610.889	714.72
611.339	696.92
611.788	689.42
612.238	698.32
612.687	707.72
613.136	723.12
613.586	728.42
614.035	736.82
614.484	757.92
614.933	757.92
615.383	738.62
615.832	727.42
616.281	719.22
616.73	681.52
617.179	653.82
617.628	635.72
618.077	628.72
618.526	619.62
618.975	609.82
619.424	607.12
619.873	605.42
620.322	626.52
620.771	601.62
621.22	601.72
621.669	588.62
622.118	588.32
622.567	576.32
623.015	573.62
623.464	561.12
623.913	568.52
624.361	548.52
624.81	546.72
625.259	553.22
625.707	557.42
626.156	550.12
626.604	559.42
627.053	560.32
627.501	559.02
627.95	564.22
628.398	570.32
628.847	569.52
629.295	559.42
629.744	568.02
630.192	568.72
630.64	565.12
631.089	570.52
631.537	575.22
631.985	585.12
632.433	593.02
632.881	603.92
633.33	662.62
633.778	645.12
634.226	566.92
634.674	567.62
635.122	576.62
635.57	599.82
636.018	615.52
636.466	576.52
636.914	560.12
637.362	577.92
637.81	574.62
638.258	579.32
638.705	573.62
639.153	599.82
639.601	606.82
640.049	641.12
640.497	668.42
640.944	698.32
641.392	637.82
641.84	605.72
642.287	588.12
642.735	567.82
643.182	575.72
643.63	573.12
644.078	569.32
644.525	591.92
644.973	590.42
645.42	604.52
645.867	618.52
646.315	621.62
646.762	657.22
647.21	687.22
647.657	712.32
648.104	755.62
648.551	777.22
648.999	826.32
649.446	924.42
649.893	1009.82
650.34	1157.82
650.787	1389.62
651.234	1731.22
651.682	2254.32
652.129	3114.12
652.576	4468.42
653.023	6596.93
653.47	9061.92
653.917	11258.73
654.363	12902.63
654.81	14226.93
655.257	13541.23
655.704	8847.02
656.151	5220.62
656.598	3384.92
657.044	2395.43
657.491	1847.42
657.938	1477.22
658.385	1231.12
658.831	1068.32
659.278	954.02
659.724	850.72
660.171	780.12
660.618	725.32
661.064	687.32
661.511	659.82
661.957	642.82
662.404	637.82
662.85	641.12
663.296	622.52
663.743	565.32
664.189	534.52
664.635	529.02
665.082	533.02
665.528	523.42
665.974	516.52
666.42	510.12
666.867	510.52
667.313	494.12
667.759	480.22
668.205	476.12
668.651	484.52
669.097	491.22
669.543	502.62
669.989	476.82
670.435	448.92
670.881	440.32
671.327	449.72
671.773	467.92
672.219	486.92
672.665	541.42
673.11	585.72
673.556	625.62
674.002	668.12
674.448	651.92
674.893	543.62
675.339	476.72
675.785	439.22
676.23	410.82
676.676	386.92
677.122	373.82
677.567	367.72
678.013	371.32
678.458	359.42
678.904	362.92
679.349	353.82
679.794	352.02
680.24	348.12
680.685	347.42
681.131	342.62
681.576	341.92
682.021	346.42
682.466	343.92
682.912	341.72
683.357	347.12
683.802	385.92
684.247	413.32
684.692	457.42
685.137	487.82
685.583	535.42
686.028	549.72
686.473	505.62
686.918	438.22
687.363	402.92
687.807	389.22
688.252	366.72
688.697	360.32
689.142	335.82
689.587	335.62
690.032	318.72
690.477	346.22
690.921	348.22
691.366	385.82
691.811	410.22
692.255	432.92
692.7	467.52
693.145	497.82
693.589	708.52
694.034	1145.62
694.478	1532.72
694.923	1711.82
695.367	2218.12
695.812	1187.12
696.256	498.52
696.701	378.72
697.145	346.92
697.59	322.82
698.034	322.72
698.478	327.72
698.922	323.42
699.367	332.32
699.811	340.62
700.255	349.62
700.699	382.22
701.143	426.42
701.588	481.22
702.032	511.12
702.476	514.62
702.92	486.12
703.364	488.62
703.808	644.52
704.252	1049.72
704.696	1461.83
705.14	1653.42
705.584	2101.32
706.027	1049.02
706.471	522.92
706.915	392.82
707.359	359.42
707.803	316.12
708.246	310.92
708.69	308.82
709.134	313.92
709.577	314.02
710.021	315.92
710.465	304.82
710.908	298.82
711.352	304.12
711.795	310.22
712.239	360.82
712.682	388.82
713.126	413.82
713.569	460.02
714.012	365.62
714.456	321.32
714.899	303.92
715.342	279.22
715.786	265.02
716.229	261.42
716.672	261.42
717.115	248.42
717.558	246.52
718.002	256.02
718.445	263.82
718.888	286.32
719.331	293.92
719.774	303.72
720.217	306.22
720.66	285.42
721.103	264.02
721.546	257.42
721.989	254.22
722.432	243.62
722.874	239.22
723.317	229.02
723.76	235.22
724.203	254.42
724.645	317.02
725.088	448.52
725.531	562.02
725.974	643.82
726.416	545.62
726.859	304.32
727.301	249.32
727.744	242.42
728.187	231.52
728.629	235.82
729.071	243.52
729.514	261.02
729.956	272.12
730.399	290.02
730.841	285.92
731.283	273.42
731.726	271.12
732.168	269.02
732.61	264.72
733.053	290.52
733.495	316.02
733.937	346.72
734.379	387.22
734.821	433.32
735.263	544.62
735.705	849.12
736.148	1600.32
736.59	2553.02
737.032	2993.32
737.474	2436.02
737.916	807.42
738.357	427.82
738.799	326.02
739.241	293.22
739.683	281.52
740.125	297.92
740.567	296.62
741.008	315.32
741.45	314.92
741.892	321.62
742.334	351.02
742.775	355.12
743.217	344.42
743.658	264.92
744.1	258.02
744.542	260.02
744.983	312.52
745.425	347.82
745.866	336.12
746.307	283.72
746.749	281.22
747.19	328.62
747.632	457.62
748.073	898.92
748.514	1864.72
748.956	2813.02
749.397	3535.32
749.838	2948.52
750.279	2893.22
750.72	1464.72
751.162	551.22
751.603	319.62
752.044	254.92
752.485	222.92
752.926	211.22
753.367	204.82
753.808	193.12
754.249	189.82
754.69	187.32
755.131	182.62
755.572	180.92
756.013	176.72
756.453	180.42
756.894	186.82
757.335	191.42
757.776	196.02
758.216	196.72
758.657	195.02
759.098	208.92
759.538	223.02
759.979	266.02
760.42	382.42
760.86	722.32
761.301	1865.12
761.741	4435.83
762.182	6325.12
762.622	4433.02
763.063	1292.62
763.503	539.12
763.943	340.22
764.384	344.92
764.824	407.92
765.264	435.22
765.705	301.62
766.145	209.12
766.585	187.62
767.025	180.82
767.465	188.82
767.906	241.12
768.346	319.02
768.786	335.42
769.226	268.52
769.666	325.92
770.106	629.32
770.546	1565.92
770.986	2627.72
771.426	2324.32
771.866	785.92
772.306	331.82
772.745	216.72
773.185	175.02
773.625	176.12
774.065	165.62
774.505	201.02
774.944	323.42
775.384	685.12
775.824	1206.42
776.263	1172.32
776.703	503.92
777.142	213.02
777.582	155.72
778.021	141.12
778.461	144.02
778.9	142.62
779.34	138.82
779.779	121.52
780.219	114.32
780.658	112.62
781.097	121.02
781.537	113.92
781.976	111.42
782.415	107.42
782.855	105.12
783.294	106.92
783.733	109.22
784.172	108.62
784.611	102.32
785.05	110.42
785.489	113.82
785.928	119.92
786.367	123.02
786.806	118.12
787.245	137.52
787.684	136.12
788.123	146.12
788.562	128.92
789.001	127.02
789.44	120.42
789.879	115.72
790.317	123.72
790.756	128.92
791.195	130.02
791.634	149.82
792.072	203.22
792.511	375.82
792.95	1022.72
793.388	2141.92
793.827	1900.02
794.265	670.62
794.704	287.42
795.142	184.62
795.581	155.02
796.019	140.82
796.458	128.12
796.896	122.92
797.334	128.92
797.773	153.32
798.211	223.22
798.649	448.32
799.087	1024.52
799.526	1587.82
799.964	2007.72
800.402	1968.12
800.84	746.02
801.278	306.52
801.716	187.92
802.154	152.52
802.592	146.52
803.03	140.72
803.468	142.52
803.906	139.12
804.344	155.92
804.782	136.62
805.22	133.12
805.658	133.42
806.096	151.02
806.533	154.52
806.971	176.12
807.409	219.02
807.847	318.32
808.284	666.22
808.722	1873.02
809.16	3252.22
809.597	3135.22
810.035	5412.02
810.472	5660.62
810.91	2055.53
811.347	788.62
811.785	389.22
812.222	255.42
812.66	201.92
813.097	159.72
813.535	136.12
813.972	131.82
814.409	120.92
814.846	104.32
815.284	105.42
815.721	103.72
816.158	106.42
816.595	123.82
817.032	181.72
817.47	204.62
817.907	163.42
818.344	152.12
818.781	126.82
819.218	105.02
819.655	122.32
820.092	187.42
820.529	213.12
820.966	179.92
821.403	128.82
821.839	112.62
822.276	98.32
822.713	120.52
823.15	132.42
823.587	123.42
824.023	151.82
824.46	304.92
824.897	907.92
825.333	1324.42
825.77	576.22
826.206	232.22
826.643	132.82
827.08	108.22
827.516	83.82
827.953	74.72
828.389	84.52
828.825	73.32
829.262	69.42
829.698	68.42
830.135	68.42
830.571	64.52
831.007	67.62
831.443	63.12
831.88	65.22
832.316	64.92
832.752	64.92
833.188	67.62
833.624	65.62
834.06	66.32
834.497	68.82
834.933	78.52
835.369	74.92
835.805	73.52
836.241	73.22
836.677	86.22
837.112	89.22
837.548	98.02
837.984	132.72
838.42	205.22
838.856	499.32
839.292	1519.62
839.727	2262.32
840.163	1052.12
840.599	934.92
841.034	2027.42
841.47	2070.42
841.906	770.52
842.341	334.82
842.777	225.02
843.212	318.52
843.648	307.12
844.083	154.02
844.519	93.12
844.954	76.82
845.39	58.82
845.825	57.82
846.261	61.52
846.696	52.62
847.131	55.52
847.566	63.12
848.002	55.92
848.437	54.82
848.872	61.32
849.307	60.52
849.742	90.52
850.177	183.52
850.613	563.02
851.048	861.32
851.483	376.12
851.918	153.82
852.353	92.72
852.788	62.82
853.223	55.32
853.657	54.72
854.092	45.92
854.527	43.62
854.962	43.62
855.397	52.82
855.832	52.22
856.266	34.92
856.701	44.82
857.136	39.22
857.57	37.62
858.005	49.52
858.44	62.22
858.874	45.52
859.309	54.32
859.743	43.12
860.178	46.82
860.612	47.82
861.047	59.82
861.481	59.82
861.915	74.32
862.35	51.12
862.784	38.82
863.218	36.62
863.653	32.42
864.087	43.42
864.521	56.52
864.955	74.12
865.39	155.02
865.824	175.12
866.258	111.82
866.692	159.92
867.126	174.92
867.56	103.62
867.994	53.12
868.428	35.22
868.862	48.12
869.296	56.12
869.73	54.42
870.164	57.82
870.598	54.32
871.031	39.32
871.465	30.92
871.899	30.92
872.333	23.62
872.766	28.62
873.2	28.12
873.634	31.32
874.067	30.92
874.501	23.82
874.935	31.92
875.368	29.82
875.802	27.72
876.235	21.22
876.669	24.92
877.102	22.92
877.535	27.52
877.969	24.42
878.402	26.92
878.836	21.22
879.269	24.32
879.702	24.62
880.135	19.02
880.569	21.12
881.002	28.62
881.435	18.62
881.868	19.32
882.301	26.32
882.734	16.92
883.167	23.42
883.601	17.22
884.034	22.92
884.467	14.72
884.899	16.72
885.332	16.22
885.765	15.02
886.198	19.02
886.631	21.82
887.064	20.42
887.497	21.72
887.929	24.12
888.362	11.62
888.795	14.02
889.228	13.92
889.66	22.82
890.093	18.82
890.526	16.32
890.958	13.72
891.391	18.22
891.823	27.22
892.256	23.62
892.688	11.62
893.121	15.92
893.553	17.42
893.985	20.32
894.418	15.92
894.85	18.12
895.282	16.52
895.715	16.12
896.147	19.32
896.579	19.62
897.011	19.72
897.444	23.12
897.876	14.62
898.308	18.92
898.74	18.22
899.172	14.32
899.604	23.12
900.036	18.12
900.468	13.82
900.9	16.42
901.332	19.72
901.764	13.92
902.196	20.52
902.628	17.62
903.06	18.72
903.491	33.62
903.923	23.22
904.355	17.92
904.787	24.32
905.218	19.82
905.65	23.92
906.082	14.92
906.513	17.42
906.945	17.32
907.376	14.52
907.808	17.72
908.239	21.42
908.671	22.82
909.102	26.02
909.534	29.52
909.965	48.92
910.397	94.52
910.828	306.32
911.259	466.62
911.691	225.12
912.122	107.12
912.553	50.72
912.984	37.12
913.415	33.72
913.847	23.12
914.278	16.62
914.709	12.42
915.14	16.12
915.571	13.72
916.002	13.62
916.433	18.92
916.864	22.02
917.295	21.42
917.726	24.52
918.157	19.62
918.587	25.02
919.018	21.72
919.449	22.92
919.88	26.62
920.311	32.92
920.741	45.32
921.172	168.62
921.603	157.62
922.033	68.22
922.464	49.62
922.895	23.02
923.325	15.02
923.756	16.42
924.186	19.82
924.617	29.92
925.047	40.62
925.478	48.92
925.908	44.52
926.338	24.12
926.769	17.32
927.199	22.52
927.629	8.92
928.06	11.62
928.49	12.52
928.92	15.02
929.35	10.02
929.78	10.92
930.21	5.22
930.641	9.62
931.071	8.52
931.501	3.62
931.931	9.52
932.361	10.42
932.791	7.22
933.221	11.92
933.651	5.32
934.08	13.92
934.51	32.32
934.94	12.42
935.37	10.62
935.8	10.12
936.229	7.42
936.659	10.72
937.089	-0.68
937.519	13.82
937.948	24.52
938.378	21.02
938.807	6.22
939.237	3.92
939.666	14.02
940.096	-3.08
940.525	5.72
940.955	1.02
941.384	-2.08
941.814	-2.98
942.243	-7.88
942.672	3.12
943.102	0.02
943.531	8.32
943.96	7.02
944.39	2.72
944.819	5.02
945.248	8.92
945.677	8.42
946.106	7.22
946.535	8.22
946.964	-0.38
947.393	2.32
947.822	3.92
948.251	-2.28
948.68	4.42
949.109	6.42
949.538	6.72
949.967	-1.58
950.396	0.72
950.825	-4.18
951.254	-0.28
951.682	-4.68
952.111	5.02
952.54	3.92
952.969	-2.68
953.397	1.22
953.826	6.12
954.254	-2.88
954.683	4.42
955.112	1.72
955.54	3.22
955.969	-0.58
956.397	-4.18
956.826	0.02
957.254	0.82
957.682	6.82
958.111	1.42
958.539	0.02
958.967	1.02
959.396	0.02
959.824	0.42
960.252	3.52
960.68	-5.78
961.109	-4.88
961.537	-4.08
961.965	-1.58
962.393	6.92
962.821	-3.18
963.249	2.32
963.677	6.02
964.105	9.02
964.533	42.92
964.961	34.02
965.389	22.62
965.817	10.62
966.245	7.72
966.672	0.02
967.1	-1.68
967.528	-6.38
967.956	3.62
968.383	4.22
968.811	-3.18
969.239	1.52
969.666	-3.68
970.094	0.12
970.522	-2.48
970.949	-2.08
971.377	-4.68
971.804	-0.78
972.232	-0.18
972.659	-2.18
973.087	-4.78
973.514	-4.28
973.941	-5.48
974.369	2.12
974.796	1.32
975.223	0.12
975.651	4.82
976.078	7.22
976.505	4.42
976.932	9.72
977.359	12.02
977.786	18.92
978.214	6.02
978.641	-4.98
979.068	-1.68
979.495	-5.38
979.922	-0.18
980.349	-7.88
980.776	8.02
981.202	-4.68
981.629	9.52
982.056	5.32
982.483	-1.88
982.91	1.82
983.337	-2.78
983.763	6.82
984.19	-5.48
984.617	-2.88
985.043	-6.48
985.47	-1.08
985.897	-0.78
986.323	-6.08
986.75	1.92
987.176	2.32
987.603	-2.58
988.029	0.02
988.456	-2.68
988.882	0.82
989.308	-7.28
989.735	-0.08
990.161	3.92
990.587	-10.58
991.014	-7.68
991.44	9.82
991.866	-0.98
992.292	-0.68
992.719	-4.58
993.145	3.12
993.571	-10.48
993.997	-1.68
994.423	-3.58
994.849	0.52
995.275	4.92
995.701	-1.98
996.127	-1.68
996.553	6.52
996.979	-1.08
997.405	-2.88
997.83	-8.68
998.256	-3.38
998.682	-0.88
999.108	-9.28
999.534	-2.88
999.959	3.82
1000.385	-0.98
1000.811	4.72
1001.236	-7.38
1001.662	-3.78
1002.087	-3.68
1002.513	1.72
1002.938	5.62
1003.364	-2.98
1003.789	-2.18
1004.215	2.92
1004.64	-1.08
1005.066	5.42
1005.491	4.22
1005.916	-4.78
1006.342	-3.58
1006.767	-5.88
1007.192	1.92
1007.617	-5.18
1008.042	-7.38
1008.468	-7.28
1008.893	-1.58
1009.318	2.02
1009.743	-6.68
1010.168	-0.88
1010.593	-1.28
1011.018	-5.88
1011.443	-2.28
1011.868	3.82
1012.293	-2.58
1012.718	-2.18
1013.143	1.12
1013.567	-1.18
1013.992	-6.78
1014.417	-12.88
1014.842	-0.38
1015.267	-7.68
1015.691	-5.48
1016.116	10.32
1016.541	0.72
1016.965	2.72
1017.39	5.52
1017.814	-0.88
1018.239	-3.08
1018.663	-6.98
1019.088	-8.08
1019.512	-1.28
1019.937	-2.88
1020.361	-6.28
1020.785	-3.48
1021.21	-1.28
1021.634	-1.68
1022.058	3.92
1022.483	2.12
1022.907	-1.88
1023.331	-7.78
1023.755	-5.48
1024.179	-2.58
1024.604	-5.18
1025.028	-3.88
1025.452	-3.28
1025.876	-4.48
1026.3	0.62
1026.724	-13.88
1027.148	-6.28
1027.572	-2.18
1027.996	-3.88
1028.42	3.22
1028.843	-4.98
1029.267	-0.58
1029.691	-4.78
1030.115	-8.58
1030.539	-3.38
1030.962	0.22
1031.386	-10.58
1031.81	1.22
1032.233	2.02
1032.657	0.82
1033.08	-3.68
1033.504	-0.88
1033.927	2.12
1034.351	0.12
1034.774	-6.38
1035.198	1.72
1035.621	-5.68
1036.045	-2.78
1036.468	4.02
1036.891	-8.18
1037.315	-7.08
1037.738	-6.98
1038.161	1.82
1038.584	-8.28
1039.008	0.02
1039.431	-0.98
1039.854	0.52
1040.277	-11.88
1040.7	-10.28
1041.123	0.62
1041.546	-8.98
1041.969	-3.98
1042.392	-4.08
1042.815	-3.78
1043.238	2.12
1043.661	-2.08
1044.084	-9.58
1044.507	-3.38
1044.93	-6.48
1045.352	-3.38
1045.775	-4.78
1046.198	4.12
1046.621	0.72
1047.043	-4.68
1047.466	5.12
1047.889	-3.48
1048.311	-7.98
1048.734	-2.78
1049.156	-3.98
1049.579	-0.58
1050.001	-8.28
1050.424	-2.98
1050.846	-4.08
1051.269	-7.28
1051.691	-7.68
1052.113	-3.78
1052.536	-4.58
1052.958	-3.58
1053.38	-4.88
1053.802	-12.48
1054.225	1.02
1054.647	-12.18
1055.069	-5.68
1055.491	2.32
1055.913	-8.58
1056.335	-0.98
1056.757	-5.38
1057.179	-10.48
1057.601	-6.68
1058.023	-0.38
1058.445	-2.78
1058.867	-2.38
1059.289	-7.38
1059.711	-5.48
1060.133	-1.88
1060.555	-3.08
1060.976	-9.08
1061.398	-9.98
1061.82	-4.28
1062.241	-0.68
1062.663	-3.98
1063.085	-5.68
1063.506	-4.78
1063.928	-6.58
1064.35	0.42
1064.771	-15.38
1065.193	-4.08
1065.614	-3.88
1066.035	-2.28
1066.457	-3.08
1066.878	1.02
1067.3	-11.68
1067.721	-5.68
1068.142	-4.98
1068.564	-1.18
1068.985	-5.08
1069.406	-4.48
1069.827	-5.38
1070.248	2.22
1070.67	-4.78
1071.091	-11.98
1071.512	-7.58
1071.933	-6.88
1072.354	-10.98
1072.775	-2.98
1073.196	-6.28
1073.617	-4.08
1074.038	-5.78
1074.459	-3.28
1074.88	-9.28
1075.3	0.92
1075.721	-5.58
1076.142	5.02
1076.563	-0.08
1076.983	-6.38
1077.404	-3.28
1077.825	-9.58
1078.246	-9.48
1078.666	-12.38
1079.087	-4.08
1079.507	-2.88
1079.928	-1.98
1080.348	3.32
1080.769	-8.68
1081.189	-1.08
1081.61	-5.78
1082.03	-5.58
1082.451	-8.98
1082.871	-7.88
1083.291	-5.38
1083.711	-7.08
1084.132	-6.08
1084.552	-6.18
1084.972	-3.18
1085.392	-12.18
1085.813	-8.78
1086.233	-5.48
1086.653	-3.08
1087.073	-5.58
1087.493	-11.28
1087.913	-8.58
1088.333	-9.08
1088.753	-6.08
1089.173	1.12
1089.593	-1.28
1090.013	-3.78
1090.433	2.72
1090.852	-5.68
1091.272	-3.78
1091.692	-2.08
1092.112	-7.08
1092.531	-9.98
1092.951	-9.58
1093.371	-1.28
1093.79	0.32
1094.21	-5.18
1094.63	-4.58
1095.049	-7.98
1095.469	2.82
1095.888	-0.58
1096.308	-3.88
1096.727	4.02
1097.146	-6.38
1097.566	-1.78
1097.985	-4.28
1098.405	0.62
1098.824	-7.38
1099.243	-4.28
1099.662	-5.68
1100.082	-6.48
1100.501	-1.38
1100.92	-6.78
1101.339	-6.28
1101.758	-2.08
