Data from 20171114-ORNL-Ar_H_NY_Subt18_08-05-41-698.txt Node
Date: Tue Nov 14 08:05:41 EST 2017
User: Ender
Spectrometer: HR+D1039
Trigger mode: 0
Integration Time (sec): 2.730000E-2
Scans to average: 10
Electric dark correction enabled: true
Nonlinearity correction enabled: false
Boxcar width: 0
XAxis mode: Wavelengths
Number of Pixels in Spectrum: 2048
>>>>>Begin Spectral Data<<<<<
187.836	0.82
188.309	0.82
188.782	0.82
189.255	0.42
189.728	-0.48
190.201	-0.18
190.674	1.22
191.147	-3.38
191.619	-7.68
192.092	0.12
192.565	3.42
193.038	-1.68
193.511	-1.88
193.984	4.52
194.456	4.42
194.929	-0.68
195.402	0.42
195.874	0.62
196.347	-5.68
196.82	-4.68
197.292	1.52
197.765	-4.28
198.237	-9.28
198.71	2.12
199.182	-7.68
199.655	-5.98
200.127	-0.98
200.6	0.62
201.072	-5.28
201.544	-5.48
202.017	-0.88
202.489	-0.48
202.961	-4.38
203.433	-5.08
203.906	-5.08
204.378	-3.78
204.85	-5.88
205.322	-5.38
205.794	-3.38
206.266	-4.48
206.739	-11.78
207.211	0.62
207.683	-10.28
208.155	-5.18
208.627	-5.18
209.099	1.52
209.57	-10.48
210.042	-5.18
210.514	-5.18
210.986	-4.88
211.458	-9.48
211.93	-5.28
212.402	0.02
212.873	-4.28
213.345	-8.28
213.817	-6.48
214.288	-5.38
214.76	-9.78
215.232	-2.98
215.703	-4.28
216.175	-5.18
216.646	-0.18
217.118	-7.18
217.589	-6.28
218.061	0.42
218.532	-2.98
219.004	-1.58
219.475	-5.78
219.946	-2.28
220.418	-4.98
220.889	3.62
221.36	-1.28
221.832	-1.68
222.303	-4.98
222.774	-5.38
223.245	-11.98
223.717	-9.08
224.188	-1.28
224.659	-10.58
225.13	-6.88
225.601	-0.58
226.072	-3.58
226.543	1.02
227.014	0.32
227.485	-4.08
227.956	-11.38
228.427	-6.48
228.898	-4.28
229.369	4.02
229.839	-3.28
230.31	-4.08
230.781	1.32
231.252	-2.18
231.722	-6.68
232.193	-2.38
232.664	-1.38
233.135	0.22
233.605	2.12
234.076	-6.28
234.546	4.72
235.017	3.12
235.487	5.12
235.958	-1.78
236.428	-1.18
236.899	6.62
237.369	1.62
237.84	0.62
238.31	-0.98
238.78	4.52
239.251	-0.08
239.721	5.72
240.191	1.32
240.662	0.22
241.132	0.22
241.602	-0.08
242.072	2.82
242.542	3.32
243.013	0.12
243.483	7.72
243.953	0.52
244.423	1.72
244.893	-6.18
245.363	5.02
245.833	4.42
246.303	-5.68
246.773	5.52
247.243	0.42
247.712	4.62
248.182	3.82
248.652	5.02
249.122	-4.18
249.592	6.72
250.061	25.92
250.531	35.62
251.001	15.42
251.471	19.42
251.94	23.12
252.41	8.42
252.879	1.92
253.349	11.82
253.818	8.12
254.288	-0.28
254.757	5.92
255.227	1.22
255.696	7.62
256.166	7.02
256.635	8.12
257.105	12.02
257.574	12.42
258.043	9.02
258.513	11.72
258.982	13.82
259.451	8.22
259.92	13.12
260.389	8.62
260.859	16.42
261.328	15.82
261.797	21.42
262.266	10.12
262.735	14.82
263.204	11.62
263.673	2.22
264.142	9.72
264.611	-3.98
265.08	0.82
265.549	-0.08
266.018	5.02
266.487	-3.38
266.955	5.32
267.424	1.52
267.893	9.52
268.362	3.32
268.83	8.52
269.299	9.92
269.768	6.32
270.236	5.62
270.705	8.62
271.174	5.22
271.642	7.72
272.111	12.82
272.579	16.82
273.048	27.82
273.516	32.62
273.985	31.82
274.453	29.82
274.922	18.42
275.39	13.52
275.858	5.62
276.327	12.62
276.795	23.72
277.263	12.12
277.731	31.82
278.2	56.02
278.668	63.12
279.136	50.72
279.604	18.42
280.072	17.12
280.54	16.12
281.008	12.32
281.477	15.32
281.945	19.22
282.413	19.62
282.881	18.02
283.348	4.72
283.816	12.62
284.284	13.12
284.752	25.12
285.22	15.02
285.688	15.02
286.156	15.82
286.623	49.62
287.091	56.52
287.559	32.12
288.026	20.32
288.494	22.02
288.962	8.12
289.429	14.92
289.897	23.62
290.364	17.82
290.832	25.72
291.3	15.42
291.767	22.92
292.234	18.82
292.702	10.42
293.169	19.42
293.637	22.12
294.104	19.42
294.571	11.62
295.039	18.32
295.506	17.82
295.973	16.22
296.44	19.22
296.908	18.92
297.375	20.52
297.842	21.02
298.309	20.22
298.776	16.92
299.243	22.62
299.71	18.32
300.177	24.22
300.644	28.52
301.111	24.22
301.578	26.42
302.045	20.12
302.512	23.42
302.979	29.82
303.446	23.22
303.913	21.52
304.379	21.72
304.846	23.22
305.313	30.22
305.78	25.62
306.246	29.92
306.713	28.42
307.18	30.42
307.646	29.42
308.113	32.32
308.579	26.62
309.046	27.82
309.512	29.72
309.979	25.02
310.445	29.32
310.912	28.02
311.378	33.02
311.845	32.02
312.311	37.02
312.777	36.62
313.244	28.72
313.71	40.32
314.176	31.02
314.642	35.92
315.109	32.42
315.575	36.42
316.041	41.62
316.507	35.42
316.973	39.02
317.439	37.52
317.905	34.12
318.371	37.02
318.837	37.82
319.303	33.42
319.769	34.72
320.235	33.02
320.701	36.82
321.167	40.82
321.633	33.62
322.099	39.82
322.564	48.02
323.03	42.52
323.496	40.92
323.962	41.52
324.427	36.72
324.893	43.82
325.359	36.32
325.824	42.12
326.29	43.72
326.755	44.82
327.221	46.22
327.686	44.42
328.152	45.52
328.617	38.52
329.083	51.22
329.548	44.82
330.014	47.72
330.479	39.82
330.944	46.02
331.41	51.22
331.875	46.02
332.34	44.12
332.805	42.02
333.271	50.82
333.736	50.32
334.201	55.52
334.666	52.72
335.131	56.72
335.596	51.52
336.061	53.42
336.526	47.22
336.991	49.12
337.456	62.12
337.921	53.62
338.386	42.32
338.851	46.32
339.316	46.72
339.781	45.92
340.246	50.42
340.711	50.42
341.175	50.72
341.64	50.22
342.105	53.12
342.569	59.42
343.034	58.92
343.499	57.52
343.963	55.52
344.428	62.12
344.893	62.22
345.357	66.22
345.822	66.12
346.286	68.92
346.751	77.02
347.215	79.92
347.679	82.72
348.144	96.02
348.608	83.22
349.073	78.32
349.537	82.72
350.001	89.72
350.465	89.62
350.93	85.22
351.394	82.92
351.858	78.12
352.322	90.12
352.786	86.12
353.25	106.02
353.715	109.72
354.179	96.82
354.643	126.72
355.107	133.82
355.571	111.82
356.035	103.92
356.498	120.72
356.962	124.92
357.426	135.02
357.89	121.82
358.354	87.52
358.818	82.52
359.281	78.82
359.745	78.92
360.209	77.72
360.673	77.52
361.136	82.62
361.6	81.52
362.064	80.62
362.527	92.22
362.991	94.52
363.454	80.72
363.918	75.42
364.381	84.72
364.845	84.42
365.308	86.42
365.772	88.02
366.235	87.52
366.698	84.92
367.162	86.72
367.625	90.32
368.088	88.92
368.552	92.52
369.015	88.92
369.478	97.32
369.941	98.72
370.404	101.52
370.867	106.42
371.331	109.22
371.794	114.32
372.257	111.02
372.72	116.92
373.183	118.92
373.646	100.72
374.109	104.62
374.572	110.02
375.035	114.62
375.497	110.72
375.96	105.62
376.423	102.72
376.886	112.52
377.349	109.12
377.811	102.22
378.274	110.02
378.737	104.32
379.199	116.32
379.662	112.22
380.125	119.22
380.587	115.32
381.05	119.92
381.512	124.82
381.975	134.32
382.437	123.02
382.9	124.92
383.362	132.12
383.825	143.22
384.287	151.12
384.75	137.62
385.212	143.92
385.674	138.32
386.136	137.92
386.599	124.72
387.061	129.32
387.523	128.42
387.985	131.62
388.447	150.22
388.91	145.62
389.372	157.82
389.834	153.62
390.296	146.22
390.758	158.92
391.22	165.32
391.682	209.92
392.144	293.62
392.606	224.22
393.068	168.02
393.529	161.32
393.991	153.12
394.453	148.02
394.915	156.12
395.377	193.12
395.838	217.32
396.3	153.72
396.762	142.42
397.224	130.02
397.685	127.32
398.147	130.92
398.608	125.92
399.07	128.72
399.531	136.22
399.993	138.02
400.454	150.42
400.916	152.62
401.377	139.72
401.839	148.22
402.3	152.42
402.762	172.42
403.223	175.02
403.684	172.72
404.145	161.22
404.607	162.72
405.068	164.52
405.529	171.92
405.99	189.52
406.451	176.52
406.913	178.72
407.374	158.92
407.835	164.02
408.296	164.52
408.757	180.12
409.218	186.62
409.679	187.82
410.14	180.02
410.601	182.22
411.062	186.82
411.522	188.12
411.983	194.52
412.444	169.82
412.905	185.92
413.366	182.52
413.826	189.52
414.287	219.12
414.748	266.42
415.208	253.92
415.669	211.82
416.13	199.12
416.59	195.12
417.051	211.12
417.511	217.12
417.972	235.92
418.432	243.62
418.893	279.42
419.353	253.02
419.814	199.12
420.274	186.22
420.734	187.12
421.195	198.52
421.655	199.52
422.115	190.52
422.576	193.82
423.036	195.22
423.496	212.22
423.956	219.12
424.416	239.22
424.876	265.72
425.336	263.22
425.797	261.32
426.257	261.12
426.717	239.12
427.177	228.12
427.637	227.02
428.097	230.42
428.556	250.42
429.016	274.72
429.476	259.52
429.936	274.82
430.396	277.82
430.856	297.52
431.315	324.62
431.775	349.52
432.235	385.52
432.694	349.52
433.154	363.22
433.614	390.82
434.073	334.72
434.533	285.02
434.993	272.12
435.452	286.82
435.912	299.92
436.371	287.02
436.83	287.22
437.29	276.62
437.749	257.12
438.209	248.02
438.668	277.32
439.127	291.92
439.587	263.82
440.046	247.92
440.505	260.02
440.964	282.42
441.424	329.52
441.883	317.32
442.342	265.42
442.801	227.32
443.26	222.82
443.719	228.82
444.178	218.22
444.637	206.12
445.096	225.52
445.555	226.92
446.014	227.32
446.473	226.62
446.932	231.32
447.391	224.12
447.849	230.52
448.308	225.02
448.767	217.92
449.226	239.52
449.685	243.62
450.143	253.12
450.602	243.52
451.061	229.52
451.519	235.32
451.978	233.12
452.436	235.72
452.895	243.62
453.353	255.92
453.812	236.72
454.27	240.52
454.729	242.72
455.187	245.82
455.646	248.02
456.104	253.02
456.562	266.72
457.021	276.92
457.479	258.42
457.937	282.92
458.395	260.82
458.854	255.12
459.312	261.02
459.77	282.02
460.228	250.82
460.686	241.22
461.144	248.82
461.602	249.52
462.06	245.72
462.518	264.62
462.976	255.82
463.434	256.52
463.892	270.32
464.35	276.82
464.808	289.02
465.266	274.82
465.724	268.92
466.181	278.22
466.639	273.82
467.097	297.12
467.555	303.12
468.012	304.62
468.47	306.82
468.928	331.12
469.385	348.42
469.843	357.92
470.3	359.62
470.758	364.72
471.215	396.62
471.673	416.12
472.13	419.82
472.588	424.02
473.045	368.42
473.503	386.62
473.96	401.82
474.417	409.72
474.875	439.52
475.332	478.32
475.789	470.52
476.246	471.52
476.704	494.62
477.161	503.42
477.618	524.82
478.075	570.42
478.532	619.42
478.989	703.92
479.446	812.62
479.903	786.02
480.36	819.22
480.817	883.72
481.274	987.62
481.731	1078.62
482.188	1184.52
482.645	1310.42
483.102	1430.32
483.558	1560.62
484.015	1615.32
484.472	1594.12
484.929	1540.32
485.385	1491.62
485.842	1455.82
486.299	1394.42
486.755	1323.02
487.212	1112.12
487.668	936.52
488.125	870.72
488.582	788.32
489.038	759.02
489.494	725.02
489.951	694.92
490.407	666.22
490.864	659.52
491.32	657.22
491.776	664.02
492.233	666.92
492.689	625.92
493.145	615.52
493.602	600.02
494.058	616.52
494.514	624.02
494.97	648.92
495.426	662.72
495.882	638.32
496.338	626.62
496.794	642.52
497.251	637.52
497.707	652.72
498.163	651.12
498.618	659.92
499.074	661.92
499.53	683.82
499.986	695.32
500.442	653.82
500.898	638.02
501.354	635.12
501.809	644.22
502.265	663.42
502.721	668.72
503.177	690.12
503.632	674.42
504.088	688.22
504.543	725.72
504.999	721.32
505.455	675.62
505.91	642.52
506.366	628.12
506.821	632.12
507.277	635.22
507.732	640.32
508.187	638.82
508.643	647.22
509.098	646.22
509.553	670.62
510.009	675.62
510.464	674.72
510.919	703.62
511.375	704.92
511.83	723.32
512.285	729.12
512.74	770.92
513.195	801.82
513.65	782.42
514.105	784.12
514.56	785.62
515.015	809.92
515.47	814.72
515.925	801.72
516.38	790.82
516.835	805.42
517.29	796.52
517.745	794.42
518.2	779.12
518.655	766.62
519.109	762.92
519.564	754.22
520.019	744.92
520.474	743.52
520.928	749.12
521.383	729.72
521.838	730.82
522.292	725.02
522.747	715.02
523.201	718.62
523.656	708.02
524.11	698.72
524.565	698.72
525.019	689.62
525.474	707.92
525.928	717.42
526.382	698.52
526.837	709.52
527.291	719.42
527.745	710.12
528.2	710.92
528.654	702.32
529.108	702.22
529.562	698.92
530.016	709.62
530.47	703.22
530.925	702.02
531.379	709.52
531.833	717.52
532.287	715.02
532.741	724.92
533.195	719.72
533.649	720.42
534.103	732.72
534.556	725.32
535.01	728.22
535.464	713.32
535.918	732.62
536.372	727.42
536.826	723.32
537.279	712.72
537.733	728.72
538.187	726.52
538.64	728.22
539.094	729.02
539.548	737.32
540.001	729.02
540.455	730.72
540.908	740.32
541.362	744.82
541.815	752.62
542.269	772.92
542.722	767.12
543.175	774.52
543.629	777.92
544.082	791.82
544.536	806.22
544.989	804.72
545.442	806.22
545.895	801.22
546.349	795.52
546.802	803.42
547.255	800.42
547.708	810.52
548.161	821.22
548.614	833.32
549.067	835.22
549.52	825.82
549.973	814.22
550.426	819.42
550.879	810.82
551.332	812.92
551.785	807.42
552.238	819.52
552.691	829.42
553.144	846.52
553.596	856.42
554.049	869.52
554.502	903.02
554.955	931.82
555.407	928.22
555.86	910.72
556.313	903.52
556.765	897.22
557.218	892.92
557.67	895.82
558.123	876.42
558.576	877.62
559.028	888.82
559.48	895.22
559.933	884.42
560.385	842.82
560.838	813.02
561.29	795.52
561.742	802.52
562.195	773.92
562.647	780.92
563.099	790.42
563.551	789.02
564.004	788.12
564.456	778.52
564.908	774.02
565.36	759.32
565.812	747.12
566.264	737.32
566.716	739.92
567.168	732.22
567.62	726.12
568.072	714.52
568.524	704.52
568.976	697.82
569.428	677.02
569.88	680.12
570.332	684.02
570.784	684.02
571.235	687.22
571.687	703.62
572.139	710.82
572.59	723.02
573.042	716.32
573.494	716.22
573.945	711.02
574.397	691.52
574.849	695.02
575.3	698.72
575.752	684.92
576.203	683.22
576.655	685.82
577.106	678.92
577.557	676.32
578.009	673.92
578.46	676.12
578.912	668.52
579.363	674.02
579.814	667.72
580.265	663.12
580.717	673.82
581.168	669.02
581.619	684.72
582.07	690.12
582.521	676.72
582.972	678.42
583.423	686.52
583.875	686.02
584.326	698.22
584.777	743.52
585.227	827.82
585.678	903.02
586.129	993.92
586.58	1072.52
587.031	1142.92
587.482	1304.92
587.933	1478.72
588.384	1279.02
588.834	970.42
589.285	810.42
589.736	782.92
590.186	761.82
590.637	766.22
591.088	738.92
591.538	741.62
591.989	729.22
592.439	735.02
592.89	719.32
593.34	711.22
593.791	711.92
594.241	697.92
594.692	721.92
595.142	710.82
595.593	701.92
596.043	708.72
596.493	715.92
596.943	717.42
597.394	723.92
597.844	714.12
598.294	720.22
598.744	746.02
599.195	769.22
599.645	804.92
600.095	856.02
600.545	911.72
600.995	969.32
601.445	1026.72
601.895	1079.22
602.345	1137.12
602.795	1113.22
603.245	1071.82
603.695	1008.02
604.145	956.12
604.594	914.72
605.044	860.62
605.494	800.42
605.944	745.02
606.393	739.22
606.843	720.52
607.293	738.02
607.743	735.82
608.192	733.32
608.642	755.62
609.091	759.92
609.541	766.12
609.99	775.92
610.44	764.22
610.889	720.72
611.339	697.42
611.788	685.02
612.238	692.82
612.687	716.92
613.136	721.52
613.586	737.22
614.035	730.52
614.484	749.82
614.933	752.02
615.383	742.32
615.832	739.32
616.281	718.02
616.73	673.12
617.179	654.62
617.628	645.02
618.077	626.42
618.526	621.12
618.975	614.82
619.424	607.82
619.873	612.52
620.322	618.72
620.771	601.52
621.22	603.02
621.669	586.52
622.118	575.52
622.567	578.72
623.015	572.12
623.464	567.52
623.913	554.32
624.361	551.32
624.81	553.12
625.259	543.62
625.707	548.02
626.156	553.92
626.604	563.42
627.053	556.02
627.501	562.42
627.95	567.32
628.398	579.62
628.847	562.22
629.295	562.62
629.744	562.72
630.192	570.32
630.64	563.22
631.089	561.92
631.537	568.82
631.985	571.12
632.433	599.22
632.881	592.72
633.33	655.52
633.778	634.02
634.226	552.12
634.674	565.62
635.122	570.12
635.57	590.62
636.018	616.82
636.466	566.32
636.914	551.42
637.362	560.12
637.81	573.02
638.258	582.32
638.705	570.42
639.153	595.42
639.601	608.92
640.049	634.22
640.497	669.62
640.944	684.52
641.392	633.62
641.84	607.22
642.287	579.52
642.735	563.12
643.182	561.02
643.63	559.52
644.078	573.22
644.525	585.72
644.973	594.22
645.42	597.02
645.867	608.72
646.315	643.42
646.762	657.62
647.21	681.42
647.657	706.72
648.104	733.82
648.551	747.82
648.999	829.92
649.446	898.42
649.893	983.42
650.34	1140.82
650.787	1369.82
651.234	1697.82
651.682	2196.32
652.129	3023.72
652.576	4337.02
653.023	6393.52
653.47	8776.52
653.917	11014.62
654.363	12756.42
654.81	14199.92
655.257	13486.42
655.704	8851.82
656.151	5206.52
656.598	3386.02
657.044	2396.82
657.491	1842.72
657.938	1457.82
658.385	1218.82
658.831	1059.72
659.278	949.92
659.724	841.32
660.171	777.82
660.618	709.72
661.064	675.92
661.511	657.52
661.957	641.22
662.404	639.52
662.85	637.42
663.296	614.62
663.743	556.12
664.189	528.82
664.635	514.12
665.082	520.62
665.528	522.32
665.974	508.52
666.42	495.22
666.867	502.32
667.313	484.92
667.759	465.12
668.205	465.42
668.651	469.22
669.097	469.62
669.543	475.92
669.989	464.72
670.435	448.72
670.881	440.52
671.327	441.42
671.773	460.32
672.219	481.82
672.665	526.82
673.11	570.02
673.556	619.02
674.002	650.52
674.448	633.22
674.893	532.72
675.339	472.12
675.785	428.72
676.23	414.22
676.676	378.52
677.122	376.22
677.567	363.12
678.013	360.72
678.458	351.22
678.904	351.12
679.349	336.82
679.794	342.02
680.24	341.42
680.685	341.82
681.131	343.42
681.576	353.12
682.021	345.72
682.466	345.02
682.912	342.92
683.357	348.52
683.802	372.32
684.247	405.52
684.692	446.22
685.137	481.32
685.583	522.52
686.028	543.12
686.473	501.42
686.918	437.92
687.363	408.62
687.807	387.62
688.252	359.62
688.697	341.62
689.142	322.82
689.587	327.22
690.032	315.52
690.477	337.92
690.921	339.62
691.366	374.82
691.811	397.82
692.255	418.02
692.7	447.02
693.145	485.52
693.589	666.82
694.034	1074.92
694.478	1491.12
694.923	1701.32
695.367	2210.02
695.812	1167.12
696.256	487.12
696.701	363.02
697.145	340.52
697.59	324.12
698.034	304.72
698.478	315.82
698.922	310.72
699.367	315.72
699.811	328.72
700.255	349.02
700.699	377.42
701.143	415.12
701.588	468.42
702.032	501.82
702.476	497.52
702.92	473.52
703.364	470.32
703.808	614.82
704.252	988.82
704.696	1397.12
705.14	1625.12
705.584	2074.32
706.027	1030.42
706.471	505.22
706.915	388.52
707.359	342.52
707.803	312.62
708.246	300.12
708.69	305.52
709.134	308.72
709.577	302.52
710.021	313.22
710.465	298.72
710.908	297.22
711.352	283.82
711.795	300.72
712.239	339.22
712.682	363.02
713.126	405.12
713.569	454.32
714.012	360.22
714.456	311.42
714.899	285.32
715.342	267.72
715.786	253.52
716.229	249.22
716.672	249.42
717.115	234.12
717.558	237.62
718.002	239.52
718.445	250.42
718.888	271.32
719.331	286.32
719.774	296.32
720.217	292.72
720.66	275.72
721.103	257.72
721.546	245.62
721.989	237.72
722.432	217.02
722.874	227.92
723.317	218.92
723.76	227.12
724.203	246.52
724.645	303.42
725.088	424.92
725.531	548.62
725.974	625.62
726.416	540.32
726.859	294.52
727.301	234.62
727.744	231.12
728.187	227.12
728.629	236.42
729.071	239.32
729.514	249.52
729.956	260.12
730.399	276.62
730.841	276.52
731.283	259.92
731.726	253.42
732.168	254.22
732.61	261.72
733.053	276.42
733.495	297.42
733.937	341.42
734.379	374.12
734.821	419.42
735.263	519.62
735.705	789.32
736.148	1485.92
736.59	2458.92
737.032	2984.52
737.474	2425.12
737.916	785.32
738.357	424.72
738.799	314.92
739.241	288.42
739.683	280.72
740.125	284.92
740.567	283.92
741.008	305.72
741.45	303.92
741.892	304.42
742.334	334.62
742.775	349.62
743.217	332.22
743.658	261.92
744.1	244.72
744.542	249.62
744.983	302.22
745.425	335.52
745.866	327.72
746.307	279.42
746.749	274.42
747.19	306.82
747.632	429.22
748.073	838.42
748.514	1771.82
748.956	2761.42
749.397	3440.12
749.838	2865.32
750.279	2893.72
750.72	1460.92
751.162	526.22
751.603	303.72
752.044	237.52
752.485	209.72
752.926	206.12
753.367	194.02
753.808	185.72
754.249	185.52
754.69	183.42
755.131	174.22
755.572	177.52
756.013	175.92
756.453	171.72
756.894	179.72
757.335	188.42
757.776	195.62
758.216	190.32
758.657	190.72
759.098	192.82
759.538	212.82
759.979	251.82
760.42	359.12
760.86	664.32
761.301	1708.52
761.741	4210.12
762.182	6291.32
762.622	4430.72
763.063	1280.12
763.503	524.52
763.943	333.02
764.384	320.22
764.824	387.52
765.264	412.82
765.705	282.22
766.145	204.22
766.585	175.22
767.025	174.52
767.465	174.12
767.906	230.12
768.346	301.82
768.786	320.12
769.226	246.42
769.666	301.72
770.106	574.72
770.546	1464.72
770.986	2567.62
771.426	2318.72
771.866	766.92
772.306	315.42
772.745	198.12
773.185	166.52
773.625	162.02
774.065	166.82
774.505	189.12
774.944	288.32
775.384	628.02
775.824	1145.32
776.263	1133.82
776.703	474.92
777.142	210.12
777.582	150.42
778.021	136.82
778.461	138.42
778.9	134.82
779.34	127.82
779.779	112.52
780.219	106.02
780.658	101.52
781.097	108.52
781.537	110.82
781.976	99.42
782.415	99.42
782.855	104.42
783.294	94.32
783.733	96.42
784.172	105.32
784.611	97.52
785.05	104.12
785.489	100.82
785.928	114.42
786.367	115.42
786.806	118.42
787.245	118.52
787.684	132.32
788.123	142.22
788.562	128.82
789.001	125.32
789.44	118.72
789.879	114.72
790.317	111.52
790.756	123.92
791.195	125.62
791.634	143.52
792.072	190.02
792.511	343.92
792.95	946.02
793.388	2077.02
793.827	1902.82
794.265	658.22
794.704	263.12
795.142	172.92
795.581	147.42
796.019	134.22
796.458	128.32
796.896	118.92
797.334	124.72
797.773	142.02
798.211	206.22
798.649	411.52
799.087	964.02
799.526	1531.92
799.964	1926.72
800.402	1948.32
800.84	732.32
801.278	285.72
801.716	182.62
802.154	145.22
802.592	137.92
803.03	140.02
803.468	130.02
803.906	132.62
804.344	140.12
804.782	136.82
805.22	130.52
805.658	122.42
806.096	144.82
806.533	154.02
806.971	162.62
807.409	214.92
807.847	303.32
808.284	628.42
808.722	1773.72
809.16	3183.52
809.597	2964.92
810.035	5205.12
810.472	5658.72
810.91	2015.52
811.347	757.02
811.785	387.52
812.222	244.12
812.66	190.32
813.097	157.62
813.535	135.52
813.972	127.02
814.409	112.92
814.846	105.52
815.284	108.72
815.721	98.62
816.158	95.82
816.595	117.62
817.032	170.62
817.47	181.12
817.907	162.62
818.344	148.52
818.781	111.92
819.218	92.02
819.655	119.12
820.092	167.82
820.529	206.32
820.966	169.92
821.403	126.32
821.839	109.42
822.276	104.52
822.713	115.72
823.15	132.92
823.587	117.62
824.023	145.82
824.46	279.42
824.897	845.42
825.333	1323.82
825.77	560.12
826.206	218.32
826.643	126.72
827.08	100.42
827.516	83.42
827.953	77.52
828.389	73.42
828.825	67.62
829.262	62.92
829.698	61.32
830.135	59.92
830.571	59.72
831.007	68.32
831.443	62.82
831.88	62.82
832.316	63.72
832.752	62.62
833.188	67.52
833.624	57.82
834.06	67.92
834.497	64.82
834.933	67.22
835.369	70.42
835.805	58.82
836.241	79.42
836.677	76.82
837.112	86.62
837.548	97.42
837.984	130.72
838.42	186.82
838.856	461.82
839.292	1437.32
839.727	2236.82
840.163	1043.22
840.599	863.92
841.034	1921.62
841.47	2095.62
841.906	752.32
842.341	318.12
842.777	219.12
843.212	301.92
843.648	300.32
844.083	147.52
844.519	94.32
844.954	79.82
845.39	60.22
845.825	56.32
846.261	55.52
846.696	56.42
847.131	49.32
847.566	52.92
848.002	51.82
848.437	49.22
848.872	58.32
849.307	59.52
849.742	73.12
850.177	170.92
850.613	526.42
851.048	859.22
851.483	372.12
851.918	142.82
852.353	87.32
852.788	58.92
853.223	57.02
853.657	54.42
854.092	47.22
854.527	40.92
854.962	41.72
855.397	43.92
855.832	53.22
856.266	39.02
856.701	38.92
857.136	33.12
857.57	42.72
858.005	45.82
858.44	54.22
858.874	41.82
859.309	49.22
859.743	41.42
860.178	45.92
860.612	42.52
861.047	46.82
861.481	58.62
861.915	71.92
862.35	45.12
862.784	30.12
863.218	29.12
863.653	30.62
864.087	44.42
864.521	49.22
864.955	65.32
865.39	148.12
865.824	165.62
866.258	103.52
866.692	159.02
867.126	175.32
867.56	105.82
867.994	55.92
868.428	44.22
868.862	42.22
869.296	50.02
869.73	55.22
870.164	48.22
870.598	44.32
871.031	33.52
871.465	29.22
871.899	29.32
872.333	23.32
872.766	23.02
873.2	26.92
873.634	30.52
874.067	26.12
874.501	25.12
874.935	35.72
875.368	32.02
875.802	27.92
876.235	25.82
876.669	25.42
877.102	21.72
877.535	26.52
877.969	23.72
878.402	23.02
878.836	18.42
879.269	20.42
879.702	23.22
880.135	18.52
880.569	21.52
881.002	30.02
881.435	23.32
881.868	15.72
882.301	17.32
882.734	13.12
883.167	23.22
883.601	20.02
884.034	24.92
884.467	15.22
884.899	19.52
885.332	17.72
885.765	13.72
886.198	14.72
886.631	19.22
887.064	20.22
887.497	17.72
887.929	19.82
888.362	11.92
888.795	9.42
889.228	16.12
889.66	15.62
890.093	15.22
890.526	17.92
890.958	12.12
891.391	14.92
891.823	21.02
892.256	16.02
892.688	14.62
893.121	11.02
893.553	15.52
893.985	26.02
894.418	13.72
894.85	10.82
895.282	9.72
895.715	21.52
896.147	16.42
896.579	18.32
897.011	9.32
897.444	16.22
897.876	12.62
898.308	12.82
898.74	15.12
899.172	9.22
899.604	25.02
900.036	21.32
900.468	17.02
900.9	15.52
901.332	16.32
901.764	15.82
902.196	18.52
902.628	12.82
903.06	14.42
903.491	25.22
903.923	17.62
904.355	16.62
904.787	25.02
905.218	20.72
905.65	17.12
906.082	13.02
906.513	12.82
906.945	16.72
907.376	8.32
907.808	18.32
908.239	16.42
908.671	16.52
909.102	22.72
909.534	26.82
909.965	41.02
910.397	81.32
910.828	297.72
911.259	458.82
911.691	209.92
912.122	109.22
912.553	47.92
912.984	29.62
913.415	26.22
913.847	21.92
914.278	14.22
914.709	14.82
915.14	19.02
915.571	17.82
916.002	15.82
916.433	15.82
916.864	15.12
917.295	13.62
917.726	19.52
918.157	12.92
918.587	30.72
919.018	18.52
919.449	21.22
919.88	25.92
920.311	30.42
920.741	48.02
921.172	158.62
921.603	151.52
922.033	66.52
922.464	42.92
922.895	19.32
923.325	16.32
923.756	16.72
924.186	10.82
924.617	27.72
925.047	34.22
925.478	46.92
925.908	44.92
926.338	25.42
926.769	18.22
927.199	21.72
927.629	7.02
928.06	13.92
928.49	14.52
928.92	12.32
929.35	6.72
929.78	5.12
930.21	6.52
930.641	4.02
931.071	11.22
931.501	5.32
931.931	4.12
932.361	14.12
932.791	-2.38
933.221	7.72
933.651	-2.58
934.08	18.32
934.51	22.52
934.94	4.92
935.37	9.62
935.8	10.92
936.229	6.52
936.659	6.42
937.089	4.52
937.519	16.62
937.948	25.22
938.378	10.62
938.807	10.42
939.237	2.72
939.666	2.22
940.096	-5.98
940.525	-2.48
940.955	-2.98
941.384	3.02
941.814	-4.68
942.243	1.52
942.672	3.82
943.102	0.42
943.531	-2.48
943.96	6.72
944.39	5.62
944.819	-3.08
945.248	2.42
945.677	1.62
946.106	9.72
946.535	5.52
946.964	-3.78
947.393	1.02
947.822	5.92
948.251	-4.68
948.68	1.12
949.109	-0.18
949.538	3.42
949.967	-0.48
950.396	-4.48
950.825	0.42
951.254	0.32
951.682	-11.58
952.111	5.12
952.54	5.72
952.969	-8.78
953.397	-7.38
953.826	1.22
954.254	-9.18
954.683	-2.98
955.112	-0.28
955.54	1.22
955.969	2.02
956.397	5.52
956.826	-2.18
957.254	2.32
957.682	4.32
958.111	4.22
958.539	0.62
958.967	-2.88
959.396	-3.68
959.824	-0.48
960.252	-1.18
960.68	-3.28
961.109	-4.68
961.537	-9.88
961.965	-2.18
962.393	-2.68
962.821	-8.28
963.249	-0.08
963.677	3.22
964.105	7.02
964.533	42.52
964.961	44.82
965.389	18.32
965.817	3.32
966.245	7.12
966.672	4.62
967.1	-10.28
967.528	-4.18
967.956	-1.38
968.383	-0.48
968.811	-6.18
969.239	-1.38
969.666	-7.48
970.094	-6.38
970.522	-0.88
970.949	-8.98
971.377	-3.48
971.804	-1.98
972.232	-2.58
972.659	-0.88
973.087	-6.08
973.514	-5.08
973.941	-4.88
974.369	2.32
974.796	-0.78
975.223	-3.38
975.651	-3.08
976.078	2.92
976.505	2.92
976.932	7.12
977.359	21.02
977.786	11.92
978.214	1.32
978.641	-2.48
979.068	-9.78
979.495	-10.68
979.922	-0.88
980.349	-7.28
980.776	-0.58
981.202	0.22
981.629	0.22
982.056	3.42
982.483	-6.68
982.91	-7.18
983.337	-10.68
983.763	0.32
984.19	-9.38
984.617	-2.98
985.043	-6.18
985.47	-3.98
985.897	-10.08
986.323	-4.48
986.75	3.72
987.176	-0.08
987.603	-0.58
988.029	-1.78
988.456	-3.68
988.882	0.32
989.308	-10.68
989.735	-4.08
990.161	1.52
990.587	-7.58
991.014	2.22
991.44	4.52
991.866	-4.48
992.292	-4.88
992.719	-7.38
993.145	1.72
993.571	-8.78
993.997	-6.68
994.423	-6.28
994.849	-1.68
995.275	-2.68
995.701	-1.18
996.127	-4.08
996.553	-0.88
996.979	-4.68
997.405	-1.58
997.83	-2.28
998.256	-7.38
998.682	1.82
999.108	-4.88
999.534	2.22
999.959	0.32
1000.385	-10.48
1000.811	0.02
1001.236	-13.88
1001.662	-3.68
1002.087	-10.28
1002.513	5.12
1002.938	1.02
1003.364	-9.18
1003.789	-2.18
1004.215	2.02
1004.64	-1.88
1005.066	-2.88
1005.491	-4.78
1005.916	-5.18
1006.342	-8.88
1006.767	-11.48
1007.192	1.62
1007.617	-8.08
1008.042	-8.88
1008.468	-9.48
1008.893	-4.48
1009.318	-6.18
1009.743	-3.28
1010.168	0.22
1010.593	5.42
1011.018	-13.98
1011.443	-8.08
1011.868	4.22
1012.293	-3.28
1012.718	-3.38
1013.143	5.22
1013.567	-1.58
1013.992	-5.08
1014.417	-16.28
1014.842	1.12
1015.267	-3.58
1015.691	-7.48
1016.116	1.42
1016.541	-5.48
1016.965	-2.28
1017.39	3.32
1017.814	-2.38
1018.239	-5.08
1018.663	-6.48
1019.088	-10.28
1019.512	-4.88
1019.937	1.72
1020.361	-11.38
1020.785	-15.68
1021.21	-7.78
1021.634	-6.38
1022.058	-7.38
1022.483	3.42
1022.907	-8.98
1023.331	-4.28
1023.755	-10.08
1024.179	-3.88
1024.604	-3.18
1025.028	-3.68
1025.452	-4.88
1025.876	-7.68
1026.3	-1.58
1026.724	-14.98
1027.148	-14.88
1027.572	-15.98
1027.996	-2.08
1028.42	-1.08
1028.843	-4.28
1029.267	-3.38
1029.691	-2.68
1030.115	-11.98
1030.539	-5.38
1030.962	-3.68
1031.386	-12.48
1031.81	3.92
1032.233	-3.38
1032.657	-5.28
1033.08	-1.68
1033.504	-4.98
1033.927	-1.08
1034.351	0.22
1034.774	-3.18
1035.198	-3.98
1035.621	-9.08
1036.045	-4.48
1036.468	-1.58
1036.891	-11.18
1037.315	-7.88
1037.738	-4.18
1038.161	-3.38
1038.584	-4.78
1039.008	-4.58
1039.431	-8.38
1039.854	-7.68
1040.277	-7.28
1040.7	-8.78
1041.123	-5.68
1041.546	-10.18
1041.969	-9.08
1042.392	-4.38
1042.815	-3.88
1043.238	-0.58
1043.661	-0.08
1044.084	-2.98
1044.507	-9.98
1044.93	-8.38
1045.352	-5.98
1045.775	-4.18
1046.198	-11.38
1046.621	-5.78
1047.043	-1.38
1047.466	4.82
1047.889	-1.88
1048.311	-8.78
1048.734	-0.28
1049.156	-5.68
1049.579	-5.28
1050.001	-2.78
1050.424	-3.48
1050.846	-1.78
1051.269	-3.08
1051.691	-5.68
1052.113	-7.78
1052.536	-0.78
1052.958	-0.98
1053.38	-9.58
1053.802	-11.98
1054.225	0.22
1054.647	-10.78
1055.069	-9.58
1055.491	9.62
1055.913	-8.28
1056.335	3.72
1056.757	-8.68
1057.179	-9.88
1057.601	-7.48
1058.023	-6.18
1058.445	-11.58
1058.867	-3.98
1059.289	-7.28
1059.711	-10.78
1060.133	-0.68
1060.555	-6.18
1060.976	-10.98
1061.398	-5.58
1061.82	-12.58
1062.241	-11.78
1062.663	-11.78
1063.085	-3.48
1063.506	-0.38
1063.928	-7.08
1064.35	1.42
1064.771	-7.18
1065.193	0.32
1065.614	-13.38
1066.035	-3.28
1066.457	-6.48
1066.878	-1.48
1067.3	-8.28
1067.721	-6.18
1068.142	-11.58
1068.564	-6.38
1068.985	-5.28
1069.406	-6.88
1069.827	1.62
1070.248	-2.88
1070.67	-6.78
1071.091	-5.58
1071.512	-3.48
1071.933	-9.08
1072.354	-17.38
1072.775	-7.08
1073.196	-10.38
1073.617	-10.58
1074.038	-8.38
1074.459	-4.58
1074.88	-17.48
1075.3	0.02
1075.721	-0.78
1076.142	0.42
1076.563	-3.68
1076.983	-10.88
1077.404	-8.38
1077.825	-11.58
1078.246	0.42
1078.666	-10.38
1079.087	-7.68
1079.507	-3.38
1079.928	6.92
1080.348	-3.18
1080.769	-8.38
1081.189	-3.68
1081.61	-2.58
1082.03	-3.48
1082.451	-6.78
1082.871	-5.48
1083.291	-7.28
1083.711	-9.68
1084.132	-9.18
1084.552	-4.88
1084.972	-7.78
1085.392	-12.38
1085.813	-6.48
1086.233	-7.98
1086.653	-7.58
1087.073	-2.08
1087.493	-11.38
1087.913	-6.88
1088.333	-5.48
1088.753	-6.58
1089.173	-3.58
1089.593	-0.88
1090.013	-4.48
1090.433	1.42
1090.852	-4.08
1091.272	-2.08
1091.692	-3.88
1092.112	-4.08
1092.531	-7.28
1092.951	-13.98
1093.371	-3.08
1093.79	-0.58
1094.21	-3.78
1094.63	-10.38
1095.049	-4.78
1095.469	-3.38
1095.888	-4.58
1096.308	-2.78
1096.727	-5.78
1097.146	-7.48
1097.566	-7.38
1097.985	-3.68
1098.405	-1.38
1098.824	-8.88
1099.243	-8.98
1099.662	-4.98
1100.082	-5.38
1100.501	-4.38
1100.92	-8.58
1101.339	-6.28
1101.758	-7.78
