Data from 20171114-ORNL-Ar_H_NY_Subt18_08-05-17-950.txt Node
Date: Tue Nov 14 08:05:17 EST 2017
User: Ender
Spectrometer: HR+D1039
Trigger mode: 0
Integration Time (sec): 2.730000E-2
Scans to average: 10
Electric dark correction enabled: true
Nonlinearity correction enabled: false
Boxcar width: 0
XAxis mode: Wavelengths
Number of Pixels in Spectrum: 2048
>>>>>Begin Spectral Data<<<<<
187.836	-6.63
188.309	-6.63
188.782	-6.63
189.255	0.77
189.728	-4.53
190.201	5.57
190.674	4.27
191.147	9.57
191.619	-7.23
192.092	3.57
192.565	4.37
193.038	0.87
193.511	2.57
193.984	2.87
194.456	-3.93
194.929	-3.43
195.402	-5.33
195.874	-3.33
196.347	-5.83
196.82	-4.13
197.292	6.07
197.765	-6.63
198.237	-5.53
198.71	1.57
199.182	-3.53
199.655	-2.23
200.127	2.87
200.6	-0.63
201.072	-2.43
201.544	-5.93
202.017	-4.13
202.489	2.27
202.961	0.87
203.433	-3.03
203.906	-2.23
204.378	-5.23
204.85	-1.23
205.322	-9.23
205.794	0.77
206.266	-1.03
206.739	-7.63
207.211	2.27
207.683	-10.83
208.155	-12.53
208.627	-7.93
209.099	-6.43
209.57	-6.43
210.042	0.37
210.514	-7.73
210.986	-2.53
211.458	-8.83
211.93	-4.53
212.402	2.27
212.873	-9.23
213.345	-8.13
213.817	-9.03
214.288	-3.53
214.76	-11.43
215.232	3.77
215.703	-4.13
216.175	-7.43
216.646	-1.53
217.118	-11.03
217.589	-2.63
218.061	-4.03
218.532	-8.53
219.004	-8.33
219.475	-5.83
219.946	-6.73
220.418	-11.73
220.889	0.07
221.36	-2.83
221.832	-7.53
222.303	-10.23
222.774	-1.33
223.245	-7.03
223.717	-7.33
224.188	-2.13
224.659	-6.83
225.13	-9.03
225.601	-0.43
226.072	0.57
226.543	-0.83
227.014	0.87
227.485	0.17
227.956	-8.13
228.427	-3.43
228.898	-0.53
229.369	6.37
229.839	-4.43
230.31	-3.43
230.781	4.67
231.252	-5.13
231.722	-9.13
232.193	-7.63
232.664	-2.83
233.135	2.67
233.605	-0.03
234.076	-4.63
234.546	-3.13
235.017	1.07
235.487	-0.93
235.958	-5.93
236.428	-0.93
236.899	-1.23
237.369	3.17
237.84	-6.73
238.31	2.97
238.78	5.77
239.251	-1.53
239.721	-0.43
240.191	-3.63
240.662	-1.63
241.132	6.37
241.602	-5.43
242.072	4.17
242.542	8.07
243.013	0.17
243.483	6.07
243.953	1.47
244.423	3.67
244.893	-4.33
245.363	7.37
245.833	-1.23
246.303	-0.13
246.773	3.47
247.243	-0.23
247.712	3.07
248.182	4.97
248.652	10.87
249.122	-1.73
249.592	12.57
250.061	15.67
250.531	37.67
251.001	19.77
251.471	19.37
251.94	21.07
252.41	5.87
252.879	-4.93
253.349	11.17
253.818	9.57
254.288	4.77
254.757	8.17
255.227	3.57
255.696	5.87
256.166	6.37
256.635	2.87
257.105	9.37
257.574	6.27
258.043	8.77
258.513	13.87
258.982	17.77
259.451	4.37
259.92	16.97
260.389	14.67
260.859	9.87
261.328	12.07
261.797	19.87
262.266	12.17
262.735	11.07
263.204	7.27
263.673	-1.43
264.142	4.07
264.611	2.07
265.08	1.57
265.549	4.07
266.018	8.07
266.487	-0.23
266.955	2.77
267.424	0.27
267.893	2.77
268.362	2.47
268.83	4.57
269.299	11.67
269.768	3.47
270.236	5.07
270.705	1.47
271.174	7.47
271.642	2.87
272.111	14.37
272.579	21.67
273.048	34.67
273.516	30.37
273.985	28.77
274.453	24.27
274.922	21.27
275.39	17.87
275.858	5.57
276.327	14.17
276.795	20.27
277.263	14.47
277.731	33.77
278.2	57.67
278.668	67.87
279.136	52.97
279.604	16.97
280.072	16.77
280.54	12.27
281.008	11.77
281.477	16.67
281.945	13.07
282.413	14.57
282.881	11.67
283.348	8.67
283.816	12.97
284.284	14.07
284.752	25.57
285.22	13.27
285.688	16.47
286.156	21.97
286.623	48.77
287.091	51.77
287.559	30.57
288.026	22.47
288.494	13.67
288.962	4.87
289.429	8.27
289.897	20.17
290.364	15.67
290.832	15.47
291.3	15.07
291.767	12.67
292.234	19.57
292.702	17.77
293.169	22.27
293.637	21.87
294.104	20.97
294.571	10.67
295.039	15.57
295.506	16.77
295.973	20.77
296.44	17.37
296.908	21.07
297.375	23.07
297.842	21.47
298.309	25.57
298.776	9.17
299.243	20.77
299.71	11.57
300.177	21.07
300.644	25.87
301.111	22.57
301.578	32.07
302.045	17.47
302.512	23.57
302.979	23.87
303.446	26.87
303.913	14.87
304.379	20.67
304.846	27.47
305.313	31.27
305.78	24.57
306.246	26.97
306.713	25.87
307.18	26.37
307.646	28.67
308.113	29.07
308.579	31.17
309.046	28.37
309.512	30.77
309.979	22.97
310.445	33.07
310.912	29.17
311.378	33.77
311.845	30.27
312.311	30.07
312.777	35.17
313.244	30.57
313.71	44.47
314.176	32.47
314.642	35.17
315.109	37.57
315.575	36.57
316.041	42.37
316.507	39.67
316.973	44.67
317.439	37.07
317.905	41.47
318.371	39.27
318.837	40.17
319.303	33.97
319.769	39.97
320.235	34.27
320.701	36.97
321.167	40.77
321.633	35.07
322.099	45.37
322.564	45.27
323.03	38.67
323.496	43.07
323.962	43.97
324.427	36.57
324.893	50.77
325.359	40.57
325.824	39.47
326.29	39.97
326.755	43.87
327.221	44.87
327.686	41.57
328.152	52.57
328.617	37.07
329.083	52.47
329.548	52.57
330.014	48.57
330.479	42.27
330.944	43.07
331.41	42.97
331.875	50.17
332.34	42.57
332.805	44.27
333.271	51.37
333.736	47.17
334.201	58.87
334.666	53.27
335.131	53.37
335.596	53.17
336.061	51.07
336.526	45.57
336.991	43.37
337.456	51.17
337.921	50.47
338.386	43.57
338.851	49.47
339.316	46.07
339.781	47.87
340.246	54.57
340.711	48.67
341.175	52.77
341.64	46.27
342.105	53.67
342.569	56.27
343.034	60.07
343.499	51.67
343.963	56.17
344.428	67.17
344.893	61.87
345.357	66.27
345.822	61.67
346.286	70.17
346.751	72.37
347.215	68.67
347.679	70.67
348.144	100.27
348.608	85.67
349.073	73.77
349.537	78.77
350.001	86.57
350.465	88.17
350.93	85.27
351.394	86.07
351.858	76.57
352.322	88.67
352.786	87.07
353.25	97.47
353.715	115.07
354.179	104.37
354.643	127.47
355.107	131.97
355.571	105.17
356.035	106.87
356.498	117.77
356.962	123.97
357.426	133.67
357.89	121.37
358.354	100.97
358.818	86.77
359.281	78.67
359.745	79.67
360.209	73.97
360.673	81.17
361.136	79.07
361.6	85.57
362.064	89.87
362.527	86.27
362.991	91.67
363.454	87.07
363.918	80.37
364.381	76.47
364.845	73.27
365.308	86.67
365.772	84.57
366.235	89.67
366.698	91.57
367.162	86.47
367.625	86.97
368.088	88.67
368.552	88.37
369.015	95.97
369.478	99.37
369.941	104.77
370.404	96.37
370.867	111.67
371.331	107.37
371.794	113.17
372.257	109.17
372.72	122.87
373.183	108.07
373.646	105.57
374.109	104.37
374.572	112.77
375.035	108.17
375.497	108.97
375.96	106.17
376.423	102.17
376.886	112.87
377.349	106.87
377.811	107.97
378.274	107.67
378.737	106.97
379.199	114.07
379.662	117.57
380.125	120.77
380.587	118.57
381.05	120.07
381.512	130.67
381.975	133.67
382.437	136.07
382.9	127.37
383.362	131.17
383.825	137.57
384.287	145.77
384.75	149.27
385.212	138.27
385.674	144.97
386.136	139.47
386.599	131.17
387.061	130.27
387.523	126.57
387.985	133.77
388.447	139.17
388.91	142.17
389.372	161.17
389.834	147.57
390.296	146.77
390.758	159.87
391.22	166.67
391.682	205.47
392.144	293.57
392.606	229.57
393.068	166.27
393.529	164.27
393.991	153.37
394.453	139.67
394.915	155.37
395.377	190.07
395.838	211.87
396.3	155.87
396.762	140.17
397.224	134.47
397.685	127.87
398.147	128.97
398.608	130.57
399.07	128.07
399.531	132.37
399.993	150.17
400.454	159.07
400.916	147.27
401.377	145.07
401.839	149.47
402.3	152.47
402.762	163.67
403.223	179.87
403.684	176.27
404.145	165.77
404.607	162.67
405.068	163.17
405.529	164.47
405.99	183.57
406.451	173.87
406.913	171.07
407.374	168.97
407.835	160.67
408.296	165.17
408.757	173.67
409.218	186.47
409.679	183.47
410.14	179.37
410.601	179.07
411.062	184.57
411.522	188.17
411.983	187.97
412.444	179.17
412.905	179.67
413.366	180.47
413.826	189.77
414.287	212.87
414.748	265.27
415.208	252.97
415.669	204.57
416.13	206.47
416.59	201.67
417.051	213.37
417.511	216.77
417.972	235.77
418.432	248.17
418.893	291.27
419.353	256.37
419.814	202.37
420.274	185.57
420.734	180.87
421.195	190.37
421.655	197.37
422.115	197.37
422.576	191.37
423.036	194.67
423.496	205.87
423.956	215.77
424.416	231.77
424.876	273.87
425.336	266.17
425.797	259.77
426.257	257.97
426.717	245.17
427.177	235.37
427.637	220.37
428.097	234.87
428.556	242.77
429.016	273.57
429.476	257.17
429.936	273.17
430.396	280.27
430.856	305.37
431.315	323.97
431.775	343.77
432.235	389.37
432.694	357.07
433.154	358.97
433.614	389.37
434.073	340.17
434.533	298.67
434.993	275.67
435.452	279.17
435.912	292.57
436.371	287.97
436.83	290.27
437.29	266.67
437.749	251.17
438.209	251.17
438.668	271.77
439.127	285.47
439.587	265.67
440.046	249.27
440.505	258.37
440.964	274.07
441.424	324.77
441.883	311.77
442.342	253.87
442.801	224.17
443.26	215.67
443.719	221.57
444.178	218.67
444.637	210.17
445.096	219.07
445.555	226.77
446.014	228.37
446.473	230.27
446.932	230.17
447.391	221.67
447.849	222.87
448.308	208.47
448.767	220.57
449.226	234.27
449.685	237.07
450.143	251.47
450.602	242.97
451.061	225.47
451.519	230.97
451.978	236.57
452.436	236.77
452.895	242.67
453.353	252.47
453.812	233.37
454.27	231.27
454.729	239.37
455.187	240.77
455.646	244.07
456.104	250.47
456.562	259.27
457.021	264.37
457.479	263.37
457.937	270.87
458.395	264.57
458.854	242.57
459.312	263.87
459.77	277.87
460.228	259.47
460.686	238.17
461.144	254.37
461.602	244.57
462.06	242.27
462.518	256.87
462.976	251.47
463.434	259.47
463.892	273.37
464.35	277.27
464.808	284.87
465.266	264.67
465.724	271.67
466.181	273.07
466.639	273.07
467.097	290.47
467.555	301.37
468.012	296.27
468.47	309.67
468.928	324.77
469.385	345.47
469.843	341.17
470.3	346.27
470.758	369.67
471.215	385.17
471.673	415.17
472.13	404.27
472.588	416.67
473.045	375.97
473.503	378.27
473.96	394.87
474.417	404.97
474.875	439.67
475.332	474.97
475.789	472.27
476.246	469.77
476.704	490.27
477.161	515.97
477.618	520.97
478.075	566.27
478.532	624.67
478.989	690.17
479.446	802.77
479.903	777.67
480.36	814.37
480.817	881.07
481.274	978.97
481.731	1076.17
482.188	1177.67
482.645	1318.97
483.102	1417.97
483.558	1569.57
484.015	1609.37
484.472	1587.67
484.929	1531.17
485.385	1491.47
485.842	1436.37
486.299	1388.07
486.755	1310.07
487.212	1096.77
487.668	931.87
488.125	863.07
488.582	792.77
489.038	764.67
489.494	708.37
489.951	692.77
490.407	667.97
490.864	659.27
491.32	656.87
491.776	648.67
492.233	657.27
492.689	606.87
493.145	604.87
493.602	603.87
494.058	613.87
494.514	620.17
494.97	640.27
495.426	656.07
495.882	630.57
496.338	630.17
496.794	629.17
497.251	628.07
497.707	641.57
498.163	635.97
498.618	652.87
499.074	649.27
499.53	692.57
499.986	679.67
500.442	663.77
500.898	641.67
501.354	634.77
501.809	641.87
502.265	640.17
502.721	652.87
503.177	677.17
503.632	670.37
504.088	687.47
504.543	713.67
504.999	721.17
505.455	655.97
505.91	627.97
506.366	642.47
506.821	627.77
507.277	614.67
507.732	628.67
508.187	622.37
508.643	639.97
509.098	635.97
509.553	655.27
510.009	669.47
510.464	670.97
510.919	697.07
511.375	692.77
511.83	726.27
512.285	723.77
512.74	758.67
513.195	786.67
513.65	767.47
514.105	768.87
514.56	782.87
515.015	800.47
515.47	813.97
515.925	790.27
516.38	787.87
516.835	798.57
517.29	789.77
517.745	792.67
518.2	767.47
518.655	763.47
519.109	747.37
519.564	747.77
520.019	732.87
520.474	728.97
520.928	733.67
521.383	726.87
521.838	718.17
522.292	715.27
522.747	726.37
523.201	709.37
523.656	697.67
524.11	693.57
524.565	702.47
525.019	690.67
525.474	704.27
525.928	709.77
526.382	697.87
526.837	701.27
527.291	705.17
527.745	698.97
528.2	703.57
528.654	704.47
529.108	686.57
529.562	687.07
530.016	696.57
530.47	694.97
530.925	693.27
531.379	702.27
531.833	709.57
532.287	711.47
532.741	701.87
533.195	717.77
533.649	713.77
534.103	714.37
534.556	711.87
535.01	714.47
535.464	704.37
535.918	720.47
536.372	715.27
536.826	719.87
537.279	711.97
537.733	710.87
538.187	708.37
538.64	717.67
539.094	727.97
539.548	732.07
540.001	723.17
540.455	719.87
540.908	726.87
541.362	740.37
541.815	732.57
542.269	760.97
542.722	754.67
543.175	773.17
543.629	764.07
544.082	775.77
544.536	780.67
544.989	784.37
545.442	794.17
545.895	789.37
546.349	788.27
546.802	789.57
547.255	795.57
547.708	800.27
548.161	822.47
548.614	814.07
549.067	821.27
549.52	820.07
549.973	817.97
550.426	803.77
550.879	793.87
551.332	789.77
551.785	800.47
552.238	796.27
552.691	821.77
553.144	830.27
553.596	850.87
554.049	865.17
554.502	903.27
554.955	911.87
555.407	907.27
555.86	906.97
556.313	892.67
556.765	884.27
557.218	886.37
557.67	890.17
558.123	870.57
558.576	864.47
559.028	869.47
559.48	885.97
559.933	862.57
560.385	832.77
560.838	805.57
561.29	784.27
561.742	778.37
562.195	766.27
562.647	757.37
563.099	770.87
563.551	769.57
564.004	780.87
564.456	764.07
564.908	753.07
565.36	737.17
565.812	725.97
566.264	709.97
566.716	714.27
567.168	705.47
567.62	715.97
568.072	708.07
568.524	693.27
568.976	682.67
569.428	661.27
569.88	662.57
570.332	675.67
570.784	675.87
571.235	674.47
571.687	687.77
572.139	701.07
572.59	706.87
573.042	694.77
573.494	699.77
573.945	700.67
574.397	669.07
574.849	691.17
575.3	674.37
575.752	674.87
576.203	668.07
576.655	674.87
577.106	652.07
577.557	652.47
578.009	659.07
578.46	664.77
578.912	659.07
579.363	665.37
579.814	659.17
580.265	658.97
580.717	650.17
581.168	657.07
581.619	662.77
582.07	674.17
582.521	663.17
582.972	665.77
583.423	671.07
583.875	674.27
584.326	683.17
584.777	735.07
585.227	804.27
585.678	894.87
586.129	980.07
586.58	1051.47
587.031	1135.17
587.482	1286.17
587.933	1468.77
588.384	1272.67
588.834	953.77
589.285	793.67
589.736	766.17
590.186	751.37
590.637	748.17
591.088	723.27
591.538	715.37
591.989	714.07
592.439	705.67
592.89	703.87
593.34	688.57
593.791	703.57
594.241	694.07
594.692	693.57
595.142	685.77
595.593	679.57
596.043	688.57
596.493	702.37
596.943	695.47
597.394	703.57
597.844	695.97
598.294	712.27
598.744	736.17
599.195	755.97
599.645	780.77
600.095	827.17
600.545	891.57
600.995	939.47
601.445	992.77
601.895	1059.27
602.345	1112.17
602.795	1086.07
603.245	1043.37
603.695	985.77
604.145	945.17
604.594	891.47
605.044	829.17
605.494	778.37
605.944	737.67
606.393	727.97
606.843	713.27
607.293	710.97
607.743	708.87
608.192	728.67
608.642	740.57
609.091	747.07
609.541	739.47
609.99	749.37
610.44	736.07
610.889	699.77
611.339	685.17
611.788	675.27
612.238	682.37
612.687	696.87
613.136	699.47
613.586	714.67
614.035	709.37
614.484	723.17
614.933	739.97
615.383	730.47
615.832	720.47
616.281	703.97
616.73	661.57
617.179	644.17
617.628	629.47
618.077	602.17
618.526	592.27
618.975	597.27
619.424	596.17
619.873	594.27
620.322	603.77
620.771	584.67
621.22	594.77
621.669	580.17
622.118	568.87
622.567	558.07
623.015	551.57
623.464	549.27
623.913	541.77
624.361	528.97
624.81	530.97
625.259	534.47
625.707	539.47
626.156	533.17
626.604	549.97
627.053	539.67
627.501	540.37
627.95	547.37
628.398	561.37
628.847	550.17
629.295	551.97
629.744	553.77
630.192	552.57
630.64	545.57
631.089	548.67
631.537	561.07
631.985	562.97
632.433	576.77
632.881	578.17
633.33	630.77
633.778	608.17
634.226	550.67
634.674	544.37
635.122	552.47
635.57	581.47
636.018	611.97
636.466	557.47
636.914	536.07
637.362	539.77
637.81	548.37
638.258	550.37
638.705	553.57
639.153	579.37
639.601	592.37
640.049	609.37
640.497	646.97
640.944	667.77
641.392	619.67
641.84	583.47
642.287	562.87
642.735	549.27
643.182	542.97
643.63	554.07
644.078	550.27
644.525	571.17
644.973	562.47
645.42	569.57
645.867	596.27
646.315	609.67
646.762	630.57
647.21	665.27
647.657	683.77
648.104	713.47
648.551	743.77
648.999	807.67
649.446	887.87
649.893	960.77
650.34	1107.77
650.787	1319.97
651.234	1637.97
651.682	2133.77
652.129	2916.17
652.576	4214.17
653.023	6227.07
653.47	8578.67
653.917	10765.47
654.363	12551.27
654.81	13960.57
655.257	13263.47
655.704	8687.87
656.151	5112.97
656.598	3310.97
657.044	2355.77
657.491	1797.97
657.938	1441.07
658.385	1199.37
658.831	1028.67
659.278	927.87
659.724	813.87
660.171	759.67
660.618	677.97
661.064	658.27
661.511	643.07
661.957	627.87
662.404	616.87
662.85	624.57
663.296	596.67
663.743	539.37
664.189	522.17
664.635	512.17
665.082	506.37
665.528	496.57
665.974	496.77
666.42	481.07
666.867	478.47
667.313	467.77
667.759	457.37
668.205	459.37
668.651	454.57
669.097	456.17
669.543	476.57
669.989	444.77
670.435	429.27
670.881	425.77
671.327	425.67
671.773	441.67
672.219	462.27
672.665	508.27
673.11	549.57
673.556	595.27
674.002	623.07
674.448	613.17
674.893	519.17
675.339	452.67
675.785	410.07
676.23	393.37
676.676	367.87
677.122	371.27
677.567	345.57
678.013	352.67
678.458	341.87
678.904	347.27
679.349	329.27
679.794	329.97
680.24	330.27
680.685	323.17
681.131	334.27
681.576	327.67
682.021	340.37
682.466	324.57
682.912	327.07
683.357	322.97
683.802	359.47
684.247	383.17
684.692	428.17
685.137	464.07
685.583	502.17
686.028	527.87
686.473	485.77
686.918	419.67
687.363	394.67
687.807	366.97
688.252	344.87
688.697	336.77
689.142	323.07
689.587	319.67
690.032	311.17
690.477	318.77
690.921	322.47
691.366	366.07
691.811	386.47
692.255	414.57
692.7	428.97
693.145	471.37
693.589	646.17
694.034	1048.57
694.478	1439.37
694.923	1648.57
695.367	2165.47
695.812	1137.17
696.256	465.37
696.701	352.77
697.145	317.87
697.59	312.77
698.034	311.37
698.478	301.77
698.922	307.47
699.367	299.97
699.811	320.27
700.255	327.57
700.699	360.57
701.143	396.97
701.588	452.37
702.032	487.47
702.476	483.37
702.92	459.47
703.364	454.77
703.808	582.37
704.252	951.37
704.696	1363.77
705.14	1581.47
705.584	2026.57
706.027	1004.57
706.471	489.87
706.915	370.37
707.359	328.47
707.803	302.17
708.246	296.57
708.69	291.57
709.134	297.97
709.577	295.17
710.021	301.57
710.465	284.97
710.908	281.87
711.352	280.27
711.795	293.17
712.239	331.37
712.682	355.27
713.126	392.47
713.569	439.07
714.012	352.47
714.456	301.27
714.899	279.67
715.342	253.37
715.786	237.97
716.229	240.07
716.672	240.07
717.115	233.97
717.558	231.87
718.002	240.47
718.445	242.27
718.888	267.07
719.331	263.57
719.774	285.17
720.217	281.77
720.66	262.87
721.103	250.77
721.546	230.57
721.989	231.17
722.432	215.07
722.874	213.67
723.317	213.27
723.76	224.67
724.203	242.57
724.645	298.77
725.088	417.47
725.531	536.77
725.974	610.77
726.416	518.17
726.859	287.67
727.301	229.17
727.744	218.77
728.187	221.27
728.629	221.47
729.071	224.47
729.514	238.57
729.956	253.37
730.399	263.17
730.841	271.07
731.283	255.17
731.726	251.57
732.168	236.87
732.61	248.17
733.053	267.97
733.495	295.17
733.937	331.77
734.379	372.47
734.821	405.67
735.263	502.77
735.705	764.97
736.148	1445.67
736.59	2388.97
737.032	2896.37
737.474	2343.17
737.916	757.77
738.357	396.37
738.799	310.87
739.241	276.57
739.683	262.57
740.125	273.67
740.567	285.77
741.008	292.37
741.45	297.47
741.892	300.77
742.334	323.77
742.775	336.07
743.217	325.07
743.658	251.47
744.1	229.17
744.542	242.87
744.983	290.77
745.425	317.67
745.866	320.77
746.307	264.77
746.749	259.67
747.19	299.27
747.632	418.47
748.073	797.07
748.514	1699.27
748.956	2669.37
749.397	3341.07
749.838	2805.57
750.279	2803.07
750.72	1406.67
751.162	508.97
751.603	300.87
752.044	238.57
752.485	204.17
752.926	193.47
753.367	185.57
753.808	176.77
754.249	184.67
754.69	170.77
755.131	169.07
755.572	176.47
756.013	171.77
756.453	169.57
756.894	173.77
757.335	175.97
757.776	182.37
758.216	188.17
758.657	186.67
759.098	185.17
759.538	208.97
759.979	243.77
760.42	339.57
760.86	632.77
761.301	1645.97
761.741	4054.07
762.182	6127.97
762.622	4328.87
763.063	1231.47
763.503	500.87
763.943	316.87
764.384	311.67
764.824	375.17
765.264	410.57
765.705	281.77
766.145	192.47
766.585	175.77
767.025	169.97
767.465	171.37
767.906	229.37
768.346	299.97
768.786	326.97
769.226	241.97
769.666	289.97
770.106	565.07
770.546	1419.37
770.986	2489.07
771.426	2253.37
771.866	752.87
772.306	303.17
772.745	192.57
773.185	158.37
773.625	155.57
774.065	151.17
774.505	180.07
774.944	278.07
775.384	609.07
775.824	1150.57
776.263	1122.97
776.703	468.77
777.142	204.17
777.582	152.87
778.021	129.37
778.461	129.67
778.9	132.67
779.34	120.07
779.779	106.17
780.219	104.27
780.658	104.77
781.097	104.97
781.537	105.07
781.976	98.87
782.415	95.67
782.855	100.07
783.294	94.77
783.733	103.27
784.172	105.97
784.611	94.27
785.05	102.47
785.489	101.47
785.928	112.47
786.367	109.87
786.806	101.17
787.245	128.17
787.684	125.27
788.123	139.37
788.562	118.37
789.001	119.87
789.44	112.07
789.879	104.57
790.317	107.37
790.756	116.87
791.195	114.47
791.634	131.87
792.072	186.17
792.511	321.77
792.95	906.77
793.388	2010.77
793.827	1830.27
794.265	631.97
794.704	262.77
795.142	166.67
795.581	141.97
796.019	126.07
796.458	115.37
796.896	108.57
797.334	123.27
797.773	143.77
798.211	195.57
798.649	396.77
799.087	943.57
799.526	1476.47
799.964	1881.07
800.402	1927.67
800.84	719.27
801.278	282.37
801.716	167.37
802.154	137.37
802.592	137.17
803.03	133.67
803.468	124.07
803.906	132.27
804.344	136.17
804.782	136.97
805.22	127.17
805.658	121.97
806.096	133.37
806.533	144.37
806.971	158.37
807.409	195.27
807.847	281.97
808.284	589.87
808.722	1691.17
809.16	3087.17
809.597	2881.37
810.035	5042.07
810.472	5531.87
810.91	1974.17
811.347	744.27
811.785	374.47
812.222	240.67
812.66	178.67
813.097	154.27
813.535	127.37
813.972	113.97
814.409	104.97
814.846	92.47
815.284	98.27
815.721	92.37
816.158	100.07
816.595	113.67
817.032	165.27
817.47	184.07
817.907	157.57
818.344	138.77
818.781	111.07
819.218	91.27
819.655	115.07
820.092	169.87
820.529	204.57
820.966	160.47
821.403	127.67
821.839	99.47
822.276	88.77
822.713	112.57
823.15	124.17
823.587	110.07
824.023	133.37
824.46	267.57
824.897	820.17
825.333	1274.57
825.77	549.17
826.206	213.97
826.643	127.37
827.08	95.47
827.516	75.27
827.953	70.07
828.389	77.47
828.825	62.57
829.262	57.37
829.698	57.57
830.135	60.77
830.571	59.67
831.007	52.97
831.443	58.67
831.88	60.97
832.316	55.47
832.752	55.87
833.188	59.07
833.624	55.37
834.06	68.27
834.497	63.57
834.933	67.47
835.369	73.27
835.805	63.67
836.241	73.47
836.677	72.47
837.112	86.87
837.548	95.17
837.984	120.07
838.42	175.67
838.856	436.57
839.292	1385.07
839.727	2178.47
840.163	1007.97
840.599	843.67
841.034	1883.87
841.47	2022.97
841.906	728.47
842.341	315.27
842.777	212.57
843.212	295.97
843.648	291.57
844.083	134.37
844.519	90.17
844.954	67.87
845.39	55.47
845.825	55.87
846.261	50.67
846.696	47.87
847.131	48.57
847.566	49.07
848.002	49.77
848.437	45.87
848.872	54.27
849.307	53.47
849.742	71.17
850.177	165.67
850.613	515.07
851.048	827.47
851.483	350.77
851.918	143.67
852.353	84.67
852.788	58.07
853.223	53.77
853.657	49.77
854.092	46.07
854.527	39.27
854.962	38.57
855.397	40.37
855.832	46.47
856.266	37.37
856.701	35.87
857.136	34.57
857.57	36.07
858.005	43.37
858.44	53.77
858.874	38.57
859.309	48.67
859.743	33.37
860.178	40.67
860.612	37.17
861.047	44.97
861.481	64.87
861.915	63.17
862.35	49.17
862.784	32.87
863.218	37.37
863.653	31.37
864.087	42.37
864.521	49.07
864.955	62.27
865.39	135.87
865.824	161.97
866.258	102.87
866.692	153.27
867.126	168.97
867.56	103.37
867.994	45.57
868.428	34.37
868.862	40.87
869.296	44.77
869.73	56.07
870.164	47.27
870.598	43.07
871.031	35.27
871.465	27.77
871.899	23.77
872.333	20.57
872.766	20.87
873.2	20.17
873.634	29.57
874.067	23.57
874.501	21.57
874.935	32.07
875.368	25.77
875.802	26.97
876.235	22.77
876.669	19.27
877.102	19.77
877.535	21.67
877.969	24.27
878.402	22.97
878.836	18.57
879.269	22.47
879.702	24.07
880.135	20.67
880.569	21.07
881.002	26.07
881.435	24.17
881.868	16.67
882.301	22.37
882.734	12.67
883.167	21.97
883.601	20.67
884.034	20.97
884.467	13.57
884.899	20.37
885.332	12.77
885.765	11.07
886.198	10.47
886.631	20.77
887.064	18.07
887.497	15.57
887.929	18.97
888.362	6.87
888.795	8.77
889.228	17.87
889.66	20.97
890.093	16.17
890.526	17.97
890.958	17.27
891.391	11.17
891.823	17.37
892.256	14.27
892.688	9.87
893.121	12.77
893.553	11.67
893.985	20.77
894.418	20.27
894.85	11.87
895.282	13.27
895.715	12.67
896.147	18.07
896.579	14.67
897.011	11.67
897.444	17.27
897.876	10.67
898.308	14.97
898.74	16.07
899.172	14.97
899.604	21.87
900.036	20.17
900.468	6.97
900.9	11.17
901.332	15.37
901.764	15.57
902.196	19.57
902.628	15.07
903.06	14.67
903.491	29.27
903.923	18.57
904.355	17.27
904.787	19.47
905.218	15.77
905.65	16.77
906.082	12.17
906.513	8.07
906.945	13.37
907.376	9.77
907.808	15.07
908.239	19.97
908.671	13.57
909.102	15.77
909.534	24.77
909.965	39.97
910.397	80.77
910.828	286.47
911.259	449.17
911.691	206.27
912.122	98.07
912.553	45.47
912.984	33.47
913.415	24.87
913.847	23.57
914.278	9.97
914.709	11.57
915.14	13.97
915.571	11.67
916.002	11.57
916.433	18.77
916.864	13.87
917.295	7.87
917.726	23.07
918.157	15.37
918.587	24.57
919.018	18.47
919.449	19.07
919.88	20.57
920.311	26.27
920.741	40.97
921.172	156.77
921.603	147.27
922.033	64.67
922.464	41.47
922.895	17.67
923.325	16.17
923.756	11.67
924.186	14.37
924.617	21.97
925.047	36.77
925.478	54.47
925.908	42.77
926.338	24.87
926.769	15.07
927.199	16.87
927.629	9.57
928.06	10.27
928.49	15.87
928.92	11.57
929.35	2.97
929.78	12.17
930.21	6.57
930.641	6.97
931.071	8.47
931.501	5.37
931.931	9.17
932.361	10.97
932.791	2.37
933.221	5.87
933.651	0.27
934.08	12.97
934.51	21.47
934.94	4.17
935.37	7.67
935.8	5.67
936.229	8.67
936.659	5.57
937.089	1.27
937.519	12.67
937.948	22.07
938.378	9.97
938.807	6.77
939.237	2.07
939.666	5.97
940.096	-8.33
940.525	3.57
940.955	-0.73
941.384	6.77
941.814	1.17
942.243	0.37
942.672	5.57
943.102	0.37
943.531	-5.33
943.96	5.77
944.39	1.77
944.819	-1.93
945.248	-0.73
945.677	-0.03
946.106	2.97
946.535	2.77
946.964	-4.43
947.393	0.37
947.822	-0.73
948.251	-5.13
948.68	0.87
949.109	5.67
949.538	1.57
949.967	-0.63
950.396	2.77
950.825	1.97
951.254	-1.63
951.682	-6.63
952.111	4.97
952.54	4.27
952.969	-2.03
953.397	-2.33
953.826	1.17
954.254	-6.53
954.683	-2.63
955.112	4.37
955.54	-0.93
955.969	-5.03
956.397	-6.03
956.826	-6.43
957.254	-0.63
957.682	-6.23
958.111	0.97
958.539	-4.03
958.967	-1.83
959.396	-4.13
959.824	-1.93
960.252	-1.13
960.68	-5.83
961.109	-3.33
961.537	-2.73
961.965	0.27
962.393	-1.83
962.821	-4.73
963.249	3.97
963.677	9.17
964.105	5.07
964.533	41.77
964.961	34.37
965.389	20.47
965.817	3.47
966.245	-1.03
966.672	-0.83
967.1	-8.23
967.528	1.47
967.956	-0.43
968.383	-0.43
968.811	-3.63
969.239	0.17
969.666	-11.93
970.094	0.37
970.522	-1.93
970.949	-5.43
971.377	-6.73
971.804	-2.93
972.232	-2.73
972.659	-6.83
973.087	-1.73
973.514	-3.93
973.941	-5.73
974.369	2.77
974.796	-4.73
975.223	3.47
975.651	0.17
976.078	4.27
976.505	-0.43
976.932	2.67
977.359	16.27
977.786	15.17
978.214	-2.53
978.641	-7.93
979.068	1.97
979.495	-7.43
979.922	-1.53
980.349	-2.13
980.776	2.07
981.202	-1.13
981.629	0.37
982.056	2.37
982.483	-3.93
982.91	3.87
983.337	-7.33
983.763	2.77
984.19	-4.33
984.617	-0.53
985.043	-9.83
985.47	-4.63
985.897	-6.43
986.323	-12.03
986.75	3.07
987.176	-6.03
987.603	-2.03
988.029	2.07
988.456	-5.13
988.882	-1.13
989.308	-8.33
989.735	-5.43
990.161	-0.03
990.587	-6.33
991.014	-1.63
991.44	5.37
991.866	-5.03
992.292	-2.43
992.719	0.17
993.145	-1.13
993.571	-9.93
993.997	-1.83
994.423	-2.73
994.849	-6.73
995.275	7.07
995.701	-0.83
996.127	-2.93
996.553	0.67
996.979	-0.03
997.405	-3.53
997.83	-3.33
998.256	-7.13
998.682	-7.23
999.108	-8.33
999.534	-2.13
999.959	-2.33
1000.385	1.07
1000.811	1.07
1001.236	-8.03
1001.662	-10.13
1002.087	-12.43
1002.513	2.07
1002.938	6.17
1003.364	-1.53
1003.789	-3.23
1004.215	1.57
1004.64	2.27
1005.066	1.47
1005.491	-4.43
1005.916	-4.83
1006.342	-1.23
1006.767	-6.13
1007.192	1.17
1007.617	-12.23
1008.042	-2.13
1008.468	-15.83
1008.893	-7.03
1009.318	-8.03
1009.743	-3.63
1010.168	-3.53
1010.593	1.67
1011.018	-11.83
1011.443	-8.13
1011.868	3.87
1012.293	-2.13
1012.718	-12.03
1013.143	-0.33
1013.567	1.67
1013.992	-2.03
1014.417	-11.33
1014.842	0.17
1015.267	-6.33
1015.691	-2.13
1016.116	5.27
1016.541	0.57
1016.965	-1.03
1017.39	-5.13
1017.814	1.17
1018.239	-4.53
1018.663	-9.83
1019.088	-12.63
1019.512	2.07
1019.937	-7.93
1020.361	-8.33
1020.785	-14.03
1021.21	-1.63
1021.634	-3.73
1022.058	6.57
1022.483	4.17
1022.907	-3.53
1023.331	-1.53
1023.755	-7.33
1024.179	-5.23
1024.604	-11.43
1025.028	-6.23
1025.452	-7.23
1025.876	-11.43
1026.3	-1.83
1026.724	-5.83
1027.148	-7.13
1027.572	-9.73
1027.996	-3.53
1028.42	-2.93
1028.843	-3.43
1029.267	-11.03
1029.691	-3.83
1030.115	-10.03
1030.539	-8.93
1030.962	-8.83
1031.386	-13.33
1031.81	-1.03
1032.233	-5.03
1032.657	-2.33
1033.08	-3.73
1033.504	-5.23
1033.927	-3.83
1034.351	-5.63
1034.774	-3.93
1035.198	2.87
1035.621	-7.33
1036.045	-4.83
1036.468	-1.73
1036.891	-8.53
1037.315	-6.53
1037.738	-14.13
1038.161	0.27
1038.584	-7.03
1039.008	-10.23
1039.431	-3.33
1039.854	-5.03
1040.277	-4.63
1040.7	-17.03
1041.123	2.17
1041.546	-13.13
1041.969	-2.73
1042.392	-7.03
1042.815	-1.73
1043.238	-7.43
1043.661	-2.53
1044.084	-7.63
1044.507	-10.93
1044.93	-6.23
1045.352	-4.73
1045.775	-3.83
1046.198	-5.53
1046.621	-2.93
1047.043	-1.53
1047.466	-0.73
1047.889	1.37
1048.311	-3.73
1048.734	1.27
1049.156	-6.23
1049.579	-2.93
1050.001	-2.83
1050.424	-1.43
1050.846	-4.93
1051.269	1.27
1051.691	-9.63
1052.113	-5.13
1052.536	-2.63
1052.958	-0.63
1053.38	-7.73
1053.802	-11.43
1054.225	-6.93
1054.647	-11.93
1055.069	-5.83
1055.491	-4.03
1055.913	-6.83
1056.335	-5.93
1056.757	-8.83
1057.179	-9.83
1057.601	-3.83
1058.023	-1.93
1058.445	-5.23
1058.867	-6.13
1059.289	-9.43
1059.711	-6.93
1060.133	-2.33
1060.555	-8.53
1060.976	-8.63
1061.398	-11.53
1061.82	-9.23
1062.241	-6.23
1062.663	-10.53
1063.085	-8.03
1063.506	-1.93
1063.928	-8.73
1064.35	-6.03
1064.771	-11.93
1065.193	1.47
1065.614	-5.53
1066.035	-9.43
1066.457	-2.03
1066.878	-6.13
1067.3	-9.23
1067.721	-3.83
1068.142	-6.93
1068.564	-2.93
1068.985	-7.43
1069.406	-8.73
1069.827	-3.73
1070.248	-3.83
1070.67	-11.63
1071.091	-6.13
1071.512	-3.43
1071.933	-7.53
1072.354	-7.23
1072.775	-4.03
1073.196	-8.53
1073.617	-7.13
1074.038	-9.13
1074.459	-2.83
1074.88	-9.83
1075.3	0.47
1075.721	-7.03
1076.142	-3.43
1076.563	-2.23
1076.983	-10.13
1077.404	-3.83
1077.825	-16.33
1078.246	-8.93
1078.666	-8.83
1079.087	-3.53
1079.507	-3.03
1079.928	-3.33
1080.348	0.17
1080.769	-12.13
1081.189	-5.23
1081.61	-11.73
1082.03	-8.93
1082.451	-9.73
1082.871	-0.83
1083.291	-8.83
1083.711	-13.03
1084.132	-11.93
1084.552	-4.33
1084.972	-4.63
1085.392	-5.23
1085.813	-15.63
1086.233	-15.63
1086.653	-9.13
1087.073	-6.83
1087.493	-9.13
1087.913	-2.73
1088.333	-10.43
1088.753	-9.63
1089.173	-0.43
1089.593	-8.53
1090.013	-0.53
1090.433	0.17
1090.852	-8.83
1091.272	0.07
1091.692	-3.63
1092.112	-5.23
1092.531	-8.23
1092.951	-20.43
1093.371	0.57
1093.79	-1.73
1094.21	-3.63
1094.63	-6.63
1095.049	-7.03
1095.469	-4.83
1095.888	-7.33
1096.308	-5.13
1096.727	6.77
1097.146	-10.43
1097.566	-5.13
1097.985	-10.83
1098.405	-3.23
1098.824	-5.13
1099.243	-4.53
1099.662	-12.23
1100.082	-5.83
1100.501	-3.33
1100.92	-11.83
1101.339	-3.83
1101.758	-10.53
