Data from 20171114-ORNL-Ar_H_NY_Subt18_08-04-30-179.txt Node
Date: Tue Nov 14 08:04:30 EST 2017
User: Ender
Spectrometer: HR+D1039
Trigger mode: 0
Integration Time (sec): 2.730000E-2
Scans to average: 10
Electric dark correction enabled: true
Nonlinearity correction enabled: false
Boxcar width: 0
XAxis mode: Wavelengths
Number of Pixels in Spectrum: 2048
>>>>>Begin Spectral Data<<<<<
187.836	-1.49
188.309	-1.49
188.782	-1.49
189.255	-0.69
189.728	-3.59
190.201	0.81
190.674	-0.59
191.147	6.81
191.619	-3.89
192.092	7.71
192.565	3.61
193.038	0.41
193.511	0.11
193.984	-5.39
194.456	2.51
194.929	-2.69
195.402	-2.59
195.874	-0.99
196.347	-0.99
196.82	-10.29
197.292	0.61
197.765	0.91
198.237	-5.79
198.71	3.11
199.182	-0.89
199.655	3.81
200.127	6.01
200.6	3.21
201.072	-1.49
201.544	-0.59
202.017	0.71
202.489	3.71
202.961	1.11
203.433	-1.99
203.906	1.41
204.378	-5.99
204.85	-3.99
205.322	-11.69
205.794	-2.49
206.266	1.91
206.739	-5.09
207.211	2.01
207.683	-8.69
208.155	-7.59
208.627	-0.89
209.099	-4.59
209.57	-7.89
210.042	1.61
210.514	-0.39
210.986	-5.09
211.458	-5.19
211.93	-1.89
212.402	2.41
212.873	-5.29
213.345	-2.39
213.817	-5.89
214.288	0.51
214.76	-8.19
215.232	-2.49
215.703	-3.09
216.175	0.61
216.646	-0.29
217.118	-6.49
217.589	-1.09
218.061	-1.29
218.532	-2.49
219.004	-3.19
219.475	-2.29
219.946	0.11
220.418	-11.09
220.889	6.21
221.36	-1.19
221.832	-0.99
222.303	-4.09
222.774	6.41
223.245	-6.69
223.717	-4.09
224.188	-7.09
224.659	-8.59
225.13	-5.59
225.601	-8.49
226.072	1.11
226.543	2.81
227.014	-2.09
227.485	-2.29
227.956	-2.99
228.427	4.61
228.898	-0.99
229.369	1.91
229.839	1.81
230.31	-7.39
230.781	0.91
231.252	-1.69
231.722	-2.09
232.193	-2.19
232.664	1.91
233.135	0.81
233.605	-2.49
234.076	-6.19
234.546	5.41
235.017	5.01
235.487	5.31
235.958	0.21
236.428	-1.59
236.899	6.11
237.369	5.61
237.84	3.81
238.31	6.61
238.78	8.31
239.251	4.31
239.721	7.01
240.191	-0.69
240.662	2.21
241.132	3.91
241.602	0.71
242.072	7.21
242.542	8.11
243.013	4.11
243.483	7.71
243.953	4.21
244.423	-3.99
244.893	0.71
245.363	8.51
245.833	2.11
246.303	-0.49
246.773	13.31
247.243	5.41
247.712	5.91
248.182	6.41
248.652	4.61
249.122	2.51
249.592	12.11
250.061	26.41
250.531	36.01
251.001	19.81
251.471	27.01
251.94	16.71
252.41	5.31
252.879	5.21
253.349	13.21
253.818	14.01
254.288	5.81
254.757	8.41
255.227	7.91
255.696	12.11
256.166	8.31
256.635	13.41
257.105	9.71
257.574	9.31
258.043	11.21
258.513	19.41
258.982	24.21
259.451	10.11
259.92	17.11
260.389	19.61
260.859	21.71
261.328	18.21
261.797	19.91
262.266	10.61
262.735	12.81
263.204	8.11
263.673	-0.39
264.142	14.11
264.611	0.31
265.08	3.51
265.549	3.81
266.018	11.91
266.487	0.71
266.955	-1.79
267.424	0.21
267.893	6.81
268.362	4.51
268.83	5.81
269.299	11.51
269.768	8.41
270.236	9.61
270.705	9.71
271.174	7.21
271.642	8.21
272.111	10.91
272.579	21.21
273.048	25.71
273.516	30.71
273.985	28.81
274.453	30.91
274.922	16.01
275.39	15.11
275.858	11.11
276.327	16.31
276.795	21.31
277.263	14.31
277.731	34.31
278.2	57.01
278.668	67.11
279.136	50.11
279.604	18.91
280.072	20.41
280.54	16.81
281.008	11.91
281.477	18.61
281.945	9.31
282.413	14.91
282.881	21.51
283.348	11.91
283.816	18.01
284.284	17.01
284.752	20.91
285.22	14.41
285.688	16.61
286.156	16.01
286.623	44.01
287.091	57.11
287.559	32.81
288.026	24.31
288.494	18.81
288.962	9.51
289.429	15.71
289.897	17.81
290.364	17.71
290.832	19.51
291.3	17.31
291.767	17.21
292.234	16.21
292.702	17.11
293.169	18.91
293.637	27.21
294.104	24.91
294.571	17.51
295.039	17.91
295.506	15.51
295.973	21.01
296.44	21.11
296.908	20.01
297.375	20.11
297.842	21.51
298.309	16.51
298.776	13.21
299.243	24.01
299.71	19.91
300.177	23.41
300.644	23.31
301.111	24.01
301.578	24.41
302.045	11.81
302.512	24.11
302.979	28.61
303.446	25.31
303.913	18.61
304.379	21.71
304.846	27.81
305.313	22.41
305.78	21.91
306.246	25.21
306.713	30.81
307.18	28.51
307.646	32.61
308.113	31.51
308.579	29.91
309.046	29.21
309.512	28.81
309.979	14.11
310.445	26.31
310.912	29.71
311.378	30.01
311.845	33.01
312.311	31.31
312.777	31.21
313.244	34.21
313.71	39.11
314.176	31.91
314.642	31.91
315.109	36.01
315.575	38.41
316.041	36.31
316.507	37.81
316.973	40.01
317.439	38.91
317.905	36.81
318.371	34.51
318.837	35.61
319.303	33.21
319.769	32.71
320.235	33.01
320.701	42.41
321.167	34.61
321.633	40.71
322.099	39.41
322.564	46.31
323.03	36.81
323.496	40.51
323.962	37.51
324.427	43.01
324.893	38.51
325.359	38.81
325.824	42.81
326.29	35.61
326.755	44.91
327.221	39.91
327.686	44.91
328.152	44.51
328.617	45.11
329.083	38.11
329.548	53.81
330.014	47.41
330.479	42.21
330.944	42.61
331.41	44.61
331.875	51.21
332.34	42.21
332.805	38.71
333.271	46.31
333.736	43.71
334.201	51.51
334.666	50.81
335.131	54.61
335.596	51.01
336.061	54.11
336.526	43.61
336.991	47.61
337.456	53.81
337.921	47.51
338.386	46.61
338.851	51.31
339.316	51.41
339.781	44.11
340.246	53.41
340.711	46.11
341.175	50.71
341.64	47.51
342.105	50.51
342.569	47.51
343.034	49.71
343.499	49.81
343.963	46.11
344.428	61.01
344.893	58.31
345.357	60.21
345.822	60.91
346.286	64.81
346.751	66.91
347.215	63.31
347.679	64.81
348.144	94.61
348.608	81.51
349.073	58.71
349.537	72.51
350.001	75.61
350.465	86.61
350.93	77.71
351.394	84.41
351.858	69.61
352.322	85.41
352.786	75.71
353.25	96.71
353.715	106.51
354.179	95.31
354.643	114.41
355.107	114.71
355.571	107.91
356.035	105.31
356.498	114.11
356.962	120.81
357.426	129.11
357.89	113.21
358.354	83.11
358.818	84.11
359.281	78.61
359.745	74.31
360.209	77.11
360.673	76.31
361.136	81.31
361.6	84.21
362.064	84.71
362.527	87.21
362.991	85.61
363.454	80.51
363.918	74.01
364.381	77.01
364.845	78.51
365.308	86.31
365.772	79.31
366.235	85.61
366.698	81.81
367.162	82.51
367.625	81.81
368.088	81.21
368.552	82.81
369.015	82.11
369.478	89.11
369.941	95.31
370.404	94.61
370.867	100.31
371.331	103.91
371.794	115.41
372.257	113.61
372.72	109.71
373.183	100.81
373.646	102.01
374.109	97.11
374.572	101.51
375.035	98.41
375.497	104.21
375.96	99.61
376.423	101.51
376.886	100.31
377.349	105.11
377.811	96.81
378.274	102.01
378.737	97.51
379.199	108.51
379.662	107.81
380.125	114.41
380.587	111.11
381.05	115.01
381.512	122.51
381.975	127.21
382.437	121.01
382.9	120.01
383.362	124.11
383.825	131.91
384.287	136.51
384.75	140.71
385.212	142.51
385.674	134.81
386.136	125.51
386.599	116.61
387.061	122.41
387.523	119.11
387.985	125.51
388.447	135.21
388.91	137.21
389.372	145.81
389.834	142.01
390.296	134.81
390.758	147.91
391.22	158.01
391.682	194.91
392.144	275.81
392.606	219.21
393.068	162.21
393.529	156.21
393.991	142.41
394.453	143.81
394.915	146.71
395.377	178.81
395.838	201.01
396.3	148.21
396.762	141.41
397.224	124.01
397.685	119.71
398.147	126.21
398.608	116.31
399.07	111.01
399.531	127.71
399.993	132.31
400.454	134.31
400.916	135.61
401.377	135.01
401.839	145.41
402.3	138.11
402.762	155.91
403.223	163.91
403.684	159.21
404.145	145.01
404.607	147.81
405.068	155.51
405.529	162.11
405.99	172.51
406.451	159.41
406.913	162.01
407.374	149.41
407.835	144.91
408.296	160.91
408.757	158.91
409.218	175.81
409.679	166.11
410.14	163.11
410.601	168.91
411.062	169.31
411.522	171.91
411.983	181.41
412.444	158.11
412.905	160.61
413.366	166.81
413.826	186.21
414.287	199.71
414.748	250.51
415.208	234.41
415.669	191.91
416.13	192.31
416.59	184.51
417.051	198.71
417.511	205.61
417.972	221.61
418.432	231.91
418.893	267.71
419.353	240.91
419.814	185.31
420.274	170.11
420.734	167.01
421.195	182.01
421.655	182.11
422.115	181.91
422.576	173.91
423.036	182.01
423.496	195.21
423.956	202.41
424.416	215.31
424.876	251.21
425.336	242.21
425.797	237.61
426.257	231.31
426.717	213.71
427.177	211.11
427.637	195.91
428.097	213.11
428.556	227.01
429.016	252.01
429.476	234.71
429.936	243.91
430.396	258.31
430.856	263.31
431.315	290.51
431.775	316.61
432.235	348.81
432.694	327.61
433.154	334.81
433.614	353.81
434.073	310.71
434.533	260.91
434.993	245.21
435.452	263.41
435.912	270.51
436.371	260.01
436.83	259.11
437.29	251.51
437.749	236.31
438.209	226.51
438.668	254.31
439.127	261.71
439.587	245.51
440.046	216.91
440.505	243.31
440.964	256.21
441.424	294.61
441.883	282.51
442.342	239.41
442.801	204.21
443.26	199.61
443.719	202.51
444.178	202.31
444.637	189.31
445.096	200.41
445.555	204.51
446.014	201.61
446.473	203.51
446.932	210.91
447.391	204.41
447.849	214.11
448.308	205.71
448.767	205.91
449.226	213.41
449.685	221.61
450.143	236.11
450.602	221.51
451.061	210.31
451.519	207.71
451.978	214.01
452.436	209.51
452.895	223.31
453.353	230.61
453.812	223.61
454.27	224.61
454.729	223.21
455.187	216.21
455.646	225.91
456.104	223.31
456.562	232.71
457.021	246.31
457.479	239.91
457.937	250.61
458.395	243.81
458.854	228.41
459.312	228.41
459.77	247.21
460.228	232.01
460.686	221.21
461.144	225.01
461.602	223.51
462.06	224.11
462.518	225.61
462.976	235.21
463.434	237.41
463.892	249.21
464.35	254.21
464.808	268.51
465.266	242.31
465.724	238.41
466.181	249.31
466.639	246.51
467.097	266.51
467.555	276.31
468.012	274.61
468.47	287.51
468.928	300.41
469.385	313.41
469.843	319.71
470.3	321.81
470.758	326.91
471.215	349.31
471.673	364.21
472.13	366.51
472.588	377.01
473.045	339.61
473.503	340.11
473.96	369.81
474.417	373.21
474.875	399.81
475.332	427.71
475.789	425.21
476.246	416.41
476.704	451.81
477.161	463.51
477.618	478.51
478.075	518.51
478.532	564.21
478.989	635.61
479.446	735.51
479.903	706.01
480.36	742.41
480.817	795.71
481.274	898.61
481.731	993.31
482.188	1074.31
482.645	1204.31
483.102	1298.61
483.558	1435.21
484.015	1484.71
484.472	1465.71
484.929	1405.11
485.385	1376.61
485.842	1328.91
486.299	1271.11
486.755	1201.81
487.212	1006.81
487.668	851.21
488.125	792.51
488.582	718.31
489.038	682.21
489.494	653.71
489.951	635.01
490.407	613.21
490.864	594.01
491.32	593.51
491.776	589.81
492.233	588.81
492.689	564.51
493.145	553.11
493.602	549.01
494.058	562.91
494.514	557.41
494.97	585.31
495.426	591.21
495.882	568.41
496.338	561.01
496.794	569.61
497.251	565.31
497.707	590.41
498.163	587.41
498.618	591.61
499.074	594.81
499.53	608.61
499.986	616.81
500.442	583.21
500.898	578.31
501.354	570.71
501.809	582.01
502.265	589.91
502.721	608.11
503.177	610.31
503.632	605.31
504.088	611.61
504.543	654.51
504.999	644.61
505.455	605.41
505.91	585.11
506.366	581.51
506.821	569.21
507.277	581.51
507.732	574.61
508.187	571.91
508.643	579.21
509.098	574.11
509.553	595.01
510.009	606.41
510.464	612.71
510.919	629.51
511.375	631.61
511.83	642.71
512.285	655.91
512.74	691.41
513.195	708.81
513.65	710.51
514.105	712.51
514.56	707.81
515.015	729.21
515.47	744.41
515.925	735.41
516.38	723.31
516.835	729.81
517.29	723.01
517.745	715.11
518.2	699.31
518.655	686.01
519.109	677.31
519.564	688.11
520.019	668.71
520.474	664.61
520.928	666.91
521.383	659.61
521.838	647.11
522.292	657.81
522.747	646.21
523.201	641.51
523.656	631.51
524.11	632.71
524.565	628.81
525.019	619.51
525.474	638.61
525.928	644.51
526.382	631.71
526.837	639.61
527.291	645.61
527.745	644.81
528.2	637.21
528.654	630.71
529.108	626.01
529.562	620.51
530.016	631.01
530.47	627.01
530.925	623.61
531.379	637.01
531.833	645.91
532.287	637.71
532.741	644.21
533.195	640.11
533.649	650.31
534.103	652.11
534.556	651.51
535.01	651.31
535.464	650.71
535.918	659.61
536.372	647.41
536.826	652.41
537.279	637.01
537.733	640.71
538.187	643.91
538.64	642.41
539.094	651.61
539.548	663.01
540.001	654.41
540.455	657.11
540.908	664.01
541.362	663.01
541.815	676.51
542.269	680.31
542.722	689.21
543.175	692.91
543.629	698.81
544.082	707.81
544.536	716.11
544.989	712.51
545.442	709.91
545.895	711.91
546.349	711.11
546.802	727.01
547.255	712.61
547.708	724.11
548.161	738.51
548.614	742.21
549.067	743.41
549.52	727.81
549.973	735.51
550.426	727.31
550.879	727.41
551.332	719.71
551.785	717.71
552.238	726.91
552.691	733.61
553.144	751.31
553.596	764.91
554.049	779.21
554.502	809.31
554.955	822.81
555.407	812.61
555.86	818.61
556.313	794.31
556.765	787.51
557.218	796.01
557.67	792.51
558.123	788.71
558.576	776.41
559.028	786.31
559.48	798.31
559.933	789.51
560.385	745.11
560.838	722.31
561.29	698.01
561.742	703.41
562.195	677.61
562.647	672.71
563.099	696.81
563.551	685.81
564.004	693.31
564.456	687.41
564.908	684.11
565.36	674.51
565.812	654.81
566.264	648.21
566.716	638.71
567.168	634.71
567.62	637.01
568.072	628.91
568.524	617.21
568.976	612.61
569.428	597.21
569.88	602.11
570.332	601.41
570.784	603.31
571.235	608.81
571.687	610.11
572.139	617.61
572.59	635.41
573.042	635.61
573.494	630.61
573.945	618.01
574.397	602.01
574.849	602.61
575.3	617.91
575.752	604.41
576.203	605.21
576.655	601.11
577.106	601.01
577.557	583.11
578.009	585.41
578.46	588.91
578.912	586.41
579.363	580.31
579.814	586.61
580.265	585.21
580.717	590.51
581.168	597.11
581.619	598.61
582.07	600.01
582.521	598.91
582.972	596.01
583.423	604.51
583.875	593.91
584.326	618.61
584.777	667.11
585.227	723.51
585.678	799.71
586.129	886.71
586.58	960.71
587.031	1048.31
587.482	1189.61
587.933	1361.81
588.384	1168.31
588.834	864.31
589.285	704.61
589.736	686.21
590.186	676.11
590.637	671.81
591.088	650.91
591.538	636.21
591.989	643.91
592.439	644.41
592.89	622.01
593.34	622.71
593.791	617.61
594.241	622.21
594.692	618.71
595.142	612.01
595.593	609.41
596.043	617.01
596.493	619.21
596.943	615.41
597.394	623.61
597.844	616.51
598.294	635.91
598.744	665.91
599.195	676.91
599.645	711.21
600.095	739.31
600.545	790.41
600.995	834.11
601.445	883.21
601.895	944.71
602.345	993.51
602.795	962.21
603.245	931.51
603.695	868.91
604.145	832.61
604.594	787.91
605.044	750.61
605.494	694.61
605.944	653.01
606.393	640.01
606.843	624.91
607.293	637.91
607.743	628.41
608.192	640.51
608.642	649.21
609.091	669.71
609.541	670.21
609.99	669.01
610.44	651.91
610.889	619.61
611.339	607.11
611.788	587.61
612.238	604.21
612.687	622.11
613.136	622.61
613.586	639.51
614.035	632.01
614.484	650.81
614.933	652.31
615.383	653.61
615.832	628.51
616.281	616.81
616.73	587.31
617.179	573.11
617.628	554.81
618.077	535.51
618.526	531.51
618.975	524.91
619.424	526.71
619.873	527.31
620.322	517.91
620.771	516.11
621.22	514.91
621.669	510.71
622.118	496.51
622.567	498.81
623.015	488.41
623.464	485.41
623.913	474.91
624.361	477.51
624.81	474.21
625.259	474.41
625.707	471.81
626.156	478.41
626.604	489.21
627.053	479.51
627.501	483.51
627.95	487.61
628.398	500.61
628.847	482.91
629.295	480.91
629.744	489.31
630.192	487.31
630.64	480.91
631.089	479.81
631.537	488.31
631.985	495.71
632.433	508.21
632.881	513.31
633.33	548.61
633.778	537.11
634.226	477.71
634.674	482.71
635.122	483.21
635.57	506.01
636.018	531.61
636.466	494.51
636.914	473.31
637.362	476.11
637.81	488.21
638.258	485.31
638.705	497.21
639.153	510.51
639.601	517.61
640.049	537.41
640.497	564.11
640.944	588.61
641.392	542.81
641.84	512.01
642.287	490.21
642.735	472.51
643.182	486.11
643.63	480.61
644.078	486.61
644.525	495.41
644.973	499.41
645.42	505.01
645.867	517.71
646.315	537.01
646.762	553.71
647.21	581.11
647.657	606.31
648.104	626.61
648.551	649.71
648.999	703.41
649.446	765.71
649.893	852.01
650.34	968.31
650.787	1161.81
651.234	1444.21
651.682	1860.81
652.129	2564.91
652.576	3664.91
653.023	5444.41
653.47	7507.81
653.917	9523.31
654.363	11162.71
654.81	12570.41
655.257	11926.51
655.704	7711.81
656.151	4509.31
656.598	2922.91
657.044	2056.51
657.491	1563.91
657.938	1262.41
658.385	1051.31
658.831	913.71
659.278	815.31
659.724	727.31
660.171	656.11
660.618	605.81
661.064	566.91
661.511	557.71
661.957	525.81
662.404	529.71
662.85	536.21
663.296	514.01
663.743	467.91
664.189	447.91
664.635	443.31
665.082	442.11
665.528	438.91
665.974	430.61
666.42	419.81
666.867	423.41
667.313	406.11
667.759	405.91
668.205	407.81
668.651	409.41
669.097	401.21
669.543	424.61
669.989	393.91
670.435	371.21
670.881	366.61
671.327	377.01
671.773	392.01
672.219	407.21
672.665	453.31
673.11	485.31
673.556	518.91
674.002	551.31
674.448	552.01
674.893	461.91
675.339	403.21
675.785	365.41
676.23	341.71
676.676	327.31
677.122	314.01
677.567	309.11
678.013	296.01
678.458	300.51
678.904	291.51
679.349	284.91
679.794	289.01
680.24	289.21
680.685	284.21
681.131	286.81
681.576	287.51
682.021	294.81
682.466	286.01
682.912	284.51
683.357	291.11
683.802	310.71
684.247	330.11
684.692	364.81
685.137	405.41
685.583	433.01
686.028	462.11
686.473	432.81
686.918	376.41
687.363	345.81
687.807	328.71
688.252	303.41
688.697	296.41
689.142	275.61
689.587	271.61
690.032	265.81
690.477	273.81
690.921	289.21
691.366	314.11
691.811	328.51
692.255	355.31
692.7	384.21
693.145	400.71
693.589	555.21
694.034	905.21
694.478	1261.51
694.923	1447.41
695.367	1919.21
695.812	1002.91
696.256	408.81
696.701	305.11
697.145	286.11
697.59	270.01
698.034	258.21
698.478	273.01
698.922	267.51
699.367	268.11
699.811	276.01
700.255	288.11
700.699	312.41
701.143	348.21
701.588	388.21
702.032	427.81
702.476	429.51
702.92	405.51
703.364	399.81
703.808	502.41
704.252	826.21
704.696	1176.61
705.14	1400.31
705.584	1799.81
706.027	886.31
706.471	435.71
706.915	320.61
707.359	288.81
707.803	256.81
708.246	258.61
708.69	256.71
709.134	263.71
709.577	253.81
710.021	262.01
710.465	253.21
710.908	244.31
711.352	247.51
711.795	253.41
712.239	283.11
712.682	317.41
713.126	349.81
713.569	392.01
714.012	300.81
714.456	271.81
714.899	249.01
715.342	224.11
715.786	215.61
716.229	215.91
716.672	206.41
717.115	209.61
717.558	205.71
718.002	202.61
718.445	214.41
718.888	235.51
719.331	246.51
719.774	256.51
720.217	251.61
720.66	232.51
721.103	222.11
721.546	207.11
721.989	202.01
722.432	192.11
722.874	191.61
723.317	187.51
723.76	194.91
724.203	205.31
724.645	253.11
725.088	355.51
725.531	466.91
725.974	535.01
726.416	455.11
726.859	247.11
727.301	203.01
727.744	190.91
728.187	192.01
728.629	198.71
729.071	201.01
729.514	209.51
729.956	221.11
730.399	236.91
730.841	239.51
731.283	228.21
731.726	220.61
732.168	217.61
732.61	224.01
733.053	229.91
733.495	256.31
733.937	286.51
734.379	329.81
734.821	350.61
735.263	431.31
735.705	662.71
736.148	1242.01
736.59	2085.01
737.032	2586.21
737.474	2091.81
737.916	662.91
738.357	344.01
738.799	266.71
739.241	249.41
739.683	227.91
740.125	244.41
740.567	237.51
741.008	257.01
741.45	258.21
741.892	256.01
742.334	279.11
742.775	295.51
743.217	281.21
743.658	220.01
744.1	202.31
744.542	214.71
744.983	250.31
745.425	282.61
745.866	289.61
746.307	230.21
746.749	227.41
747.19	257.21
747.632	363.21
748.073	692.51
748.514	1474.41
748.956	2328.11
749.397	2927.01
749.838	2433.31
750.279	2497.81
750.72	1252.61
751.162	457.41
751.603	261.21
752.044	208.21
752.485	173.31
752.926	171.71
753.367	168.61
753.808	161.31
754.249	160.31
754.69	152.21
755.131	152.71
755.572	150.51
756.013	143.41
756.453	151.91
756.894	153.01
757.335	151.51
757.776	158.81
758.216	164.41
758.657	159.21
759.098	159.71
759.538	181.01
759.979	215.01
760.42	296.31
760.86	552.01
761.301	1419.91
761.741	3562.11
762.182	5486.41
762.622	3860.41
763.063	1091.31
763.503	440.21
763.943	280.31
764.384	282.41
764.824	339.61
765.264	372.11
765.705	256.11
766.145	165.01
766.585	162.01
767.025	146.11
767.465	145.11
767.906	197.51
768.346	263.91
768.786	288.61
769.226	212.91
769.666	258.21
770.106	481.81
770.546	1222.51
770.986	2200.71
771.426	2007.01
771.866	645.41
772.306	263.61
772.745	166.81
773.185	141.51
773.625	142.11
774.065	136.81
774.505	160.51
774.944	241.31
775.384	554.71
775.824	1038.11
776.263	1041.01
776.703	433.81
777.142	182.01
777.582	128.11
778.021	113.71
778.461	111.01
778.9	116.81
779.34	109.11
779.779	94.61
780.219	91.81
780.658	91.21
781.097	87.11
781.537	90.91
781.976	83.21
782.415	87.11
782.855	83.11
783.294	81.61
783.733	83.01
784.172	91.61
784.611	84.41
785.05	82.31
785.489	87.31
785.928	100.91
786.367	102.91
786.806	97.51
787.245	104.81
787.684	109.51
788.123	124.61
788.562	111.21
789.001	98.81
789.44	100.21
789.879	99.81
790.317	95.81
790.756	103.11
791.195	104.41
791.634	122.41
792.072	166.31
792.511	293.21
792.95	784.81
793.388	1770.61
793.827	1657.81
794.265	556.51
794.704	227.91
795.142	147.01
795.581	128.81
796.019	114.91
796.458	105.11
796.896	108.41
797.334	109.31
797.773	124.61
798.211	174.71
798.649	341.41
799.087	820.71
799.526	1303.51
799.964	1645.61
800.402	1711.41
800.84	630.01
801.278	247.81
801.716	143.51
802.154	126.51
802.592	115.01
803.03	119.11
803.468	104.71
803.906	112.81
804.344	122.61
804.782	114.11
805.22	108.21
805.658	106.51
806.096	123.81
806.533	125.01
806.971	139.11
807.409	169.91
807.847	250.61
808.284	511.61
808.722	1487.01
809.16	2741.61
809.597	2523.91
810.035	4496.51
810.472	4996.71
810.91	1780.21
811.347	667.01
811.785	338.21
812.222	209.71
812.66	162.41
813.097	136.71
813.535	116.01
813.972	110.61
814.409	96.01
814.846	89.81
815.284	93.81
815.721	80.71
816.158	89.31
816.595	98.01
817.032	150.21
817.47	165.41
817.907	141.61
818.344	125.41
818.781	96.61
819.218	80.11
819.655	97.71
820.092	154.31
820.529	180.51
820.966	153.61
821.403	113.21
821.839	93.41
822.276	89.71
822.713	108.21
823.15	112.21
823.587	99.01
824.023	114.21
824.46	233.51
824.897	723.31
825.333	1143.51
825.77	486.31
826.206	191.71
826.643	109.01
827.08	78.21
827.516	71.01
827.953	64.21
828.389	68.01
828.825	61.81
829.262	55.51
829.698	56.11
830.135	52.01
830.571	51.01
831.007	47.31
831.443	53.81
831.88	52.81
832.316	53.91
832.752	52.81
833.188	55.91
833.624	57.11
834.06	59.11
834.497	58.51
834.933	65.81
835.369	65.71
835.805	51.31
836.241	56.41
836.677	63.61
837.112	66.81
837.548	84.01
837.984	111.71
838.42	157.61
838.856	392.21
839.292	1235.21
839.727	1947.81
840.163	898.71
840.599	732.11
841.034	1679.11
841.47	1837.71
841.906	665.61
842.341	273.61
842.777	189.41
843.212	273.11
843.648	272.41
844.083	128.51
844.519	84.51
844.954	57.11
845.39	48.61
845.825	51.41
846.261	46.11
846.696	46.61
847.131	45.21
847.566	43.21
848.002	40.21
848.437	45.11
848.872	48.21
849.307	45.81
849.742	68.31
850.177	146.41
850.613	454.21
851.048	745.11
851.483	312.61
851.918	127.21
852.353	68.41
852.788	55.31
853.223	50.91
853.657	44.51
854.092	42.51
854.527	34.81
854.962	34.31
855.397	37.91
855.832	46.71
856.266	34.11
856.701	31.81
857.136	27.91
857.57	35.71
858.005	36.01
858.44	51.01
858.874	31.41
859.309	47.01
859.743	32.21
860.178	38.11
860.612	36.21
861.047	41.61
861.481	53.51
861.915	55.91
862.35	41.71
862.784	30.81
863.218	32.21
863.653	27.81
864.087	40.61
864.521	51.51
864.955	59.21
865.39	122.31
865.824	149.71
866.258	95.21
866.692	141.91
867.126	144.61
867.56	94.41
867.994	39.91
868.428	29.81
868.862	36.71
869.296	44.31
869.73	50.31
870.164	47.31
870.598	38.91
871.031	32.91
871.465	29.11
871.899	28.11
872.333	18.61
872.766	17.61
873.2	16.11
873.634	26.61
874.067	19.61
874.501	21.01
874.935	28.31
875.368	28.61
875.802	20.51
876.235	22.71
876.669	21.51
877.102	22.21
877.535	21.41
877.969	18.71
878.402	23.71
878.836	13.01
879.269	18.31
879.702	19.11
880.135	16.51
880.569	21.21
881.002	24.41
881.435	18.41
881.868	7.41
882.301	17.91
882.734	16.51
883.167	26.11
883.601	17.01
884.034	17.31
884.467	10.11
884.899	14.51
885.332	17.81
885.765	10.71
886.198	11.51
886.631	11.11
887.064	14.51
887.497	19.31
887.929	25.41
888.362	13.91
888.795	12.31
889.228	18.91
889.66	14.91
890.093	13.41
890.526	12.71
890.958	14.31
891.391	16.61
891.823	17.01
892.256	13.21
892.688	11.21
893.121	10.81
893.553	7.31
893.985	20.41
894.418	14.91
894.85	6.41
895.282	8.21
895.715	15.81
896.147	12.01
896.579	20.71
897.011	12.31
897.444	17.71
897.876	10.91
898.308	17.81
898.74	7.71
899.172	9.61
899.604	24.61
900.036	16.91
900.468	10.31
900.9	10.81
901.332	14.31
901.764	10.51
902.196	12.91
902.628	18.61
903.06	13.01
903.491	25.21
903.923	22.31
904.355	16.71
904.787	22.71
905.218	19.81
905.65	17.61
906.082	9.91
906.513	8.81
906.945	11.31
907.376	14.81
907.808	13.41
908.239	15.31
908.671	15.81
909.102	19.81
909.534	17.11
909.965	41.51
910.397	76.51
910.828	256.71
911.259	407.21
911.691	184.81
912.122	87.81
912.553	41.71
912.984	30.21
913.415	18.81
913.847	23.81
914.278	8.31
914.709	12.41
915.14	17.31
915.571	18.71
916.002	13.81
916.433	16.41
916.864	14.21
917.295	10.71
917.726	15.11
918.157	10.71
918.587	30.31
919.018	18.61
919.449	19.21
919.88	19.51
920.311	23.31
920.741	36.11
921.172	141.01
921.603	126.91
922.033	66.51
922.464	38.71
922.895	22.91
923.325	11.91
923.756	19.91
924.186	9.01
924.617	19.61
925.047	33.41
925.478	49.81
925.908	42.81
926.338	19.81
926.769	10.41
927.199	20.61
927.629	4.41
928.06	12.81
928.49	7.51
928.92	13.41
929.35	13.91
929.78	12.11
930.21	11.21
930.641	10.91
931.071	6.81
931.501	-1.69
931.931	8.61
932.361	12.31
932.791	-1.59
933.221	1.41
933.651	6.31
934.08	15.81
934.51	29.51
934.94	9.21
935.37	11.01
935.8	9.91
936.229	7.41
936.659	12.21
937.089	3.91
937.519	17.21
937.948	26.01
938.378	12.21
938.807	3.21
939.237	4.01
939.666	4.21
940.096	-2.79
940.525	-0.09
940.955	0.61
941.384	5.31
941.814	0.01
942.243	-0.59
942.672	2.41
943.102	-1.89
943.531	1.11
943.96	-1.69
944.39	5.11
944.819	1.91
945.248	1.51
945.677	-0.79
946.106	4.11
946.535	3.61
946.964	7.61
947.393	0.01
947.822	0.51
948.251	-1.09
948.68	2.51
949.109	8.01
949.538	5.71
949.967	2.71
950.396	3.81
950.825	-1.09
951.254	-1.19
951.682	-9.29
952.111	6.81
952.54	5.01
952.969	-4.39
953.397	-0.09
953.826	-0.59
954.254	-4.29
954.683	1.11
955.112	-4.09
955.54	0.61
955.969	1.21
956.397	5.61
956.826	-5.19
957.254	4.31
957.682	-0.49
958.111	4.41
958.539	-1.39
958.967	-4.09
959.396	1.81
959.824	-4.59
960.252	-1.09
960.68	-5.69
961.109	-3.69
961.537	-4.29
961.965	2.71
962.393	-3.49
962.821	-7.19
963.249	-2.19
963.677	4.11
964.105	6.11
964.533	37.01
964.961	33.71
965.389	19.41
965.817	6.21
966.245	0.01
966.672	2.31
967.1	-2.69
967.528	-2.39
967.956	-0.19
968.383	1.51
968.811	-1.69
969.239	-0.99
969.666	-0.49
970.094	2.71
970.522	-2.29
970.949	6.81
971.377	-0.99
971.804	-5.49
972.232	-4.29
972.659	-2.69
973.087	-8.49
973.514	-1.19
973.941	-8.99
974.369	-0.19
974.796	4.81
975.223	1.81
975.651	-0.99
976.078	1.11
976.505	2.41
976.932	-1.69
977.359	10.81
977.786	15.81
978.214	3.21
978.641	-2.59
979.068	-6.59
979.495	1.21
979.922	-1.39
980.349	-2.49
980.776	-1.19
981.202	1.51
981.629	-1.49
982.056	4.01
982.483	-3.49
982.91	2.71
983.337	-4.29
983.763	0.61
984.19	0.71
984.617	-1.59
985.043	-2.19
985.47	-1.09
985.897	-5.89
986.323	-3.49
986.75	2.71
987.176	-4.39
987.603	-1.79
988.029	-5.99
988.456	-3.79
988.882	3.81
989.308	-7.69
989.735	-5.59
990.161	1.91
990.587	-0.79
991.014	-0.09
991.44	5.01
991.866	-2.69
992.292	-3.29
992.719	-4.79
993.145	0.51
993.571	-7.19
993.997	2.71
994.423	-0.39
994.849	-2.99
995.275	-3.39
995.701	-3.29
996.127	-5.29
996.553	-0.79
996.979	-2.89
997.405	2.01
997.83	-4.39
998.256	-8.79
998.682	-4.89
999.108	-2.89
999.534	2.41
999.959	2.51
1000.385	-2.69
1000.811	-1.49
1001.236	-7.89
1001.662	-10.49
1002.087	-6.49
1002.513	-1.09
1002.938	2.61
1003.364	3.61
1003.789	2.11
1004.215	5.31
1004.64	-5.59
1005.066	1.51
1005.491	1.11
1005.916	-1.89
1006.342	-3.59
1006.767	-7.19
1007.192	5.71
1007.617	-10.09
1008.042	-0.19
1008.468	-4.19
1008.893	1.71
1009.318	-5.49
1009.743	0.61
1010.168	3.91
1010.593	0.91
1011.018	-5.69
1011.443	-2.79
1011.868	-0.09
1012.293	-1.19
1012.718	-4.69
1013.143	-2.69
1013.567	-1.49
1013.992	-7.59
1014.417	-9.69
1014.842	6.91
1015.267	-2.09
1015.691	-9.69
1016.116	4.61
1016.541	-0.19
1016.965	0.41
1017.39	1.91
1017.814	1.91
1018.239	-4.09
1018.663	-5.59
1019.088	-9.79
1019.512	0.91
1019.937	-1.79
1020.361	-1.79
1020.785	-10.59
1021.21	-0.89
1021.634	-2.19
1022.058	2.41
1022.483	6.91
1022.907	-5.89
1023.331	-1.39
1023.755	-1.19
1024.179	1.21
1024.604	0.01
1025.028	-7.89
1025.452	-3.79
1025.876	0.11
1026.3	2.71
1026.724	-11.59
1027.148	-4.89
1027.572	-8.69
1027.996	-4.59
1028.42	-3.89
1028.843	-0.39
1029.267	-4.09
1029.691	-1.69
1030.115	0.61
1030.539	-1.49
1030.962	-1.79
1031.386	-12.09
1031.81	-2.19
1032.233	-2.59
1032.657	-6.09
1033.08	-7.09
1033.504	-1.29
1033.927	0.71
1034.351	2.31
1034.774	-3.69
1035.198	-4.59
1035.621	-8.99
1036.045	-8.79
1036.468	1.11
1036.891	-12.09
1037.315	-6.49
1037.738	-13.89
1038.161	-5.49
1038.584	-4.99
1039.008	-2.59
1039.431	5.71
1039.854	-4.79
1040.277	-5.89
1040.7	-7.99
1041.123	3.41
1041.546	-2.09
1041.969	-6.49
1042.392	-1.39
1042.815	3.81
1043.238	5.41
1043.661	-0.29
1044.084	-3.59
1044.507	-6.49
1044.93	-3.39
1045.352	-9.99
1045.775	-3.99
1046.198	0.51
1046.621	-0.09
1047.043	-1.89
1047.466	11.01
1047.889	-9.99
1048.311	-8.09
1048.734	0.91
1049.156	-1.99
1049.579	-5.79
1050.001	-2.69
1050.424	4.21
1050.846	-3.19
1051.269	-0.29
1051.691	-9.59
1052.113	-3.89
1052.536	-1.39
1052.958	-8.69
1053.38	-0.09
1053.802	-6.19
1054.225	2.61
1054.647	-8.09
1055.069	-2.59
1055.491	6.81
1055.913	-2.09
1056.335	2.91
1056.757	-2.89
1057.179	-10.29
1057.601	-5.09
1058.023	-4.89
1058.445	-2.59
1058.867	-1.69
1059.289	2.61
1059.711	-5.29
1060.133	1.41
1060.555	-4.89
1060.976	-4.59
1061.398	-4.39
1061.82	-6.39
1062.241	-1.39
1062.663	-8.49
1063.085	-0.69
1063.506	-6.09
1063.928	-4.39
1064.35	-5.39
1064.771	-10.29
1065.193	-7.19
1065.614	-7.39
1066.035	-1.99
1066.457	3.91
1066.878	4.01
1067.3	-6.09
1067.721	-0.79
1068.142	-7.99
1068.564	0.71
1068.985	-2.19
1069.406	-4.59
1069.827	-10.79
1070.248	1.61
1070.67	-4.49
1071.091	-3.99
1071.512	-4.59
1071.933	-12.79
1072.354	-11.89
1072.775	-9.99
1073.196	-5.29
1073.617	-1.19
1074.038	-7.09
1074.459	-4.29
1074.88	-9.99
1075.3	8.21
1075.721	-5.99
1076.142	-1.89
1076.563	-0.89
1076.983	-7.99
1077.404	-3.59
1077.825	-10.29
1078.246	-2.19
1078.666	-13.19
1079.087	3.41
1079.507	-10.59
1079.928	-1.49
1080.348	-3.99
1080.769	-4.79
1081.189	-4.09
1081.61	-4.19
1082.03	-3.69
1082.451	-7.49
1082.871	-2.19
1083.291	-8.19
1083.711	-4.69
1084.132	-12.19
1084.552	-4.19
1084.972	0.41
1085.392	-11.39
1085.813	-5.19
1086.233	-8.09
1086.653	-1.49
1087.073	0.11
1087.493	-5.29
1087.913	-7.09
1088.333	-10.19
1088.753	-3.89
1089.173	7.41
1089.593	-5.19
1090.013	-1.09
1090.433	6.01
1090.852	-1.19
1091.272	-2.19
1091.692	-0.99
1092.112	-0.79
1092.531	-10.49
1092.951	-15.99
1093.371	-2.99
1093.79	-2.19
1094.21	-7.79
1094.63	-5.99
1095.049	-5.29
1095.469	-1.19
1095.888	-5.29
1096.308	2.81
1096.727	0.71
1097.146	-8.39
1097.566	-6.59
1097.985	-7.29
1098.405	-2.39
1098.824	-7.49
1099.243	-6.99
1099.662	-8.59
1100.082	-11.79
1100.501	-3.59
1100.92	-11.29
1101.339	-4.49
1101.758	-0.79
