Data from 20171114-ORNL-Ar_H_NY_Subt18_08-08-07-741.txt Node
Date: Tue Nov 14 08:08:07 EST 2017
User: Ender
Spectrometer: HR+D1039
Trigger mode: 0
Integration Time (sec): 2.730000E-2
Scans to average: 10
Electric dark correction enabled: true
Nonlinearity correction enabled: false
Boxcar width: 0
XAxis mode: Wavelengths
Number of Pixels in Spectrum: 2048
>>>>>Begin Spectral Data<<<<<
187.836	1.71
188.309	1.71
188.782	1.71
189.255	5.51
189.728	-2.79
190.201	8.01
190.674	-2.99
191.147	2.61
191.619	-7.99
192.092	7.41
192.565	6.61
193.038	-3.29
193.511	-0.09
193.984	-1.79
194.456	-3.79
194.929	0.41
195.402	-8.59
195.874	-0.89
196.347	-4.99
196.82	-9.89
197.292	6.41
197.765	-3.59
198.237	-10.49
198.71	1.61
199.182	-3.09
199.655	1.11
200.127	-2.39
200.6	-6.89
201.072	0.81
201.544	-2.99
202.017	-1.89
202.489	-0.29
202.961	1.21
203.433	-4.39
203.906	-9.59
204.378	-4.79
204.85	-2.89
205.322	-10.99
205.794	-4.89
206.266	-2.79
206.739	-12.99
207.211	-5.09
207.683	-6.89
208.155	-4.39
208.627	-5.89
209.099	-3.39
209.57	-8.89
210.042	-6.89
210.514	-2.69
210.986	-3.49
211.458	-6.19
211.93	-2.09
212.402	-1.19
212.873	-4.39
213.345	-7.89
213.817	-11.19
214.288	-7.39
214.76	-15.29
215.232	-7.49
215.703	-5.39
216.175	-12.69
216.646	-3.39
217.118	-5.19
217.589	-8.39
218.061	-0.79
218.532	-5.39
219.004	-7.99
219.475	-5.79
219.946	1.11
220.418	-1.29
220.889	-1.79
221.36	1.61
221.832	-3.29
222.303	-8.59
222.774	-2.59
223.245	-16.09
223.717	-5.99
224.188	-8.39
224.659	-10.19
225.13	-7.19
225.601	-6.79
226.072	3.11
226.543	-2.99
227.014	-1.19
227.485	-1.69
227.956	-8.89
228.427	0.61
228.898	6.11
229.369	5.31
229.839	-10.49
230.31	-9.49
230.781	1.31
231.252	1.51
231.722	-0.99
232.193	-2.59
232.664	5.61
233.135	-2.39
233.605	-3.29
234.076	-6.49
234.546	-1.69
235.017	8.31
235.487	0.71
235.958	-2.29
236.428	-2.09
236.899	1.11
237.369	1.01
237.84	-2.79
238.31	7.21
238.78	1.41
239.251	3.11
239.721	-1.19
240.191	2.91
240.662	-2.29
241.132	-2.59
241.602	3.71
242.072	-0.89
242.542	3.61
243.013	-1.39
243.483	4.61
243.953	4.51
244.423	-3.09
244.893	-1.59
245.363	8.21
245.833	10.01
246.303	-2.49
246.773	8.41
247.243	-0.79
247.712	6.41
248.182	6.01
248.652	6.01
249.122	-4.49
249.592	14.51
250.061	19.61
250.531	28.71
251.001	16.11
251.471	16.11
251.94	15.51
252.41	11.91
252.879	2.11
253.349	12.01
253.818	0.51
254.288	4.41
254.757	7.51
255.227	-1.89
255.696	-0.69
256.166	1.11
256.635	10.81
257.105	10.81
257.574	1.51
258.043	5.71
258.513	11.21
258.982	16.71
259.451	2.21
259.92	15.91
260.389	15.51
260.859	15.31
261.328	8.61
261.797	15.31
262.266	6.91
262.735	7.41
263.204	1.71
263.673	-1.49
264.142	1.51
264.611	-0.19
265.08	5.51
265.549	-3.89
266.018	6.31
266.487	5.71
266.955	-8.49
267.424	-4.09
267.893	2.21
268.362	-0.29
268.83	4.01
269.299	13.41
269.768	10.31
270.236	7.31
270.705	-0.99
271.174	2.21
271.642	9.51
272.111	5.51
272.579	16.71
273.048	20.91
273.516	22.51
273.985	20.51
274.453	20.01
274.922	19.81
275.39	14.11
275.858	2.61
276.327	8.41
276.795	16.01
277.263	6.41
277.731	24.61
278.2	44.11
278.668	46.91
279.136	44.11
279.604	18.21
280.072	14.11
280.54	9.41
281.008	14.51
281.477	17.01
281.945	8.11
282.413	11.51
282.881	14.51
283.348	7.51
283.816	18.01
284.284	10.11
284.752	19.81
285.22	12.41
285.688	13.91
286.156	17.41
286.623	42.61
287.091	49.21
287.559	30.51
288.026	17.01
288.494	20.61
288.962	4.31
289.429	13.71
289.897	21.41
290.364	14.21
290.832	13.91
291.3	13.71
291.767	19.41
292.234	19.21
292.702	10.41
293.169	23.61
293.637	22.21
294.104	16.61
294.571	6.11
295.039	14.51
295.506	14.71
295.973	14.61
296.44	11.91
296.908	14.91
297.375	14.81
297.842	19.81
298.309	15.31
298.776	14.71
299.243	17.21
299.71	12.91
300.177	24.01
300.644	22.91
301.111	21.31
301.578	19.71
302.045	12.11
302.512	18.81
302.979	24.81
303.446	22.01
303.913	13.61
304.379	8.31
304.846	24.91
305.313	19.71
305.78	16.51
306.246	23.41
306.713	23.91
307.18	21.71
307.646	27.71
308.113	28.71
308.579	18.81
309.046	25.81
309.512	26.01
309.979	21.11
310.445	28.41
310.912	30.11
311.378	29.91
311.845	26.01
312.311	28.31
312.777	30.51
313.244	38.11
313.71	39.11
314.176	30.11
314.642	35.31
315.109	30.91
315.575	32.41
316.041	35.81
316.507	32.01
316.973	38.61
317.439	30.81
317.905	32.01
318.371	35.81
318.837	25.11
319.303	28.51
319.769	32.21
320.235	34.01
320.701	32.01
321.167	31.61
321.633	34.91
322.099	36.11
322.564	36.81
323.03	37.81
323.496	42.01
323.962	40.31
324.427	35.71
324.893	41.51
325.359	40.41
325.824	31.21
326.29	28.21
326.755	41.71
327.221	33.91
327.686	36.51
328.152	44.51
328.617	42.41
329.083	49.81
329.548	50.21
330.014	41.41
330.479	30.51
330.944	40.21
331.41	41.61
331.875	46.11
332.34	38.11
332.805	42.51
333.271	45.81
333.736	48.61
334.201	51.81
334.666	54.41
335.131	49.51
335.596	49.51
336.061	54.21
336.526	42.71
336.991	50.31
337.456	56.01
337.921	43.61
338.386	40.11
338.851	47.51
339.316	45.31
339.781	49.41
340.246	52.21
340.711	46.31
341.175	42.91
341.64	42.31
342.105	50.91
342.569	57.61
343.034	60.31
343.499	55.01
343.963	45.81
344.428	61.31
344.893	56.41
345.357	58.61
345.822	60.11
346.286	71.61
346.751	70.01
347.215	63.41
347.679	77.41
348.144	100.31
348.608	83.41
349.073	68.51
349.537	71.71
350.001	76.61
350.465	84.71
350.93	78.31
351.394	84.91
351.858	70.41
352.322	88.21
352.786	85.71
353.25	98.21
353.715	108.41
354.179	105.31
354.643	120.61
355.107	122.91
355.571	107.21
356.035	109.81
356.498	116.41
356.962	127.11
357.426	133.01
357.89	118.01
358.354	89.41
358.818	84.21
359.281	82.21
359.745	71.51
360.209	81.51
360.673	78.71
361.136	79.21
361.6	84.01
362.064	89.11
362.527	82.01
362.991	91.51
363.454	83.21
363.918	74.21
364.381	76.71
364.845	81.81
365.308	82.01
365.772	87.51
366.235	87.11
366.698	80.71
367.162	85.71
367.625	88.91
368.088	93.31
368.552	88.61
369.015	91.11
369.478	98.71
369.941	100.81
370.404	92.11
370.867	104.51
371.331	103.81
371.794	116.41
372.257	114.61
372.72	114.21
373.183	109.61
373.646	106.01
374.109	104.91
374.572	107.21
375.035	105.91
375.497	106.91
375.96	111.41
376.423	102.31
376.886	113.31
377.349	110.91
377.811	102.01
378.274	108.91
378.737	107.21
379.199	107.31
379.662	107.51
380.125	119.61
380.587	116.41
381.05	125.91
381.512	131.51
381.975	135.41
382.437	138.51
382.9	126.71
383.362	130.41
383.825	149.41
384.287	146.11
384.75	140.21
385.212	146.01
385.674	144.71
386.136	140.01
386.599	127.31
387.061	123.51
387.523	127.71
387.985	137.81
388.447	148.81
388.91	143.11
389.372	155.11
389.834	153.81
390.296	149.51
390.758	157.81
391.22	177.71
391.682	213.71
392.144	299.01
392.606	229.51
393.068	171.41
393.529	173.61
393.991	154.71
394.453	148.41
394.915	157.51
395.377	200.21
395.838	217.91
396.3	153.61
396.762	144.21
397.224	126.91
397.685	132.51
398.147	133.91
398.608	131.51
399.07	132.51
399.531	138.81
399.993	145.31
400.454	156.21
400.916	149.61
401.377	148.21
401.839	159.01
402.3	150.91
402.762	166.91
403.223	184.71
403.684	165.11
404.145	165.31
404.607	157.71
405.068	167.11
405.529	170.31
405.99	190.61
406.451	178.31
406.913	170.61
407.374	169.01
407.835	164.81
408.296	172.91
408.757	172.31
409.218	185.91
409.679	177.51
410.14	169.01
410.601	177.11
411.062	188.71
411.522	197.61
411.983	194.41
412.444	180.81
412.905	179.51
413.366	181.61
413.826	188.41
414.287	214.91
414.748	266.11
415.208	249.41
415.669	219.31
416.13	216.11
416.59	203.51
417.051	221.41
417.511	222.71
417.972	243.31
418.432	246.51
418.893	294.61
419.353	256.61
419.814	198.71
420.274	185.71
420.734	182.71
421.195	206.81
421.655	200.01
422.115	200.41
422.576	198.61
423.036	202.01
423.496	213.81
423.956	223.51
424.416	233.41
424.876	266.91
425.336	261.91
425.797	266.11
426.257	257.31
426.717	250.41
427.177	241.51
427.637	224.81
428.097	236.71
428.556	246.01
429.016	278.51
429.476	273.21
429.936	285.41
430.396	285.61
430.856	301.71
431.315	323.91
431.775	365.21
432.235	389.01
432.694	355.21
433.154	371.91
433.614	404.31
434.073	348.31
434.533	288.31
434.993	268.31
435.452	284.11
435.912	300.71
436.371	294.71
436.83	291.01
437.29	276.01
437.749	253.21
438.209	253.11
438.668	276.91
439.127	296.71
439.587	269.21
440.046	254.01
440.505	268.31
440.964	284.01
441.424	329.91
441.883	315.41
442.342	258.51
442.801	230.21
443.26	229.71
443.719	224.31
444.178	223.11
444.637	212.51
445.096	223.11
445.555	227.21
446.014	231.21
446.473	229.11
446.932	241.61
447.391	229.61
447.849	228.71
448.308	225.61
448.767	229.21
449.226	237.61
449.685	242.71
450.143	252.31
450.602	233.91
451.061	221.21
451.519	237.21
451.978	236.41
452.436	240.91
452.895	240.31
453.353	251.51
453.812	242.51
454.27	239.01
454.729	241.11
455.187	246.61
455.646	253.71
456.104	254.31
456.562	260.21
457.021	278.31
457.479	272.41
457.937	273.61
458.395	262.11
458.854	253.11
459.312	249.01
459.77	284.81
460.228	257.91
460.686	245.11
461.144	256.01
461.602	252.61
462.06	247.11
462.518	258.21
462.976	252.81
463.434	261.01
463.892	259.81
464.35	278.81
464.808	290.71
465.266	266.11
465.724	266.21
466.181	276.51
466.639	271.81
467.097	289.41
467.555	297.51
468.012	299.71
468.47	309.11
468.928	331.51
469.385	343.91
469.843	359.41
470.3	353.21
470.758	360.31
471.215	392.71
471.673	414.61
472.13	409.31
472.588	429.21
473.045	377.71
473.503	382.31
473.96	397.01
474.417	408.01
474.875	433.61
475.332	477.61
475.789	465.51
476.246	470.01
476.704	488.91
477.161	514.51
477.618	526.01
478.075	567.91
478.532	622.51
478.989	696.31
479.446	807.71
479.903	778.01
480.36	806.31
480.817	856.01
481.274	973.11
481.731	1062.41
482.188	1162.51
482.645	1293.41
483.102	1393.11
483.558	1539.61
484.015	1590.61
484.472	1563.11
484.929	1515.41
485.385	1468.11
485.842	1420.31
486.299	1359.01
486.755	1304.01
487.212	1089.91
487.668	929.51
488.125	846.51
488.582	772.11
489.038	750.31
489.494	719.31
489.951	695.11
490.407	668.91
490.864	650.81
491.32	646.91
491.776	646.31
492.233	645.01
492.689	617.21
493.145	614.31
493.602	604.91
494.058	620.11
494.514	619.01
494.97	643.51
495.426	650.41
495.882	621.21
496.338	607.71
496.794	620.41
497.251	623.81
497.707	636.11
498.163	638.61
498.618	643.01
499.074	639.41
499.53	673.01
499.986	679.41
500.442	652.51
500.898	627.41
501.354	628.41
501.809	641.21
502.265	643.31
502.721	667.61
503.177	677.41
503.632	663.21
504.088	679.41
504.543	707.41
504.999	717.01
505.455	660.61
505.91	632.81
506.366	624.21
506.821	628.51
507.277	617.81
507.732	634.51
508.187	617.11
508.643	627.71
509.098	633.51
509.553	660.01
510.009	664.11
510.464	665.51
510.919	689.11
511.375	696.91
511.83	703.31
512.285	722.91
512.74	763.51
513.195	790.21
513.65	771.41
514.105	759.91
514.56	768.21
515.015	793.41
515.47	804.21
515.925	797.11
516.38	791.41
516.835	795.61
517.29	770.71
517.745	778.51
518.2	757.71
518.655	745.11
519.109	741.01
519.564	743.81
520.019	735.21
520.474	722.21
520.928	724.51
521.383	716.11
521.838	704.61
522.292	718.91
522.747	710.71
523.201	707.31
523.656	713.11
524.11	706.81
524.565	707.01
525.019	691.41
525.474	708.71
525.928	699.11
526.382	697.51
526.837	702.31
527.291	706.71
527.745	694.21
528.2	703.61
528.654	698.31
529.108	689.41
529.562	704.21
530.016	685.91
530.47	698.11
530.925	689.31
531.379	701.01
531.833	704.61
532.287	699.11
532.741	699.01
533.195	700.41
533.649	706.71
534.103	717.91
534.556	709.11
535.01	714.51
535.464	695.31
535.918	719.91
536.372	724.61
536.826	718.51
537.279	699.61
537.733	716.61
538.187	720.31
538.64	711.01
539.094	721.81
539.548	737.31
540.001	722.51
540.455	728.01
540.908	729.01
541.362	740.61
541.815	744.11
542.269	759.01
542.722	757.01
543.175	773.61
543.629	780.11
544.082	792.11
544.536	788.71
544.989	785.71
545.442	793.11
545.895	796.71
546.349	799.01
546.802	788.31
547.255	804.21
547.708	810.61
548.161	819.81
548.614	822.91
549.067	831.91
549.52	815.71
549.973	810.71
550.426	805.91
550.879	799.61
551.332	802.21
551.785	805.81
552.238	812.71
552.691	816.51
553.144	839.01
553.596	850.71
554.049	863.51
554.502	892.31
554.955	914.11
555.407	905.31
555.86	907.51
556.313	898.41
556.765	884.51
557.218	890.01
557.67	888.91
558.123	879.31
558.576	868.71
559.028	874.61
559.48	881.51
559.933	879.01
560.385	844.81
560.838	810.71
561.29	782.91
561.742	781.81
562.195	768.11
562.647	759.81
563.099	781.71
563.551	772.91
564.004	782.01
564.456	777.21
564.908	774.41
565.36	760.21
565.812	746.31
566.264	724.21
566.716	726.71
567.168	707.41
567.62	730.41
568.072	707.01
568.524	705.61
568.976	699.31
569.428	680.91
569.88	673.31
570.332	690.01
570.784	683.31
571.235	691.31
571.687	690.71
572.139	706.41
572.59	714.11
573.042	710.31
573.494	715.21
573.945	701.71
574.397	688.21
574.849	696.41
575.3	690.81
575.752	684.41
576.203	676.21
576.655	690.31
577.106	681.41
577.557	663.91
578.009	675.51
578.46	670.11
578.912	665.71
579.363	674.91
579.814	674.41
580.265	661.71
580.717	664.41
581.168	670.41
581.619	688.21
582.07	680.11
582.521	678.51
582.972	670.31
583.423	683.01
583.875	688.21
584.326	702.91
584.777	743.61
585.227	828.81
585.678	919.91
586.129	1013.31
586.58	1084.11
587.031	1148.71
587.482	1305.11
587.933	1463.91
588.384	1288.11
588.834	965.31
589.285	813.11
589.736	795.31
590.186	783.01
590.637	771.71
591.088	749.21
591.538	751.41
591.989	745.01
592.439	740.31
592.89	726.81
593.34	708.61
593.791	712.11
594.241	705.01
594.692	716.21
595.142	712.11
595.593	705.61
596.043	714.91
596.493	721.61
596.943	732.11
597.394	737.81
597.844	721.31
598.294	743.21
598.744	761.81
599.195	786.11
599.645	816.81
600.095	859.71
600.545	926.81
600.995	968.91
601.445	1029.21
601.895	1091.01
602.345	1140.61
602.795	1122.71
603.245	1072.71
603.695	1011.01
604.145	971.41
604.594	920.01
605.044	855.11
605.494	808.51
605.944	759.71
606.393	747.31
606.843	745.51
607.293	741.81
607.743	731.41
608.192	767.01
608.642	762.11
609.091	775.21
609.541	789.51
609.99	785.71
610.44	774.01
610.889	720.61
611.339	700.01
611.788	693.71
612.238	706.11
612.687	726.21
613.136	733.31
613.586	743.71
614.035	746.21
614.484	769.01
614.933	761.01
615.383	758.01
615.832	746.81
616.281	732.71
616.73	690.91
617.179	670.51
617.628	660.11
618.077	636.41
618.526	629.21
618.975	625.71
619.424	622.71
619.873	617.31
620.322	617.81
620.771	615.91
621.22	606.91
621.669	588.71
622.118	593.01
622.567	577.51
623.015	577.51
623.464	569.71
623.913	574.41
624.361	563.71
624.81	558.81
625.259	559.91
625.707	561.71
626.156	559.41
626.604	569.01
627.053	563.21
627.501	569.21
627.95	573.81
628.398	577.51
628.847	576.31
629.295	579.51
629.744	574.81
630.192	572.91
630.64	574.61
631.089	569.81
631.537	578.31
631.985	594.11
632.433	607.11
632.881	624.51
633.33	667.71
633.778	636.81
634.226	574.81
634.674	580.61
635.122	580.61
635.57	608.71
636.018	634.01
636.466	583.11
636.914	560.71
637.362	576.51
637.81	583.81
638.258	583.81
638.705	581.81
639.153	610.51
639.601	620.01
640.049	649.01
640.497	670.51
640.944	693.31
641.392	642.51
641.84	614.61
642.287	588.31
642.735	575.41
643.182	582.81
643.63	575.41
644.078	585.61
644.525	591.41
644.973	603.01
645.42	602.01
645.867	627.91
646.315	640.81
646.762	661.01
647.21	699.21
647.657	721.21
648.104	750.41
648.551	776.61
648.999	846.71
649.446	928.01
649.893	1012.51
650.34	1170.81
650.787	1409.71
651.234	1742.61
651.682	2294.01
652.129	3145.01
652.576	4552.21
653.023	6678.91
653.47	9108.71
653.917	11288.11
654.363	12936.31
654.81	14254.41
655.257	13553.81
655.704	8873.91
656.151	5257.61
656.598	3414.21
657.044	2410.91
657.491	1841.31
657.938	1492.41
658.385	1240.61
658.831	1078.21
659.278	967.91
659.724	866.91
660.171	795.81
660.618	729.61
661.064	695.81
661.511	680.31
661.957	664.61
662.404	653.71
662.85	648.91
663.296	627.11
663.743	569.21
664.189	551.41
664.635	549.01
665.082	528.71
665.528	526.21
665.974	523.91
666.42	515.61
666.867	507.01
667.313	494.21
667.759	491.01
668.205	484.21
668.651	485.91
669.097	484.81
669.543	503.91
669.989	476.11
670.435	458.41
670.881	453.71
671.327	452.51
671.773	476.51
672.219	493.41
672.665	561.41
673.11	587.21
673.556	628.51
674.002	673.31
674.448	654.81
674.893	545.61
675.339	476.61
675.785	442.51
676.23	424.91
676.676	398.51
677.122	387.01
677.567	375.41
678.013	372.51
678.458	361.71
678.904	357.41
679.349	348.71
679.794	359.41
680.24	356.71
680.685	354.01
681.131	345.71
681.576	353.11
682.021	362.91
682.466	357.11
682.912	352.81
683.357	351.11
683.802	390.21
684.247	422.11
684.692	461.31
685.137	495.31
685.583	540.31
686.028	564.11
686.473	519.71
686.918	447.61
687.363	420.21
687.807	395.61
688.252	369.21
688.697	361.71
689.142	345.61
689.587	339.81
690.032	335.01
690.477	348.51
690.921	363.31
691.366	389.91
691.811	405.11
692.255	440.11
692.7	468.01
693.145	520.71
693.589	723.11
694.034	1172.11
694.478	1562.81
694.923	1746.01
695.367	2261.81
695.812	1197.31
696.256	504.21
696.701	382.71
697.145	358.51
697.59	336.91
698.034	328.51
698.478	330.91
698.922	327.41
699.367	326.91
699.811	352.51
700.255	364.21
700.699	398.01
701.143	429.51
701.588	480.91
702.032	518.31
702.476	520.11
702.92	498.21
703.364	501.31
703.808	658.71
704.252	1066.01
704.696	1479.91
705.14	1674.41
705.584	2117.31
706.027	1074.31
706.471	533.31
706.915	400.31
707.359	347.51
707.803	321.11
708.246	311.41
708.69	317.41
709.134	318.71
709.577	307.41
710.021	316.91
710.465	311.51
710.908	305.01
711.352	306.11
711.795	311.81
712.239	364.01
712.682	396.31
713.126	420.61
713.569	471.51
714.012	380.91
714.456	325.41
714.899	304.61
715.342	267.21
715.786	259.91
716.229	255.21
716.672	248.21
717.115	256.91
717.558	252.11
718.002	260.21
718.445	268.81
718.888	296.81
719.331	295.91
719.774	308.51
720.217	305.71
720.66	282.61
721.103	267.71
721.546	256.31
721.989	245.31
722.432	229.41
722.874	239.61
723.317	236.91
723.76	245.21
724.203	258.61
724.645	331.21
725.088	453.71
725.531	573.01
725.974	647.31
726.416	551.01
726.859	313.21
727.301	253.71
727.744	242.51
728.187	232.31
728.629	239.21
729.071	249.41
729.514	263.81
729.956	269.91
730.399	287.51
730.841	292.91
731.283	272.41
731.726	274.31
732.168	272.91
732.61	275.11
733.053	298.41
733.495	320.11
733.937	357.81
734.379	397.31
734.821	443.41
735.263	564.11
735.705	872.41
736.148	1635.41
736.59	2612.11
737.032	3028.41
737.474	2467.01
737.916	816.11
738.357	432.11
738.799	330.91
739.241	296.11
739.683	291.21
740.125	298.61
740.567	298.01
741.008	308.61
741.45	319.51
741.892	327.71
742.334	341.61
742.775	354.01
743.217	340.11
743.658	272.21
744.1	267.11
744.542	266.51
744.983	312.61
745.425	342.11
745.866	341.41
746.307	291.21
746.749	291.41
747.19	336.31
747.632	479.21
748.073	925.41
748.514	1912.31
748.956	2869.01
749.397	3614.41
749.838	2992.51
750.279	2938.01
750.72	1503.41
751.162	556.51
751.603	329.71
752.044	260.11
752.485	216.41
752.926	207.71
753.367	208.51
753.808	202.01
754.249	193.41
754.69	188.31
755.131	189.21
755.572	185.01
756.013	175.61
756.453	183.51
756.894	187.81
757.335	199.21
757.776	204.51
758.216	195.11
758.657	198.61
759.098	209.51
759.538	238.31
759.979	282.51
760.42	383.91
760.86	740.51
761.301	1920.41
761.741	4543.71
762.182	6382.81
762.622	4496.41
763.063	1329.81
763.503	541.01
763.943	348.61
764.384	360.21
764.824	401.81
765.264	441.71
765.705	302.51
766.145	217.71
766.585	192.41
767.025	182.71
767.465	189.11
767.906	247.91
768.346	318.31
768.786	343.11
769.226	266.81
769.666	324.11
770.106	649.51
770.546	1612.71
770.986	2666.11
771.426	2339.91
771.866	795.61
772.306	335.71
772.745	215.01
773.185	179.21
773.625	172.61
774.065	171.41
774.505	205.21
774.944	315.51
775.384	679.51
775.824	1182.61
776.263	1136.81
776.703	491.31
777.142	221.01
777.582	154.71
778.021	142.61
778.461	140.21
778.9	143.41
779.34	138.71
779.779	108.61
780.219	108.61
780.658	106.21
781.097	110.71
781.537	118.21
781.976	107.51
782.415	110.31
782.855	105.81
783.294	99.11
783.733	108.01
784.172	111.41
784.611	101.61
785.05	105.71
785.489	114.31
785.928	118.71
786.367	119.51
786.806	123.01
787.245	137.11
787.684	137.01
788.123	142.41
788.562	133.31
789.001	132.11
789.44	119.41
789.879	120.11
790.317	118.61
790.756	132.01
791.195	129.61
791.634	152.41
792.072	207.11
792.511	380.01
792.95	1055.51
793.388	2144.91
793.827	1903.51
794.265	679.21
794.704	283.01
795.142	181.81
795.581	154.51
796.019	140.51
796.458	132.21
796.896	123.41
797.334	134.71
797.773	157.71
798.211	231.01
798.649	458.81
799.087	1054.81
799.526	1619.21
799.964	2040.81
800.402	1994.61
800.84	757.21
801.278	303.31
801.716	193.91
802.154	155.31
802.592	151.61
803.03	149.01
803.468	134.41
803.906	139.21
804.344	153.81
804.782	138.31
805.22	130.71
805.658	134.91
806.096	148.41
806.533	161.41
806.971	177.21
807.409	221.71
807.847	319.31
808.284	694.41
808.722	1924.21
809.16	3284.91
809.597	3193.01
810.035	5463.31
810.472	5657.31
810.91	2075.51
811.347	793.11
811.785	405.61
812.222	264.91
812.66	197.71
813.097	173.51
813.535	147.31
813.972	127.81
814.409	122.41
814.846	115.91
815.284	108.11
815.721	97.41
816.158	113.71
816.595	125.41
817.032	180.61
817.47	203.61
817.907	158.71
818.344	157.71
818.781	121.91
819.218	98.71
819.655	128.61
820.092	189.31
820.529	217.91
820.966	174.31
821.403	133.41
821.839	109.31
822.276	107.61
822.713	124.51
823.15	140.01
823.587	117.81
824.023	156.51
824.46	309.11
824.897	915.21
825.333	1352.41
825.77	582.21
826.206	233.71
826.643	136.91
827.08	102.41
827.516	80.31
827.953	82.61
828.389	77.81
828.825	79.21
829.262	66.51
829.698	59.21
830.135	65.81
830.571	62.31
831.007	71.51
831.443	65.51
831.88	63.51
832.316	65.51
832.752	67.11
833.188	60.41
833.624	65.71
834.06	69.51
834.497	64.51
834.933	77.61
835.369	73.51
835.805	71.51
836.241	75.21
836.677	76.51
837.112	91.81
837.548	106.01
837.984	133.21
838.42	213.31
838.856	511.81
839.292	1539.91
839.727	2279.51
840.163	1066.51
840.599	955.41
841.034	2058.81
841.47	2094.81
841.906	778.01
842.341	341.21
842.777	231.91
843.212	311.71
843.648	312.51
844.083	151.01
844.519	101.51
844.954	78.41
845.39	56.71
845.825	57.51
846.261	58.91
846.696	58.61
847.131	57.21
847.566	54.51
848.002	51.21
848.437	45.21
848.872	59.21
849.307	59.21
849.742	88.81
850.177	181.81
850.613	571.81
851.048	866.21
851.483	372.81
851.918	155.21
852.353	88.11
852.788	61.31
853.223	58.81
853.657	54.01
854.092	46.71
854.527	45.31
854.962	46.91
855.397	47.21
855.832	47.71
856.266	40.11
856.701	44.21
857.136	38.71
857.57	40.91
858.005	50.81
858.44	58.91
858.874	45.31
859.309	55.31
859.743	45.61
860.178	44.41
860.612	33.61
861.047	52.71
861.481	64.31
861.915	63.81
862.35	45.31
862.784	29.41
863.218	39.31
863.653	35.41
864.087	45.71
864.521	54.61
864.955	71.11
865.39	158.81
865.824	173.11
866.258	114.11
866.692	161.51
867.126	169.81
867.56	102.41
867.994	48.31
868.428	32.41
868.862	49.41
869.296	53.51
869.73	57.91
870.164	55.81
870.598	45.61
871.031	40.91
871.465	25.31
871.899	32.41
872.333	28.91
872.766	20.71
873.2	24.91
873.634	29.41
874.067	26.01
874.501	26.61
874.935	34.31
875.368	27.61
875.802	29.41
876.235	25.11
876.669	27.11
877.102	22.01
877.535	27.21
877.969	20.21
878.402	24.31
878.836	19.31
879.269	21.91
879.702	26.01
880.135	21.71
880.569	25.11
881.002	30.11
881.435	25.31
881.868	16.81
882.301	18.61
882.734	16.01
883.167	28.41
883.601	17.91
884.034	18.91
884.467	17.81
884.899	16.81
885.332	17.81
885.765	16.21
886.198	14.71
886.631	17.41
887.064	12.91
887.497	22.91
887.929	27.21
888.362	11.91
888.795	13.41
889.228	20.21
889.66	18.11
890.093	16.41
890.526	17.41
890.958	15.81
891.391	21.21
891.823	15.71
892.256	15.91
892.688	11.21
893.121	13.71
893.553	12.11
893.985	20.91
894.418	11.61
894.85	16.21
895.282	18.21
895.715	18.11
896.147	15.21
896.579	17.81
897.011	14.81
897.444	17.71
897.876	13.41
898.308	13.31
898.74	16.01
899.172	10.61
899.604	23.71
900.036	19.41
900.468	22.21
900.9	17.51
901.332	20.01
901.764	13.41
902.196	16.51
902.628	17.11
903.06	19.11
903.491	28.81
903.923	19.61
904.355	22.51
904.787	28.91
905.218	19.51
905.65	17.11
906.082	14.61
906.513	13.71
906.945	12.51
907.376	15.11
907.808	12.81
908.239	25.61
908.671	15.91
909.102	16.91
909.534	31.91
909.965	48.31
910.397	97.51
910.828	327.61
911.259	472.41
911.691	214.71
912.122	102.81
912.553	50.41
912.984	34.11
913.415	28.01
913.847	25.91
914.278	14.81
914.709	8.51
915.14	23.51
915.571	22.91
916.002	10.91
916.433	19.11
916.864	17.21
917.295	15.01
917.726	18.31
918.157	15.41
918.587	24.11
919.018	20.11
919.449	18.01
919.88	18.91
920.311	37.31
920.741	51.51
921.172	174.31
921.603	152.11
922.033	73.81
922.464	48.91
922.895	22.81
923.325	21.91
923.756	18.81
924.186	16.51
924.617	32.71
925.047	38.31
925.478	51.11
925.908	40.01
926.338	25.61
926.769	10.71
927.199	21.71
927.629	17.61
928.06	17.01
928.49	18.61
928.92	9.91
929.35	8.21
929.78	13.01
930.21	3.31
930.641	8.31
931.071	12.11
931.501	4.91
931.931	7.31
932.361	8.81
932.791	1.11
933.221	8.81
933.651	-1.69
934.08	11.71
934.51	29.21
934.94	10.11
935.37	13.11
935.8	8.61
936.229	7.51
936.659	13.61
937.089	8.61
937.519	14.61
937.948	19.51
938.378	17.81
938.807	7.01
939.237	6.11
939.666	7.41
940.096	0.21
940.525	-1.49
940.955	1.81
941.384	-0.59
941.814	-4.09
942.243	0.01
942.672	0.81
943.102	-5.29
943.531	3.61
943.96	5.81
944.39	-1.39
944.819	1.71
945.248	2.11
945.677	2.51
946.106	1.11
946.535	1.91
946.964	0.11
947.393	7.41
947.822	3.61
948.251	-2.49
948.68	5.81
949.109	2.91
949.538	11.01
949.967	-5.39
950.396	1.01
950.825	-1.59
951.254	-0.39
951.682	-8.09
952.111	4.71
952.54	5.31
952.969	-9.09
953.397	-4.89
953.826	-2.09
954.254	-3.69
954.683	3.61
955.112	1.41
955.54	-5.09
955.969	-2.39
956.397	-1.79
956.826	2.21
957.254	2.31
957.682	0.51
958.111	3.11
958.539	-3.39
958.967	2.51
959.396	1.91
959.824	-4.09
960.252	3.41
960.68	-2.09
961.109	0.81
961.537	-5.09
961.965	6.91
962.393	0.91
962.821	-7.99
963.249	-2.89
963.677	9.11
964.105	6.71
964.533	51.21
964.961	44.41
965.389	21.61
965.817	7.41
966.245	6.01
966.672	-0.29
967.1	-6.99
967.528	0.91
967.956	-4.69
968.383	-4.89
968.811	2.41
969.239	0.51
969.666	-6.69
970.094	0.41
970.522	-2.79
970.949	-3.59
971.377	0.21
971.804	0.11
972.232	4.21
972.659	0.51
973.087	-0.69
973.514	-0.29
973.941	-1.39
974.369	5.31
974.796	-4.19
975.223	-1.09
975.651	-2.79
976.078	3.31
976.505	-1.89
976.932	5.01
977.359	16.21
977.786	15.01
978.214	-2.79
978.641	-9.59
979.068	-1.39
979.495	-1.69
979.922	-0.29
980.349	-0.89
980.776	0.31
981.202	-6.79
981.629	0.91
982.056	3.21
982.483	-3.49
982.91	6.21
983.337	-10.39
983.763	-2.69
984.19	-2.09
984.617	-1.59
985.043	-6.69
985.47	-1.59
985.897	-9.39
986.323	-5.39
986.75	7.51
987.176	4.21
987.603	0.81
988.029	-1.49
988.456	-8.09
988.882	1.91
989.308	-10.29
989.735	-6.39
990.161	-0.79
990.587	-5.89
991.014	2.21
991.44	6.21
991.866	-1.59
992.292	-5.29
992.719	-4.09
993.145	5.61
993.571	-5.29
993.997	-1.29
994.423	-5.69
994.849	-4.39
995.275	-0.19
995.701	-2.79
996.127	-6.79
996.553	-0.89
996.979	-4.49
997.405	-2.09
997.83	-2.69
998.256	-9.19
998.682	-7.19
999.108	-9.19
999.534	-3.19
999.959	-0.59
1000.385	-2.29
1000.811	6.31
1001.236	-3.19
1001.662	-8.29
1002.087	-7.59
1002.513	-0.49
1002.938	2.01
1003.364	0.61
1003.789	-0.19
1004.215	3.11
1004.64	-7.39
1005.066	-3.79
1005.491	3.41
1005.916	-0.59
1006.342	-4.09
1006.767	-7.19
1007.192	2.41
1007.617	-6.69
1008.042	-7.29
1008.468	-3.49
1008.893	-2.19
1009.318	-2.89
1009.743	-2.69
1010.168	6.71
1010.593	1.61
1011.018	-0.99
1011.443	-6.29
1011.868	-9.09
1012.293	-9.09
1012.718	-4.39
1013.143	-7.29
1013.567	-0.29
1013.992	-1.19
1014.417	-13.79
1014.842	0.01
1015.267	-4.39
1015.691	-7.19
1016.116	5.01
1016.541	-0.89
1016.965	0.71
1017.39	0.71
1017.814	-4.09
1018.239	-0.69
1018.663	-7.99
1019.088	-5.69
1019.512	-2.49
1019.937	-3.19
1020.361	-5.19
1020.785	-11.39
1021.21	-7.39
1021.634	-3.79
1022.058	0.01
1022.483	4.21
1022.907	-2.39
1023.331	-4.39
1023.755	-4.69
1024.179	-3.69
1024.604	-6.99
1025.028	-8.19
1025.452	-11.29
1025.876	-6.89
1026.3	0.31
1026.724	-10.29
1027.148	-4.99
1027.572	-6.59
1027.996	0.71
1028.42	1.71
1028.843	0.41
1029.267	-8.29
1029.691	-0.49
1030.115	-6.19
1030.539	-12.39
1030.962	-1.89
1031.386	-11.89
1031.81	-0.79
1032.233	-3.39
1032.657	-5.19
1033.08	-1.99
1033.504	-0.59
1033.927	-4.79
1034.351	4.11
1034.774	-9.09
1035.198	-4.79
1035.621	-4.29
1036.045	-7.99
1036.468	1.41
1036.891	-14.69
1037.315	-7.99
1037.738	-10.09
1038.161	0.71
1038.584	-5.79
1039.008	-8.89
1039.431	-3.19
1039.854	-0.19
1040.277	-7.59
1040.7	-12.49
1041.123	-1.59
1041.546	-11.89
1041.969	-8.29
1042.392	-4.99
1042.815	-2.49
1043.238	-1.09
1043.661	5.61
1044.084	-7.39
1044.507	-3.49
1044.93	-8.29
1045.352	-7.09
1045.775	0.51
1046.198	-2.49
1046.621	-0.99
1047.043	-2.79
1047.466	3.91
1047.889	-6.19
1048.311	-10.39
1048.734	-2.69
1049.156	-6.59
1049.579	-4.79
1050.001	-6.19
1050.424	-8.39
1050.846	-0.69
1051.269	-5.09
1051.691	-11.69
1052.113	1.01
1052.536	0.01
1052.958	-0.09
1053.38	-4.19
1053.802	-12.69
1054.225	-3.69
1054.647	-6.29
1055.069	-3.09
1055.491	-2.69
1055.913	-9.29
1056.335	-8.39
1056.757	-7.89
1057.179	-9.29
1057.601	-4.09
1058.023	-4.89
1058.445	-9.29
1058.867	-8.49
1059.289	-6.69
1059.711	-8.39
1060.133	-9.59
1060.555	-6.39
1060.976	-9.99
1061.398	-8.09
1061.82	-6.59
1062.241	-7.19
1062.663	-10.49
1063.085	-6.29
1063.506	-4.59
1063.928	-6.29
1064.35	-4.79
1064.771	-17.09
1065.193	-0.99
1065.614	-7.19
1066.035	-0.49
1066.457	-9.09
1066.878	-3.89
1067.3	-6.69
1067.721	-3.39
1068.142	-3.59
1068.564	-3.49
1068.985	0.41
1069.406	-1.29
1069.827	-6.29
1070.248	3.81
1070.67	-4.19
1071.091	-5.79
1071.512	-3.59
1071.933	-14.19
1072.354	-4.19
1072.775	-3.19
1073.196	-10.69
1073.617	-9.19
1074.038	-4.99
1074.459	-3.19
1074.88	-8.09
1075.3	-1.39
1075.721	-2.89
1076.142	-3.39
1076.563	-0.39
1076.983	-11.39
1077.404	-2.29
1077.825	-7.59
1078.246	-3.19
1078.666	-9.49
1079.087	0.01
1079.507	-6.19
1079.928	-4.29
1080.348	-3.19
1080.769	-5.99
1081.189	-0.79
1081.61	0.71
1082.03	-8.29
1082.451	-7.69
1082.871	-0.09
1083.291	-5.39
1083.711	-11.99
1084.132	-6.69
1084.552	-8.39
1084.972	1.91
1085.392	-6.59
1085.813	-7.99
1086.233	-10.09
1086.653	-6.89
1087.073	-2.29
1087.493	-4.69
1087.913	-7.79
1088.333	-9.69
1088.753	-6.69
1089.173	5.31
1089.593	-0.49
1090.013	-3.09
1090.433	-0.49
1090.852	-8.59
1091.272	-8.49
1091.692	-1.09
1092.112	-5.59
1092.531	-9.39
1092.951	-13.29
1093.371	-6.89
1093.79	1.51
1094.21	-9.09
1094.63	-4.19
1095.049	-4.39
1095.469	1.71
1095.888	-5.39
1096.308	2.21
1096.727	4.11
1097.146	-6.39
1097.566	-0.49
1097.985	-7.79
1098.405	2.41
1098.824	-6.59
1099.243	-5.29
1099.662	-7.89
1100.082	-1.99
1100.501	-4.99
1100.92	-7.59
1101.339	-3.49
1101.758	-6.19
