Data from 20171114-ORNL-Ar_H_NY_Subt18_08-06-24-283.txt Node
Date: Tue Nov 14 08:06:24 EST 2017
User: Ender
Spectrometer: HR+D1039
Trigger mode: 0
Integration Time (sec): 2.730000E-2
Scans to average: 10
Electric dark correction enabled: true
Nonlinearity correction enabled: false
Boxcar width: 0
XAxis mode: Wavelengths
Number of Pixels in Spectrum: 2048
>>>>>Begin Spectral Data<<<<<
187.836	-4.18
188.309	-4.18
188.782	-4.18
189.255	6.02
189.728	-0.18
190.201	7.62
190.674	-0.78
191.147	-0.68
191.619	-9.08
192.092	-0.88
192.565	6.82
193.038	-3.48
193.511	2.42
193.984	3.52
194.456	2.72
194.929	1.23
195.402	-7.38
195.874	-3.78
196.347	1.62
196.82	-3.08
197.292	8.22
197.765	-2.48
198.237	-3.88
198.71	5.92
199.182	-6.98
199.655	1.32
200.127	-0.98
200.6	-2.38
201.072	-2.88
201.544	-1.68
202.017	2.52
202.489	8.32
202.961	0.42
203.433	-1.28
203.906	-8.38
204.378	-6.98
204.85	0.32
205.322	-5.98
205.794	0.12
206.266	-5.78
206.739	-10.68
207.211	-1.08
207.683	-9.48
208.155	2.72
208.627	-0.58
209.099	-4.98
209.57	-9.08
210.042	-6.88
210.514	-5.27
210.986	1.62
211.458	-9.68
211.93	-0.88
212.402	2.52
212.873	-8.58
213.345	-7.18
213.817	-14.68
214.288	-3.28
214.76	-8.58
215.232	1.42
215.703	0.12
216.175	-2.88
216.646	-1.98
217.118	-4.68
217.589	-1.27
218.061	-1.68
218.532	0.02
219.004	-1.88
219.475	1.62
219.946	-7.08
220.418	-4.18
220.889	-1.38
221.36	4.92
221.832	-8.28
222.303	-7.28
222.774	0.32
223.245	-13.77
223.717	-7.78
224.188	-2.88
224.659	-2.58
225.13	-4.38
225.601	0.22
226.072	4.52
226.543	-1.58
227.014	1.52
227.485	-1.38
227.956	-7.48
228.427	-1.48
228.898	-0.98
229.369	2.32
229.839	-1.78
230.31	-1.48
230.781	2.72
231.252	1.52
231.722	-3.08
232.193	-3.18
232.664	2.32
233.135	-1.78
233.605	1.42
234.076	-3.38
234.546	4.42
235.017	1.72
235.487	3.92
235.958	3.22
236.428	-4.58
236.899	2.23
237.369	8.62
237.84	1.22
238.31	10.32
238.78	3.92
239.251	0.23
239.721	4.92
240.191	0.02
240.662	1.52
241.132	3.52
241.602	-3.38
242.072	5.62
242.542	1.92
243.013	-1.38
243.483	4.82
243.953	8.23
244.423	3.42
244.893	1.32
245.363	7.22
245.833	3.62
246.303	3.92
246.773	4.62
247.243	6.92
247.712	6.22
248.182	10.72
248.652	1.82
249.122	-1.48
249.592	9.62
250.061	27.22
250.531	31.62
251.001	14.52
251.471	18.82
251.94	19.22
252.41	8.32
252.879	2.12
253.349	13.52
253.818	9.42
254.288	4.52
254.757	3.02
255.227	-0.27
255.696	3.22
256.166	6.23
256.635	10.32
257.105	7.92
257.574	6.12
258.043	2.82
258.513	9.02
258.982	16.32
259.451	7.12
259.92	12.42
260.389	7.62
260.859	17.82
261.328	5.12
261.797	19.62
262.266	10.32
262.735	10.73
263.204	5.12
263.673	4.22
264.142	3.12
264.611	-0.98
265.08	-0.58
265.549	6.02
266.018	9.12
266.487	-2.08
266.955	-2.18
267.424	1.72
267.893	6.92
268.362	8.23
268.83	8.32
269.299	17.42
269.768	8.92
270.236	13.32
270.705	2.52
271.174	10.73
271.642	8.72
272.111	11.12
272.579	17.62
273.048	23.32
273.516	31.82
273.985	31.42
274.453	21.62
274.922	16.32
275.39	15.22
275.858	3.82
276.327	14.72
276.795	21.02
277.263	9.52
277.731	30.02
278.2	50.32
278.668	59.42
279.136	51.92
279.604	18.42
280.072	13.12
280.54	12.62
281.008	12.42
281.477	19.32
281.945	15.02
282.413	13.32
282.881	18.72
283.348	10.62
283.816	20.72
284.284	14.32
284.752	24.92
285.22	12.92
285.688	20.22
286.156	21.32
286.623	46.12
287.091	50.92
287.559	24.92
288.026	17.02
288.494	18.12
288.962	6.02
289.429	9.02
289.897	19.32
290.364	14.62
290.832	17.23
291.3	11.52
291.767	19.02
292.234	16.52
292.702	17.52
293.169	19.52
293.637	25.62
294.104	21.42
294.571	17.92
295.039	10.92
295.506	16.82
295.973	20.62
296.44	15.72
296.908	15.73
297.375	18.72
297.842	19.32
298.309	19.42
298.776	12.12
299.243	21.02
299.71	20.62
300.177	22.02
300.644	20.22
301.111	18.23
301.578	22.92
302.045	22.92
302.512	25.52
302.979	24.72
303.446	17.82
303.913	19.32
304.379	17.82
304.846	27.82
305.313	23.72
305.78	24.92
306.246	30.22
306.713	24.22
307.18	22.52
307.646	22.92
308.113	31.82
308.579	27.32
309.046	32.02
309.512	28.62
309.979	23.92
310.445	27.72
310.912	27.82
311.378	35.02
311.845	30.42
312.311	31.32
312.777	36.22
313.244	30.62
313.71	33.72
314.176	32.82
314.642	28.92
315.109	32.72
315.575	38.72
316.041	38.82
316.507	41.22
316.973	41.62
317.439	37.32
317.905	36.73
318.371	38.02
318.837	31.32
319.303	38.42
319.769	33.42
320.235	33.22
320.701	32.42
321.167	36.42
321.633	35.62
322.099	37.82
322.564	48.52
323.03	40.62
323.496	40.42
323.962	41.02
324.427	40.92
324.893	40.32
325.359	36.42
325.824	39.02
326.29	36.52
326.755	37.82
327.221	38.42
327.686	38.62
328.152	43.32
328.617	41.12
329.083	52.62
329.548	54.22
330.014	42.92
330.479	37.32
330.944	43.82
331.41	45.82
331.875	44.73
332.34	39.22
332.805	43.22
333.271	50.12
333.736	44.12
334.201	52.12
334.666	53.42
335.131	52.62
335.596	50.02
336.061	55.82
336.526	45.82
336.991	49.82
337.456	57.23
337.921	50.82
338.386	50.42
338.851	43.82
339.316	45.92
339.781	45.62
340.246	49.82
340.711	44.52
341.175	51.92
341.64	50.92
342.105	52.42
342.569	57.32
343.034	57.32
343.499	54.32
343.963	49.73
344.428	63.52
344.893	61.32
345.357	63.42
345.822	60.22
346.286	65.62
346.751	78.73
347.215	69.82
347.679	77.52
348.144	98.62
348.608	77.82
349.073	67.02
349.537	78.12
350.001	78.12
350.465	82.02
350.93	85.22
351.394	81.32
351.858	72.52
352.322	86.92
352.786	89.32
353.25	106.22
353.715	117.22
354.179	102.72
354.643	120.52
355.107	126.72
355.571	107.42
356.035	103.02
356.498	115.42
356.962	122.42
357.426	128.12
357.89	117.02
358.354	85.42
358.818	83.02
359.281	83.73
359.745	78.02
360.209	78.52
360.673	73.52
361.136	81.92
361.6	91.52
362.064	87.12
362.527	84.72
362.991	79.62
363.454	85.42
363.918	78.02
364.381	81.52
364.845	83.42
365.308	85.12
365.772	85.72
366.235	88.22
366.698	84.42
367.162	90.52
367.625	79.42
368.088	84.42
368.552	94.42
369.015	94.32
369.478	96.42
369.941	105.02
370.404	96.92
370.867	107.02
371.331	105.52
371.794	119.42
372.257	110.02
372.72	114.72
373.183	106.82
373.646	104.72
374.109	102.32
374.572	115.32
375.035	106.62
375.497	103.62
375.96	106.92
376.423	101.02
376.886	114.02
377.349	108.82
377.811	108.52
378.274	104.73
378.737	104.62
379.199	110.92
379.662	114.22
380.125	119.92
380.587	123.22
381.05	121.42
381.512	124.72
381.975	136.32
382.437	120.72
382.9	128.02
383.362	127.92
383.825	140.12
384.287	147.82
384.75	135.22
385.212	142.42
385.674	143.62
386.136	132.42
386.599	126.52
387.061	128.62
387.523	132.32
387.985	139.72
388.447	150.52
388.91	144.72
389.372	158.12
389.834	151.32
390.296	144.12
390.758	161.92
391.22	173.72
391.682	214.32
392.144	302.22
392.606	231.62
393.068	169.02
393.529	167.12
393.991	152.52
394.453	146.82
394.915	153.52
395.377	192.52
395.838	210.82
396.3	158.82
396.762	143.42
397.224	137.32
397.685	125.32
398.147	135.02
398.608	132.82
399.07	126.02
399.531	136.32
399.993	146.52
400.454	150.12
400.916	145.12
401.377	143.12
401.839	145.72
402.3	149.12
402.762	165.22
403.223	181.32
403.684	177.92
404.145	156.32
404.607	166.22
405.068	164.82
405.529	176.42
405.99	191.32
406.451	177.22
406.913	173.52
407.374	159.92
407.835	156.82
408.296	170.92
408.757	172.62
409.218	189.62
409.679	180.52
410.14	178.62
410.601	185.62
411.062	182.72
411.522	190.32
411.983	191.22
412.444	179.22
412.905	174.73
413.366	180.92
413.826	200.42
414.287	217.92
414.748	262.92
415.208	239.52
415.669	208.52
416.13	206.52
416.59	199.22
417.051	213.52
417.511	217.72
417.972	236.93
418.432	250.33
418.893	289.42
419.353	253.23
419.814	194.02
420.274	187.52
420.734	179.42
421.195	206.42
421.655	199.12
422.115	197.72
422.576	189.12
423.036	192.52
423.496	209.23
423.956	215.02
424.416	227.92
424.876	266.02
425.336	263.72
425.797	262.42
426.257	260.23
426.717	240.82
427.177	232.33
427.637	223.23
428.097	233.62
428.556	248.02
429.016	267.32
429.476	267.42
429.936	268.43
430.396	280.32
430.856	294.82
431.315	316.12
431.775	358.02
432.235	383.02
432.694	354.12
433.154	369.62
433.614	402.22
434.073	333.23
434.533	290.42
434.993	277.52
435.452	276.92
435.912	290.72
436.371	294.12
436.83	289.73
437.29	268.32
437.749	260.22
438.209	248.82
438.668	277.22
439.127	290.33
439.587	267.12
440.046	244.83
440.505	264.52
440.964	281.72
441.424	337.12
441.883	317.62
442.342	260.52
442.801	228.62
443.26	222.62
443.719	224.12
444.178	212.32
444.637	215.43
445.096	216.23
445.555	228.32
446.014	234.32
446.473	228.62
446.932	237.42
447.391	220.72
447.849	228.23
448.308	216.12
448.767	223.02
449.226	235.02
449.685	234.92
450.143	252.02
450.602	236.42
451.061	230.92
451.519	234.82
451.978	230.72
452.436	245.22
452.895	238.43
453.353	257.32
453.812	246.43
454.27	250.52
454.729	242.52
455.187	245.62
455.646	243.23
456.104	249.72
456.562	265.82
457.021	270.12
457.479	264.92
457.937	280.82
458.395	259.62
458.854	261.42
459.312	263.02
459.77	274.33
460.228	253.32
460.686	247.12
461.144	253.72
461.602	241.92
462.06	241.32
462.518	262.62
462.976	254.82
463.434	258.42
463.892	256.33
464.35	284.12
464.808	296.42
465.266	281.12
465.724	272.52
466.181	279.92
466.639	269.32
467.097	294.22
467.555	300.72
468.012	300.02
468.47	315.72
468.928	332.12
469.385	345.43
469.843	350.62
470.3	359.73
470.758	367.92
471.215	391.22
471.673	416.62
472.13	406.12
472.588	424.62
473.045	378.32
473.503	381.12
473.96	396.62
474.417	410.72
474.875	437.02
475.332	477.62
475.789	471.23
476.246	473.02
476.704	486.62
477.161	512.52
477.618	525.02
478.075	566.82
478.532	625.92
478.989	706.33
479.446	809.12
479.903	782.43
480.36	814.62
480.817	872.02
481.274	949.93
481.731	1079.82
482.188	1164.22
482.645	1314.92
483.102	1415.72
483.558	1552.42
484.015	1600.22
484.472	1578.82
484.929	1533.82
485.385	1474.22
485.842	1432.82
486.299	1373.52
486.755	1308.72
487.212	1099.92
487.668	933.33
488.125	860.82
488.582	775.82
489.038	748.92
489.494	721.62
489.951	690.02
490.407	668.43
490.864	643.42
491.32	641.62
491.776	648.52
492.233	645.22
492.689	617.33
493.145	611.73
493.602	607.12
494.058	618.62
494.514	624.73
494.97	643.93
495.426	652.22
495.882	631.22
496.338	619.12
496.794	632.02
497.251	631.52
497.707	643.62
498.163	637.22
498.618	638.92
499.074	642.42
499.53	681.23
499.986	689.32
500.442	658.32
500.898	625.32
501.354	624.32
501.809	636.12
502.265	652.12
502.721	665.22
503.177	669.43
503.632	672.42
504.088	676.42
504.543	712.52
504.999	715.62
505.455	656.02
505.91	633.62
506.366	636.22
506.821	638.22
507.277	633.12
507.732	620.92
508.187	631.32
508.643	631.52
509.098	636.12
509.553	660.32
510.009	664.92
510.464	673.42
510.919	690.22
511.375	698.02
511.83	712.32
512.285	732.22
512.74	756.83
513.195	781.22
513.65	775.73
514.105	770.92
514.56	779.02
515.015	798.32
515.47	804.12
515.925	790.23
516.38	800.02
516.835	792.92
517.29	780.82
517.745	778.93
518.2	765.02
518.655	751.42
519.109	738.82
519.564	736.52
520.019	730.92
520.474	723.52
520.928	725.92
521.383	722.52
521.838	718.12
522.292	710.72
522.747	716.22
523.201	716.22
523.656	703.12
524.11	702.52
524.565	698.83
525.019	691.73
525.474	699.92
525.928	702.23
526.382	688.72
526.837	702.02
527.291	703.72
527.745	697.42
528.2	704.62
528.654	689.33
529.108	694.52
529.562	695.12
530.016	699.62
530.47	688.22
530.925	691.12
531.379	690.83
531.833	712.62
532.287	708.92
532.741	704.43
533.195	699.02
533.649	725.72
534.103	720.62
534.556	718.22
535.01	713.73
535.464	707.82
535.918	731.62
536.372	722.82
536.826	731.62
537.279	710.12
537.733	716.83
538.187	705.92
538.64	713.12
539.094	724.42
539.548	724.92
540.001	726.42
540.455	723.32
540.908	738.32
541.362	742.62
541.815	746.22
542.269	759.72
542.722	748.82
543.175	771.22
543.629	771.42
544.082	788.22
544.536	790.42
544.989	777.02
545.442	795.42
545.895	791.02
546.349	796.23
546.802	787.42
547.255	797.02
547.708	809.83
548.161	811.22
548.614	818.22
549.067	827.72
549.52	816.12
549.973	807.62
550.426	801.42
550.879	809.72
551.332	803.62
551.785	801.82
552.238	804.12
552.691	826.23
553.144	836.12
553.596	856.73
554.049	868.92
554.502	909.42
554.955	916.72
555.407	918.02
555.86	917.72
556.313	896.83
556.765	892.82
557.218	888.32
557.67	897.82
558.123	885.22
558.576	875.92
559.028	888.23
559.48	879.82
559.933	877.33
560.385	837.42
560.838	804.42
561.29	787.72
561.742	787.32
562.195	767.33
562.647	770.23
563.099	782.02
563.551	775.62
564.004	778.82
564.456	763.73
564.908	778.32
565.36	760.72
565.812	737.92
566.264	728.52
566.716	721.12
567.168	722.22
567.62	724.32
568.072	705.02
568.524	702.43
568.976	692.12
569.428	680.83
569.88	678.32
570.332	679.02
570.784	684.02
571.235	682.12
571.687	702.12
572.139	700.52
572.59	716.72
573.042	719.92
573.494	718.82
573.945	701.62
574.397	694.62
574.849	697.72
575.3	695.92
575.752	692.22
576.203	679.42
576.655	696.72
577.106	675.42
577.557	673.23
578.009	664.32
578.46	664.52
578.912	659.12
579.363	669.02
579.814	671.02
580.265	662.73
580.717	675.02
581.168	675.82
581.619	683.93
582.07	680.93
582.521	681.02
582.972	666.92
583.423	680.02
583.875	687.42
584.326	715.12
584.777	744.02
585.227	815.92
585.678	912.32
586.129	991.42
586.58	1061.02
587.031	1144.22
587.482	1289.12
587.933	1470.92
588.384	1281.32
588.834	962.92
589.285	802.32
589.736	779.72
590.186	778.32
590.637	765.52
591.088	739.93
591.538	742.92
591.989	736.72
592.439	719.42
592.89	716.72
593.34	715.12
593.791	716.22
594.241	701.23
594.692	716.62
595.142	700.92
595.593	698.33
596.043	715.32
596.493	717.72
596.943	719.23
597.394	720.02
597.844	720.12
598.294	731.73
598.744	751.42
599.195	781.22
599.645	820.12
600.095	853.73
600.545	912.23
600.995	971.42
601.445	1018.52
601.895	1087.92
602.345	1132.52
602.795	1109.43
603.245	1062.22
603.695	1017.62
604.145	949.23
604.594	909.23
605.044	853.92
605.494	792.82
605.944	757.32
606.393	743.02
606.843	729.62
607.293	730.62
607.743	742.22
608.192	745.22
608.642	753.62
609.091	755.32
609.541	768.22
609.99	766.52
610.44	757.43
610.889	723.12
611.339	695.82
611.788	679.93
612.238	703.42
612.687	717.42
613.136	731.92
613.586	741.12
614.035	742.02
614.484	754.42
614.933	756.82
615.383	747.22
615.832	741.62
616.281	723.02
616.73	689.42
617.179	661.02
617.628	662.12
618.077	637.52
618.526	617.72
618.975	612.92
619.424	612.92
619.873	615.12
620.322	621.22
620.771	611.83
621.22	615.42
621.669	592.43
622.118	588.12
622.567	593.73
623.015	568.12
623.464	573.12
623.913	555.02
624.361	547.22
624.81	550.32
625.259	544.52
625.707	557.82
626.156	552.72
626.604	562.82
627.053	559.12
627.501	560.22
627.95	572.43
628.398	585.02
628.847	567.62
629.295	567.33
629.744	571.12
630.192	574.32
630.64	560.72
631.089	565.22
631.537	573.62
631.985	587.83
632.433	595.83
632.881	600.23
633.33	649.62
633.778	636.82
634.226	567.02
634.674	570.32
635.122	580.82
635.57	596.62
636.018	613.32
636.466	584.33
636.914	553.62
637.362	570.12
637.81	576.82
638.258	585.52
638.705	567.82
639.153	603.62
639.601	624.72
640.049	642.92
640.497	670.42
640.944	682.42
641.392	638.82
641.84	611.62
642.287	583.62
642.735	567.12
643.182	573.23
643.63	562.62
644.078	564.62
644.525	586.32
644.973	602.02
645.42	598.62
645.867	612.12
646.315	637.43
646.762	655.73
647.21	687.73
647.657	714.32
648.104	743.72
648.551	767.92
648.999	830.92
649.446	910.12
649.893	1003.32
650.34	1151.12
650.787	1377.82
651.234	1702.22
651.682	2246.02
652.129	3054.92
652.576	4413.73
653.023	6526.93
653.47	8920.42
653.917	11186.02
654.363	12890.03
654.81	14239.03
655.257	13528.23
655.704	8885.32
656.151	5226.82
656.598	3396.22
657.044	2412.43
657.491	1850.12
657.938	1487.62
658.385	1232.52
658.831	1069.73
659.278	973.12
659.724	859.32
660.171	790.32
660.618	727.62
661.064	686.32
661.511	668.52
661.957	656.82
662.404	647.72
662.85	645.82
663.296	624.92
663.743	553.92
664.189	529.42
664.635	529.72
665.082	528.72
665.528	526.02
665.974	515.22
666.42	510.23
666.867	501.52
667.313	488.92
667.759	476.62
668.205	481.52
668.651	482.52
669.097	484.82
669.543	497.92
669.989	464.42
670.435	439.73
670.881	437.82
671.327	443.82
671.773	462.92
672.219	486.62
672.665	530.62
673.11	580.82
673.556	627.42
674.002	660.92
674.448	652.92
674.893	543.12
675.339	469.52
675.785	440.52
676.23	418.73
676.676	385.83
677.122	379.92
677.567	371.82
678.013	363.22
678.458	361.83
678.904	356.43
679.349	346.72
679.794	350.02
680.24	346.73
680.685	344.72
681.131	343.22
681.576	345.72
682.021	350.42
682.466	345.02
682.912	347.42
683.357	346.52
683.802	381.43
684.247	405.42
684.692	449.12
685.137	496.72
685.583	535.12
686.028	554.72
686.473	511.92
686.918	438.02
687.363	418.32
687.807	387.12
688.252	362.02
688.697	356.12
689.142	331.82
689.587	326.12
690.032	338.82
690.477	337.23
690.921	354.62
691.366	378.72
691.811	400.12
692.255	424.12
692.7	444.72
693.145	504.32
693.589	686.12
694.034	1110.62
694.478	1507.62
694.923	1710.32
695.367	2245.62
695.812	1175.62
696.256	489.02
696.701	360.42
697.145	340.02
697.59	332.92
698.034	317.22
698.478	323.12
698.922	327.82
699.367	328.42
699.811	332.32
700.255	349.23
700.699	385.62
701.143	428.82
701.588	470.92
702.032	507.72
702.476	501.82
702.92	486.32
703.364	489.22
703.808	635.42
704.252	1017.93
704.696	1433.83
705.14	1635.72
705.584	2111.03
706.027	1042.52
706.471	515.02
706.915	401.73
707.359	349.92
707.803	318.32
708.246	308.12
708.69	308.73
709.134	320.92
709.577	304.52
710.021	321.23
710.465	301.42
710.908	295.72
711.352	294.92
711.795	312.32
712.239	348.62
712.682	385.12
713.126	411.72
713.569	457.12
714.012	374.62
714.456	318.12
714.899	296.52
715.342	270.82
715.786	257.12
716.229	252.23
716.672	250.02
717.115	247.83
717.558	256.02
718.002	246.23
718.445	253.02
718.888	288.52
719.331	296.52
719.774	315.82
720.217	303.82
720.66	283.42
721.103	260.92
721.546	256.23
721.989	245.92
722.432	237.42
722.874	227.32
723.317	220.52
723.76	231.82
724.203	261.02
724.645	315.22
725.088	438.02
725.531	563.42
725.974	635.92
726.416	537.02
726.859	309.73
727.301	244.83
727.744	239.82
728.187	230.93
728.629	236.72
729.071	237.42
729.514	249.62
729.956	269.12
730.399	277.82
730.841	282.42
731.283	265.43
731.726	260.32
732.168	252.92
732.61	259.22
733.053	281.62
733.495	313.23
733.937	353.52
734.379	402.72
734.821	431.12
735.263	532.12
735.705	815.82
736.148	1541.22
736.59	2545.32
737.032	3012.62
737.474	2444.62
737.916	797.33
738.357	418.82
738.799	322.12
739.241	294.32
739.683	283.52
740.125	294.42
740.567	295.92
741.008	313.23
741.45	300.62
741.892	313.22
742.334	341.73
742.775	350.52
743.217	335.22
743.658	269.92
744.1	257.12
744.542	263.42
744.983	299.12
745.425	336.92
745.866	335.92
746.307	280.52
746.749	288.22
747.19	323.73
747.632	443.73
748.073	858.02
748.514	1836.52
748.956	2800.42
749.397	3495.82
749.838	2909.43
750.279	2913.72
750.72	1467.62
751.162	530.62
751.603	321.52
752.044	242.92
752.485	216.52
752.926	206.52
753.367	195.42
753.808	190.72
754.249	189.62
754.69	188.52
755.131	183.72
755.572	190.22
756.013	175.32
756.453	177.62
756.894	182.42
757.335	184.73
757.776	188.92
758.216	196.02
758.657	193.92
759.098	197.02
759.538	224.42
759.979	263.02
760.42	372.52
760.86	686.42
761.301	1782.92
761.741	4316.53
762.182	6333.02
762.622	4436.33
763.063	1284.22
763.503	533.62
763.943	337.23
764.384	340.82
764.824	399.93
765.264	426.02
765.705	291.23
766.145	206.72
766.585	184.32
767.025	176.32
767.465	176.42
767.906	232.42
768.346	312.23
768.786	337.32
769.226	255.42
769.666	309.02
770.106	603.52
770.546	1519.92
770.986	2601.72
771.426	2342.82
771.866	774.52
772.306	326.52
772.745	207.32
773.185	176.12
773.625	160.92
774.065	160.42
774.505	198.32
774.944	297.23
775.384	656.73
775.824	1182.12
776.263	1149.42
776.703	493.32
777.142	225.22
777.582	160.12
778.021	143.22
778.461	136.62
778.9	138.42
779.34	131.42
779.779	117.92
780.219	110.52
780.658	107.42
781.097	106.72
781.537	112.32
781.976	104.02
782.415	105.92
782.855	104.42
783.294	106.92
783.733	105.42
784.172	114.52
784.611	101.42
785.05	112.02
785.489	118.23
785.928	119.92
786.367	115.32
786.806	121.62
787.245	136.12
787.684	135.22
788.123	152.12
788.562	132.32
789.001	126.12
789.44	124.02
789.879	117.62
790.317	123.82
790.756	121.12
791.195	134.92
791.634	144.92
792.072	206.43
792.511	361.52
792.95	991.42
793.388	2109.32
793.827	1902.52
794.265	662.52
794.704	272.83
795.142	182.62
795.581	153.62
796.019	134.52
796.458	122.12
796.896	120.72
797.334	131.12
797.773	156.12
798.211	215.62
798.649	429.62
799.087	995.02
799.526	1548.12
799.964	1966.02
800.402	1985.32
800.84	742.92
801.278	299.12
801.716	185.72
802.154	155.22
802.592	144.12
803.03	135.32
803.468	133.62
803.906	142.82
804.344	148.82
804.782	144.62
805.22	134.52
805.658	128.12
806.096	147.12
806.533	154.92
806.971	177.12
807.409	212.72
807.847	313.82
808.284	652.92
808.722	1833.92
809.16	3226.12
809.597	3049.72
810.035	5302.93
810.472	5704.12
810.91	2049.82
811.347	775.82
811.785	395.62
812.222	250.62
812.66	188.12
813.097	163.72
813.535	144.82
813.972	126.82
814.409	123.42
814.846	114.12
815.284	111.72
815.721	99.52
816.158	107.32
816.595	115.23
817.032	178.52
817.47	191.12
817.907	166.82
818.344	147.32
818.781	113.52
819.218	102.82
819.655	124.23
820.092	182.92
820.529	207.72
820.966	174.62
821.403	138.92
821.839	107.92
822.276	111.62
822.713	116.52
823.15	132.42
823.587	118.92
824.023	140.12
824.46	295.62
824.897	882.22
825.333	1349.42
825.77	570.02
826.206	226.22
826.643	131.92
827.08	96.12
827.516	78.52
827.953	77.02
828.389	84.02
828.825	73.72
829.262	74.12
829.698	66.12
830.135	68.42
830.571	59.82
831.007	64.12
831.443	63.82
831.88	63.62
832.316	66.62
832.752	63.12
833.188	66.52
833.624	58.42
834.06	68.12
834.497	70.12
834.933	73.02
835.369	69.52
835.805	67.12
836.241	72.52
836.677	80.42
837.112	80.92
837.548	105.62
837.984	130.92
838.42	191.52
838.856	485.32
839.292	1476.82
839.727	2256.12
840.163	1054.82
840.599	908.22
841.034	1991.02
841.47	2093.82
841.906	768.82
842.341	332.22
842.777	226.82
843.212	312.92
843.648	297.62
844.083	144.22
844.519	95.42
844.954	74.73
845.39	55.92
845.825	60.12
846.261	61.02
846.696	53.22
847.131	57.42
847.566	56.22
848.002	51.72
848.437	51.82
848.872	65.92
849.307	56.23
849.742	87.62
850.177	172.82
850.613	540.73
851.048	866.23
851.483	366.62
851.918	152.82
852.353	88.62
852.788	63.52
853.223	55.22
853.657	55.12
854.092	43.42
854.527	47.42
854.962	41.92
855.397	45.22
855.832	45.92
856.266	35.92
856.701	43.12
857.136	42.02
857.57	41.42
858.005	49.02
858.44	60.42
858.874	47.23
859.309	54.02
859.743	42.22
860.178	45.72
860.612	39.82
861.047	54.22
861.481	65.62
861.915	64.62
862.35	52.02
862.784	32.82
863.218	37.82
863.653	28.72
864.087	44.52
864.521	54.42
864.955	66.82
865.39	151.12
865.824	176.62
866.258	119.32
866.692	163.72
867.126	171.72
867.56	103.32
867.994	53.72
868.428	33.82
868.862	43.82
869.296	50.62
869.73	55.72
870.164	52.92
870.598	46.62
871.031	31.12
871.465	28.02
871.899	26.73
872.333	21.32
872.766	23.52
873.2	17.92
873.634	31.52
874.067	22.72
874.501	22.02
874.935	37.52
875.368	29.62
875.802	32.22
876.235	26.42
876.669	21.92
877.102	24.22
877.535	31.23
877.969	31.92
878.402	23.02
878.836	21.62
879.269	21.62
879.702	28.12
880.135	21.02
880.569	24.82
881.002	35.23
881.435	22.92
881.868	19.32
882.301	20.22
882.734	15.92
883.167	24.82
883.601	20.82
884.034	23.12
884.467	15.92
884.899	22.92
885.332	18.12
885.765	18.52
886.198	16.62
886.631	19.32
887.064	14.32
887.497	20.92
887.929	26.52
888.362	18.92
888.795	9.72
889.228	17.22
889.66	19.62
890.093	18.12
890.526	19.72
890.958	17.02
891.391	19.23
891.823	22.92
892.256	18.52
892.688	17.02
893.121	15.23
893.553	16.32
893.985	25.52
894.418	25.32
894.85	14.82
895.282	19.42
895.715	14.52
896.147	20.52
896.579	18.62
897.011	20.32
897.444	21.42
897.876	12.02
898.308	23.12
898.74	15.82
899.172	15.72
899.604	24.73
900.036	23.52
900.468	16.52
900.9	20.02
901.332	19.72
901.764	15.12
902.196	21.12
902.628	20.82
903.06	18.42
903.491	30.92
903.923	24.32
904.355	22.42
904.787	22.02
905.218	23.73
905.65	22.72
906.082	18.52
906.513	16.82
906.945	17.92
907.376	11.22
907.808	15.22
908.239	20.92
908.671	27.02
909.102	26.02
909.534	19.32
909.965	47.62
910.397	85.82
910.828	307.72
911.259	467.12
911.691	216.12
912.122	107.92
912.553	51.62
912.984	32.12
913.415	31.52
913.847	28.52
914.278	21.92
914.709	16.22
915.14	15.02
915.571	21.22
916.002	15.42
916.433	20.82
916.864	17.72
917.295	14.92
917.726	22.12
918.157	21.42
918.587	34.02
919.018	22.02
919.449	28.32
919.88	23.82
920.311	31.22
920.741	48.92
921.172	171.72
921.603	148.02
922.033	69.52
922.464	43.23
922.895	20.22
923.325	21.32
923.756	16.62
924.186	20.62
924.617	25.23
925.047	41.52
925.478	49.72
925.908	44.62
926.338	26.82
926.769	12.92
927.199	21.62
927.629	9.12
928.06	17.82
928.49	23.52
928.92	19.22
929.35	14.42
929.78	13.02
930.21	13.62
930.641	8.92
931.071	5.52
931.501	9.52
931.931	9.42
932.361	12.12
932.791	7.82
933.221	8.22
933.651	7.42
934.08	22.62
934.51	29.72
934.94	11.02
935.37	11.82
935.8	4.42
936.229	1.62
936.659	14.32
937.089	0.22
937.519	18.32
937.948	31.52
938.378	14.82
938.807	7.32
939.237	6.12
939.666	15.02
940.096	0.32
940.525	2.12
940.955	5.12
941.384	6.52
941.814	2.82
942.243	-3.78
942.672	3.02
943.102	0.02
943.531	-0.78
943.96	7.52
944.39	8.92
944.819	2.72
945.248	1.62
945.677	9.12
946.106	7.12
946.535	6.02
946.964	7.22
947.393	2.42
947.822	7.82
948.251	-4.78
948.68	7.92
949.109	8.22
949.538	7.62
949.967	0.92
950.396	3.92
950.825	-2.08
951.254	2.02
951.682	-3.38
952.111	10.42
952.54	3.02
952.969	1.42
953.397	2.12
953.826	6.22
954.254	-6.48
954.683	5.92
955.112	3.52
955.54	2.12
955.969	1.52
956.397	1.12
956.826	-6.38
957.254	1.92
957.682	-0.38
958.111	6.42
958.539	-2.98
958.967	3.72
959.396	-1.08
959.824	-0.68
960.252	-2.08
960.68	-11.48
961.109	-0.38
961.537	-4.18
961.965	-0.98
962.393	2.22
962.821	-0.18
963.249	-1.68
963.677	8.12
964.105	7.12
964.533	43.82
964.961	41.22
965.389	22.73
965.817	7.82
966.245	-0.78
966.672	2.73
967.1	-5.08
967.528	-2.38
967.956	-4.88
968.383	3.52
968.811	-0.08
969.239	-3.88
969.666	-6.78
970.094	0.12
970.522	1.62
970.949	2.12
971.377	-0.77
971.804	-1.08
972.232	0.12
972.659	-1.48
973.087	-2.48
973.514	-4.58
973.941	-6.18
974.369	5.02
974.796	2.62
975.223	1.62
975.651	-0.18
976.078	1.22
976.505	-2.78
976.932	7.02
977.359	15.42
977.786	16.72
978.214	3.02
978.641	-4.48
979.068	-4.38
979.495	-6.58
979.922	0.72
980.349	-5.38
980.776	2.32
981.202	-2.58
981.629	5.62
982.056	9.82
982.483	-2.58
982.91	9.82
983.337	-4.78
983.763	6.32
984.19	-0.68
984.617	-4.28
985.043	-1.88
985.47	0.92
985.897	-4.58
986.323	-10.38
986.75	3.12
987.176	2.12
987.603	3.62
988.029	-5.88
988.456	1.62
988.882	5.42
989.308	-4.18
989.735	-2.88
990.161	0.52
990.587	-3.48
991.014	0.72
991.44	4.02
991.866	0.82
992.292	-6.88
992.719	-0.58
993.145	9.32
993.571	-9.98
993.997	1.12
994.423	-1.68
994.849	0.62
995.275	0.42
995.701	-2.68
996.127	-0.88
996.553	2.42
996.979	-2.88
997.405	5.12
997.83	-8.08
998.256	-6.48
998.682	-10.98
999.108	-11.48
999.534	2.42
999.959	-0.58
1000.385	-0.28
1000.811	-0.68
1001.236	-3.98
1001.662	-11.18
1002.087	-11.88
1002.513	3.22
1002.938	1.42
1003.364	-3.98
1003.789	0.32
1004.215	4.22
1004.64	0.02
1005.066	7.82
1005.491	1.23
1005.916	-2.68
1006.342	-3.27
1006.767	-4.48
1007.192	4.82
1007.617	3.22
1008.042	0.92
1008.468	-3.78
1008.893	-3.77
1009.318	-5.18
1009.743	4.12
1010.168	3.92
1010.593	1.12
1011.018	-7.78
1011.443	-4.78
1011.868	5.23
1012.293	-5.48
1012.718	-4.18
1013.143	-2.18
1013.567	-0.08
1013.992	-2.48
1014.417	-7.48
1014.842	1.92
1015.267	0.02
1015.691	-1.78
1016.116	8.62
1016.541	3.52
1016.965	4.42
1017.39	3.62
1017.814	1.12
1018.239	3.32
1018.663	-5.08
1019.088	-8.68
1019.512	-1.78
1019.937	-2.58
1020.361	-1.18
1020.785	-11.18
1021.21	1.32
1021.634	-5.58
1022.058	3.52
1022.483	6.02
1022.907	-5.58
1023.331	-4.98
1023.755	-1.28
1024.179	-2.88
1024.604	-8.48
1025.028	-2.28
1025.452	-5.98
1025.876	-3.78
1026.3	-0.68
1026.724	-8.88
1027.148	-8.38
1027.572	-10.88
1027.996	-4.28
1028.42	-2.78
1028.843	-8.98
1029.267	-1.38
1029.691	3.72
1030.115	-3.28
1030.539	-6.88
1030.962	-9.38
1031.386	-8.98
1031.81	4.02
1032.233	3.72
1032.657	-1.88
1033.08	-5.48
1033.504	-3.58
1033.927	-4.88
1034.351	-0.48
1034.774	-2.28
1035.198	-2.68
1035.621	-9.48
1036.045	-8.18
1036.468	2.42
1036.891	-3.78
1037.315	-15.38
1037.738	-6.48
1038.161	5.42
1038.584	-7.38
1039.008	-5.88
1039.431	-6.88
1039.854	3.42
1040.277	-13.08
1040.7	-12.18
1041.123	-2.18
1041.546	-13.58
1041.969	-4.08
1042.392	-7.58
1042.815	1.92
1043.238	3.32
1043.661	6.02
1044.084	-3.28
1044.507	-10.18
1044.93	1.22
1045.352	-5.08
1045.775	1.72
1046.198	-5.38
1046.621	-2.08
1047.043	-3.77
1047.466	6.72
1047.889	-0.88
1048.311	-6.88
1048.734	-7.08
1049.156	-0.78
1049.579	-3.28
1050.001	-9.58
1050.424	-4.88
1050.846	-2.98
1051.269	-3.08
1051.691	-5.08
1052.113	-1.18
1052.536	-3.18
1052.958	1.82
1053.38	-0.98
1053.802	-11.28
1054.225	4.42
1054.647	-6.18
1055.069	-4.88
1055.491	2.12
1055.913	-3.08
1056.335	0.82
1056.757	-2.48
1057.179	-0.18
1057.601	-5.68
1058.023	-2.18
1058.445	0.32
1058.867	-4.98
1059.289	-5.08
1059.711	-5.77
1060.133	1.62
1060.555	-2.38
1060.976	-8.28
1061.398	0.62
1061.82	-8.88
1062.241	-6.78
1062.663	-6.08
1063.085	-8.18
1063.506	-2.68
1063.928	0.72
1064.35	-0.78
1064.771	-10.18
1065.193	-5.08
1065.614	-12.48
1066.035	-0.38
1066.457	-1.98
1066.878	5.42
1067.3	-3.78
1067.721	-0.08
1068.142	-2.08
1068.564	-1.08
1068.985	-7.28
1069.406	-4.58
1069.827	-8.98
1070.248	2.62
1070.67	-4.98
1071.091	-1.88
1071.512	-4.98
1071.933	-2.88
1072.354	-5.88
1072.775	-8.28
1073.196	-4.68
1073.617	-8.18
1074.038	-8.28
1074.459	-2.98
1074.88	-6.88
1075.3	-2.68
1075.721	-6.68
1076.142	6.82
1076.563	-3.18
1076.983	-4.58
1077.404	-7.27
1077.825	-7.58
1078.246	-3.68
1078.666	-5.88
1079.087	-0.77
1079.507	-3.88
1079.928	-0.18
1080.348	-1.08
1080.769	-3.68
1081.189	-1.68
1081.61	-0.68
1082.03	-6.68
1082.451	-6.38
1082.871	-8.27
1083.291	-8.58
1083.711	-5.08
1084.132	-2.48
1084.552	-3.78
1084.972	0.82
1085.392	-5.28
1085.813	-9.28
1086.233	-4.68
1086.653	-4.18
1087.073	2.02
1087.493	-6.68
1087.913	-5.38
1088.333	-4.78
1088.753	-3.48
1089.173	9.42
1089.593	-4.88
1090.013	0.22
1090.433	-1.38
1090.852	0.92
1091.272	-0.98
1091.692	-2.38
1092.112	-4.28
1092.531	-7.18
1092.951	-9.48
1093.371	-5.88
1093.79	4.32
1094.21	-6.58
1094.63	-6.98
1095.049	-2.58
1095.469	0.22
1095.888	-1.28
1096.308	0.22
1096.727	4.32
1097.146	-8.88
1097.566	-1.48
1097.985	-5.18
1098.405	-0.27
1098.824	-9.38
1099.243	-5.58
1099.662	-7.28
1100.082	-6.98
1100.501	3.72
1100.92	-11.98
1101.339	-8.78
1101.758	-4.77
