Data from 20171114-ORNL-Ar_H_NY_Subt18_08-04-30-725.txt Node
Date: Tue Nov 14 08:04:30 EST 2017
User: Ender
Spectrometer: HR+D1039
Trigger mode: 0
Integration Time (sec): 2.730000E-2
Scans to average: 10
Electric dark correction enabled: true
Nonlinearity correction enabled: false
Boxcar width: 0
XAxis mode: Wavelengths
Number of Pixels in Spectrum: 2048
>>>>>Begin Spectral Data<<<<<
187.836	-5.64
188.309	-5.64
188.782	-5.64
189.255	-2.84
189.728	-2.74
190.201	2.66
190.674	1.66
191.147	5.46
191.619	-5.14
192.092	2.36
192.565	5.26
193.038	1.66
193.511	2.46
193.984	1.36
194.456	-2.64
194.929	-3.24
195.402	-0.24
195.874	-0.44
196.347	-0.34
196.82	-3.24
197.292	11.86
197.765	-1.14
198.237	-4.94
198.71	-0.74
199.182	-0.74
199.655	2.06
200.127	-1.34
200.6	-4.44
201.072	-2.94
201.544	-5.84
202.017	-3.74
202.489	9.16
202.961	-0.34
203.433	-4.04
203.906	-9.84
204.378	-6.24
204.85	-1.54
205.322	-7.24
205.794	-1.94
206.266	-5.64
206.739	-3.24
207.211	0.06
207.683	-7.64
208.155	-6.24
208.627	-6.44
209.099	0.66
209.57	-3.54
210.042	-2.24
210.514	-0.34
210.986	-0.34
211.458	-12.44
211.93	-6.04
212.402	0.16
212.873	-2.44
213.345	-5.84
213.817	-11.04
214.288	-6.34
214.76	-12.64
215.232	-3.74
215.703	-1.54
216.175	2.16
216.646	-4.64
217.118	-6.94
217.589	-3.64
218.061	4.36
218.532	-9.84
219.004	-3.34
219.475	0.26
219.946	-3.94
220.418	-5.44
220.889	-0.24
221.36	-2.14
221.832	-7.04
222.303	-12.24
222.774	-0.34
223.245	-11.54
223.717	-1.54
224.188	-6.04
224.659	-8.74
225.13	-11.14
225.601	-3.24
226.072	1.96
226.543	-1.84
227.014	1.46
227.485	2.26
227.956	-2.94
228.427	-2.64
228.898	-3.24
229.369	0.56
229.839	1.16
230.31	-1.74
230.781	-1.04
231.252	3.76
231.722	-0.14
232.193	-4.84
232.664	1.26
233.135	-2.24
233.605	1.96
234.076	-6.14
234.546	1.26
235.017	3.36
235.487	-2.74
235.958	-3.24
236.428	-7.64
236.899	4.36
237.369	4.86
237.84	-3.74
238.31	6.66
238.78	3.46
239.251	0.36
239.721	-1.34
240.191	3.96
240.662	2.76
241.132	8.06
241.602	-2.74
242.072	4.96
242.542	6.66
243.013	3.26
243.483	-1.14
243.953	4.26
244.423	-0.44
244.893	-1.14
245.363	3.96
245.833	3.06
246.303	-4.44
246.773	10.86
247.243	3.16
247.712	2.96
248.182	7.66
248.652	10.16
249.122	6.06
249.592	14.56
250.061	25.06
250.531	36.86
251.001	21.16
251.471	21.46
251.94	14.36
252.41	7.86
252.879	0.36
253.349	10.56
253.818	12.66
254.288	1.76
254.757	10.76
255.227	4.26
255.696	3.56
256.166	5.76
256.635	6.56
257.105	7.86
257.574	8.86
258.043	12.96
258.513	12.66
258.982	19.06
259.451	12.56
259.92	18.96
260.389	15.46
260.859	19.56
261.328	12.06
261.797	21.96
262.266	4.96
262.735	11.86
263.204	3.26
263.673	-3.14
264.142	15.16
264.611	2.06
265.08	5.96
265.549	2.16
266.018	9.16
266.487	4.66
266.955	1.06
267.424	6.66
267.893	12.66
268.362	2.66
268.83	6.56
269.299	11.46
269.768	8.76
270.236	8.46
270.705	4.86
271.174	5.86
271.642	11.36
272.111	8.96
272.579	17.16
273.048	24.86
273.516	32.96
273.985	27.66
274.453	30.16
274.922	21.46
275.39	11.66
275.858	8.76
276.327	11.96
276.795	24.66
277.263	19.46
277.731	33.96
278.2	61.96
278.668	66.66
279.136	58.16
279.604	20.86
280.072	15.86
280.54	10.86
281.008	11.56
281.477	18.86
281.945	15.26
282.413	15.96
282.881	17.16
283.348	14.46
283.816	12.16
284.284	17.66
284.752	21.26
285.22	18.46
285.688	16.76
286.156	19.86
286.623	48.86
287.091	49.26
287.559	34.86
288.026	22.06
288.494	16.56
288.962	2.96
289.429	7.66
289.897	23.16
290.364	17.36
290.832	16.26
291.3	15.46
291.767	18.86
292.234	20.56
292.702	15.76
293.169	24.76
293.637	23.26
294.104	18.56
294.571	11.06
295.039	15.86
295.506	17.16
295.973	18.86
296.44	14.56
296.908	23.36
297.375	15.76
297.842	18.66
298.309	16.76
298.776	13.46
299.243	20.36
299.71	12.16
300.177	20.86
300.644	25.66
301.111	20.86
301.578	29.06
302.045	22.06
302.512	27.96
302.979	27.06
303.446	20.66
303.913	19.46
304.379	18.06
304.846	33.16
305.313	23.56
305.78	26.66
306.246	28.26
306.713	28.96
307.18	28.96
307.646	34.16
308.113	31.86
308.579	23.26
309.046	23.96
309.512	26.66
309.979	23.06
310.445	24.36
310.912	35.06
311.378	33.66
311.845	35.56
312.311	31.96
312.777	32.16
313.244	34.76
313.71	42.06
314.176	30.26
314.642	36.76
315.109	33.26
315.575	40.56
316.041	36.26
316.507	32.26
316.973	37.66
317.439	32.36
317.905	35.36
318.371	36.06
318.837	32.76
319.303	33.86
319.769	36.56
320.235	31.76
320.701	37.46
321.167	37.86
321.633	33.06
322.099	41.96
322.564	43.66
323.03	39.06
323.496	43.26
323.962	38.16
324.427	39.86
324.893	48.86
325.359	38.26
325.824	38.66
326.29	34.96
326.755	43.06
327.221	42.16
327.686	39.46
328.152	49.36
328.617	38.16
329.083	44.46
329.548	50.86
330.014	49.96
330.479	45.16
330.944	39.96
331.41	37.66
331.875	43.26
332.34	37.96
332.805	46.76
333.271	50.56
333.736	40.66
334.201	48.46
334.666	58.96
335.131	55.06
335.596	52.96
336.061	50.96
336.526	45.36
336.991	50.36
337.456	57.66
337.921	47.36
338.386	44.96
338.851	43.66
339.316	46.66
339.781	49.16
340.246	46.26
340.711	48.46
341.175	48.36
341.64	46.56
342.105	51.56
342.569	57.86
343.034	59.56
343.499	56.86
343.963	54.16
344.428	66.56
344.893	61.56
345.357	57.66
345.822	58.46
346.286	64.46
346.751	73.06
347.215	67.86
347.679	70.26
348.144	99.66
348.608	85.06
349.073	62.96
349.537	70.56
350.001	67.96
350.465	83.56
350.93	84.76
351.394	83.66
351.858	73.56
352.322	87.86
352.786	79.16
353.25	91.76
353.715	108.96
354.179	95.26
354.643	120.76
355.107	118.86
355.571	102.06
356.035	97.36
356.498	114.26
356.962	112.86
357.426	120.86
357.89	114.26
358.354	84.96
358.818	80.06
359.281	78.86
359.745	78.06
360.209	74.66
360.673	66.46
361.136	76.16
361.6	82.66
362.064	82.76
362.527	84.56
362.991	87.36
363.454	82.96
363.918	77.76
364.381	80.06
364.845	77.06
365.308	81.16
365.772	83.86
366.235	79.86
366.698	80.66
367.162	79.56
367.625	88.56
368.088	82.76
368.552	84.96
369.015	85.76
369.478	93.06
369.941	96.06
370.404	90.36
370.867	99.36
371.331	99.16
371.794	110.56
372.257	104.86
372.72	104.16
373.183	101.76
373.646	97.96
374.109	92.66
374.572	102.76
375.035	100.56
375.497	96.76
375.96	99.76
376.423	93.46
376.886	109.76
377.349	104.86
377.811	92.96
378.274	100.76
378.737	90.86
379.199	104.16
379.662	107.36
380.125	105.46
380.587	110.16
381.05	118.96
381.512	117.16
381.975	127.86
382.437	115.16
382.9	122.96
383.362	129.36
383.825	130.46
384.287	133.66
384.75	135.06
385.212	132.06
385.674	123.16
386.136	128.66
386.599	119.26
387.061	118.96
387.523	117.26
387.985	123.76
388.447	133.96
388.91	135.26
389.372	143.66
389.834	146.16
390.296	131.46
390.758	148.86
391.22	158.76
391.682	191.86
392.144	267.86
392.606	208.16
393.068	151.66
393.529	148.96
393.991	139.86
394.453	134.46
394.915	145.36
395.377	176.86
395.838	195.46
396.3	141.16
396.762	131.16
397.224	127.56
397.685	116.66
398.147	122.66
398.608	120.26
399.07	117.36
399.531	128.06
399.993	137.06
400.454	141.96
400.916	139.26
401.377	135.46
401.839	145.16
402.3	140.86
402.762	151.86
403.223	167.86
403.684	166.26
404.145	149.06
404.607	148.16
405.068	162.26
405.529	152.76
405.99	174.26
406.451	167.56
406.913	160.86
407.374	160.06
407.835	149.26
408.296	155.26
408.757	158.56
409.218	174.66
409.679	168.76
410.14	156.86
410.601	158.56
411.062	173.26
411.522	177.96
411.983	175.76
412.444	160.66
412.905	165.46
413.366	169.96
413.826	182.66
414.287	203.06
414.748	245.26
415.208	222.26
415.669	201.06
416.13	189.16
416.59	187.36
417.051	195.56
417.511	196.96
417.972	217.16
418.432	228.06
418.893	260.16
419.353	231.86
419.814	181.86
420.274	170.36
420.734	164.96
421.195	183.86
421.655	176.36
422.115	180.86
422.576	174.56
423.036	182.36
423.496	188.76
423.956	195.06
424.416	217.76
424.876	248.26
425.336	236.06
425.797	241.66
426.257	235.36
426.717	215.56
427.177	212.06
427.637	206.86
428.097	213.16
428.556	230.56
429.016	250.66
429.476	243.56
429.936	254.86
430.396	260.26
430.856	268.16
431.315	292.56
431.775	325.06
432.235	339.86
432.694	314.06
433.154	329.26
433.614	350.96
434.073	302.66
434.533	262.36
434.993	244.26
435.452	247.66
435.912	267.46
436.371	263.66
436.83	262.26
437.29	253.16
437.749	220.76
438.209	223.26
438.668	240.16
439.127	254.86
439.587	244.96
440.046	229.96
440.505	239.76
440.964	251.96
441.424	296.46
441.883	285.76
442.342	236.96
442.801	205.76
443.26	198.26
443.719	196.76
444.178	197.66
444.637	197.46
445.096	197.96
445.555	199.86
446.014	203.46
446.473	203.76
446.932	208.76
447.391	208.06
447.849	210.06
448.308	203.46
448.767	198.66
449.226	225.36
449.685	213.56
450.143	223.96
450.602	220.86
451.061	210.66
451.519	216.96
451.978	210.06
452.436	215.56
452.895	223.46
453.353	235.66
453.812	220.76
454.27	222.56
454.729	227.26
455.187	222.86
455.646	224.86
456.104	228.96
456.562	236.76
457.021	241.56
457.479	234.46
457.937	247.16
458.395	245.66
458.854	224.46
459.312	227.66
459.77	247.66
460.228	232.06
460.686	213.46
461.144	227.46
461.602	224.36
462.06	221.36
462.518	227.66
462.976	239.06
463.434	241.26
463.892	236.06
464.35	257.36
464.808	268.56
465.266	242.86
465.724	252.16
466.181	244.66
466.639	249.36
467.097	268.46
467.555	282.06
468.012	278.26
468.47	287.96
468.928	296.36
469.385	314.46
469.843	321.46
470.3	315.96
470.758	332.06
471.215	348.16
471.673	365.96
472.13	354.96
472.588	374.26
473.045	335.06
473.503	353.56
473.96	358.96
474.417	365.26
474.875	398.06
475.332	433.76
475.789	421.96
476.246	433.66
476.704	442.06
477.161	463.46
477.618	480.36
478.075	516.76
478.532	558.46
478.989	626.46
479.446	730.86
479.903	708.16
480.36	740.76
480.817	796.46
481.274	888.96
481.731	987.96
482.188	1068.86
482.645	1201.16
483.102	1319.06
483.558	1420.66
484.015	1486.96
484.472	1472.06
484.929	1418.46
485.385	1354.16
485.842	1325.16
486.299	1261.36
486.755	1196.36
487.212	1003.56
487.668	845.46
488.125	776.06
488.582	717.86
489.038	695.26
489.494	663.46
489.951	634.46
490.407	612.16
490.864	601.16
491.32	601.36
491.776	595.36
492.233	597.46
492.689	560.46
493.145	560.96
493.602	548.36
494.058	563.96
494.514	569.76
494.97	588.86
495.426	593.06
495.882	577.96
496.338	577.36
496.794	577.76
497.251	570.36
497.707	587.86
498.163	594.06
498.618	585.96
499.074	602.36
499.53	621.86
499.986	627.36
500.442	594.86
500.898	585.96
501.354	575.56
501.809	586.26
502.265	587.76
502.721	614.76
503.177	616.36
503.632	609.16
504.088	621.96
504.543	654.36
504.999	644.56
505.455	602.26
505.91	579.36
506.366	587.46
506.821	582.66
507.277	569.56
507.732	577.16
508.187	576.56
508.643	576.66
509.098	587.26
509.553	604.16
510.009	614.96
510.464	619.16
510.919	623.56
511.375	642.36
511.83	649.46
512.285	663.46
512.74	704.26
513.195	725.76
513.65	712.86
514.105	708.26
514.56	711.56
515.015	741.06
515.47	748.46
515.925	724.66
516.38	727.56
516.835	740.16
517.29	714.06
517.745	715.16
518.2	697.46
518.655	683.06
519.109	676.06
519.564	682.26
520.019	673.66
520.474	674.56
520.928	667.56
521.383	662.86
521.838	653.56
522.292	658.36
522.747	652.06
523.201	644.66
523.656	638.26
524.11	634.76
524.565	630.36
525.019	627.56
525.474	641.96
525.928	641.76
526.382	636.36
526.837	642.76
527.291	640.66
527.745	629.86
528.2	635.16
528.654	631.66
529.108	625.36
529.562	627.26
530.016	635.16
530.47	628.16
530.925	631.96
531.379	628.66
531.833	639.76
532.287	639.16
532.741	647.46
533.195	647.46
533.649	657.56
534.103	674.66
534.556	647.36
535.01	652.36
535.464	653.06
535.918	662.66
536.372	659.16
536.826	661.06
537.279	644.96
537.733	660.06
538.187	657.06
538.64	659.06
539.094	663.56
539.548	665.16
540.001	665.56
540.455	665.66
540.908	665.96
541.362	674.16
541.815	674.16
542.269	696.36
542.722	693.36
543.175	699.56
543.629	700.66
544.082	712.06
544.536	712.96
544.989	704.96
545.442	717.26
545.895	719.06
546.349	720.36
546.802	718.66
547.255	724.36
547.708	732.76
548.161	742.56
548.614	741.46
549.067	755.46
549.52	743.66
549.973	733.26
550.426	733.36
550.879	722.16
551.332	719.56
551.785	721.96
552.238	725.86
552.691	741.96
553.144	750.46
553.596	765.66
554.049	769.56
554.502	803.56
554.955	822.86
555.407	827.66
555.86	819.26
556.313	812.66
556.765	805.26
557.218	803.46
557.67	796.96
558.123	796.06
558.576	789.96
559.028	794.86
559.48	789.26
559.933	798.56
560.385	753.56
560.838	725.06
561.29	709.06
561.742	702.76
562.195	695.36
562.647	687.96
563.099	696.76
563.551	693.96
564.004	711.86
564.456	696.86
564.908	688.36
565.36	674.96
565.812	660.46
566.264	651.16
566.716	648.16
567.168	636.16
567.62	649.96
568.072	638.06
568.524	625.46
568.976	613.56
569.428	605.96
569.88	604.26
570.332	611.06
570.784	613.66
571.235	610.86
571.687	620.26
572.139	630.16
572.59	641.06
573.042	643.56
573.494	631.76
573.945	631.26
574.397	615.46
574.849	611.76
575.3	621.96
575.752	613.06
576.203	612.86
576.655	605.96
577.106	593.06
577.557	586.06
578.009	593.76
578.46	590.36
578.912	584.86
579.363	585.16
579.814	597.56
580.265	587.76
580.717	587.16
581.168	580.36
581.619	604.56
582.07	611.46
582.521	591.86
582.972	594.86
583.423	603.66
583.875	607.66
584.326	625.86
584.777	671.06
585.227	734.76
585.678	804.36
586.129	890.26
586.58	962.06
587.031	1046.56
587.482	1195.86
587.933	1360.86
588.384	1177.66
588.834	865.46
589.285	711.86
589.736	697.86
590.186	682.86
590.637	675.66
591.088	651.96
591.538	653.06
591.989	646.76
592.439	643.76
592.89	632.26
593.34	622.86
593.791	624.66
594.241	617.66
594.692	626.96
595.142	621.66
595.593	616.16
596.043	617.46
596.493	629.16
596.943	631.46
597.394	629.36
597.844	632.16
598.294	637.06
598.744	656.26
599.195	672.06
599.645	702.46
600.095	745.66
600.545	801.66
600.995	844.16
601.445	897.86
601.895	955.46
602.345	997.96
602.795	979.26
603.245	930.06
603.695	886.56
604.145	840.56
604.594	798.56
605.044	753.66
605.494	689.66
605.944	660.16
606.393	641.76
606.843	631.96
607.293	643.86
607.743	630.36
608.192	648.36
608.642	659.36
609.091	665.26
609.541	670.16
609.99	669.46
610.44	669.06
610.889	634.86
611.339	609.06
611.788	592.26
612.238	609.26
612.687	623.46
613.136	626.36
613.586	637.16
614.035	633.76
614.484	655.46
614.933	651.66
615.383	657.06
615.832	641.96
616.281	630.36
616.73	597.06
617.179	577.06
617.628	567.66
618.077	552.86
618.526	541.86
618.975	534.36
619.424	536.96
619.873	536.46
620.322	534.66
620.771	519.06
621.22	518.36
621.669	512.26
622.118	504.86
622.567	506.56
623.015	490.96
623.464	489.66
623.913	483.26
624.361	481.06
624.81	471.56
625.259	479.36
625.707	484.86
626.156	478.66
626.604	488.86
627.053	484.76
627.501	482.16
627.95	486.86
628.398	496.46
628.847	492.16
629.295	488.56
629.744	488.66
630.192	486.76
630.64	479.86
631.089	488.96
631.537	495.56
631.985	498.86
632.433	510.96
632.881	517.06
633.33	557.36
633.778	545.26
634.226	475.06
634.674	484.96
635.122	496.46
635.57	512.76
636.018	536.66
636.466	494.16
636.914	480.96
637.362	485.06
637.81	492.26
638.258	485.96
638.705	482.86
639.153	513.26
639.601	525.86
640.049	551.56
640.497	579.06
640.944	597.06
641.392	542.06
641.84	521.56
642.287	490.26
642.735	478.76
643.182	479.36
643.63	487.76
644.078	489.46
644.525	507.36
644.973	506.36
645.42	514.66
645.867	528.26
646.315	549.36
646.762	572.36
647.21	586.76
647.657	610.26
648.104	639.36
648.551	653.36
648.999	706.76
649.446	773.96
649.893	848.06
650.34	966.96
650.787	1156.36
651.234	1434.26
651.682	1876.36
652.129	2561.66
652.576	3674.46
653.023	5460.56
653.47	7554.56
653.917	9571.86
654.363	11137.66
654.81	12603.26
655.257	11930.36
655.704	7746.36
656.151	4533.56
656.598	2947.66
657.044	2080.96
657.491	1591.66
657.938	1275.36
658.385	1066.06
658.831	924.96
659.278	822.86
659.724	725.56
660.171	672.46
660.618	614.56
661.064	581.56
661.511	554.06
661.957	544.56
662.404	523.86
662.85	541.76
663.296	513.16
663.743	475.16
664.189	460.06
664.635	450.26
665.082	443.56
665.528	440.56
665.974	439.46
666.42	429.76
666.867	426.76
667.313	410.46
667.759	406.56
668.205	403.86
668.651	408.46
669.097	412.06
669.543	424.16
669.989	397.36
670.435	382.96
670.881	373.76
671.327	376.76
671.773	389.16
672.219	412.06
672.665	453.26
673.11	494.66
673.556	529.46
674.002	564.86
674.448	542.56
674.893	465.76
675.339	393.76
675.785	362.36
676.23	345.36
676.676	328.56
677.122	323.26
677.567	315.56
678.013	308.06
678.458	296.96
678.904	298.76
679.349	292.56
679.794	294.76
680.24	293.56
680.685	290.26
681.131	294.66
681.576	290.76
682.021	300.36
682.466	280.86
682.912	284.06
683.357	289.06
683.802	313.86
684.247	342.66
684.692	383.16
685.137	406.46
685.583	449.36
686.028	480.36
686.473	433.56
686.918	376.36
687.363	353.96
687.807	330.66
688.252	304.16
688.697	293.76
689.142	284.06
689.587	274.16
690.032	272.16
690.477	279.56
690.921	289.36
691.366	317.66
691.811	330.36
692.255	360.96
692.7	387.36
693.145	418.16
693.589	558.36
694.034	909.76
694.478	1260.96
694.923	1469.56
695.367	1954.96
695.812	1009.56
696.256	418.66
696.701	310.76
697.145	280.66
697.59	271.66
698.034	266.26
698.478	273.76
698.922	270.06
699.367	276.66
699.811	280.66
700.255	292.26
700.699	315.36
701.143	341.26
701.588	397.26
702.032	425.66
702.476	436.06
702.92	418.86
703.364	399.56
703.808	511.56
704.252	826.66
704.696	1187.76
705.14	1398.16
705.584	1823.76
706.027	897.96
706.471	438.86
706.915	325.26
707.359	291.66
707.803	267.86
708.246	258.66
708.69	263.36
709.134	261.36
709.577	255.16
710.021	264.06
710.465	251.76
710.908	246.16
711.352	251.76
711.795	255.76
712.239	287.16
712.682	314.26
713.126	341.96
713.569	379.76
714.012	309.06
714.456	267.26
714.899	253.56
715.342	230.36
715.786	218.16
716.229	209.26
716.672	204.66
717.115	206.86
717.558	206.16
718.002	202.36
718.445	212.46
718.888	240.86
719.331	239.46
719.774	254.46
720.217	251.76
720.66	233.36
721.103	217.96
721.546	211.16
721.989	205.96
722.432	187.46
722.874	193.76
723.317	195.66
723.76	189.76
724.203	213.76
724.645	253.96
725.088	362.46
725.531	475.96
725.974	542.56
726.416	454.86
726.859	259.96
727.301	201.26
727.744	200.06
728.187	192.76
728.629	195.16
729.071	202.56
729.514	206.56
729.956	219.86
730.399	224.56
730.841	238.36
731.283	226.36
731.726	222.56
732.168	214.66
732.61	212.36
733.053	241.16
733.495	256.66
733.937	288.06
734.379	330.26
734.821	357.06
735.263	444.06
735.705	670.46
736.148	1269.26
736.59	2119.26
737.032	2605.16
737.474	2117.46
737.916	673.46
738.357	353.66
738.799	263.36
739.241	243.06
739.683	233.46
740.125	247.66
740.567	251.96
741.008	261.46
741.45	258.26
741.892	258.36
742.334	284.76
742.775	302.36
743.217	290.36
743.658	227.46
744.1	211.36
744.542	212.76
744.983	257.36
745.425	285.26
745.866	293.26
746.307	238.26
746.749	234.46
747.19	264.66
747.632	367.56
748.073	693.46
748.514	1485.76
748.956	2368.36
749.397	2961.16
749.838	2463.26
750.279	2521.36
750.72	1263.86
751.162	453.36
751.603	260.86
752.044	203.86
752.485	180.46
752.926	172.66
753.367	168.76
753.808	156.46
754.249	154.76
754.69	149.56
755.131	148.76
755.572	154.56
756.013	145.36
756.453	154.26
756.894	159.66
757.335	151.36
757.776	161.36
758.216	166.06
758.657	162.86
759.098	169.26
759.538	182.76
759.979	215.56
760.42	304.56
760.86	564.76
761.301	1439.76
761.741	3596.56
762.182	5543.26
762.622	3921.56
763.063	1104.76
763.503	450.46
763.943	285.76
764.384	274.06
764.824	339.96
765.264	371.96
765.705	254.16
766.145	178.66
766.585	157.16
767.025	145.46
767.465	149.66
767.906	196.26
768.346	265.66
768.786	284.06
769.226	212.16
769.666	258.26
770.106	492.26
770.546	1244.36
770.986	2230.16
771.426	2029.26
771.866	667.16
772.306	269.66
772.745	167.86
773.185	145.06
773.625	142.56
774.065	135.86
774.505	156.66
774.944	237.46
775.384	549.96
775.824	1027.36
776.263	1020.36
776.703	429.86
777.142	184.56
777.582	126.76
778.021	108.36
778.461	117.16
778.9	118.16
779.34	109.66
779.779	94.56
780.219	91.16
780.658	87.16
781.097	90.96
781.537	92.86
781.976	89.86
782.415	90.86
782.855	89.36
783.294	87.36
783.733	87.46
784.172	89.36
784.611	87.76
785.05	88.86
785.489	94.66
785.928	97.86
786.367	97.86
786.806	98.86
787.245	110.56
787.684	104.66
788.123	121.16
788.562	108.96
789.001	102.46
789.44	105.76
789.879	97.96
790.317	99.46
790.756	106.26
791.195	108.56
791.634	125.26
792.072	170.36
792.511	284.36
792.95	804.96
793.388	1785.46
793.827	1673.46
794.265	569.86
794.704	228.66
795.142	151.06
795.581	126.86
796.019	118.06
796.458	104.06
796.896	98.86
797.334	106.26
797.773	126.76
798.211	172.86
798.649	342.46
799.087	811.36
799.526	1324.26
799.964	1675.46
800.402	1743.46
800.84	638.26
801.278	249.46
801.716	150.56
802.154	123.86
802.592	126.46
803.03	118.76
803.468	105.06
803.906	122.76
804.344	118.46
804.782	114.46
805.22	113.86
805.658	106.76
806.096	124.16
806.533	131.76
806.971	134.96
807.409	173.36
807.847	256.26
808.284	516.06
808.722	1516.06
809.16	2779.06
809.597	2558.86
810.035	4541.16
810.472	5074.66
810.91	1796.86
811.347	670.36
811.785	329.36
812.222	213.46
812.66	157.26
813.097	132.86
813.535	118.36
813.972	102.36
814.409	97.26
814.846	92.36
815.284	92.26
815.721	85.06
816.158	91.96
816.595	101.66
817.032	151.46
817.47	168.66
817.907	146.76
818.344	126.56
818.781	89.46
819.218	79.26
819.655	94.86
820.092	157.46
820.529	183.16
820.966	149.16
821.403	105.66
821.839	87.56
822.276	87.56
822.713	105.56
823.15	113.16
823.587	97.36
824.023	115.16
824.46	236.66
824.897	730.16
825.333	1148.56
825.77	498.16
826.206	191.36
826.643	112.76
827.08	84.26
827.516	66.66
827.953	60.56
828.389	68.26
828.825	57.96
829.262	52.86
829.698	51.96
830.135	56.06
830.571	48.96
831.007	44.26
831.443	53.06
831.88	54.06
832.316	55.46
832.752	57.56
833.188	54.46
833.624	54.46
834.06	52.46
834.497	54.26
834.933	59.86
835.369	56.36
835.805	55.66
836.241	59.86
836.677	67.36
837.112	79.96
837.548	83.96
837.984	108.66
838.42	160.36
838.856	397.36
839.292	1251.26
839.727	1976.86
840.163	904.86
840.599	752.16
841.034	1695.56
841.47	1853.76
841.906	655.26
842.341	275.86
842.777	192.46
843.212	260.36
843.648	264.46
844.083	125.96
844.519	79.66
844.954	70.76
845.39	45.76
845.825	44.06
846.261	52.46
846.696	39.36
847.131	47.06
847.566	48.46
848.002	42.16
848.437	38.66
848.872	54.66
849.307	49.36
849.742	67.36
850.177	138.66
850.613	449.06
851.048	759.76
851.483	321.16
851.918	128.66
852.353	71.96
852.788	53.36
853.223	45.16
853.657	41.86
854.092	35.16
854.527	36.16
854.962	34.56
855.397	37.06
855.832	46.96
856.266	37.66
856.701	31.76
857.136	34.06
857.57	30.96
858.005	44.56
858.44	44.16
858.874	34.16
859.309	48.96
859.743	33.76
860.178	43.06
860.612	36.26
861.047	44.96
861.481	53.16
861.915	57.16
862.35	39.66
862.784	27.06
863.218	33.46
863.653	25.86
864.087	39.66
864.521	42.96
864.955	57.96
865.39	130.96
865.824	147.16
866.258	94.56
866.692	136.46
867.126	150.46
867.56	92.76
867.994	49.56
868.428	31.36
868.862	34.36
869.296	47.66
869.73	45.06
870.164	46.66
870.598	40.26
871.031	33.26
871.465	22.96
871.899	26.66
872.333	24.06
872.766	18.56
873.2	21.76
873.634	20.36
874.067	23.06
874.501	16.76
874.935	30.06
875.368	28.16
875.802	26.06
876.235	20.96
876.669	16.46
877.102	13.96
877.535	18.96
877.969	19.96
878.402	23.26
878.836	13.26
879.269	16.46
879.702	21.36
880.135	18.96
880.569	20.56
881.002	23.36
881.435	23.56
881.868	14.46
882.301	21.76
882.734	10.96
883.167	22.76
883.601	11.36
884.034	22.96
884.467	13.26
884.899	14.06
885.332	12.36
885.765	11.16
886.198	9.66
886.631	14.26
887.064	18.56
887.497	16.76
887.929	22.06
888.362	11.86
888.795	8.66
889.228	17.86
889.66	17.26
890.093	14.56
890.526	18.86
890.958	12.66
891.391	16.56
891.823	12.76
892.256	12.16
892.688	12.46
893.121	9.16
893.553	14.56
893.985	16.56
894.418	15.76
894.85	10.96
895.282	16.06
895.715	10.46
896.147	10.66
896.579	16.76
897.011	8.46
897.444	10.46
897.876	13.76
898.308	18.36
898.74	9.26
899.172	9.86
899.604	24.36
900.036	19.56
900.468	6.96
900.9	11.96
901.332	18.76
901.764	15.26
902.196	16.36
902.628	13.76
903.06	11.86
903.491	25.06
903.923	18.26
904.355	17.66
904.787	26.56
905.218	18.36
905.65	24.46
906.082	9.86
906.513	11.56
906.945	13.46
907.376	10.36
907.808	17.66
908.239	20.46
908.671	18.36
909.102	13.86
909.534	20.76
909.965	38.06
910.397	74.66
910.828	265.16
911.259	413.86
911.691	188.36
912.122	88.96
912.553	41.46
912.984	31.26
913.415	23.16
913.847	23.96
914.278	6.26
914.709	11.86
915.14	13.16
915.571	18.36
916.002	12.56
916.433	13.16
916.864	15.56
917.295	9.16
917.726	18.86
918.157	8.36
918.587	21.66
919.018	15.86
919.449	23.36
919.88	19.76
920.311	27.56
920.741	37.06
921.172	137.56
921.603	130.56
922.033	56.86
922.464	35.16
922.895	20.96
923.325	20.56
923.756	14.16
924.186	15.36
924.617	23.76
925.047	32.56
925.478	39.76
925.908	34.06
926.338	17.66
926.769	18.86
927.199	14.96
927.629	5.96
928.06	10.66
928.49	18.06
928.92	18.26
929.35	7.96
929.78	8.96
930.21	7.46
930.641	8.46
931.071	8.76
931.501	2.66
931.931	9.26
932.361	5.26
932.791	2.16
933.221	10.36
933.651	5.36
934.08	20.46
934.51	25.86
934.94	14.06
935.37	7.36
935.8	8.46
936.229	7.96
936.659	9.16
937.089	2.16
937.519	12.36
937.948	20.66
938.378	15.06
938.807	4.56
939.237	2.06
939.666	3.56
940.096	-5.74
940.525	2.66
940.955	-0.24
941.384	2.06
941.814	-3.04
942.243	1.26
942.672	7.96
943.102	-1.94
943.531	1.66
943.96	5.06
944.39	2.96
944.819	1.26
945.248	3.56
945.677	3.36
946.106	3.26
946.535	3.16
946.964	4.16
947.393	6.46
947.822	3.96
948.251	-5.14
948.68	0.56
949.109	6.06
949.538	4.66
949.967	-0.04
950.396	4.06
950.825	-3.54
951.254	4.46
951.682	-5.84
952.111	7.46
952.54	9.26
952.969	-2.24
953.397	-7.34
953.826	5.56
954.254	-4.94
954.683	4.56
955.112	0.46
955.54	-5.34
955.969	4.36
956.397	2.56
956.826	-1.94
957.254	3.96
957.682	-3.14
958.111	5.06
958.539	0.26
958.967	-0.54
959.396	2.76
959.824	1.96
960.252	0.86
960.68	-6.34
961.109	-0.04
961.537	-5.94
961.965	-1.14
962.393	-3.34
962.821	-4.64
963.249	3.36
963.677	4.46
964.105	0.76
964.533	37.16
964.961	36.36
965.389	22.46
965.817	2.56
966.245	4.86
966.672	3.06
967.1	-10.74
967.528	0.36
967.956	-5.14
968.383	1.96
968.811	-1.04
969.239	0.16
969.666	-4.94
970.094	0.06
970.522	7.66
970.949	0.76
971.377	-5.94
971.804	-8.04
972.232	-6.34
972.659	-1.24
973.087	-2.74
973.514	-4.94
973.941	-9.84
974.369	1.16
974.796	3.36
975.223	5.36
975.651	-0.34
976.078	2.36
976.505	-6.64
976.932	7.06
977.359	16.16
977.786	17.16
978.214	8.36
978.641	-2.44
979.068	-4.14
979.495	-4.94
979.922	2.06
980.349	0.36
980.776	4.96
981.202	1.96
981.629	6.06
982.056	4.06
982.483	-0.64
982.91	1.76
983.337	-6.24
983.763	4.16
984.19	2.36
984.617	-3.64
985.043	-2.84
985.47	-2.14
985.897	-3.34
986.323	-7.04
986.75	0.86
987.176	-2.04
987.603	-2.14
988.029	-2.64
988.456	-3.14
988.882	3.16
989.308	-3.74
989.735	-4.94
990.161	-0.84
990.587	-2.84
991.014	-1.44
991.44	5.06
991.866	-4.84
992.292	-7.64
992.719	5.36
993.145	8.26
993.571	-5.34
993.997	-4.44
994.423	-2.94
994.849	-5.24
995.275	7.66
995.701	5.86
996.127	-2.34
996.553	2.66
996.979	-0.74
997.405	-4.64
997.83	-6.64
998.256	-3.74
998.682	-7.74
999.108	-9.44
999.534	4.56
999.959	4.16
1000.385	-3.34
1000.811	-0.54
1001.236	-0.24
1001.662	-3.74
1002.087	-10.74
1002.513	-1.74
1002.938	0.86
1003.364	-3.14
1003.789	-0.74
1004.215	3.36
1004.64	-1.24
1005.066	3.86
1005.491	2.26
1005.916	2.36
1006.342	4.16
1006.767	-10.34
1007.192	7.16
1007.617	-1.04
1008.042	-5.94
1008.468	-9.64
1008.893	0.16
1009.318	-1.74
1009.743	-0.54
1010.168	2.36
1010.593	3.56
1011.018	-5.84
1011.443	-1.94
1011.868	-1.54
1012.293	-4.04
1012.718	-6.44
1013.143	-5.94
1013.567	0.06
1013.992	-2.14
1014.417	-10.64
1014.842	-0.64
1015.267	-2.44
1015.691	-4.44
1016.116	6.46
1016.541	-0.34
1016.965	0.26
1017.39	1.96
1017.814	0.66
1018.239	-1.84
1018.663	-6.84
1019.088	-13.34
1019.512	0.66
1019.937	-3.44
1020.361	-3.34
1020.785	-8.84
1021.21	-1.24
1021.634	-1.74
1022.058	-0.64
1022.483	2.36
1022.907	-5.54
1023.331	-8.54
1023.755	-0.84
1024.179	-1.74
1024.604	-11.24
1025.028	-9.24
1025.452	-5.14
1025.876	-0.94
1026.3	-0.14
1026.724	-9.04
1027.148	-4.14
1027.572	-6.24
1027.996	-1.14
1028.42	1.26
1028.843	-4.94
1029.267	-10.24
1029.691	-0.54
1030.115	-8.64
1030.539	-3.94
1030.962	-7.44
1031.386	-6.64
1031.81	0.96
1032.233	5.16
1032.657	-3.24
1033.08	0.96
1033.504	-1.14
1033.927	-3.94
1034.351	-2.24
1034.774	-8.74
1035.198	-5.74
1035.621	-2.14
1036.045	-9.44
1036.468	-4.14
1036.891	-11.94
1037.315	-9.34
1037.738	-6.54
1038.161	-1.44
1038.584	-4.14
1039.008	-9.04
1039.431	-4.64
1039.854	-0.94
1040.277	-10.14
1040.7	-6.94
1041.123	2.06
1041.546	-7.64
1041.969	-11.04
1042.392	-5.74
1042.815	2.46
1043.238	-1.54
1043.661	1.06
1044.084	-5.94
1044.507	-2.74
1044.93	-0.54
1045.352	0.96
1045.775	-1.44
1046.198	1.86
1046.621	-1.04
1047.043	1.36
1047.466	7.46
1047.889	-8.04
1048.311	-6.44
1048.734	-3.24
1049.156	0.16
1049.579	2.36
1050.001	-5.84
1050.424	1.86
1050.846	-4.74
1051.269	-4.84
1051.691	-5.74
1052.113	-3.84
1052.536	3.86
1052.958	-0.84
1053.38	-1.94
1053.802	-9.34
1054.225	-1.34
1054.647	-12.14
1055.069	-4.34
1055.491	3.46
1055.913	-3.44
1056.335	-2.84
1056.757	0.66
1057.179	-3.44
1057.601	-6.14
1058.023	1.36
1058.445	-6.64
1058.867	-6.74
1059.289	-1.84
1059.711	-8.14
1060.133	-3.04
1060.555	-4.54
1060.976	-7.64
1061.398	-9.14
1061.82	-5.04
1062.241	-2.74
1062.663	-4.94
1063.085	-2.64
1063.506	-4.04
1063.928	-0.24
1064.35	4.96
1064.771	-9.24
1065.193	-4.04
1065.614	-8.24
1066.035	1.76
1066.457	-2.64
1066.878	2.86
1067.3	-5.94
1067.721	-4.44
1068.142	-3.24
1068.564	-4.84
1068.985	0.16
1069.406	-6.24
1069.827	-2.64
1070.248	0.86
1070.67	-3.04
1071.091	-0.24
1071.512	-2.14
1071.933	-7.04
1072.354	-4.54
1072.775	-8.94
1073.196	-6.24
1073.617	-1.84
1074.038	-7.84
1074.459	-4.84
1074.88	-3.34
1075.3	0.46
1075.721	-8.44
1076.142	2.46
1076.563	-4.34
1076.983	-9.64
1077.404	-11.84
1077.825	-4.94
1078.246	-8.74
1078.666	-10.64
1079.087	-7.44
1079.507	-5.34
1079.928	0.56
1080.348	-1.14
1080.769	-1.34
1081.189	-3.54
1081.61	-1.44
1082.03	-1.34
1082.451	1.36
1082.871	-3.14
1083.291	-8.64
1083.711	-4.94
1084.132	-7.74
1084.552	1.16
1084.972	-4.34
1085.392	-9.54
1085.813	-8.94
1086.233	-8.84
1086.653	-2.74
1087.073	-0.64
1087.493	-2.04
1087.913	-7.24
1088.333	-4.64
1088.753	-3.44
1089.173	2.46
1089.593	0.06
1090.013	-1.64
1090.433	2.66
1090.852	-1.54
1091.272	0.26
1091.692	-2.64
1092.112	-1.94
1092.531	-8.04
1092.951	-11.44
1093.371	-3.94
1093.79	2.56
1094.21	-6.34
1094.63	-3.54
1095.049	-4.04
1095.469	-3.64
1095.888	-3.74
1096.308	3.76
1096.727	1.16
1097.146	-5.94
1097.566	-2.64
1097.985	-1.04
1098.405	1.66
1098.824	-2.84
1099.243	-6.04
1099.662	-8.64
1100.082	-3.24
1100.501	-4.34
1100.92	-10.84
1101.339	-3.94
1101.758	-7.24
