Data from 20171114-ORNL-Ar_H_NY_Subt18_08-06-52-672.txt Node
Date: Tue Nov 14 08:06:52 EST 2017
User: Ender
Spectrometer: HR+D1039
Trigger mode: 0
Integration Time (sec): 2.730000E-2
Scans to average: 10
Electric dark correction enabled: true
Nonlinearity correction enabled: false
Boxcar width: 0
XAxis mode: Wavelengths
Number of Pixels in Spectrum: 2048
>>>>>Begin Spectral Data<<<<<
187.836	-2.84
188.309	-2.84
188.782	-2.84
189.255	1.16
189.728	4.86
190.201	2.56
190.674	3.06
191.147	2.76
191.619	-10.04
192.092	0.26
192.565	0.86
193.038	0.86
193.511	0.66
193.984	2.76
194.456	-8.24
194.929	7.56
195.402	-4.64
195.874	-1.54
196.347	-0.54
196.82	-9.24
197.292	1.36
197.765	-3.44
198.237	-2.14
198.71	-3.84
199.182	-1.14
199.655	5.06
200.127	9.96
200.6	-2.24
201.072	2.26
201.544	-6.04
202.017	-3.74
202.489	10.86
202.961	-4.74
203.433	-2.84
203.906	-5.84
204.378	-11.64
204.85	-3.24
205.322	-6.84
205.794	-7.44
206.266	-0.24
206.739	-7.64
207.211	-3.44
207.683	-7.04
208.155	-5.74
208.627	-0.94
209.099	-5.94
209.57	-7.54
210.042	-2.44
210.514	-0.34
210.986	-6.44
211.458	-6.54
211.93	-1.04
212.402	1.66
212.873	-5.04
213.345	-15.94
213.817	-13.84
214.288	-7.94
214.76	-12.54
215.232	2.86
215.703	-0.14
216.175	-3.94
216.646	-5.84
217.118	-4.74
217.589	-1.84
218.061	0.66
218.532	-3.34
219.004	1.96
219.475	-5.34
219.946	-4.94
220.418	-6.84
220.889	-8.54
221.36	-4.14
221.832	-1.64
222.303	-7.34
222.774	1.56
223.245	-5.24
223.717	-7.04
224.188	-5.64
224.659	-7.64
225.13	-4.34
225.601	-4.24
226.072	4.16
226.543	6.06
227.014	4.26
227.485	4.16
227.956	-5.54
228.427	-0.84
228.898	-1.44
229.369	4.46
229.839	1.26
230.31	-6.04
230.781	3.86
231.252	-3.14
231.722	-6.14
232.193	-0.74
232.664	-3.34
233.135	5.86
233.605	-3.04
234.076	-7.64
234.546	-4.94
235.017	-0.34
235.487	-4.24
235.958	-4.54
236.428	-4.14
236.899	1.46
237.369	5.06
237.84	-3.74
238.31	1.56
238.78	-1.94
239.251	-6.34
239.721	-7.74
240.191	-5.04
240.662	0.86
241.132	-0.54
241.602	-6.64
242.072	-5.44
242.542	3.76
243.013	-0.34
243.483	0.26
243.953	-3.54
244.423	-4.14
244.893	-12.04
245.363	-1.04
245.833	1.26
246.303	-1.14
246.773	7.06
247.243	-3.34
247.712	3.36
248.182	1.76
248.652	0.86
249.122	-8.74
249.592	0.56
250.061	3.26
250.531	4.06
251.001	-3.04
251.471	0.86
251.94	-2.64
252.41	-4.14
252.879	-3.14
253.349	6.96
253.818	4.96
254.288	-0.34
254.757	5.16
255.227	-3.44
255.696	0.16
256.166	5.66
256.635	3.66
257.105	2.76
257.574	-0.84
258.043	2.96
258.513	1.36
258.982	7.06
259.451	-5.64
259.92	-4.24
260.389	5.56
260.859	10.16
261.328	4.56
261.797	4.36
262.266	1.56
262.735	10.26
263.204	-1.34
263.673	0.16
264.142	3.46
264.611	-5.34
265.08	1.26
265.549	-4.44
266.018	-1.34
266.487	-7.94
266.955	-7.04
267.424	-5.04
267.893	7.86
268.362	-2.94
268.83	8.56
269.299	4.66
269.768	1.26
270.236	5.06
270.705	2.86
271.174	1.36
271.642	4.56
272.111	4.06
272.579	6.16
273.048	2.16
273.516	-1.24
273.985	6.26
274.453	9.46
274.922	14.76
275.39	7.36
275.858	-6.24
276.327	3.36
276.795	13.56
277.263	4.56
277.731	11.06
278.2	13.76
278.668	7.46
279.136	11.06
279.604	2.66
280.072	2.06
280.54	2.36
281.008	6.86
281.477	9.86
281.945	16.16
282.413	11.06
282.881	12.56
283.348	4.16
283.816	7.76
284.284	16.46
284.752	20.46
285.22	13.76
285.688	12.66
286.156	14.76
286.623	18.36
287.091	10.26
287.559	14.76
288.026	10.76
288.494	16.26
288.962	-2.14
289.429	5.46
289.897	19.36
290.364	11.66
290.832	16.66
291.3	10.66
291.767	15.06
292.234	14.56
292.702	14.86
293.169	15.06
293.637	18.56
294.104	18.96
294.571	7.16
295.039	9.26
295.506	5.06
295.973	15.66
296.44	9.76
296.908	18.26
297.375	16.46
297.842	20.56
298.309	13.36
298.776	9.16
299.243	18.96
299.71	7.36
300.177	13.76
300.644	14.96
301.111	16.46
301.578	23.56
302.045	11.46
302.512	17.96
302.979	21.36
303.446	16.56
303.913	12.86
304.379	11.86
304.846	24.96
305.313	18.86
305.78	14.86
306.246	20.46
306.713	23.36
307.18	20.36
307.646	21.96
308.113	22.96
308.579	19.06
309.046	25.36
309.512	23.96
309.979	18.46
310.445	21.26
310.912	27.26
311.378	27.36
311.845	25.56
312.311	21.66
312.777	29.16
313.244	27.76
313.71	31.66
314.176	29.86
314.642	27.76
315.109	29.16
315.575	34.16
316.041	33.26
316.507	24.06
316.973	34.66
317.439	27.46
317.905	35.96
318.371	32.96
318.837	30.16
319.303	32.66
319.769	32.36
320.235	24.36
320.701	31.56
321.167	30.36
321.633	24.66
322.099	38.76
322.564	36.16
323.03	33.86
323.496	31.46
323.962	32.66
324.427	36.16
324.893	37.56
325.359	36.16
325.824	31.76
326.29	37.06
326.755	35.56
327.221	37.76
327.686	32.76
328.152	39.26
328.617	36.96
329.083	38.36
329.548	47.26
330.014	37.66
330.479	38.76
330.944	40.66
331.41	34.06
331.875	41.56
332.34	36.46
332.805	37.76
333.271	40.16
333.736	33.96
334.201	50.46
334.666	52.46
335.131	43.46
335.596	44.36
336.061	47.66
336.526	31.76
336.991	43.46
337.456	49.36
337.921	48.06
338.386	42.86
338.851	44.86
339.316	48.26
339.781	53.76
340.246	50.16
340.711	43.66
341.175	47.06
341.64	41.16
342.105	45.16
342.569	46.96
343.034	56.06
343.499	52.86
343.963	50.16
344.428	63.46
344.893	60.36
345.357	53.36
345.822	58.56
346.286	63.96
346.751	69.16
347.215	62.96
347.679	69.36
348.144	89.66
348.608	78.06
349.073	64.46
349.537	66.86
350.001	68.16
350.465	87.36
350.93	74.06
351.394	80.56
351.858	72.26
352.322	82.66
352.786	76.76
353.25	97.16
353.715	104.46
354.179	93.26
354.643	104.76
355.107	113.66
355.571	98.46
356.035	97.96
356.498	106.16
356.962	102.06
357.426	114.96
357.89	109.26
358.354	85.36
358.818	74.36
359.281	70.46
359.745	72.46
360.209	74.86
360.673	74.26
361.136	67.36
361.6	79.06
362.064	77.86
362.527	81.96
362.991	92.46
363.454	80.76
363.918	66.26
364.381	79.56
364.845	76.36
365.308	81.26
365.772	79.46
366.235	74.16
366.698	77.76
367.162	90.96
367.625	81.66
368.088	87.16
368.552	81.06
369.015	80.76
369.478	87.96
369.941	95.46
370.404	91.16
370.867	97.56
371.331	97.26
371.794	102.06
372.257	102.86
372.72	102.26
373.183	100.06
373.646	87.46
374.109	86.66
374.572	96.26
375.035	97.76
375.497	102.96
375.96	103.66
376.423	101.96
376.886	112.06
377.349	111.06
377.811	100.66
378.274	101.46
378.737	95.26
379.199	100.36
379.662	109.06
380.125	110.46
380.587	104.56
381.05	105.86
381.512	114.56
381.975	118.66
382.437	112.66
382.9	114.66
383.362	121.56
383.825	128.56
384.287	120.36
384.75	116.36
385.212	125.06
385.674	126.86
386.136	127.76
386.599	124.36
387.061	120.26
387.523	116.26
387.985	120.16
388.447	124.76
388.91	124.76
389.372	123.86
389.834	128.96
390.296	120.36
390.758	131.66
391.22	134.66
391.682	141.56
392.144	156.06
392.606	151.46
393.068	135.56
393.529	153.76
393.991	132.96
394.453	133.86
394.915	140.86
395.377	134.26
395.838	139.86
396.3	132.66
396.762	137.76
397.224	131.86
397.685	129.56
398.147	134.56
398.608	125.46
399.07	133.76
399.531	135.76
399.993	149.56
400.454	158.76
400.916	151.06
401.377	152.46
401.839	151.86
402.3	156.06
402.762	159.16
403.223	177.66
403.684	174.26
404.145	164.46
404.607	163.56
405.068	169.76
405.529	167.86
405.99	191.16
406.451	178.16
406.913	175.26
407.374	170.36
407.835	165.26
408.296	175.76
408.757	175.36
409.218	192.66
409.679	181.96
410.14	174.26
410.601	179.26
411.062	180.16
411.522	186.36
411.983	171.76
412.444	171.46
412.905	185.36
413.366	182.76
413.826	196.56
414.287	227.96
414.748	274.76
415.208	268.06
415.669	223.66
416.13	221.86
416.59	217.06
417.051	232.76
417.511	223.96
417.972	249.36
418.432	262.76
418.893	299.16
419.353	266.76
419.814	211.86
420.274	193.96
420.734	191.76
421.195	204.06
421.655	195.76
422.115	206.86
422.576	199.56
423.036	207.16
423.496	219.56
423.956	226.76
424.416	239.16
424.876	275.06
425.336	262.16
425.797	269.46
426.257	260.36
426.717	245.76
427.177	239.36
427.637	236.66
428.097	244.86
428.556	251.16
429.016	279.06
429.476	273.86
429.936	275.16
430.396	285.46
430.856	297.46
431.315	315.36
431.775	347.96
432.235	389.06
432.694	352.86
433.154	366.66
433.614	391.36
434.073	343.66
434.533	286.26
434.993	282.76
435.452	283.96
435.912	304.46
436.371	296.06
436.83	284.36
437.29	270.66
437.749	252.36
438.209	257.76
438.668	277.56
439.127	293.46
439.587	266.66
440.046	261.56
440.505	270.56
440.964	289.96
441.424	329.86
441.883	314.26
442.342	269.06
442.801	235.36
443.26	231.86
443.719	233.46
444.178	238.16
444.637	231.06
445.096	234.66
445.555	238.96
446.014	239.66
446.473	242.36
446.932	247.46
447.391	243.86
447.849	243.36
448.308	228.46
448.767	239.36
449.226	258.06
449.685	251.36
450.143	264.86
450.602	260.56
451.061	238.36
451.519	254.26
451.978	245.46
452.436	251.66
452.895	260.76
453.353	268.26
453.812	253.76
454.27	257.06
454.729	256.66
455.187	254.66
455.646	263.86
456.104	268.06
456.562	280.06
457.021	286.26
457.479	272.26
457.937	282.46
458.395	278.26
458.854	269.56
459.312	275.26
459.77	292.66
460.228	277.46
460.686	265.86
461.144	266.36
461.602	266.16
462.06	266.56
462.518	269.86
462.976	279.26
463.434	271.76
463.892	279.26
464.35	298.76
464.808	309.96
465.266	288.96
465.724	291.86
466.181	291.66
466.639	290.46
467.097	305.06
467.555	326.66
468.012	324.36
468.47	329.06
468.928	341.76
469.385	364.66
469.843	373.46
470.3	374.66
470.758	386.36
471.215	404.66
471.673	424.96
472.13	424.56
472.588	436.76
473.045	390.96
473.503	414.96
473.96	426.76
474.417	430.56
474.875	461.26
475.332	503.56
475.789	487.86
476.246	494.36
476.704	514.96
477.161	534.26
477.618	552.16
478.075	584.06
478.532	639.46
478.989	719.16
479.446	829.66
479.903	787.86
480.36	808.46
480.817	862.96
481.274	970.76
481.731	1041.76
482.188	1133.16
482.645	1264.86
483.102	1352.36
483.558	1482.76
484.015	1507.46
484.472	1494.16
484.929	1440.66
485.385	1404.86
485.842	1378.36
486.299	1324.56
486.755	1283.46
487.212	1087.06
487.668	943.16
488.125	866.96
488.582	801.96
489.038	777.46
489.494	735.56
489.951	722.16
490.407	688.56
490.864	677.96
491.32	681.36
491.776	682.26
492.233	677.66
492.689	657.86
493.145	647.16
493.602	636.56
494.058	650.36
494.514	650.96
494.97	675.06
495.426	683.86
495.882	655.86
496.338	652.46
496.794	666.76
497.251	653.96
497.707	672.66
498.163	676.56
498.618	672.16
499.074	683.56
499.53	706.46
499.986	707.36
500.442	679.86
500.898	656.16
501.354	647.76
501.809	654.56
502.265	662.66
502.721	673.76
503.177	672.76
503.632	686.56
504.088	691.76
504.543	703.26
504.999	743.96
505.455	698.56
505.91	678.36
506.366	675.26
506.821	666.26
507.277	673.16
507.732	680.96
508.187	675.66
508.643	682.16
509.098	689.46
509.553	706.26
510.009	707.66
510.464	721.96
510.919	743.66
511.375	743.76
511.83	758.96
512.285	781.16
512.74	804.16
513.195	838.46
513.65	819.16
514.105	823.66
514.56	832.26
515.015	845.66
515.47	852.66
515.925	840.66
516.38	838.16
516.835	849.96
517.29	819.96
517.745	817.06
518.2	823.26
518.655	800.76
519.109	796.16
519.564	793.76
520.019	785.76
520.474	786.06
520.928	767.46
521.383	770.06
521.838	752.96
522.292	756.86
522.747	763.76
523.201	754.76
523.656	738.06
524.11	741.76
524.565	742.06
525.019	738.26
525.474	742.16
525.928	745.36
526.382	748.76
526.837	744.26
527.291	755.56
527.745	748.76
528.2	734.06
528.654	734.66
529.108	737.36
529.562	740.36
530.016	730.06
530.47	733.56
530.925	731.36
531.379	737.96
531.833	744.56
532.287	745.96
532.741	756.16
533.195	744.06
533.649	755.46
534.103	766.16
534.556	749.16
535.01	752.16
535.464	747.46
535.918	754.26
536.372	759.96
536.826	767.06
537.279	758.06
537.733	761.06
538.187	766.26
538.64	755.06
539.094	762.96
539.548	774.96
540.001	768.26
540.455	774.66
540.908	771.76
541.362	787.66
541.815	803.36
542.269	811.96
542.722	806.06
543.175	816.66
543.629	820.16
544.082	835.36
544.536	829.86
544.989	851.96
545.442	857.66
545.895	848.26
546.349	847.66
546.802	852.06
547.255	858.56
547.708	854.26
548.161	866.26
548.614	879.96
549.067	888.26
549.52	883.06
549.973	871.76
550.426	871.76
550.879	854.96
551.332	854.36
551.785	873.66
552.238	871.66
552.691	876.96
553.144	890.16
553.596	902.06
554.049	923.66
554.502	949.66
554.955	972.56
555.407	969.96
555.86	970.96
556.313	960.26
556.765	955.36
557.218	950.96
557.67	940.86
558.123	946.86
558.576	933.86
559.028	936.96
559.48	950.66
559.933	935.96
560.385	903.86
560.838	877.36
561.29	844.66
561.742	846.96
562.195	830.06
562.647	826.36
563.099	833.76
563.551	822.36
564.004	831.06
564.456	826.06
564.908	804.06
565.36	791.56
565.812	779.86
566.264	765.46
566.716	766.96
567.168	755.66
567.62	762.36
568.072	751.96
568.524	737.16
568.976	739.16
569.428	731.46
569.88	721.56
570.332	733.46
570.784	743.46
571.235	731.66
571.687	744.76
572.139	754.56
572.59	758.36
573.042	762.66
573.494	755.66
573.945	757.06
574.397	737.76
574.849	733.16
575.3	737.36
575.752	742.16
576.203	725.66
576.655	728.76
577.106	720.06
577.557	713.16
578.009	711.36
578.46	719.66
578.912	713.46
579.363	711.26
579.814	715.16
580.265	711.76
580.717	709.66
581.168	716.36
581.619	716.16
582.07	724.86
582.521	713.06
582.972	704.46
583.423	715.86
583.875	707.86
584.326	726.66
584.777	742.86
585.227	761.96
585.678	776.96
586.129	792.66
586.58	806.56
587.031	842.36
587.482	870.36
587.933	894.66
588.384	877.36
588.834	841.76
589.285	822.76
589.736	823.36
590.186	823.86
590.637	807.06
591.088	785.76
591.538	784.96
591.989	772.46
592.439	776.96
592.89	762.86
593.34	751.46
593.791	748.76
594.241	735.16
594.692	742.46
595.142	733.46
595.593	735.06
596.043	751.16
596.493	755.66
596.943	755.96
597.394	772.66
597.844	760.16
598.294	784.16
598.744	800.76
599.195	839.66
599.645	875.16
600.095	905.76
600.545	972.16
600.995	1028.06
601.445	1086.36
601.895	1154.56
602.345	1211.26
602.795	1196.76
603.245	1125.76
603.695	1074.26
604.145	1019.66
604.594	977.76
605.044	917.96
605.494	852.76
605.944	804.36
606.393	791.36
606.843	762.96
607.293	773.56
607.743	760.46
608.192	776.36
608.642	795.36
609.091	795.06
609.541	810.36
609.99	811.76
610.44	801.66
610.889	761.96
611.339	737.56
611.788	724.86
612.238	730.36
612.687	738.06
613.136	728.36
613.586	738.36
614.035	745.86
614.484	755.66
614.933	742.76
615.383	749.56
615.832	744.16
616.281	740.96
616.73	708.66
617.179	695.76
617.628	682.76
618.077	667.66
618.526	657.26
618.975	642.26
619.424	643.76
619.873	645.36
620.322	654.86
620.771	648.56
621.22	635.06
621.669	620.16
622.118	615.56
622.567	615.76
623.015	602.16
623.464	591.96
623.913	594.36
624.361	583.26
624.81	576.46
625.259	581.56
625.707	589.56
626.156	594.76
626.604	599.96
627.053	589.76
627.501	596.76
627.95	607.96
628.398	613.66
628.847	613.16
629.295	598.96
629.744	609.96
630.192	604.76
630.64	596.36
631.089	569.86
631.537	565.46
631.985	562.76
632.433	564.06
632.881	562.16
633.33	560.36
633.778	550.66
634.226	547.26
634.674	561.86
635.122	569.26
635.57	577.46
636.018	589.56
636.466	593.46
636.914	586.36
637.362	593.76
637.81	613.46
638.258	611.56
638.705	612.66
639.153	634.36
639.601	656.56
640.049	666.96
640.497	705.76
640.944	724.96
641.392	676.96
641.84	651.46
642.287	617.46
642.735	588.66
643.182	592.56
643.63	591.86
644.078	585.56
644.525	610.06
644.973	614.86
645.42	627.36
645.867	644.66
646.315	660.16
646.762	684.16
647.21	708.26
647.657	726.76
648.104	767.66
648.551	780.86
648.999	856.46
649.446	921.86
649.893	1004.26
650.34	1149.46
650.787	1368.66
651.234	1683.16
651.682	2162.96
652.129	2917.06
652.576	4146.96
653.023	6061.86
653.47	8180.26
653.917	10181.86
654.363	11740.66
654.81	12954.36
655.257	12223.56
655.704	8121.16
656.151	4890.36
656.598	3234.86
657.044	2312.06
657.491	1787.56
657.938	1466.76
658.385	1222.46
658.831	1075.46
659.278	955.66
659.724	857.76
660.171	794.06
660.618	724.36
661.064	706.76
661.511	688.96
661.957	667.56
662.404	651.76
662.85	669.86
663.296	643.36
663.743	588.26
664.189	556.06
664.635	552.66
665.082	548.86
665.528	552.36
665.974	534.86
666.42	530.96
666.867	525.66
667.313	503.16
667.759	485.96
668.205	472.86
668.651	466.56
669.097	466.16
669.543	458.56
669.989	472.76
670.435	467.76
670.881	466.76
671.327	476.66
671.773	489.66
672.219	509.96
672.665	575.26
673.11	625.76
673.556	659.56
674.002	702.76
674.448	691.86
674.893	579.46
675.339	510.66
675.785	468.16
676.23	435.66
676.676	421.26
677.122	399.86
677.567	380.46
678.013	394.86
678.458	379.96
678.904	385.96
679.349	367.56
679.794	370.76
680.24	371.56
680.685	381.36
681.131	371.66
681.576	373.46
682.021	373.26
682.466	371.16
682.912	363.96
683.357	372.16
683.802	406.06
684.247	434.76
684.692	480.76
685.137	523.46
685.583	564.36
686.028	592.06
686.473	543.46
686.918	473.36
687.363	429.96
687.807	415.16
688.252	389.86
688.697	370.26
689.142	362.46
689.587	351.16
690.032	349.76
690.477	369.66
690.921	369.26
691.366	404.36
691.811	419.76
692.255	449.56
692.7	479.76
693.145	540.86
693.589	737.36
694.034	1197.16
694.478	1632.06
694.923	1846.56
695.367	2402.46
695.812	1279.56
696.256	529.46
696.701	393.76
697.145	363.96
697.59	356.26
698.034	340.16
698.478	344.86
698.922	341.26
699.367	343.16
699.811	353.76
700.255	367.76
700.699	405.96
701.143	454.66
701.588	502.56
702.032	540.76
702.476	539.46
702.92	513.86
703.364	522.26
703.808	678.16
704.252	1111.66
704.696	1526.26
705.14	1777.66
705.584	2263.16
706.027	1127.66
706.471	553.36
706.915	418.56
707.359	371.06
707.803	339.76
708.246	339.96
708.69	332.76
709.134	333.36
709.577	322.96
710.021	329.56
710.465	318.56
710.908	320.16
711.352	320.26
711.795	333.66
712.239	372.66
712.682	404.86
713.126	431.16
713.569	480.86
714.012	375.06
714.456	327.36
714.899	311.06
715.342	290.56
715.786	275.76
716.229	278.56
716.672	273.26
717.115	260.06
717.558	260.36
718.002	269.86
718.445	274.26
718.888	297.36
719.331	306.46
719.774	326.86
720.217	321.96
720.66	302.66
721.103	279.86
721.546	275.16
721.989	256.96
722.432	250.66
722.874	249.76
723.317	238.66
723.76	246.26
724.203	270.66
724.645	340.66
725.088	468.36
725.531	608.06
725.974	682.96
726.416	581.56
726.859	319.66
727.301	263.46
727.744	253.56
728.187	241.86
728.629	249.96
729.071	254.06
729.514	273.56
729.956	284.86
730.399	300.06
730.841	309.66
731.283	298.96
731.726	281.46
732.168	273.86
732.61	285.06
733.053	308.16
733.495	340.56
733.937	387.16
734.379	421.86
734.821	461.76
735.263	576.06
735.705	886.46
736.148	1680.36
736.59	2760.96
737.032	3255.36
737.474	2625.56
737.916	872.86
738.357	462.26
738.799	350.36
739.241	318.16
739.683	297.26
740.125	306.66
740.567	319.06
741.008	336.96
741.45	337.56
741.892	333.16
742.334	369.86
742.775	383.56
743.217	371.96
743.658	286.46
744.1	267.86
744.542	278.76
744.983	330.66
745.425	373.76
745.866	367.56
746.307	294.96
746.749	296.36
747.19	349.86
747.632	475.66
748.073	945.06
748.514	1998.56
748.956	3039.06
749.397	3800.06
749.838	3171.46
750.279	3155.86
750.72	1593.46
751.162	580.76
751.603	347.46
752.044	271.96
752.485	231.36
752.926	221.06
753.367	217.36
753.808	206.06
754.249	204.46
754.69	192.36
755.131	195.06
755.572	189.36
756.013	184.26
756.453	194.56
756.894	198.46
757.335	201.36
757.776	201.06
758.216	208.86
758.657	204.46
759.098	208.26
759.538	237.96
759.979	277.66
760.42	399.96
760.86	756.46
761.301	1957.76
761.741	4719.66
762.182	6840.26
762.622	4828.86
763.063	1395.46
763.503	561.86
763.943	344.26
764.384	290.96
764.824	258.96
765.264	249.66
765.705	213.36
766.145	192.36
766.585	182.46
767.025	173.26
767.465	175.06
767.906	191.96
768.346	199.76
768.786	211.86
769.226	230.26
769.666	323.06
770.106	659.16
770.546	1671.86
770.986	2820.66
771.426	2509.46
771.866	834.46
772.306	334.76
772.745	209.66
773.185	178.66
773.625	173.26
774.065	164.46
774.505	174.06
774.944	219.06
775.384	375.36
775.824	617.56
776.263	599.56
776.703	297.76
777.142	164.06
777.582	139.66
778.021	126.36
778.461	134.56
778.9	132.66
779.34	133.36
779.779	120.16
780.219	114.36
780.658	111.76
781.097	121.86
781.537	126.66
781.976	117.66
782.415	114.76
782.855	106.16
783.294	108.46
783.733	111.06
784.172	112.66
784.611	107.86
785.05	122.06
785.489	118.96
785.928	128.76
786.367	126.06
786.806	123.96
787.245	140.56
787.684	144.86
788.123	152.86
788.562	145.46
789.001	137.26
789.44	130.36
789.879	121.26
790.317	122.56
790.756	138.56
791.195	133.96
791.634	160.06
792.072	209.46
792.511	381.06
792.95	1052.46
793.388	2237.66
793.827	2011.56
794.265	709.86
794.704	289.76
795.142	193.46
795.581	158.56
796.019	139.86
796.458	138.46
796.896	134.56
797.334	140.86
797.773	164.56
798.211	237.06
798.649	461.36
799.087	1071.56
799.526	1691.36
799.964	2146.66
800.402	2138.66
800.84	804.26
801.278	325.06
801.716	202.46
802.154	162.76
802.592	151.46
803.03	145.96
803.468	145.46
803.906	149.66
804.344	163.16
804.782	143.46
805.22	145.26
805.658	132.96
806.096	155.36
806.533	169.96
806.971	189.36
807.409	233.96
807.847	345.46
808.284	703.16
808.722	1995.06
809.16	3510.06
809.597	3332.26
810.035	5787.06
810.472	6154.36
810.91	2233.66
811.347	855.96
811.785	434.56
812.222	276.66
812.66	208.86
813.097	175.06
813.535	152.26
813.972	141.06
814.409	129.66
814.846	119.36
815.284	117.76
815.721	109.56
816.158	104.76
816.595	111.46
817.032	163.06
817.47	191.46
817.907	149.46
818.344	111.76
818.781	106.76
819.218	102.16
819.655	131.56
820.092	201.86
820.529	226.36
820.966	185.16
821.403	133.76
821.839	103.06
822.276	106.06
822.713	135.06
823.15	149.16
823.587	128.06
824.023	158.76
824.46	320.56
824.897	956.06
825.333	1426.86
825.77	608.86
826.206	248.16
826.643	145.36
827.08	112.36
827.516	85.16
827.953	83.56
828.389	81.46
828.825	75.16
829.262	74.76
829.698	67.76
830.135	69.86
830.571	62.86
831.007	67.66
831.443	69.26
831.88	65.46
832.316	65.16
832.752	65.26
833.188	67.46
833.624	63.16
834.06	67.76
834.497	77.76
834.933	74.56
835.369	77.16
835.805	73.56
836.241	78.76
836.677	88.06
837.112	94.26
837.548	115.06
837.984	141.76
838.42	212.06
838.856	530.46
839.292	1609.26
839.727	2445.96
840.163	1150.96
840.599	988.06
841.034	2154.66
841.47	2254.16
841.906	824.66
842.341	350.06
842.777	208.46
843.212	212.56
843.648	193.16
844.083	115.56
844.519	84.86
844.954	80.26
845.39	58.56
845.825	65.66
846.261	52.36
846.696	58.26
847.131	53.26
847.566	62.26
848.002	55.76
848.437	58.36
848.872	65.56
849.307	63.56
849.742	86.36
850.177	191.26
850.613	591.76
851.048	923.66
851.483	400.06
851.918	165.46
852.353	89.66
852.788	62.66
853.223	52.76
853.657	51.16
854.092	53.16
854.527	45.06
854.962	41.06
855.397	49.86
855.832	50.86
856.266	44.06
856.701	39.26
857.136	39.86
857.57	46.56
858.005	51.76
858.44	62.26
858.874	53.36
859.309	59.46
859.743	47.46
860.178	49.66
860.612	47.16
861.047	50.86
861.481	76.36
861.915	76.76
862.35	55.86
862.784	36.96
863.218	43.66
863.653	37.86
864.087	47.66
864.521	55.66
864.955	72.06
865.39	163.66
865.824	190.26
866.258	124.46
866.692	181.76
867.126	196.06
867.56	118.36
867.994	61.46
868.428	37.56
868.862	49.46
869.296	62.06
869.73	64.96
870.164	59.16
870.598	48.46
871.031	40.56
871.465	36.16
871.899	37.16
872.333	23.96
872.766	29.46
873.2	24.66
873.634	32.96
874.067	28.26
874.501	29.36
874.935	31.96
875.368	37.86
875.802	31.66
876.235	27.46
876.669	23.16
877.102	27.56
877.535	31.06
877.969	21.86
878.402	26.36
878.836	21.86
879.269	21.86
879.702	23.76
880.135	26.86
880.569	23.16
881.002	24.06
881.435	23.06
881.868	26.46
882.301	22.96
882.734	19.66
883.167	18.56
883.601	20.96
884.034	20.16
884.467	19.66
884.899	21.76
885.332	12.36
885.765	17.26
886.198	23.36
886.631	19.76
887.064	18.16
887.497	22.06
887.929	23.66
888.362	18.06
888.795	11.86
889.228	19.96
889.66	22.96
890.093	21.36
890.526	20.06
890.958	11.56
891.391	19.96
891.823	24.46
892.256	20.66
892.688	15.06
893.121	23.26
893.553	12.26
893.985	20.46
894.418	25.46
894.85	11.06
895.282	16.66
895.715	17.36
896.147	16.96
896.579	21.46
897.011	16.06
897.444	17.76
897.876	17.76
898.308	21.06
898.74	15.96
899.172	20.66
899.604	34.06
900.036	25.56
900.468	22.46
900.9	17.26
901.332	16.66
901.764	15.76
902.196	18.86
902.628	18.76
903.06	20.26
903.491	29.46
903.923	27.76
904.355	21.36
904.787	30.36
905.218	19.76
905.65	24.76
906.082	14.76
906.513	15.16
906.945	20.56
907.376	12.16
907.808	21.76
908.239	22.26
908.671	20.76
909.102	22.96
909.534	25.16
909.965	49.26
910.397	99.06
910.828	334.96
911.259	503.46
911.691	227.46
912.122	117.36
912.553	50.26
912.984	29.96
913.415	31.46
913.847	26.56
914.278	19.26
914.709	16.36
915.14	18.06
915.571	13.86
916.002	14.96
916.433	18.36
916.864	18.76
917.295	15.16
917.726	27.06
918.157	16.96
918.587	30.26
919.018	23.86
919.449	23.96
919.88	26.66
920.311	31.76
920.741	50.16
921.172	176.36
921.603	152.66
922.033	78.56
922.464	50.96
922.895	24.56
923.325	17.76
923.756	12.46
924.186	16.06
924.617	23.76
925.047	20.46
925.478	25.36
925.908	19.36
926.338	10.66
926.769	13.96
927.199	12.76
927.629	6.96
928.06	16.06
928.49	21.06
928.92	16.86
929.35	11.06
929.78	13.36
930.21	6.66
930.641	14.86
931.071	12.06
931.501	4.06
931.931	14.76
932.361	6.96
932.791	8.56
933.221	4.86
933.651	3.56
934.08	18.66
934.51	31.76
934.94	15.36
935.37	7.86
935.8	9.46
936.229	9.96
936.659	4.56
937.089	5.96
937.519	13.56
937.948	23.06
938.378	21.66
938.807	8.96
939.237	7.06
939.666	4.96
940.096	-5.94
940.525	4.16
940.955	0.16
941.384	1.56
941.814	-3.54
942.243	0.46
942.672	7.96
943.102	-0.34
943.531	1.36
943.96	8.36
944.39	4.16
944.819	0.66
945.248	9.66
945.677	-7.44
946.106	7.66
946.535	10.26
946.964	0.16
947.393	3.06
947.822	1.56
948.251	-4.94
948.68	5.66
949.109	6.46
949.538	6.86
949.967	-2.44
950.396	-2.64
950.825	2.46
951.254	-2.24
951.682	-3.74
952.111	2.26
952.54	9.16
952.969	2.76
953.397	-8.04
953.826	-0.94
954.254	-3.84
954.683	1.26
955.112	-5.84
955.54	1.86
955.969	1.66
956.397	-0.64
956.826	-4.24
957.254	6.06
957.682	0.46
958.111	0.36
958.539	-4.34
958.967	-2.74
959.396	3.06
959.824	3.56
960.252	-0.54
960.68	-6.84
961.109	-4.94
961.537	-6.84
961.965	-1.34
962.393	-0.14
962.821	-2.74
963.249	4.06
963.677	3.06
964.105	3.86
964.533	50.86
964.961	43.66
965.389	21.16
965.817	8.56
966.245	3.96
966.672	0.06
967.1	-5.94
967.528	-0.84
967.956	-3.74
968.383	1.76
968.811	-4.84
969.239	2.26
969.666	-2.34
970.094	3.56
970.522	2.06
970.949	3.86
971.377	-2.64
971.804	-2.34
972.232	-3.64
972.659	-1.34
973.087	0.76
973.514	-4.84
973.941	-7.14
974.369	2.16
974.796	3.46
975.223	4.16
975.651	0.66
976.078	9.76
976.505	-1.94
976.932	7.86
977.359	18.26
977.786	12.66
978.214	1.56
978.641	-4.84
979.068	2.26
979.495	-2.04
979.922	-1.74
980.349	-2.94
980.776	5.46
981.202	3.36
981.629	3.56
982.056	-0.14
982.483	3.06
982.91	4.56
983.337	-9.84
983.763	-2.44
984.19	-5.94
984.617	-2.14
985.043	-4.54
985.47	-3.34
985.897	-2.34
986.323	-3.64
986.75	3.86
987.176	-0.84
987.603	1.46
988.029	1.06
988.456	-2.64
988.882	3.26
989.308	-6.44
989.735	-4.44
990.161	2.26
990.587	-5.04
991.014	-4.34
991.44	5.56
991.866	-3.24
992.292	-6.64
992.719	-0.54
993.145	5.76
993.571	-10.04
993.997	-6.24
994.423	-0.14
994.849	-10.54
995.275	14.06
995.701	4.16
996.127	-1.34
996.553	2.16
996.979	-0.64
997.405	-1.64
997.83	-2.14
998.256	-4.44
998.682	-1.34
999.108	-12.94
999.534	1.36
999.959	-2.74
1000.385	2.16
1000.811	6.46
1001.236	-10.44
1001.662	-4.34
1002.087	-6.64
1002.513	7.06
1002.938	-0.84
1003.364	-0.84
1003.789	-0.14
1004.215	1.66
1004.64	-0.94
1005.066	1.56
1005.491	1.36
1005.916	-0.54
1006.342	-3.54
1006.767	-8.24
1007.192	6.76
1007.617	-6.04
1008.042	-1.24
1008.468	-9.44
1008.893	-4.54
1009.318	-2.84
1009.743	-4.24
1010.168	9.56
1010.593	1.26
1011.018	-8.34
1011.443	-6.64
1011.868	-0.34
1012.293	-5.14
1012.718	-10.54
1013.143	4.36
1013.567	-0.64
1013.992	0.26
1014.417	-6.64
1014.842	0.66
1015.267	0.86
1015.691	-5.74
1016.116	4.66
1016.541	3.06
1016.965	2.56
1017.39	0.06
1017.814	-1.74
1018.239	-3.24
1018.663	-9.14
1019.088	-11.24
1019.512	-4.34
1019.937	-1.64
1020.361	-5.44
1020.785	-6.34
1021.21	1.86
1021.634	-0.24
1022.058	0.46
1022.483	4.76
1022.907	2.06
1023.331	-4.14
1023.755	-4.24
1024.179	-6.24
1024.604	-2.64
1025.028	-1.64
1025.452	-3.64
1025.876	1.16
1026.3	0.06
1026.724	-19.64
1027.148	-4.14
1027.572	-9.04
1027.996	-2.94
1028.42	3.86
1028.843	-5.54
1029.267	-6.54
1029.691	-2.84
1030.115	-1.04
1030.539	-3.84
1030.962	-7.54
1031.386	-12.14
1031.81	-0.64
1032.233	-0.44
1032.657	-0.34
1033.08	-2.14
1033.504	-0.44
1033.927	-3.34
1034.351	-1.64
1034.774	-4.94
1035.198	-5.34
1035.621	-5.74
1036.045	-5.64
1036.468	-5.94
1036.891	-7.14
1037.315	-9.44
1037.738	-2.44
1038.161	1.46
1038.584	-3.84
1039.008	-2.84
1039.431	-4.34
1039.854	1.36
1040.277	-8.94
1040.7	-13.54
1041.123	1.36
1041.546	-4.04
1041.969	-10.54
1042.392	-3.84
1042.815	-2.64
1043.238	0.26
1043.661	2.06
1044.084	-11.74
1044.507	-3.24
1044.93	-9.34
1045.352	-5.64
1045.775	-4.04
1046.198	-2.44
1046.621	-3.54
1047.043	1.56
1047.466	9.36
1047.889	-1.34
1048.311	-8.44
1048.734	-0.04
1049.156	5.66
1049.579	-4.54
1050.001	-6.24
1050.424	0.16
1050.846	-4.64
1051.269	-6.04
1051.691	-6.14
1052.113	-8.14
1052.536	-5.24
1052.958	-1.24
1053.38	-4.84
1053.802	-8.24
1054.225	1.86
1054.647	-7.54
1055.069	-0.54
1055.491	5.16
1055.913	-7.74
1056.335	-4.34
1056.757	-0.04
1057.179	-6.14
1057.601	-2.34
1058.023	-0.34
1058.445	-2.44
1058.867	-2.84
1059.289	-3.74
1059.711	-6.14
1060.133	-4.64
1060.555	-9.04
1060.976	-2.44
1061.398	-3.84
1061.82	-11.54
1062.241	-7.34
1062.663	-13.04
1063.085	-1.04
1063.506	2.96
1063.928	0.26
1064.35	0.26
1064.771	-4.44
1065.193	-4.34
1065.614	-5.74
1066.035	-2.14
1066.457	-0.34
1066.878	-4.54
1067.3	-7.24
1067.721	-5.04
1068.142	-1.54
1068.564	-5.84
1068.985	-2.74
1069.406	-3.04
1069.827	-3.54
1070.248	-3.44
1070.67	-4.34
1071.091	1.66
1071.512	-1.24
1071.933	-2.24
1072.354	-7.74
1072.775	-8.84
1073.196	-10.04
1073.617	-6.24
1074.038	-9.94
1074.459	-5.54
1074.88	-8.64
1075.3	-2.34
1075.721	-8.04
1076.142	-4.64
1076.563	8.46
1076.983	-6.04
1077.404	-6.24
1077.825	-7.44
1078.246	-3.94
1078.666	-9.04
1079.087	-9.04
1079.507	-9.64
1079.928	-2.54
1080.348	1.36
1080.769	-12.74
1081.189	-3.74
1081.61	-2.74
1082.03	-6.44
1082.451	-11.94
1082.871	-5.94
1083.291	-7.84
1083.711	-9.44
1084.132	-5.14
1084.552	-3.04
1084.972	5.76
1085.392	-14.84
1085.813	-10.24
1086.233	-10.04
1086.653	-4.44
1087.073	1.66
1087.493	-8.04
1087.913	-7.24
1088.333	-8.94
1088.753	-2.04
1089.173	4.66
1089.593	-2.84
1090.013	-1.84
1090.433	1.86
1090.852	-9.54
1091.272	-5.14
1091.692	0.36
1092.112	-3.14
1092.531	-9.64
1092.951	-16.84
1093.371	-4.54
1093.79	-2.04
1094.21	-6.14
1094.63	-9.44
1095.049	-4.84
1095.469	-5.74
1095.888	-6.24
1096.308	1.26
1096.727	0.36
1097.146	-2.34
1097.566	-5.84
1097.985	-4.34
1098.405	-5.04
1098.824	-11.34
1099.243	-6.14
1099.662	-6.64
1100.082	-9.74
1100.501	-2.24
1100.92	-9.04
1101.339	-4.44
1101.758	-5.64
