Data from 20171114-ORNL-Ar_H_NY_Subt18_08-07-15-329.txt Node
Date: Tue Nov 14 08:07:15 EST 2017
User: Ender
Spectrometer: HR+D1039
Trigger mode: 0
Integration Time (sec): 2.730000E-2
Scans to average: 10
Electric dark correction enabled: true
Nonlinearity correction enabled: false
Boxcar width: 0
XAxis mode: Wavelengths
Number of Pixels in Spectrum: 2048
>>>>>Begin Spectral Data<<<<<
187.836	-5.61
188.309	-5.61
188.782	-5.61
189.255	0.49
189.728	-3.31
190.201	0.09
190.674	6.29
191.147	1.49
191.619	-4.71
192.092	-0.01
192.565	3.59
193.038	0.19
193.511	1.79
193.984	2.39
194.456	-6.81
194.929	5.69
195.402	-3.01
195.874	1.49
196.347	1.09
196.82	0.09
197.292	10.69
197.765	-1.61
198.237	-6.41
198.71	4.69
199.182	-5.11
199.655	0.99
200.127	3.59
200.6	-3.81
201.072	-3.91
201.544	-4.11
202.017	-5.21
202.489	4.29
202.961	-2.61
203.433	-8.31
203.906	-8.61
204.378	-6.51
204.85	-3.91
205.322	-14.31
205.794	-1.41
206.266	-0.11
206.739	-8.51
207.211	-0.91
207.683	-5.21
208.155	-2.11
208.627	-6.21
209.099	-4.01
209.57	-6.91
210.042	-1.61
210.514	-6.81
210.986	-4.11
211.458	-3.91
211.93	-3.81
212.402	-0.11
212.873	-10.31
213.345	-7.31
213.817	-11.91
214.288	-4.81
214.76	-12.91
215.232	-0.31
215.703	0.09
216.175	-7.01
216.646	-6.51
217.118	-5.91
217.589	2.39
218.061	-0.21
218.532	-4.51
219.004	-5.61
219.475	-2.31
219.946	-4.31
220.418	-5.81
220.889	-1.71
221.36	-2.81
221.832	-4.71
222.303	-10.01
222.774	0.09
223.245	-4.31
223.717	-4.81
224.188	-6.01
224.659	-6.41
225.13	-6.21
225.601	-1.51
226.072	1.19
226.543	-0.21
227.014	-1.41
227.485	-8.01
227.956	-6.81
228.427	-10.71
228.898	0.99
229.369	-2.11
229.839	-5.51
230.31	-5.01
230.781	-1.71
231.252	-1.51
231.722	-4.51
232.193	-1.51
232.664	-4.71
233.135	-4.31
233.605	-6.91
234.076	-11.41
234.546	-0.91
235.017	4.69
235.487	4.09
235.958	-3.81
236.428	-7.11
236.899	-7.91
237.369	1.29
237.84	-5.31
238.31	-2.51
238.78	-7.91
239.251	-2.81
239.721	-8.81
240.191	-1.61
240.662	-3.41
241.132	-2.21
241.602	-0.81
242.072	3.49
242.542	2.39
243.013	1.09
243.483	-1.41
243.953	1.89
244.423	-4.91
244.893	-2.61
245.363	1.99
245.833	-0.21
246.303	-5.41
246.773	3.49
247.243	-4.51
247.712	4.69
248.182	2.09
248.652	-1.21
249.122	-6.11
249.592	-1.51
250.061	-1.11
250.531	8.89
251.001	-1.01
251.471	-0.31
251.94	2.69
252.41	-6.81
252.879	-4.51
253.349	8.19
253.818	7.79
254.288	-3.51
254.757	-1.31
255.227	1.29
255.696	-5.01
256.166	5.19
256.635	0.09
257.105	0.39
257.574	-2.41
258.043	0.79
258.513	-3.81
258.982	-5.41
259.451	-2.71
259.92	1.29
260.389	-0.91
260.859	10.39
261.328	-1.01
261.797	5.09
262.266	0.99
262.735	4.89
263.204	-4.11
263.673	-0.41
264.142	2.99
264.611	-7.91
265.08	-5.91
265.549	-4.31
266.018	-0.31
266.487	-3.61
266.955	-8.71
267.424	-0.91
267.893	-0.81
268.362	-4.51
268.83	1.19
269.299	6.19
269.768	1.69
270.236	1.49
270.705	-0.31
271.174	6.59
271.642	4.09
272.111	4.99
272.579	2.49
273.048	6.89
273.516	-3.91
273.985	2.79
274.453	3.99
274.922	6.09
275.39	1.39
275.858	-1.21
276.327	2.39
276.795	9.59
277.263	1.89
277.731	13.29
278.2	9.89
278.668	8.59
279.136	3.09
279.604	-1.11
280.072	11.49
280.54	7.59
281.008	5.39
281.477	11.49
281.945	4.59
282.413	7.09
282.881	6.79
283.348	-0.61
283.816	7.79
284.284	10.49
284.752	17.39
285.22	4.89
285.688	7.49
286.156	9.89
286.623	11.89
287.091	5.49
287.559	10.89
288.026	4.39
288.494	14.19
288.962	4.99
289.429	7.29
289.897	8.29
290.364	8.59
290.832	15.69
291.3	11.49
291.767	7.49
292.234	8.39
292.702	7.99
293.169	7.59
293.637	8.79
294.104	12.79
294.571	1.09
295.039	6.19
295.506	4.79
295.973	12.59
296.44	10.29
296.908	8.09
297.375	7.89
297.842	8.79
298.309	7.19
298.776	1.89
299.243	14.89
299.71	7.99
300.177	15.39
300.644	16.19
301.111	15.69
301.578	13.69
302.045	6.59
302.512	21.89
302.979	22.79
303.446	17.79
303.913	17.29
304.379	17.29
304.846	24.89
305.313	21.49
305.78	16.19
306.246	20.99
306.713	22.39
307.18	14.19
307.646	18.99
308.113	20.19
308.579	17.09
309.046	16.79
309.512	20.09
309.979	13.99
310.445	16.89
310.912	22.79
311.378	27.19
311.845	18.49
312.311	24.79
312.777	23.39
313.244	25.49
313.71	28.29
314.176	24.39
314.642	21.89
315.109	20.89
315.575	24.99
316.041	33.69
316.507	22.99
316.973	20.49
317.439	20.99
317.905	27.89
318.371	23.99
318.837	24.19
319.303	30.19
319.769	28.99
320.235	23.69
320.701	26.09
321.167	28.29
321.633	21.69
322.099	26.89
322.564	32.09
323.03	28.69
323.496	24.49
323.962	27.49
324.427	25.59
324.893	32.39
325.359	34.09
325.824	29.69
326.29	31.19
326.755	32.49
327.221	30.09
327.686	24.79
328.152	39.89
328.617	35.69
329.083	36.29
329.548	46.19
330.014	39.39
330.479	31.59
330.944	37.29
331.41	37.99
331.875	43.99
332.34	28.59
332.805	33.19
333.271	35.59
333.736	32.29
334.201	45.29
334.666	44.19
335.131	48.79
335.596	47.29
336.061	42.39
336.526	33.29
336.991	40.39
337.456	51.29
337.921	40.19
338.386	34.79
338.851	35.59
339.316	39.39
339.781	38.59
340.246	49.79
340.711	47.49
341.175	48.19
341.64	37.99
342.105	45.59
342.569	46.59
343.034	53.29
343.499	54.49
343.963	42.29
344.428	57.99
344.893	55.19
345.357	52.09
345.822	54.49
346.286	49.79
346.751	58.89
347.215	57.09
347.679	62.79
348.144	79.39
348.608	72.49
349.073	52.89
349.537	65.99
350.001	71.09
350.465	75.69
350.93	67.19
351.394	68.69
351.858	54.89
352.322	78.49
352.786	63.69
353.25	85.99
353.715	87.19
354.179	83.29
354.643	107.49
355.107	99.09
355.571	85.99
356.035	82.99
356.498	96.89
356.962	92.79
357.426	100.79
357.89	99.19
358.354	78.69
358.818	69.39
359.281	67.39
359.745	62.09
360.209	70.19
360.673	63.19
361.136	66.79
361.6	74.29
362.064	77.99
362.527	67.79
362.991	82.49
363.454	63.99
363.918	68.79
364.381	75.99
364.845	77.19
365.308	84.09
365.772	78.29
366.235	74.29
366.698	75.89
367.162	81.49
367.625	75.19
368.088	71.49
368.552	79.99
369.015	85.59
369.478	83.19
369.941	92.09
370.404	81.19
370.867	87.89
371.331	91.19
371.794	99.19
372.257	89.89
372.72	88.39
373.183	95.99
373.646	82.79
374.109	94.99
374.572	88.69
375.035	84.89
375.497	92.99
375.96	96.49
376.423	98.09
376.886	100.99
377.349	104.99
377.811	96.29
378.274	99.19
378.737	96.59
379.199	102.59
379.662	102.39
380.125	98.99
380.587	94.69
381.05	95.29
381.512	102.59
381.975	115.79
382.437	111.79
382.9	109.69
383.362	113.69
383.825	117.89
384.287	117.29
384.75	117.49
385.212	117.59
385.674	123.69
386.136	123.89
386.599	110.59
387.061	116.19
387.523	115.79
387.985	125.79
388.447	128.09
388.91	116.89
389.372	124.19
389.834	120.59
390.296	118.39
390.758	124.29
391.22	132.99
391.682	140.49
392.144	137.99
392.606	132.09
393.068	133.69
393.529	148.39
393.991	134.29
394.453	122.59
394.915	128.99
395.377	129.89
395.838	127.39
396.3	132.09
396.762	135.49
397.224	120.49
397.685	127.49
398.147	134.89
398.608	129.79
399.07	129.29
399.531	131.99
399.993	140.39
400.454	153.89
400.916	144.89
401.377	133.89
401.839	145.69
402.3	152.29
402.762	161.29
403.223	172.09
403.684	160.79
404.145	156.09
404.607	156.09
405.068	157.99
405.529	160.79
405.99	178.99
406.451	165.79
406.913	164.79
407.374	162.59
407.835	162.09
408.296	171.59
408.757	172.89
409.218	177.39
409.679	176.39
410.14	178.19
410.601	175.69
411.062	177.39
411.522	181.59
411.983	172.99
412.444	169.19
412.905	181.59
413.366	183.19
413.826	197.59
414.287	222.49
414.748	264.89
415.208	254.89
415.669	225.79
416.13	208.49
416.59	206.99
417.051	221.19
417.511	224.19
417.972	245.39
418.432	251.89
418.893	300.29
419.353	256.99
419.814	203.89
420.274	182.89
420.734	179.69
421.195	193.69
421.655	199.09
422.115	201.59
422.576	195.49
423.036	204.79
423.496	213.39
423.956	221.99
424.416	236.89
424.876	272.49
425.336	262.59
425.797	262.19
426.257	255.89
426.717	250.29
427.177	232.79
427.637	221.29
428.097	234.19
428.556	242.19
429.016	263.09
429.476	268.39
429.936	270.89
430.396	275.59
430.856	284.19
431.315	312.79
431.775	338.79
432.235	366.19
432.694	338.29
433.154	360.29
433.614	386.69
434.073	328.39
434.533	280.59
434.993	266.49
435.452	281.19
435.912	289.49
436.371	293.99
436.83	278.89
437.29	263.89
437.749	247.29
438.209	251.99
438.668	274.59
439.127	282.99
439.587	270.09
440.046	250.39
440.505	266.69
440.964	275.49
441.424	319.49
441.883	308.49
442.342	257.59
442.801	228.29
443.26	232.79
443.719	232.99
444.178	226.29
444.637	231.19
445.096	225.89
445.555	237.39
446.014	233.49
446.473	237.29
446.932	246.99
447.391	231.89
447.849	240.69
448.308	238.19
448.767	236.89
449.226	248.49
449.685	247.69
450.143	258.89
450.602	253.99
451.061	243.49
451.519	245.29
451.978	246.59
452.436	241.39
452.895	249.59
453.353	265.29
453.812	250.89
454.27	248.09
454.729	253.39
455.187	252.49
455.646	258.89
456.104	256.39
456.562	264.59
457.021	281.79
457.479	274.79
457.937	280.89
458.395	277.79
458.854	261.89
459.312	267.59
459.77	276.19
460.228	260.09
460.686	257.99
461.144	263.59
461.602	265.29
462.06	259.69
462.518	265.29
462.976	266.59
463.434	277.19
463.892	276.19
464.35	287.39
464.808	293.39
465.266	277.99
465.724	285.89
466.181	284.09
466.639	289.89
467.097	308.19
467.555	314.99
468.012	319.59
468.47	327.49
468.928	337.09
469.385	352.39
469.843	366.99
470.3	363.39
470.758	377.29
471.215	402.69
471.673	423.29
472.13	415.79
472.588	434.79
473.045	390.59
473.503	395.59
473.96	417.29
474.417	418.79
474.875	449.09
475.332	490.09
475.789	473.79
476.246	477.69
476.704	500.59
477.161	518.19
477.618	540.99
478.075	577.89
478.532	631.99
478.989	696.69
479.446	801.59
479.903	773.09
480.36	809.29
480.817	855.89
481.274	941.29
481.731	1042.59
482.188	1111.29
482.645	1249.19
483.102	1325.69
483.558	1455.99
484.015	1479.09
484.472	1474.09
484.929	1425.89
485.385	1384.39
485.842	1354.69
486.299	1295.29
486.755	1253.19
487.212	1079.19
487.668	916.49
488.125	848.49
488.582	784.59
489.038	762.19
489.494	728.79
489.951	700.69
490.407	681.09
490.864	679.59
491.32	663.89
491.776	658.99
492.233	662.09
492.689	638.99
493.145	632.79
493.602	630.49
494.058	631.99
494.514	637.69
494.97	669.29
495.426	669.49
495.882	649.69
496.338	638.79
496.794	641.29
497.251	640.19
497.707	656.79
498.163	655.59
498.618	660.29
499.074	671.79
499.53	692.19
499.986	694.89
500.442	666.29
500.898	646.59
501.354	642.89
501.809	656.99
502.265	652.09
502.721	652.79
503.177	672.59
503.632	667.39
504.088	681.49
504.543	689.59
504.999	714.59
505.455	685.69
505.91	665.49
506.366	673.39
506.821	670.59
507.277	666.19
507.732	665.29
508.187	660.39
508.643	674.39
509.098	669.99
509.553	682.89
510.009	689.49
510.464	706.99
510.919	722.19
511.375	730.59
511.83	748.79
512.285	763.39
512.74	788.99
513.195	819.29
513.65	809.39
514.105	800.69
514.56	805.99
515.015	825.89
515.47	841.09
515.925	820.19
516.38	823.89
516.835	824.09
517.29	808.89
517.745	812.19
518.2	805.09
518.655	787.79
519.109	788.39
519.564	780.99
520.019	764.69
520.474	752.59
520.928	761.59
521.383	756.89
521.838	741.09
522.292	750.39
522.747	742.89
523.201	744.59
523.656	734.89
524.11	722.19
524.565	724.69
525.019	728.39
525.474	735.39
525.928	731.09
526.382	734.09
526.837	744.79
527.291	733.99
527.745	730.19
528.2	746.29
528.654	730.89
529.108	719.49
529.562	733.69
530.016	724.89
530.47	723.89
530.925	725.89
531.379	728.09
531.833	745.09
532.287	741.09
532.741	743.39
533.195	734.39
533.649	751.69
534.103	748.89
534.556	741.09
535.01	744.39
535.464	741.49
535.918	746.29
536.372	748.99
536.826	746.69
537.279	735.49
537.733	744.29
538.187	746.89
538.64	741.89
539.094	763.19
539.548	770.49
540.001	754.29
540.455	756.59
540.908	767.89
541.362	774.79
541.815	788.39
542.269	799.49
542.722	792.79
543.175	806.49
543.629	812.69
544.082	836.89
544.536	821.29
544.989	828.89
545.442	835.29
545.895	841.99
546.349	834.49
546.802	837.89
547.255	850.79
547.708	855.09
548.161	855.89
548.614	863.39
549.067	879.29
549.52	864.29
549.973	861.79
550.426	849.49
550.879	858.49
551.332	843.19
551.785	859.59
552.238	849.49
552.691	870.89
553.144	879.39
553.596	898.09
554.049	918.79
554.502	953.39
554.955	957.69
555.407	954.09
555.86	941.99
556.313	942.29
556.765	937.29
557.218	928.99
557.67	927.19
558.123	924.39
558.576	922.69
559.028	924.69
559.48	931.19
559.933	922.09
560.385	889.19
560.838	856.89
561.29	829.69
561.742	833.19
562.195	819.49
562.647	815.59
563.099	817.49
563.551	819.29
564.004	819.09
564.456	816.19
564.908	800.49
565.36	784.39
565.812	766.89
566.264	754.69
566.716	755.79
567.168	743.69
567.62	741.29
568.072	740.69
568.524	735.99
568.976	725.99
569.428	716.69
569.88	716.29
570.332	729.59
570.784	720.49
571.235	725.09
571.687	726.69
572.139	730.69
572.59	750.39
573.042	749.39
573.494	746.49
573.945	736.89
574.397	723.79
574.849	722.39
575.3	726.59
575.752	716.99
576.203	711.59
576.655	715.19
577.106	699.49
577.557	691.79
578.009	702.19
578.46	696.39
578.912	694.89
579.363	703.19
579.814	702.19
580.265	697.29
580.717	703.39
581.168	700.49
581.619	710.09
582.07	722.99
582.521	714.49
582.972	703.69
583.423	713.79
583.875	704.89
584.326	721.59
584.777	730.89
585.227	746.99
585.678	765.09
586.129	771.29
586.58	798.19
587.031	811.39
587.482	850.29
587.933	877.09
588.384	848.29
588.834	809.59
589.285	801.39
589.736	811.59
590.186	809.19
590.637	799.49
591.088	788.79
591.538	766.29
591.989	756.69
592.439	753.19
592.89	754.19
593.34	733.99
593.791	744.49
594.241	728.49
594.692	727.79
595.142	727.29
595.593	726.39
596.043	717.69
596.493	738.69
596.943	741.79
597.394	756.19
597.844	743.39
598.294	768.09
598.744	793.29
599.195	815.29
599.645	869.69
600.095	910.49
600.545	965.99
600.995	1012.69
601.445	1067.69
601.895	1139.39
602.345	1198.79
602.795	1169.59
603.245	1114.99
603.695	1064.39
604.145	1000.49
604.594	949.99
605.044	896.99
605.494	838.89
605.944	782.49
606.393	772.59
606.843	758.99
607.293	763.39
607.743	757.49
608.192	769.99
608.642	791.89
609.091	783.49
609.541	790.79
609.99	789.09
610.44	802.99
610.889	754.59
611.339	726.69
611.788	717.09
612.238	719.09
612.687	729.69
613.136	711.69
613.586	730.29
614.035	721.49
614.484	737.99
614.933	736.09
615.383	733.99
615.832	737.19
616.281	714.89
616.73	701.09
617.179	679.49
617.628	673.99
618.077	656.69
618.526	650.29
618.975	654.89
619.424	634.39
619.873	630.09
620.322	638.49
620.771	627.89
621.22	633.39
621.669	609.09
622.118	615.69
622.567	593.89
623.015	594.29
623.464	599.39
623.913	588.19
624.361	584.79
624.81	565.99
625.259	572.29
625.707	577.39
626.156	580.79
626.604	580.49
627.053	584.19
627.501	586.79
627.95	589.29
628.398	604.89
628.847	587.19
629.295	591.79
629.744	600.69
630.192	585.29
630.64	585.99
631.089	562.19
631.537	554.49
631.985	559.69
632.433	552.49
632.881	544.39
633.33	548.59
633.778	545.99
634.226	544.59
634.674	552.19
635.122	553.89
635.57	572.49
636.018	577.99
636.466	581.39
636.914	588.29
637.362	586.09
637.81	591.29
638.258	599.59
638.705	607.59
639.153	641.29
639.601	648.39
640.049	660.09
640.497	701.99
640.944	722.29
641.392	675.19
641.84	647.49
642.287	604.49
642.735	583.89
643.182	578.49
643.63	582.99
644.078	589.69
644.525	600.29
644.973	598.69
645.42	606.59
645.867	623.49
646.315	650.39
646.762	675.79
647.21	705.09
647.657	715.99
648.104	754.79
648.551	778.69
648.999	828.39
649.446	906.79
649.893	994.39
650.34	1138.39
650.787	1343.59
651.234	1651.69
651.682	2132.09
652.129	2883.49
652.576	4110.59
653.023	5990.89
653.47	8083.79
653.917	10042.69
654.363	11550.09
654.81	12755.79
655.257	12070.19
655.704	7999.89
656.151	4830.79
656.598	3174.19
657.044	2276.29
657.491	1760.79
657.938	1430.69
658.385	1205.69
658.831	1055.99
659.278	949.19
659.724	847.89
660.171	790.79
660.618	722.49
661.064	691.29
661.511	667.09
661.957	658.79
662.404	648.59
662.85	658.99
663.296	627.99
663.743	572.89
664.189	552.39
664.635	543.69
665.082	545.09
665.528	541.09
665.974	536.69
666.42	529.79
666.867	511.89
667.313	505.99
667.759	482.89
668.205	466.19
668.651	473.19
669.097	465.39
669.543	454.79
669.989	456.89
670.435	459.29
670.881	464.09
671.327	465.79
671.773	482.09
672.219	518.19
672.665	559.49
673.11	616.49
673.556	660.39
674.002	702.99
674.448	675.09
674.893	575.19
675.339	504.49
675.785	453.99
676.23	439.29
676.676	411.29
677.122	400.29
677.567	389.99
678.013	379.89
678.458	377.79
678.904	372.69
679.349	357.09
679.794	369.19
680.24	364.29
680.685	362.79
681.131	366.19
681.576	370.89
682.021	368.99
682.466	372.69
682.912	366.29
683.357	365.89
683.802	402.29
684.247	428.99
684.692	480.89
685.137	518.79
685.583	553.39
686.028	586.79
686.473	545.39
686.918	469.49
687.363	430.79
687.807	420.99
688.252	383.39
688.697	373.79
689.142	353.49
689.587	351.49
690.032	337.69
690.477	357.49
690.921	368.39
691.366	401.49
691.811	423.59
692.255	448.39
692.7	483.69
693.145	524.29
693.589	728.99
694.034	1211.19
694.478	1619.49
694.923	1820.09
695.367	2364.19
695.812	1258.39
696.256	520.89
696.701	384.29
697.145	350.69
697.59	340.79
698.034	333.49
698.478	333.19
698.922	335.99
699.367	340.39
699.811	355.79
700.255	360.09
700.699	400.89
701.143	441.49
701.588	494.69
702.032	532.29
702.476	534.99
702.92	513.99
703.364	518.79
703.808	678.19
704.252	1095.59
704.696	1543.09
705.14	1757.59
705.584	2229.09
706.027	1111.59
706.471	556.09
706.915	416.19
707.359	367.79
707.803	337.29
708.246	320.59
708.69	321.39
709.134	327.79
709.577	322.99
710.021	326.39
710.465	315.09
710.908	310.69
711.352	311.29
711.795	330.09
712.239	372.59
712.682	412.19
713.126	432.09
713.569	471.29
714.012	370.09
714.456	316.19
714.899	301.19
715.342	281.69
715.786	273.69
716.229	270.59
716.672	273.69
717.115	251.69
717.558	260.69
718.002	261.09
718.445	274.69
718.888	296.69
719.331	309.89
719.774	322.49
720.217	312.69
720.66	299.29
721.103	273.19
721.546	265.79
721.989	265.29
722.432	243.69
722.874	244.99
723.317	236.89
723.76	248.69
724.203	269.59
724.645	335.69
725.088	467.19
725.531	592.89
725.974	669.69
726.416	575.09
726.859	326.49
727.301	255.59
727.744	246.79
728.187	240.49
728.629	243.59
729.071	256.79
729.514	267.69
729.956	286.39
730.399	299.59
730.841	300.99
731.283	287.79
731.726	278.09
732.168	267.99
732.61	280.49
733.053	303.89
733.495	330.19
733.937	370.89
734.379	410.09
734.821	459.39
735.263	577.49
735.705	881.49
736.148	1688.99
736.59	2719.49
737.032	3210.59
737.474	2614.29
737.916	857.49
738.357	445.09
738.799	343.59
739.241	310.39
739.683	294.09
740.125	301.09
740.567	321.09
741.008	330.49
741.45	332.29
741.892	333.19
742.334	365.69
742.775	371.39
743.217	368.89
743.658	282.79
744.1	269.89
744.542	276.59
744.983	329.69
745.425	361.69
745.866	357.19
746.307	294.79
746.749	298.79
747.19	344.99
747.632	485.99
748.073	948.89
748.514	1995.19
748.956	3026.19
749.397	3784.39
749.838	3141.79
750.279	3113.19
750.72	1585.69
751.162	579.29
751.603	344.19
752.044	263.89
752.485	223.99
752.926	214.59
753.367	211.19
753.808	196.69
754.249	200.99
754.69	195.49
755.131	188.59
755.572	193.59
756.013	193.09
756.453	196.99
756.894	199.09
757.335	200.09
757.776	201.29
758.216	205.19
758.657	210.09
759.098	211.69
759.538	235.39
759.979	281.49
760.42	399.19
760.86	747.49
761.301	1954.79
761.741	4735.19
762.182	6760.99
762.622	4762.59
763.063	1387.49
763.503	562.49
763.943	337.69
764.384	270.89
764.824	245.89
765.264	235.69
765.705	211.39
766.145	193.39
766.585	179.69
767.025	175.89
767.465	167.19
767.906	184.89
768.346	192.59
768.786	200.09
769.226	226.49
769.666	323.69
770.106	654.19
770.546	1647.59
770.986	2793.69
771.426	2492.39
771.866	832.79
772.306	342.09
772.745	210.19
773.185	171.89
773.625	166.19
774.065	150.99
774.505	175.09
774.944	205.19
775.384	370.19
775.824	615.29
776.263	586.29
776.703	294.59
777.142	166.99
777.582	137.39
778.021	129.29
778.461	130.19
778.9	129.79
779.34	131.19
779.779	115.09
780.219	111.99
780.658	106.09
781.097	113.59
781.537	119.19
781.976	108.39
782.415	109.39
782.855	108.19
783.294	109.79
783.733	105.29
784.172	114.99
784.611	105.19
785.05	113.69
785.489	108.49
785.928	118.29
786.367	127.99
786.806	121.39
787.245	129.39
787.684	137.29
788.123	151.79
788.562	136.89
789.001	129.09
789.44	132.79
789.879	124.79
790.317	120.79
790.756	127.19
791.195	134.69
791.634	157.69
792.072	212.49
792.511	389.09
792.95	1056.59
793.388	2236.09
793.827	1986.19
794.265	707.39
794.704	294.09
795.142	197.19
795.581	154.39
796.019	146.69
796.458	134.69
796.896	134.79
797.334	144.79
797.773	162.09
798.211	234.29
798.649	471.29
799.087	1078.39
799.526	1682.79
799.964	2133.79
800.402	2124.29
800.84	793.19
801.278	324.19
801.716	195.89
802.154	164.79
802.592	148.19
803.03	147.79
803.468	137.09
803.906	147.89
804.344	158.29
804.782	150.79
805.22	138.39
805.658	133.29
806.096	157.49
806.533	168.39
806.971	185.29
807.409	230.19
807.847	328.39
808.284	708.49
808.722	2006.39
809.16	3508.59
809.597	3359.39
810.035	5756.79
810.472	6071.59
810.91	2219.39
811.347	847.39
811.785	432.89
812.222	273.69
812.66	210.99
813.097	170.49
813.535	144.29
813.972	141.49
814.409	131.39
814.846	113.19
815.284	111.09
815.721	106.99
816.158	104.49
816.595	118.89
817.032	161.29
817.47	186.49
817.907	140.89
818.344	109.59
818.781	102.89
819.218	101.79
819.655	133.99
820.092	201.39
820.529	223.09
820.966	183.49
821.403	132.89
821.839	99.79
822.276	107.29
822.713	125.19
823.15	140.09
823.587	123.39
824.023	153.69
824.46	323.69
824.897	949.49
825.333	1412.29
825.77	611.59
826.206	239.19
826.643	142.99
827.08	107.79
827.516	89.59
827.953	80.09
828.389	86.79
828.825	75.99
829.262	69.19
829.698	65.09
830.135	68.89
830.571	70.19
831.007	71.09
831.443	70.09
831.88	58.19
832.316	63.59
832.752	68.39
833.188	70.19
833.624	65.79
834.06	73.59
834.497	74.39
834.933	75.09
835.369	76.39
835.805	72.69
836.241	83.59
836.677	88.79
837.112	91.39
837.548	112.09
837.984	138.49
838.42	213.79
838.856	536.09
839.292	1597.99
839.727	2444.89
840.163	1141.49
840.599	999.79
841.034	2163.29
841.47	2247.19
841.906	814.39
842.341	342.69
842.777	208.79
843.212	210.59
843.648	195.39
844.083	117.99
844.519	83.29
844.954	70.89
845.39	57.99
845.825	63.39
846.261	51.99
846.696	51.49
847.131	54.69
847.566	61.89
848.002	51.19
848.437	56.49
848.872	65.79
849.307	70.79
849.742	92.99
850.177	191.89
850.613	602.79
851.048	920.89
851.483	401.89
851.918	163.89
852.353	97.69
852.788	56.49
853.223	51.19
853.657	58.39
854.092	50.39
854.527	45.39
854.962	44.49
855.397	47.09
855.832	53.59
856.266	42.39
856.701	42.79
857.136	37.89
857.57	44.89
858.005	58.99
858.44	62.99
858.874	45.09
859.309	56.39
859.743	42.29
860.178	43.49
860.612	42.39
861.047	55.19
861.481	75.89
861.915	76.99
862.35	52.99
862.784	34.09
863.218	41.09
863.653	38.19
864.087	50.99
864.521	62.89
864.955	69.29
865.39	164.79
865.824	185.59
866.258	117.39
866.692	173.79
867.126	188.29
867.56	117.39
867.994	59.09
868.428	42.39
868.862	49.59
869.296	56.59
869.73	59.99
870.164	56.79
870.598	52.59
871.031	45.39
871.465	31.59
871.899	35.59
872.333	23.99
872.766	28.09
873.2	34.29
873.634	32.89
874.067	26.99
874.501	22.79
874.935	35.39
875.368	37.49
875.802	32.59
876.235	20.39
876.669	26.89
877.102	26.99
877.535	26.79
877.969	23.79
878.402	27.29
878.836	24.09
879.269	28.29
879.702	26.19
880.135	22.19
880.569	26.79
881.002	30.59
881.435	26.09
881.868	16.79
882.301	19.99
882.734	17.89
883.167	26.89
883.601	17.49
884.034	22.49
884.467	14.89
884.899	18.69
885.332	21.29
885.765	18.49
886.198	19.19
886.631	16.49
887.064	14.49
887.497	22.99
887.929	22.09
888.362	14.99
888.795	6.19
889.228	16.89
889.66	25.79
890.093	20.09
890.526	15.29
890.958	17.69
891.391	22.29
891.823	25.79
892.256	21.99
892.688	8.99
893.121	13.99
893.553	13.39
893.985	21.99
894.418	23.19
894.85	7.19
895.282	14.79
895.715	14.59
896.147	20.89
896.579	14.79
897.011	12.69
897.444	17.89
897.876	13.39
898.308	20.99
898.74	13.89
899.172	11.39
899.604	16.09
900.036	19.19
900.468	18.59
900.9	14.79
901.332	23.49
901.764	15.09
902.196	19.69
902.628	20.89
903.06	20.19
903.491	34.29
903.923	23.19
904.355	19.19
904.787	28.59
905.218	23.29
905.65	22.29
906.082	14.69
906.513	20.99
906.945	21.89
907.376	16.09
907.808	15.49
908.239	21.99
908.671	15.99
909.102	19.39
909.534	28.79
909.965	53.99
910.397	93.19
910.828	336.69
911.259	500.89
911.691	229.69
912.122	114.09
912.553	55.09
912.984	33.09
913.415	30.69
913.847	28.19
914.278	14.99
914.709	19.89
915.14	20.89
915.571	18.79
916.002	14.19
916.433	16.09
916.864	17.09
917.295	10.19
917.726	20.49
918.157	14.69
918.587	32.49
919.018	25.19
919.449	27.49
919.88	19.09
920.311	35.39
920.741	48.69
921.172	168.79
921.603	155.29
922.033	71.79
922.464	52.49
922.895	24.09
923.325	19.29
923.756	12.09
924.186	10.79
924.617	19.19
925.047	21.39
925.478	30.09
925.908	20.49
926.338	10.19
926.769	13.99
927.199	15.29
927.629	11.49
928.06	15.79
928.49	14.09
928.92	13.69
929.35	17.79
929.78	10.39
930.21	0.69
930.641	8.59
931.071	8.69
931.501	6.59
931.931	8.59
932.361	11.09
932.791	3.09
933.221	5.69
933.651	-1.41
934.08	19.09
934.51	31.79
934.94	7.79
935.37	8.59
935.8	12.39
936.229	7.99
936.659	9.29
937.089	0.69
937.519	18.09
937.948	21.69
938.378	23.89
938.807	7.09
939.237	2.59
939.666	8.79
940.096	0.99
940.525	4.69
940.955	5.69
941.384	5.79
941.814	-4.41
942.243	-0.31
942.672	-1.11
943.102	-4.91
943.531	0.89
943.96	5.99
944.39	3.19
944.819	2.09
945.248	1.69
945.677	0.29
946.106	6.99
946.535	9.99
946.964	5.49
947.393	6.39
947.822	3.59
948.251	-2.31
948.68	9.29
949.109	4.49
949.538	9.49
949.967	2.99
950.396	1.49
950.825	-4.61
951.254	1.09
951.682	-7.41
952.111	0.59
952.54	3.49
952.969	-0.61
953.397	-2.61
953.826	-0.71
954.254	-4.51
954.683	3.49
955.112	-7.81
955.54	-3.21
955.969	-2.21
956.397	-0.51
956.826	-4.41
957.254	8.19
957.682	5.69
958.111	6.59
958.539	-1.51
958.967	1.49
959.396	2.39
959.824	5.49
960.252	5.39
960.68	-7.81
961.109	0.99
961.537	-1.71
961.965	-3.71
962.393	-1.11
962.821	-0.01
963.249	3.79
963.677	-0.11
964.105	1.59
964.533	48.69
964.961	45.79
965.389	23.69
965.817	7.49
966.245	0.49
966.672	5.99
967.1	-4.61
967.528	1.09
967.956	-7.71
968.383	1.09
968.811	-4.11
969.239	5.39
969.666	-2.11
970.094	2.99
970.522	4.89
970.949	1.49
971.377	-6.11
971.804	1.49
972.232	-4.21
972.659	-2.61
973.087	-5.11
973.514	-3.11
973.941	-3.01
974.369	2.89
974.796	1.19
975.223	-0.31
975.651	-2.41
976.078	4.89
976.505	0.99
976.932	1.79
977.359	18.59
977.786	17.69
978.214	-1.61
978.641	-4.91
979.068	-7.01
979.495	-3.61
979.922	-5.71
980.349	-5.11
980.776	5.59
981.202	2.09
981.629	4.39
982.056	0.89
982.483	-1.31
982.91	1.19
983.337	-1.61
983.763	-1.51
984.19	-4.21
984.617	-2.21
985.043	-6.51
985.47	-0.21
985.897	-5.91
986.323	-6.81
986.75	1.09
987.176	-1.21
987.603	-2.31
988.029	-2.21
988.456	-2.31
988.882	-2.21
989.308	-6.81
989.735	-2.91
990.161	-1.71
990.587	-4.11
991.014	5.19
991.44	14.49
991.866	1.99
992.292	-7.81
992.719	-1.41
993.145	4.49
993.571	-7.41
993.997	-3.61
994.423	2.29
994.849	-5.61
995.275	3.69
995.701	0.79
996.127	-3.41
996.553	2.19
996.979	-5.51
997.405	-2.61
997.83	-4.21
998.256	-5.41
998.682	-5.21
999.108	-12.51
999.534	-6.21
999.959	-1.81
1000.385	-4.71
1000.811	0.59
1001.236	-4.71
1001.662	-2.21
1002.087	-3.71
1002.513	-0.41
1002.938	1.99
1003.364	-4.71
1003.789	-6.61
1004.215	5.99
1004.64	-8.31
1005.066	-3.41
1005.491	-4.11
1005.916	-4.11
1006.342	-5.01
1006.767	-3.91
1007.192	5.19
1007.617	-8.61
1008.042	-5.21
1008.468	-6.31
1008.893	-4.21
1009.318	-1.81
1009.743	-1.81
1010.168	4.89
1010.593	2.59
1011.018	-9.11
1011.443	0.39
1011.868	3.69
1012.293	-8.41
1012.718	-8.51
1013.143	0.89
1013.567	2.29
1013.992	-3.71
1014.417	-14.51
1014.842	2.89
1015.267	-1.21
1015.691	-3.31
1016.116	2.09
1016.541	-5.11
1016.965	-3.51
1017.39	1.89
1017.814	-0.11
1018.239	-0.51
1018.663	-8.81
1019.088	-8.91
1019.512	0.89
1019.937	-5.71
1020.361	-5.41
1020.785	-9.91
1021.21	-1.01
1021.634	-0.01
1022.058	4.09
1022.483	5.09
1022.907	-3.91
1023.331	-3.41
1023.755	0.59
1024.179	-0.81
1024.604	-7.71
1025.028	-5.71
1025.452	-0.51
1025.876	-5.71
1026.3	-0.81
1026.724	-9.11
1027.148	-8.31
1027.572	-11.51
1027.996	0.39
1028.42	-4.91
1028.843	-1.61
1029.267	-10.51
1029.691	-3.61
1030.115	-7.51
1030.539	-9.51
1030.962	-8.01
1031.386	-6.31
1031.81	3.89
1032.233	-1.81
1032.657	-1.81
1033.08	-0.71
1033.504	-1.51
1033.927	-6.21
1034.351	-4.21
1034.774	-7.11
1035.198	-2.41
1035.621	-6.01
1036.045	-10.01
1036.468	0.39
1036.891	-6.91
1037.315	-6.51
1037.738	-12.31
1038.161	-3.51
1038.584	-4.41
1039.008	-2.51
1039.431	-4.11
1039.854	-6.21
1040.277	-12.91
1040.7	-10.71
1041.123	9.99
1041.546	-7.81
1041.969	0.69
1042.392	-0.11
1042.815	-3.41
1043.238	0.19
1043.661	-1.61
1044.084	-5.61
1044.507	-8.31
1044.93	-5.21
1045.352	-1.81
1045.775	-5.51
1046.198	-2.71
1046.621	0.59
1047.043	0.59
1047.466	3.49
1047.889	-3.01
1048.311	-6.51
1048.734	-2.91
1049.156	-2.61
1049.579	-9.51
1050.001	-4.81
1050.424	1.49
1050.846	-2.71
1051.269	-1.41
1051.691	-5.21
1052.113	-5.01
1052.536	-2.71
1052.958	-2.31
1053.38	-2.11
1053.802	-10.41
1054.225	-2.71
1054.647	-4.81
1055.069	-2.71
1055.491	-0.01
1055.913	-7.31
1056.335	3.19
1056.757	-3.11
1057.179	-7.71
1057.601	-6.11
1058.023	-6.61
1058.445	-1.91
1058.867	1.09
1059.289	-6.21
1059.711	-10.31
1060.133	-2.11
1060.555	-2.81
1060.976	-0.71
1061.398	-8.61
1061.82	-11.51
1062.241	-5.81
1062.663	-10.31
1063.085	-6.31
1063.506	1.59
1063.928	-3.31
1064.35	-0.11
1064.771	-11.61
1065.193	-6.91
1065.614	-6.51
1066.035	-0.61
1066.457	-10.81
1066.878	-1.21
1067.3	-9.31
1067.721	-8.41
1068.142	-5.91
1068.564	0.19
1068.985	-5.91
1069.406	-4.01
1069.827	-6.91
1070.248	-5.41
1070.67	-11.01
1071.091	-5.91
1071.512	0.29
1071.933	-5.01
1072.354	-6.91
1072.775	-8.21
1073.196	-9.61
1073.617	4.19
1074.038	-8.21
1074.459	-5.01
1074.88	-3.41
1075.3	2.39
1075.721	-8.61
1076.142	-5.21
1076.563	-2.81
1076.983	-10.11
1077.404	-9.71
1077.825	-10.01
1078.246	-6.71
1078.666	-11.71
1079.087	-2.51
1079.507	-8.81
1079.928	3.69
1080.348	-5.71
1080.769	-10.31
1081.189	-5.81
1081.61	-8.81
1082.03	-9.41
1082.451	-10.21
1082.871	-4.81
1083.291	-4.61
1083.711	-8.41
1084.132	-6.21
1084.552	-2.01
1084.972	-7.21
1085.392	-12.01
1085.813	-11.41
1086.233	-5.01
1086.653	-1.01
1087.073	-4.01
1087.493	-2.51
1087.913	-1.71
1088.333	-1.51
1088.753	-3.01
1089.173	-2.71
1089.593	-7.71
1090.013	2.79
1090.433	-2.11
1090.852	-6.41
1091.272	-5.71
1091.692	-4.61
1092.112	-4.91
1092.531	-6.41
1092.951	-15.71
1093.371	-1.71
1093.79	-0.41
1094.21	-7.41
1094.63	-6.91
1095.049	-8.31
1095.469	-6.51
1095.888	-1.41
1096.308	3.59
1096.727	5.09
1097.146	-3.51
1097.566	0.59
1097.985	-0.41
1098.405	-2.11
1098.824	-7.71
1099.243	-7.11
1099.662	-9.21
1100.082	-4.11
1100.501	-5.21
1100.92	-5.61
1101.339	-8.31
1101.758	-3.71
