Data from 20171114-ORNL-Ar_H_NY_Subt18_08-06-58-678.txt Node
Date: Tue Nov 14 08:06:58 EST 2017
User: Ender
Spectrometer: HR+D1039
Trigger mode: 0
Integration Time (sec): 2.730000E-2
Scans to average: 10
Electric dark correction enabled: true
Nonlinearity correction enabled: false
Boxcar width: 0
XAxis mode: Wavelengths
Number of Pixels in Spectrum: 2048
>>>>>Begin Spectral Data<<<<<
187.836	-1.92
188.309	-1.92
188.782	-1.92
189.255	6.68
189.728	-5.02
190.201	6.78
190.674	-0.02
191.147	4.98
191.619	-8.32
192.092	6.68
192.565	3.58
193.038	-0.32
193.511	-2.72
193.984	0.38
194.456	-6.02
194.929	-3.82
195.402	1.58
195.874	-2.52
196.347	0.08
196.82	-9.32
197.292	3.38
197.765	-4.42
198.237	0.78
198.71	0.58
199.182	-2.22
199.655	1.98
200.127	4.08
200.6	-1.82
201.072	-7.62
201.544	-7.02
202.017	-2.52
202.489	6.38
202.961	-1.72
203.433	-0.82
203.906	-6.82
204.378	-8.82
204.85	0.18
205.322	-8.62
205.794	1.88
206.266	-7.22
206.739	-2.62
207.211	-0.12
207.683	-6.92
208.155	-4.92
208.627	-2.32
209.099	-1.82
209.57	-7.32
210.042	-6.82
210.514	-2.52
210.986	1.78
211.458	-7.52
211.93	-0.12
212.402	2.68
212.873	-8.82
213.345	-8.02
213.817	-10.92
214.288	0.18
214.76	-10.92
215.232	-3.62
215.703	-8.52
216.175	1.78
216.646	-6.42
217.118	-4.72
217.589	1.68
218.061	-1.12
218.532	2.68
219.004	-2.52
219.475	3.48
219.946	0.48
220.418	-0.82
220.889	7.58
221.36	3.08
221.832	-1.52
222.303	-6.92
222.774	4.78
223.245	-7.62
223.717	-1.22
224.188	-3.02
224.659	-3.12
225.13	0.58
225.601	-4.92
226.072	2.38
226.543	0.58
227.014	-0.02
227.485	-2.22
227.956	-5.72
228.427	-2.92
228.898	-0.12
229.369	2.18
229.839	-9.42
230.31	-3.52
230.781	2.88
231.252	-2.72
231.722	-7.72
232.193	-6.62
232.664	-2.02
233.135	0.08
233.605	-1.02
234.076	-6.22
234.546	4.18
235.017	-0.32
235.487	1.38
235.958	-6.22
236.428	-3.02
236.899	-4.02
237.369	-5.52
237.84	-4.92
238.31	-1.52
238.78	-5.12
239.251	-8.92
239.721	-6.82
240.191	-9.12
240.662	-3.02
241.132	-11.22
241.602	-4.22
242.072	2.38
242.542	-1.32
243.013	0.58
243.483	2.98
243.953	2.08
244.423	-1.02
244.893	-3.42
245.363	2.98
245.833	1.68
246.303	-8.12
246.773	-0.62
247.243	0.38
247.712	-4.22
248.182	9.28
248.652	7.38
249.122	-8.32
249.592	-0.82
250.061	5.78
250.531	9.58
251.001	-2.32
251.471	5.78
251.94	5.18
252.41	-0.52
252.879	-2.42
253.349	10.28
253.818	3.18
254.288	3.78
254.757	7.38
255.227	-4.32
255.696	3.98
256.166	5.18
256.635	-1.12
257.105	0.18
257.574	7.58
258.043	-4.52
258.513	1.48
258.982	-4.12
259.451	-3.72
259.92	0.28
260.389	0.48
260.859	8.38
261.328	5.78
261.797	5.28
262.266	-0.22
262.735	5.88
263.204	0.78
263.673	-2.22
264.142	0.48
264.611	-6.72
265.08	-5.02
265.549	-5.12
266.018	3.48
266.487	-1.92
266.955	-0.62
267.424	-9.22
267.893	1.48
268.362	-0.32
268.83	0.38
269.299	9.78
269.768	2.08
270.236	6.28
270.705	-4.92
271.174	2.38
271.642	-0.42
272.111	1.18
272.579	6.58
273.048	4.48
273.516	-1.52
273.985	2.28
274.453	5.88
274.922	7.18
275.39	11.48
275.858	0.98
276.327	8.78
276.795	15.28
277.263	-1.62
277.731	12.78
278.2	3.78
278.668	8.48
279.136	5.98
279.604	3.28
280.072	5.68
280.54	8.38
281.008	3.48
281.477	14.48
281.945	10.58
282.413	13.78
282.881	10.28
283.348	-0.12
283.816	7.88
284.284	5.28
284.752	20.98
285.22	10.68
285.688	9.78
286.156	9.48
286.623	12.58
287.091	3.98
287.559	11.58
288.026	10.98
288.494	13.18
288.962	0.08
289.429	3.58
289.897	18.98
290.364	6.78
290.832	13.98
291.3	10.78
291.767	14.18
292.234	15.78
292.702	7.78
293.169	10.48
293.637	15.08
294.104	18.18
294.571	4.68
295.039	9.18
295.506	10.58
295.973	11.68
296.44	10.68
296.908	13.78
297.375	18.18
297.842	18.58
298.309	12.28
298.776	2.88
299.243	15.08
299.71	7.68
300.177	17.08
300.644	14.58
301.111	10.88
301.578	19.78
302.045	10.78
302.512	22.68
302.979	23.48
303.446	12.88
303.913	14.78
304.379	16.78
304.846	23.88
305.313	16.58
305.78	17.18
306.246	23.48
306.713	25.48
307.18	22.68
307.646	20.38
308.113	25.28
308.579	19.68
309.046	23.38
309.512	16.58
309.979	16.08
310.445	17.88
310.912	23.28
311.378	22.68
311.845	28.08
312.311	21.58
312.777	29.08
313.244	30.18
313.71	26.38
314.176	31.98
314.642	23.28
315.109	22.28
315.575	31.38
316.041	29.08
316.507	23.28
316.973	26.18
317.439	28.58
317.905	22.28
318.371	28.98
318.837	23.78
319.303	23.68
319.769	28.48
320.235	36.18
320.701	32.48
321.167	35.48
321.633	23.98
322.099	25.38
322.564	42.08
323.03	32.58
323.496	36.18
323.962	41.68
324.427	31.58
324.893	34.58
325.359	32.38
325.824	32.08
326.29	28.58
326.755	38.28
327.221	35.18
327.686	36.48
328.152	37.88
328.617	32.98
329.083	36.98
329.548	48.58
330.014	39.68
330.479	33.48
330.944	40.18
331.41	34.58
331.875	41.48
332.34	32.98
332.805	37.78
333.271	37.78
333.736	31.48
334.201	40.88
334.666	45.18
335.131	45.48
335.596	45.28
336.061	49.48
336.526	33.98
336.991	43.78
337.456	50.98
337.921	47.28
338.386	37.58
338.851	40.88
339.316	43.68
339.781	43.98
340.246	45.38
340.711	41.08
341.175	45.28
341.64	40.58
342.105	47.18
342.569	51.58
343.034	51.98
343.499	54.28
343.963	46.38
344.428	65.18
344.893	57.48
345.357	54.38
345.822	57.28
346.286	66.98
346.751	62.78
347.215	58.58
347.679	64.18
348.144	82.98
348.608	73.88
349.073	61.78
349.537	70.88
350.001	62.58
350.465	74.48
350.93	69.78
351.394	75.48
351.858	63.68
352.322	75.08
352.786	74.48
353.25	86.78
353.715	95.38
354.179	86.08
354.643	101.28
355.107	105.98
355.571	91.28
356.035	92.68
356.498	98.98
356.962	99.88
357.426	100.48
357.89	99.38
358.354	77.18
358.818	76.98
359.281	68.48
359.745	68.88
360.209	65.88
360.673	66.48
361.136	71.48
361.6	76.48
362.064	72.78
362.527	75.78
362.991	85.28
363.454	73.98
363.918	67.88
364.381	77.88
364.845	71.48
365.308	82.88
365.772	81.38
366.235	75.88
366.698	75.58
367.162	80.88
367.625	74.98
368.088	75.68
368.552	81.88
369.015	83.58
369.478	88.88
369.941	82.48
370.404	81.98
370.867	94.48
371.331	98.78
371.794	100.78
372.257	90.18
372.72	97.48
373.183	99.68
373.646	89.48
374.109	90.18
374.572	91.78
375.035	95.68
375.497	97.48
375.96	94.38
376.423	103.38
376.886	102.98
377.349	98.88
377.811	95.18
378.274	96.88
378.737	105.88
379.199	96.38
379.662	104.28
380.125	99.68
380.587	104.78
381.05	103.18
381.512	113.38
381.975	117.68
382.437	108.88
382.9	113.88
383.362	108.68
383.825	114.38
384.287	116.88
384.75	112.38
385.212	119.58
385.674	119.38
386.136	125.28
386.599	107.98
387.061	112.08
387.523	113.98
387.985	123.58
388.447	133.78
388.91	119.48
389.372	124.18
389.834	121.68
390.296	120.78
390.758	127.08
391.22	133.98
391.682	136.88
392.144	148.58
392.606	133.38
393.068	135.88
393.529	145.08
393.991	135.38
394.453	126.18
394.915	131.28
395.377	133.28
395.838	129.18
396.3	133.68
396.762	138.78
397.224	137.18
397.685	129.78
398.147	134.68
398.608	131.58
399.07	125.48
399.531	135.38
399.993	137.88
400.454	155.78
400.916	137.28
401.377	141.48
401.839	147.58
402.3	150.58
402.762	163.78
403.223	166.78
403.684	164.58
404.145	152.68
404.607	163.28
405.068	153.48
405.529	165.68
405.99	177.18
406.451	167.38
406.913	172.38
407.374	164.68
407.835	163.38
408.296	158.08
408.757	164.38
409.218	182.58
409.679	176.28
410.14	173.78
410.601	173.08
411.062	180.08
411.522	172.98
411.983	176.68
412.444	172.88
412.905	186.48
413.366	181.88
413.826	199.18
414.287	218.58
414.748	271.18
415.208	253.68
415.669	219.08
416.13	210.28
416.59	202.88
417.051	224.08
417.511	220.68
417.972	240.78
418.432	253.88
418.893	294.18
419.353	264.18
419.814	205.08
420.274	187.48
420.734	192.18
421.195	198.28
421.655	184.88
422.115	192.58
422.576	196.48
423.036	204.68
423.496	202.08
423.956	216.38
424.416	237.58
424.876	270.58
425.336	271.78
425.797	264.28
426.257	259.68
426.717	238.78
427.177	236.08
427.637	221.68
428.097	231.78
428.556	241.58
429.016	260.38
429.476	260.58
429.936	269.38
430.396	275.18
430.856	282.68
431.315	310.98
431.775	339.18
432.235	378.88
432.694	347.08
433.154	351.88
433.614	384.98
434.073	328.58
434.533	280.38
434.993	265.18
435.452	279.78
435.912	294.28
436.371	277.58
436.83	284.78
437.29	263.08
437.749	243.68
438.209	252.38
438.668	276.38
439.127	282.58
439.587	272.98
440.046	253.08
440.505	260.58
440.964	276.38
441.424	318.48
441.883	314.38
442.342	260.78
442.801	232.88
443.26	223.08
443.719	230.78
444.178	218.78
444.637	218.38
445.096	229.18
445.555	231.58
446.014	236.28
446.473	232.78
446.932	241.58
447.391	236.98
447.849	232.58
448.308	225.28
448.767	230.38
449.226	244.08
449.685	247.88
450.143	256.18
450.602	246.28
451.061	233.68
451.519	244.18
451.978	239.78
452.436	235.28
452.895	249.48
453.353	257.38
453.812	251.38
454.27	251.18
454.729	251.88
455.187	248.78
455.646	255.88
456.104	261.18
456.562	267.68
457.021	283.38
457.479	274.28
457.937	289.88
458.395	272.38
458.854	260.48
459.312	270.48
459.77	282.48
460.228	264.08
460.686	258.88
461.144	261.78
461.602	253.18
462.06	254.18
462.518	270.68
462.976	266.08
463.434	271.18
463.892	279.48
464.35	295.38
464.808	296.68
465.266	287.58
465.724	284.58
466.181	291.18
466.639	276.38
467.097	300.68
467.555	318.58
468.012	317.58
468.47	322.68
468.928	338.88
469.385	358.58
469.843	359.48
470.3	363.08
470.758	372.88
471.215	397.68
471.673	419.28
472.13	416.58
472.588	436.98
473.045	388.08
473.503	395.18
473.96	410.88
474.417	425.18
474.875	443.68
475.332	493.98
475.789	474.98
476.246	474.28
476.704	506.28
477.161	520.18
477.618	540.18
478.075	576.98
478.532	631.08
478.989	694.28
479.446	808.68
479.903	777.48
480.36	802.58
480.817	842.28
481.274	931.98
481.731	1033.08
482.188	1120.18
482.645	1225.78
483.102	1324.08
483.558	1451.78
484.015	1490.88
484.472	1466.18
484.929	1427.78
485.385	1369.78
485.842	1354.18
486.299	1292.38
486.755	1255.58
487.212	1069.58
487.668	922.08
488.125	861.88
488.582	784.68
489.038	751.88
489.494	719.68
489.951	710.78
490.407	690.58
490.864	659.88
491.32	653.78
491.776	663.88
492.233	673.78
492.689	637.28
493.145	647.48
493.602	620.48
494.058	630.08
494.514	637.68
494.97	667.48
495.426	673.88
495.882	650.18
496.338	630.38
496.794	646.68
497.251	649.48
497.707	654.08
498.163	662.38
498.618	665.98
499.074	667.98
499.53	699.18
499.986	690.28
500.442	669.88
500.898	640.18
501.354	641.28
501.809	640.78
502.265	652.08
502.721	648.18
503.177	672.98
503.632	675.38
504.088	669.88
504.543	692.58
504.999	710.78
505.455	675.68
505.91	665.68
506.366	669.48
506.821	659.08
507.277	655.78
507.732	668.08
508.187	663.38
508.643	675.68
509.098	666.58
509.553	683.78
510.009	698.88
510.464	706.48
510.919	720.78
511.375	723.58
511.83	735.08
512.285	752.08
512.74	785.78
513.195	813.28
513.65	797.18
514.105	795.68
514.56	812.58
515.015	812.58
515.47	835.08
515.925	814.38
516.38	814.08
516.835	819.78
517.29	815.58
517.745	805.38
518.2	792.68
518.655	774.68
519.109	778.68
519.564	793.18
520.019	760.08
520.474	759.48
520.928	752.28
521.383	749.48
521.838	750.58
522.292	753.78
522.747	739.68
523.201	730.18
523.656	746.38
524.11	729.78
524.565	733.58
525.019	725.58
525.474	723.78
525.928	728.68
526.382	732.18
526.837	731.38
527.291	741.58
527.745	734.88
528.2	727.48
528.654	733.18
529.108	718.18
529.562	726.98
530.016	724.08
530.47	712.48
530.925	724.38
531.379	713.68
531.833	735.38
532.287	731.38
532.741	733.58
533.195	737.28
533.649	751.48
534.103	749.98
534.556	742.78
535.01	739.78
535.464	740.58
535.918	757.48
536.372	748.68
536.826	755.88
537.279	737.08
537.733	746.98
538.187	746.88
538.64	741.08
539.094	748.18
539.548	771.88
540.001	760.58
540.455	759.48
540.908	768.98
541.362	765.28
541.815	776.58
542.269	797.28
542.722	803.18
543.175	804.98
543.629	801.18
544.082	825.08
544.536	821.28
544.989	826.68
545.442	835.08
545.895	823.38
546.349	828.28
546.802	832.88
547.255	832.78
547.708	846.08
548.161	858.18
548.614	856.28
549.067	869.88
549.52	855.48
549.973	849.78
550.426	849.38
550.879	849.28
551.332	844.08
551.785	836.68
552.238	847.98
552.691	856.58
553.144	879.78
553.596	893.18
554.049	905.58
554.502	939.08
554.955	955.28
555.407	959.78
555.86	945.58
556.313	938.58
556.765	924.98
557.218	921.48
557.67	923.08
558.123	923.78
558.576	919.78
559.028	924.08
559.48	940.28
559.933	910.88
560.385	878.68
560.838	848.98
561.29	833.68
561.742	822.88
562.195	800.28
562.647	803.68
563.099	817.48
563.551	815.08
564.004	820.68
564.456	809.68
564.908	796.78
565.36	780.68
565.812	767.58
566.264	756.78
566.716	759.78
567.168	739.68
567.62	742.08
568.072	726.68
568.524	730.48
568.976	727.58
569.428	713.08
569.88	713.58
570.332	719.68
570.784	717.68
571.235	715.58
571.687	743.98
572.139	746.68
572.59	744.98
573.042	749.58
573.494	754.78
573.945	738.08
574.397	725.88
574.849	731.38
575.3	734.78
575.752	714.38
576.203	721.68
576.655	718.38
577.106	706.88
577.557	705.18
578.009	702.48
578.46	704.08
578.912	691.38
579.363	702.88
579.814	702.08
580.265	697.28
580.717	709.48
581.168	695.38
581.619	707.68
582.07	708.38
582.521	711.08
582.972	708.58
583.423	710.58
583.875	705.08
584.326	706.08
584.777	736.38
585.227	748.08
585.678	760.68
586.129	767.68
586.58	791.98
587.031	816.38
587.482	845.38
587.933	868.18
588.384	851.68
588.834	826.98
589.285	800.98
589.736	808.18
590.186	794.68
590.637	799.28
591.088	781.58
591.538	780.48
591.989	766.68
592.439	757.68
592.89	749.58
593.34	742.88
593.791	738.68
594.241	725.38
594.692	730.08
595.142	719.18
595.593	730.28
596.043	736.08
596.493	740.48
596.943	728.98
597.394	749.78
597.844	748.68
598.294	761.58
598.744	788.28
599.195	814.58
599.645	864.28
600.095	894.58
600.545	952.68
600.995	1003.08
601.445	1069.48
601.895	1125.88
602.345	1186.78
602.795	1168.38
603.245	1114.78
603.695	1063.68
604.145	1002.98
604.594	959.38
605.044	908.68
605.494	838.28
605.944	788.78
606.393	776.68
606.843	762.98
607.293	764.78
607.743	767.48
608.192	762.78
608.642	776.08
609.091	791.08
609.541	789.38
609.99	796.78
610.44	786.08
610.889	746.88
611.339	729.38
611.788	712.18
612.238	711.48
612.687	729.08
613.136	721.78
613.586	740.78
614.035	724.48
614.484	739.88
614.933	733.78
615.383	730.08
615.832	731.88
616.281	719.38
616.73	697.48
617.179	674.68
617.628	660.78
618.077	651.58
618.526	636.68
618.975	639.28
619.424	642.98
619.873	637.38
620.322	641.68
620.771	633.88
621.22	629.18
621.669	619.38
622.118	608.38
622.567	600.58
623.015	598.68
623.464	596.78
623.913	592.58
624.361	577.58
624.81	564.58
625.259	571.88
625.707	575.58
626.156	584.28
626.604	596.28
627.053	586.68
627.501	599.18
627.95	589.08
628.398	603.38
628.847	590.88
629.295	589.38
629.744	585.38
630.192	585.88
630.64	584.38
631.089	561.88
631.537	556.98
631.985	546.88
632.433	546.68
632.881	543.98
633.33	545.28
633.778	544.28
634.226	553.68
634.674	555.78
635.122	559.78
635.57	577.18
636.018	582.68
636.466	578.38
636.914	579.88
637.362	592.18
637.81	602.18
638.258	610.88
638.705	605.48
639.153	638.98
639.601	637.38
640.049	673.48
640.497	697.48
640.944	719.48
641.392	656.98
641.84	632.48
642.287	604.28
642.735	586.18
643.182	590.98
643.63	568.58
644.078	590.58
644.525	586.38
644.973	595.88
645.42	612.28
645.867	633.18
646.315	656.48
646.762	672.48
647.21	698.38
647.657	722.68
648.104	750.98
648.551	767.28
648.999	838.68
649.446	907.88
649.893	996.38
650.34	1132.98
650.787	1344.28
651.234	1657.18
651.682	2134.98
652.129	2876.18
652.576	4094.48
653.023	5967.68
653.47	8070.08
653.917	10032.08
654.363	11566.08
654.81	12742.88
655.257	12103.18
655.704	8016.78
656.151	4824.28
656.598	3170.58
657.044	2269.48
657.491	1761.78
657.938	1429.68
658.385	1214.08
658.831	1056.48
659.278	941.38
659.724	842.78
660.171	789.08
660.618	716.98
661.064	695.98
661.511	670.18
661.957	663.98
662.404	656.98
662.85	668.48
663.296	629.28
663.743	577.68
664.189	549.28
664.635	542.18
665.082	543.68
665.528	538.18
665.974	539.88
666.42	532.68
666.867	526.38
667.313	496.98
667.759	491.58
668.205	470.88
668.651	466.38
669.097	467.38
669.543	452.28
669.989	453.78
670.435	456.18
670.881	465.48
671.327	469.68
671.773	490.58
672.219	510.78
672.665	574.18
673.11	615.78
673.556	659.68
674.002	691.08
674.448	683.08
674.893	581.28
675.339	499.08
675.785	462.78
676.23	437.58
676.676	410.38
677.122	398.38
677.567	393.88
678.013	383.48
678.458	376.18
678.904	376.08
679.349	373.18
679.794	370.58
680.24	366.68
680.685	364.88
681.131	365.88
681.576	354.28
682.021	367.88
682.466	358.78
682.912	360.78
683.357	376.78
683.802	398.48
684.247	427.28
684.692	470.08
685.137	519.98
685.583	556.08
686.028	593.28
686.473	538.28
686.918	467.18
687.363	436.28
687.807	413.68
688.252	381.58
688.697	370.68
689.142	341.18
689.587	341.38
690.032	346.78
690.477	354.98
690.921	368.38
691.366	399.58
691.811	417.28
692.255	448.38
692.7	483.48
693.145	529.68
693.589	731.08
694.034	1187.58
694.478	1604.58
694.923	1829.48
695.367	2363.78
695.812	1251.58
696.256	517.78
696.701	395.68
697.145	358.78
697.59	336.98
698.034	330.48
698.478	341.68
698.922	335.38
699.367	329.48
699.811	351.38
700.255	358.98
700.699	395.28
701.143	437.08
701.588	482.98
702.032	540.08
702.476	533.68
702.92	516.28
703.364	509.08
703.808	672.38
704.252	1086.98
704.696	1525.38
705.14	1752.88
705.584	2238.88
706.027	1135.68
706.471	539.18
706.915	418.68
707.359	373.38
707.803	332.58
708.246	326.88
708.69	318.78
709.134	327.48
709.577	323.28
710.021	330.88
710.465	313.58
710.908	312.38
711.352	305.28
711.795	322.28
712.239	360.58
712.682	405.98
713.126	427.48
713.569	475.48
714.012	373.78
714.456	316.78
714.899	302.98
715.342	281.88
715.786	279.88
716.229	274.18
716.672	258.18
717.115	258.28
717.558	262.58
718.002	266.18
718.445	271.88
718.888	301.58
719.331	302.58
719.774	316.18
720.217	315.88
720.66	299.38
721.103	277.18
721.546	265.18
721.989	262.38
722.432	244.78
722.874	252.68
723.317	241.18
723.76	248.48
724.203	268.38
724.645	331.98
725.088	469.78
725.531	595.98
725.974	659.18
726.416	563.28
726.859	315.58
727.301	245.98
727.744	247.98
728.187	246.28
728.629	253.28
729.071	254.28
729.514	267.18
729.956	280.78
730.399	294.38
730.841	302.78
731.283	290.78
731.726	279.38
732.168	274.48
732.61	285.28
733.053	297.58
733.495	329.78
733.937	369.78
734.379	414.88
734.821	451.28
735.263	570.28
735.705	884.48
736.148	1658.18
736.59	2725.08
737.032	3186.18
737.474	2588.78
737.916	840.78
738.357	458.08
738.799	345.48
739.241	316.28
739.683	297.98
740.125	303.88
740.567	319.78
741.008	322.38
741.45	329.18
741.892	331.28
742.334	363.98
742.775	384.58
743.217	361.78
743.658	288.48
744.1	266.58
744.542	284.48
744.983	334.18
745.425	363.78
745.866	363.18
746.307	289.38
746.749	293.18
747.19	340.38
747.632	484.48
748.073	919.28
748.514	1956.88
748.956	3001.58
749.397	3764.18
749.838	3125.38
750.279	3103.78
750.72	1573.58
751.162	572.48
751.603	342.78
752.044	265.18
752.485	224.88
752.926	217.08
753.367	207.28
753.808	206.18
754.249	204.38
754.69	194.78
755.131	183.68
755.572	190.08
756.013	192.98
756.453	201.68
756.894	195.08
757.335	200.28
757.776	202.48
758.216	205.38
758.657	212.18
759.098	210.68
759.538	242.38
759.979	279.38
760.42	400.58
760.86	752.98
761.301	1948.28
761.741	4680.38
762.182	6732.28
762.622	4769.18
763.063	1380.28
763.503	567.48
763.943	331.48
764.384	286.58
764.824	250.08
765.264	244.28
765.705	211.88
766.145	189.88
766.585	188.58
767.025	177.68
767.465	175.48
767.906	183.68
768.346	200.88
768.786	205.08
769.226	227.18
769.666	313.48
770.106	651.28
770.546	1644.18
770.986	2769.38
771.426	2482.88
771.866	829.68
772.306	349.08
772.745	215.58
773.185	184.58
773.625	165.48
774.065	156.28
774.505	170.78
774.944	212.98
775.384	374.08
775.824	611.98
776.263	593.68
776.703	285.98
777.142	166.78
777.582	141.48
778.021	131.98
778.461	131.38
778.9	125.18
779.34	130.18
779.779	112.68
780.219	114.98
780.658	113.58
781.097	114.48
781.537	119.18
781.976	112.18
782.415	111.58
782.855	109.28
783.294	110.28
783.733	102.78
784.172	118.78
784.611	106.88
785.05	106.58
785.489	124.18
785.928	126.18
786.367	126.98
786.806	124.08
787.245	131.08
787.684	143.18
788.123	153.08
788.562	139.08
789.001	139.08
789.44	123.68
789.879	118.58
790.317	127.78
790.756	132.78
791.195	136.28
791.634	156.68
792.072	209.98
792.511	385.18
792.95	1055.28
793.388	2203.18
793.827	1985.18
794.265	698.98
794.704	295.08
795.142	185.78
795.581	161.98
796.019	146.18
796.458	137.08
796.896	129.18
797.334	134.98
797.773	165.48
798.211	229.98
798.649	457.68
799.087	1074.18
799.526	1676.48
799.964	2127.58
800.402	2080.18
800.84	786.98
801.278	312.58
801.716	202.58
802.154	163.48
802.592	147.18
803.03	144.38
803.468	140.58
803.906	152.78
804.344	150.48
804.782	149.98
805.22	134.48
805.658	134.28
806.096	152.88
806.533	164.88
806.971	184.38
807.409	225.48
807.847	342.58
808.284	711.18
808.722	1979.88
809.16	3468.78
809.597	3325.78
810.035	5703.08
810.472	6051.08
810.91	2195.08
811.347	841.38
811.785	423.88
812.222	271.98
812.66	209.68
813.097	174.98
813.535	149.78
813.972	134.68
814.409	127.38
814.846	114.08
815.284	114.18
815.721	110.18
816.158	112.28
816.595	113.68
817.032	161.48
817.47	194.38
817.907	148.68
818.344	109.78
818.781	104.18
819.218	101.78
819.655	135.18
820.092	203.18
820.529	225.28
820.966	180.68
821.403	132.88
821.839	101.38
822.276	99.48
822.713	131.08
823.15	146.78
823.587	123.38
824.023	154.28
824.46	319.08
824.897	951.18
825.333	1436.38
825.77	611.78
826.206	242.98
826.643	140.08
827.08	107.58
827.516	95.08
827.953	80.68
828.389	90.18
828.825	80.58
829.262	73.58
829.698	61.38
830.135	66.58
830.571	57.28
831.007	67.38
831.443	62.18
831.88	65.98
832.316	69.78
832.752	63.68
833.188	72.38
833.624	69.28
834.06	73.58
834.497	68.68
834.933	74.88
835.369	74.78
835.805	72.08
836.241	87.88
836.677	75.18
837.112	97.38
837.548	105.88
837.984	141.78
838.42	215.28
838.856	523.28
839.292	1585.08
839.727	2401.48
840.163	1125.58
840.599	976.58
841.034	2124.88
841.47	2207.68
841.906	816.48
842.341	344.88
842.777	211.38
843.212	212.58
843.648	192.98
844.083	118.48
844.519	84.88
844.954	72.68
845.39	57.58
845.825	61.08
846.261	65.18
846.696	63.88
847.131	55.58
847.566	66.18
848.002	58.38
848.437	55.68
848.872	63.48
849.307	67.28
849.742	91.38
850.177	185.08
850.613	581.38
851.048	927.08
851.483	403.28
851.918	159.48
852.353	91.98
852.788	59.38
853.223	52.18
853.657	54.28
854.092	46.78
854.527	46.38
854.962	45.38
855.397	45.78
855.832	55.68
856.266	41.68
856.701	47.58
857.136	37.28
857.57	48.18
858.005	50.48
858.44	60.68
858.874	40.98
859.309	56.98
859.743	46.68
860.178	54.38
860.612	49.48
861.047	58.58
861.481	75.38
861.915	73.48
862.35	54.88
862.784	34.08
863.218	35.78
863.653	37.58
864.087	42.18
864.521	55.88
864.955	71.68
865.39	153.18
865.824	180.78
866.258	121.68
866.692	184.98
867.126	186.08
867.56	122.68
867.994	57.58
868.428	41.28
868.862	50.28
869.296	57.38
869.73	62.68
870.164	56.38
870.598	51.98
871.031	41.58
871.465	37.78
871.899	29.78
872.333	26.88
872.766	24.98
873.2	23.68
873.634	30.38
874.067	33.18
874.501	28.28
874.935	35.08
875.368	32.58
875.802	30.38
876.235	25.68
876.669	28.98
877.102	26.08
877.535	28.28
877.969	22.98
878.402	26.08
878.836	18.88
879.269	25.88
879.702	24.68
880.135	20.08
880.569	18.88
881.002	30.78
881.435	24.68
881.868	24.48
882.301	21.68
882.734	17.88
883.167	21.78
883.601	19.68
884.034	25.88
884.467	15.88
884.899	26.98
885.332	19.58
885.765	18.18
886.198	10.98
886.631	19.28
887.064	18.28
887.497	22.38
887.929	24.08
888.362	16.68
888.795	17.88
889.228	17.28
889.66	18.18
890.093	14.28
890.526	21.18
890.958	17.18
891.391	23.78
891.823	25.48
892.256	17.38
892.688	14.98
893.121	16.68
893.553	20.88
893.985	20.58
894.418	20.58
894.85	16.08
895.282	16.08
895.715	16.48
896.147	17.38
896.579	17.48
897.011	11.08
897.444	17.68
897.876	17.38
898.308	28.68
898.74	10.48
899.172	13.48
899.604	28.78
900.036	21.58
900.468	17.18
900.9	16.68
901.332	21.58
901.764	15.68
902.196	16.18
902.628	15.18
903.06	16.88
903.491	32.08
903.923	27.78
904.355	25.48
904.787	25.48
905.218	21.58
905.65	21.48
906.082	16.98
906.513	15.28
906.945	18.58
907.376	11.18
907.808	18.68
908.239	18.68
908.671	20.28
909.102	24.98
909.534	27.38
909.965	46.98
910.397	98.68
910.828	325.38
911.259	495.78
911.691	224.58
912.122	110.18
912.553	51.28
912.984	34.28
913.415	20.48
913.847	28.38
914.278	13.08
914.709	18.28
915.14	21.58
915.571	19.08
916.002	15.08
916.433	18.08
916.864	21.38
917.295	12.68
917.726	23.78
918.157	15.18
918.587	31.38
919.018	22.68
919.449	19.38
919.88	25.28
920.311	27.58
920.741	54.18
921.172	174.08
921.603	158.68
922.033	72.98
922.464	54.08
922.895	19.38
923.325	22.68
923.756	13.18
924.186	13.78
924.617	14.98
925.047	13.28
925.478	28.18
925.908	23.38
926.338	15.28
926.769	13.38
927.199	20.78
927.629	9.88
928.06	16.48
928.49	16.78
928.92	10.78
929.35	12.28
929.78	9.68
930.21	16.98
930.641	7.28
931.071	10.38
931.501	4.78
931.931	11.08
932.361	9.98
932.791	0.08
933.221	9.18
933.651	1.08
934.08	19.28
934.51	30.48
934.94	13.98
935.37	7.98
935.8	10.78
936.229	16.68
936.659	10.88
937.089	10.48
937.519	15.48
937.948	30.08
938.378	17.98
938.807	9.98
939.237	3.28
939.666	10.58
940.096	-2.72
940.525	-4.42
940.955	-0.62
941.384	1.48
941.814	-7.02
942.243	-7.02
942.672	5.88
943.102	-1.72
943.531	5.18
943.96	4.28
944.39	3.38
944.819	5.28
945.248	2.98
945.677	4.78
946.106	1.78
946.535	7.28
946.964	4.08
947.393	-1.42
947.822	0.28
948.251	-2.82
948.68	3.78
949.109	1.88
949.538	6.18
949.967	-1.62
950.396	1.28
950.825	-1.12
951.254	1.38
951.682	-6.22
952.111	1.78
952.54	6.78
952.969	-1.72
953.397	-1.82
953.826	-1.92
954.254	-4.22
954.683	-0.42
955.112	-3.12
955.54	-0.62
955.969	-3.72
956.397	-2.42
956.826	0.98
957.254	5.68
957.682	3.08
958.111	10.08
958.539	-3.12
958.967	8.88
959.396	1.88
959.824	-1.92
960.252	3.68
960.68	-8.32
961.109	-1.52
961.537	-2.72
961.965	-3.02
962.393	3.88
962.821	0.88
963.249	4.38
963.677	6.98
964.105	4.38
964.533	44.88
964.961	44.58
965.389	24.28
965.817	8.18
966.245	1.48
966.672	-0.52
967.1	-6.72
967.528	0.38
967.956	-6.92
968.383	3.68
968.811	1.58
969.239	0.28
969.666	-0.92
970.094	1.18
970.522	3.28
970.949	-5.02
971.377	-3.92
971.804	5.78
972.232	-4.32
972.659	-0.42
973.087	-2.92
973.514	5.98
973.941	-3.02
974.369	5.38
974.796	-1.42
975.223	0.28
975.651	2.68
976.078	1.28
976.505	-0.82
976.932	-0.42
977.359	19.88
977.786	16.78
978.214	7.38
978.641	-3.32
979.068	-3.62
979.495	0.98
979.922	-2.32
980.349	4.58
980.776	2.88
981.202	-1.02
981.629	-0.52
982.056	1.58
982.483	-1.52
982.91	0.78
983.337	-1.02
983.763	-1.22
984.19	-4.52
984.617	-2.02
985.043	-1.32
985.47	-2.12
985.897	-4.22
986.323	-9.12
986.75	1.08
987.176	-3.82
987.603	-0.82
988.029	-1.82
988.456	3.18
988.882	-0.02
989.308	-8.12
989.735	1.98
990.161	-4.02
990.587	-1.42
991.014	1.68
991.44	6.08
991.866	-1.32
992.292	-6.02
992.719	4.88
993.145	2.08
993.571	-4.62
993.997	-7.92
994.423	0.48
994.849	0.08
995.275	3.38
995.701	0.58
996.127	-4.72
996.553	-0.12
996.979	-7.52
997.405	0.68
997.83	-5.72
998.256	-5.52
998.682	-6.52
999.108	-7.72
999.534	-3.22
999.959	-0.42
1000.385	-1.62
1000.811	-3.72
1001.236	-9.12
1001.662	-7.42
1002.087	-10.82
1002.513	-1.42
1002.938	1.58
1003.364	-0.62
1003.789	0.28
1004.215	8.58
1004.64	1.38
1005.066	2.18
1005.491	-1.52
1005.916	-5.32
1006.342	2.48
1006.767	-1.72
1007.192	4.18
1007.617	-3.82
1008.042	0.48
1008.468	-2.12
1008.893	-2.52
1009.318	-3.02
1009.743	2.18
1010.168	1.98
1010.593	3.88
1011.018	-2.52
1011.443	-2.22
1011.868	2.58
1012.293	-5.22
1012.718	-8.42
1013.143	1.18
1013.567	-1.22
1013.992	-0.22
1014.417	-8.02
1014.842	1.78
1015.267	-3.52
1015.691	-4.32
1016.116	-1.42
1016.541	2.28
1016.965	4.88
1017.39	-0.02
1017.814	1.08
1018.239	3.98
1018.663	-6.12
1019.088	-6.52
1019.512	-2.82
1019.937	-8.72
1020.361	-1.62
1020.785	-14.12
1021.21	4.18
1021.634	3.88
1022.058	4.08
1022.483	1.68
1022.907	-1.72
1023.331	-1.32
1023.755	-6.52
1024.179	-0.52
1024.604	-4.52
1025.028	-4.12
1025.452	-3.12
1025.876	3.48
1026.3	0.58
1026.724	-12.32
1027.148	-1.22
1027.572	-8.32
1027.996	-9.02
1028.42	-2.72
1028.843	0.08
1029.267	-2.62
1029.691	-1.52
1030.115	-5.42
1030.539	-3.82
1030.962	-6.12
1031.386	-13.62
1031.81	-0.42
1032.233	2.68
1032.657	-3.32
1033.08	0.88
1033.504	-0.62
1033.927	-7.52
1034.351	-1.02
1034.774	-7.52
1035.198	3.18
1035.621	-7.72
1036.045	-4.12
1036.468	4.48
1036.891	-11.82
1037.315	-8.12
1037.738	-9.32
1038.161	-4.72
1038.584	0.48
1039.008	-3.22
1039.431	2.58
1039.854	-10.02
1040.277	-7.92
1040.7	-8.42
1041.123	-7.62
1041.546	-8.92
1041.969	1.98
1042.392	4.78
1042.815	-4.72
1043.238	3.08
1043.661	1.58
1044.084	-11.12
1044.507	-7.62
1044.93	-2.32
1045.352	-3.52
1045.775	-0.62
1046.198	-4.92
1046.621	-2.02
1047.043	3.08
1047.466	4.48
1047.889	-3.12
1048.311	-9.02
1048.734	-2.32
1049.156	-2.82
1049.579	-0.42
1050.001	-4.72
1050.424	-4.52
1050.846	3.38
1051.269	-4.92
1051.691	0.48
1052.113	-3.92
1052.536	-2.52
1052.958	-4.92
1053.38	0.48
1053.802	-9.22
1054.225	-1.42
1054.647	-9.92
1055.069	0.18
1055.491	6.48
1055.913	-6.92
1056.335	-0.82
1056.757	-3.42
1057.179	-9.82
1057.601	-6.62
1058.023	-4.52
1058.445	-3.92
1058.867	-7.82
1059.289	-0.12
1059.711	-6.92
1060.133	-2.02
1060.555	-4.92
1060.976	-6.52
1061.398	-4.62
1061.82	-9.72
1062.241	-6.92
1062.663	-10.42
1063.085	-3.12
1063.506	-1.42
1063.928	-5.52
1064.35	-4.42
1064.771	-12.62
1065.193	-7.92
1065.614	-8.62
1066.035	-9.62
1066.457	-6.92
1066.878	0.98
1067.3	-4.82
1067.721	0.68
1068.142	0.38
1068.564	-4.02
1068.985	-7.42
1069.406	-5.62
1069.827	-8.22
1070.248	-0.62
1070.67	-7.42
1071.091	-11.02
1071.512	-0.92
1071.933	-9.02
1072.354	-7.52
1072.775	-6.52
1073.196	-8.62
1073.617	-2.72
1074.038	-8.62
1074.459	1.38
1074.88	-8.72
1075.3	3.38
1075.721	-5.62
1076.142	3.08
1076.563	-3.02
1076.983	-6.52
1077.404	-6.52
1077.825	-10.12
1078.246	-7.92
1078.666	-7.52
1079.087	-1.72
1079.507	-13.32
1079.928	-2.52
1080.348	-4.12
1080.769	-7.72
1081.189	-1.42
1081.61	-6.22
1082.03	-6.52
1082.451	-5.72
1082.871	-4.32
1083.291	-9.02
1083.711	-4.62
1084.132	-7.92
1084.552	-10.82
1084.972	-0.12
1085.392	-11.82
1085.813	-5.02
1086.233	-5.72
1086.653	-4.72
1087.073	-0.72
1087.493	-4.42
1087.913	-10.32
1088.333	-5.32
1088.753	-4.02
1089.173	0.38
1089.593	0.48
1090.013	-6.02
1090.433	4.28
1090.852	-3.72
1091.272	5.28
1091.692	-6.42
1092.112	-4.22
1092.531	-9.92
1092.951	-11.62
1093.371	-7.12
1093.79	-0.02
1094.21	1.08
1094.63	-4.72
1095.049	-7.92
1095.469	-1.02
1095.888	-5.52
1096.308	2.88
1096.727	2.08
1097.146	-5.42
1097.566	-4.12
1097.985	-4.82
1098.405	-1.72
1098.824	-4.22
1099.243	-4.92
1099.662	-9.42
1100.082	-5.72
1100.501	-0.02
1100.92	-1.92
1101.339	-11.02
1101.758	-2.82
