Data from 20171114-ORNL-Ar_H_NY_Subt18_08-08-48-988.txt Node
Date: Tue Nov 14 08:08:48 EST 2017
User: Ender
Spectrometer: HR+D1039
Trigger mode: 0
Integration Time (sec): 2.730000E-2
Scans to average: 10
Electric dark correction enabled: true
Nonlinearity correction enabled: false
Boxcar width: 0
XAxis mode: Wavelengths
Number of Pixels in Spectrum: 2048
>>>>>Begin Spectral Data<<<<<
187.836	-7.34
188.309	-7.34
188.782	-7.34
189.255	-1.64
189.728	3.36
190.201	7.56
190.674	4.16
191.147	3.66
191.619	-8.14
192.092	-1.44
192.565	5.36
193.038	-3.84
193.511	4.06
193.984	-0.74
194.456	0.76
194.929	3.26
195.402	-5.84
195.874	-3.24
196.347	2.56
196.82	-7.14
197.292	6.76
197.765	-1.34
198.237	-1.74
198.71	4.66
199.182	1.16
199.655	4.76
200.127	5.96
200.6	1.36
201.072	0.76
201.544	1.06
202.017	0.46
202.489	6.86
202.961	-2.04
203.433	-5.54
203.906	-3.44
204.378	-5.94
204.85	0.26
205.322	-3.34
205.794	-0.94
206.266	-2.24
206.739	-4.24
207.211	6.86
207.683	-8.14
208.155	-8.64
208.627	-9.64
209.099	-4.54
209.57	-8.24
210.042	-5.54
210.514	-1.74
210.986	0.76
211.458	-8.04
211.93	-0.04
212.402	1.46
212.873	-4.94
213.345	-8.34
213.817	-11.74
214.288	-5.54
214.76	-7.14
215.232	-5.84
215.703	0.26
216.175	-5.14
216.646	-2.64
217.118	-4.84
217.589	-1.44
218.061	-1.14
218.532	-4.14
219.004	0.26
219.475	-5.84
219.946	-6.54
220.418	-5.24
220.889	-2.34
221.36	-1.94
221.832	-5.44
222.303	0.66
222.774	4.76
223.245	-8.14
223.717	-7.94
224.188	0.76
224.659	1.86
225.13	-3.84
225.601	1.56
226.072	0.36
226.543	0.26
227.014	-1.14
227.485	-5.24
227.956	-6.44
228.427	1.16
228.898	4.26
229.369	3.66
229.839	-4.44
230.31	-10.24
230.781	4.16
231.252	-5.34
231.722	-4.54
232.193	-9.34
232.664	0.66
233.135	0.16
233.605	-0.74
234.076	-5.44
234.546	3.96
235.017	5.86
235.487	1.06
235.958	-2.44
236.428	-4.34
236.899	-4.34
237.369	-4.04
237.84	-6.04
238.31	1.16
238.78	-0.64
239.251	-5.04
239.721	-4.24
240.191	2.26
240.662	0.46
241.132	2.46
241.602	-0.34
242.072	-4.04
242.542	2.66
243.013	-2.84
243.483	1.66
243.953	4.06
244.423	-2.44
244.893	-6.94
245.363	1.86
245.833	5.16
246.303	-4.04
246.773	-0.04
247.243	2.66
247.712	-0.44
248.182	1.76
248.652	2.86
249.122	-15.44
249.592	0.46
250.061	4.76
250.531	13.36
251.001	-4.74
251.471	0.56
251.94	13.16
252.41	-3.44
252.879	-8.44
253.349	5.06
253.818	8.36
254.288	4.76
254.757	0.56
255.227	-1.14
255.696	-3.14
256.166	4.66
256.635	-3.24
257.105	4.56
257.574	-1.24
258.043	0.86
258.513	-4.64
258.982	1.16
259.451	-3.64
259.92	3.66
260.389	6.76
260.859	9.26
261.328	5.56
261.797	6.26
262.266	-3.84
262.735	9.96
263.204	1.76
263.673	0.26
264.142	1.56
264.611	-0.34
265.08	0.16
265.549	-5.54
266.018	3.76
266.487	-1.24
266.955	-3.14
267.424	-3.04
267.893	3.36
268.362	0.86
268.83	5.06
269.299	1.46
269.768	-1.54
270.236	-0.24
270.705	1.36
271.174	-5.84
271.642	1.76
272.111	0.46
272.579	3.56
273.048	3.86
273.516	0.96
273.985	-1.24
274.453	0.66
274.922	7.86
275.39	5.46
275.858	-8.34
276.327	1.06
276.795	10.16
277.263	2.26
277.731	8.56
278.2	13.96
278.668	13.66
279.136	9.16
279.604	5.56
280.072	14.86
280.54	9.66
281.008	4.96
281.477	11.76
281.945	9.46
282.413	14.06
282.881	10.26
283.348	6.86
283.816	11.66
284.284	13.36
284.752	13.16
285.22	10.76
285.688	13.76
286.156	9.26
286.623	14.36
287.091	5.66
287.559	9.66
288.026	9.66
288.494	10.86
288.962	4.86
289.429	3.36
289.897	14.36
290.364	13.56
290.832	13.56
291.3	12.16
291.767	10.36
292.234	15.96
292.702	9.26
293.169	8.36
293.637	14.76
294.104	16.76
294.571	7.86
295.039	2.76
295.506	4.96
295.973	17.86
296.44	13.66
296.908	13.26
297.375	9.76
297.842	18.16
298.309	11.36
298.776	10.06
299.243	17.56
299.71	10.66
300.177	24.76
300.644	13.86
301.111	14.46
301.578	18.26
302.045	15.46
302.512	14.56
302.979	24.96
303.446	16.36
303.913	18.26
304.379	16.96
304.846	22.46
305.313	24.26
305.78	18.66
306.246	21.76
306.713	17.76
307.18	21.76
307.646	24.06
308.113	16.96
308.579	24.76
309.046	14.26
309.512	19.16
309.979	17.76
310.445	23.66
310.912	26.06
311.378	24.26
311.845	22.26
312.311	28.46
312.777	27.06
313.244	25.66
313.71	31.16
314.176	22.86
314.642	21.96
315.109	16.06
315.575	31.16
316.041	29.46
316.507	25.26
316.973	28.36
317.439	22.16
317.905	29.16
318.371	29.86
318.837	30.36
319.303	25.66
319.769	26.76
320.235	29.86
320.701	23.66
321.167	26.16
321.633	22.46
322.099	29.66
322.564	37.36
323.03	32.26
323.496	25.66
323.962	31.46
324.427	30.96
324.893	33.26
325.359	29.66
325.824	33.36
326.29	35.06
326.755	33.26
327.221	34.46
327.686	35.56
328.152	38.36
328.617	33.96
329.083	36.16
329.548	44.96
330.014	38.36
330.479	36.66
330.944	37.76
331.41	32.56
331.875	35.86
332.34	34.06
332.805	34.86
333.271	39.76
333.736	33.06
334.201	42.56
334.666	42.76
335.131	41.16
335.596	45.96
336.061	40.46
336.526	34.66
336.991	43.56
337.456	47.36
337.921	44.56
338.386	36.26
338.851	44.16
339.316	43.26
339.781	40.36
340.246	45.06
340.711	43.06
341.175	49.36
341.64	40.86
342.105	49.36
342.569	43.16
343.034	42.96
343.499	44.76
343.963	45.66
344.428	60.66
344.893	58.76
345.357	55.66
345.822	52.86
346.286	63.46
346.751	58.76
347.215	58.76
347.679	63.86
348.144	82.76
348.608	71.36
349.073	60.66
349.537	67.16
350.001	70.86
350.465	77.26
350.93	71.16
351.394	78.46
351.858	65.06
352.322	82.46
352.786	69.86
353.25	79.46
353.715	94.96
354.179	86.16
354.643	111.06
355.107	106.56
355.571	97.66
356.035	90.46
356.498	92.66
356.962	97.96
357.426	110.46
357.89	96.36
358.354	77.76
358.818	72.86
359.281	70.36
359.745	72.26
360.209	63.16
360.673	65.76
361.136	73.26
361.6	75.46
362.064	65.36
362.527	74.06
362.991	82.46
363.454	75.86
363.918	75.86
364.381	66.06
364.845	75.56
365.308	75.56
365.772	74.56
366.235	76.36
366.698	71.36
367.162	82.26
367.625	77.76
368.088	82.76
368.552	82.96
369.015	85.76
369.478	85.46
369.941	90.86
370.404	82.96
370.867	88.66
371.331	89.76
371.794	90.96
372.257	91.66
372.72	97.36
373.183	96.86
373.646	83.96
374.109	87.66
374.572	94.86
375.035	91.16
375.497	99.16
375.96	93.86
376.423	93.56
376.886	96.16
377.349	102.66
377.811	100.36
378.274	100.76
378.737	97.26
379.199	102.66
379.662	98.16
380.125	109.76
380.587	100.56
381.05	101.66
381.512	108.26
381.975	116.36
382.437	111.06
382.9	106.56
383.362	115.06
383.825	126.16
384.287	125.66
384.75	115.16
385.212	114.76
385.674	128.56
386.136	121.06
386.599	112.26
387.061	114.96
387.523	110.86
387.985	119.16
388.447	127.16
388.91	120.86
389.372	121.76
389.834	130.36
390.296	115.96
390.758	123.76
391.22	126.36
391.682	136.86
392.144	150.46
392.606	141.06
393.068	130.86
393.529	146.06
393.991	136.26
394.453	128.26
394.915	129.16
395.377	130.46
395.838	132.36
396.3	133.46
396.762	136.26
397.224	130.66
397.685	127.86
398.147	127.66
398.608	127.26
399.07	128.96
399.531	134.66
399.993	144.96
400.454	147.76
400.916	142.56
401.377	146.96
401.839	145.76
402.3	149.96
402.762	166.66
403.223	173.16
403.684	156.36
404.145	164.16
404.607	157.86
405.068	158.36
405.529	170.26
405.99	179.26
406.451	162.96
406.913	167.96
407.374	166.76
407.835	163.26
408.296	164.86
408.757	170.46
409.218	178.36
409.679	174.86
410.14	162.56
410.601	177.26
411.062	181.26
411.522	175.96
411.983	180.86
412.444	172.06
412.905	186.66
413.366	178.96
413.826	197.46
414.287	217.96
414.748	269.56
415.208	246.26
415.669	218.06
416.13	213.66
416.59	209.36
417.051	214.96
417.511	219.66
417.972	243.46
418.432	260.16
418.893	288.46
419.353	251.56
419.814	207.46
420.274	186.26
420.734	180.06
421.195	198.86
421.655	185.86
422.115	194.46
422.576	191.86
423.036	194.96
423.496	212.76
423.956	224.06
424.416	241.36
424.876	267.16
425.336	258.96
425.797	266.86
426.257	253.56
426.717	241.16
427.177	233.06
427.637	225.56
428.097	232.66
428.556	243.96
429.016	264.86
429.476	266.16
429.936	266.66
430.396	272.16
430.856	282.86
431.315	310.26
431.775	336.16
432.235	371.36
432.694	348.26
433.154	354.66
433.614	383.26
434.073	335.86
434.533	277.76
434.993	265.86
435.452	282.66
435.912	283.16
436.371	287.16
436.83	278.76
437.29	270.16
437.749	246.76
438.209	252.26
438.668	271.76
439.127	286.36
439.587	266.76
440.046	251.56
440.505	261.46
440.964	269.66
441.424	320.56
441.883	311.66
442.342	270.56
442.801	227.46
443.26	226.16
443.719	225.46
444.178	227.86
444.637	215.56
445.096	227.06
445.555	233.96
446.014	229.56
446.473	233.36
446.932	244.66
447.391	234.66
447.849	227.06
448.308	226.86
448.767	239.06
449.226	252.46
449.685	250.56
450.143	265.16
450.602	244.36
451.061	233.66
451.519	239.36
451.978	245.16
452.436	235.06
452.895	248.76
453.353	253.06
453.812	248.76
454.27	242.66
454.729	253.16
455.187	248.56
455.646	249.46
456.104	250.36
456.562	267.66
457.021	279.06
457.479	268.66
457.937	288.46
458.395	265.56
458.854	256.86
459.312	265.56
459.77	287.76
460.228	271.16
460.686	254.16
461.144	267.36
461.602	246.96
462.06	256.56
462.518	257.96
462.976	261.76
463.434	268.36
463.892	269.46
464.35	295.46
464.808	296.66
465.266	272.86
465.724	279.26
466.181	279.36
466.639	285.36
467.097	301.56
467.555	311.66
468.012	307.26
468.47	318.96
468.928	337.86
469.385	349.96
469.843	352.06
470.3	368.36
470.758	373.66
471.215	388.66
471.673	420.46
472.13	413.16
472.588	426.06
473.045	388.16
473.503	383.96
473.96	396.16
474.417	416.26
474.875	446.46
475.332	481.56
475.789	477.66
476.246	476.46
476.704	501.06
477.161	518.66
477.618	527.96
478.075	576.56
478.532	622.96
478.989	698.36
479.446	794.16
479.903	766.86
480.36	788.46
480.817	843.76
481.274	930.16
481.731	1021.36
482.188	1093.16
482.645	1220.96
483.102	1301.96
483.558	1413.36
484.015	1477.26
484.472	1427.16
484.929	1386.96
485.385	1360.36
485.842	1327.76
486.299	1274.96
486.755	1241.56
487.212	1061.76
487.668	900.36
488.125	832.36
488.582	774.46
489.038	746.16
489.494	714.86
489.951	692.86
490.407	672.26
490.864	650.76
491.32	653.96
491.776	656.76
492.233	654.86
492.689	622.26
493.145	621.56
493.602	620.36
494.058	628.06
494.514	625.26
494.97	648.76
495.426	658.66
495.882	641.16
496.338	626.66
496.794	637.36
497.251	626.86
497.707	652.16
498.163	637.46
498.618	645.96
499.074	651.06
499.53	680.06
499.986	679.66
500.442	653.56
500.898	633.06
501.354	632.06
501.809	632.96
502.265	639.26
502.721	646.06
503.177	655.16
503.632	649.46
504.088	668.86
504.543	684.96
504.999	704.96
505.455	678.66
505.91	659.46
506.366	658.76
506.821	650.26
507.277	658.56
507.732	663.16
508.187	649.76
508.643	652.16
509.098	658.96
509.553	682.66
510.009	682.46
510.464	687.16
510.919	709.86
511.375	714.86
511.83	733.56
512.285	756.66
512.74	775.46
513.195	798.66
513.65	787.76
514.105	795.56
514.56	788.96
515.015	813.46
515.47	818.96
515.925	795.46
516.38	801.26
516.835	817.36
517.29	800.86
517.745	797.56
518.2	781.86
518.655	769.46
519.109	770.56
519.564	759.56
520.019	756.86
520.474	741.16
520.928	741.36
521.383	736.76
521.838	726.66
522.292	737.06
522.747	733.46
523.201	731.56
523.656	729.06
524.11	725.06
524.565	717.76
525.019	718.56
525.474	732.46
525.928	715.36
526.382	703.16
526.837	715.46
527.291	722.66
527.745	709.16
528.2	715.36
528.654	714.06
529.108	709.86
529.562	709.26
530.016	701.56
530.47	702.66
530.925	718.56
531.379	709.06
531.833	722.26
532.287	720.46
532.741	725.16
533.195	718.66
533.649	734.16
534.103	738.76
534.556	728.06
535.01	732.36
535.464	724.46
535.918	737.16
536.372	744.36
536.826	740.56
537.279	730.76
537.733	734.56
538.187	740.36
538.64	728.76
539.094	746.56
539.548	750.06
540.001	745.16
540.455	746.96
540.908	756.16
541.362	764.86
541.815	770.46
542.269	779.36
542.722	772.36
543.175	796.16
543.629	800.16
544.082	819.16
544.536	815.36
544.989	814.76
545.442	825.56
545.895	816.56
546.349	829.86
546.802	831.26
547.255	827.26
547.708	839.66
548.161	844.46
548.614	844.76
549.067	859.96
549.52	850.86
549.973	839.36
550.426	831.46
550.879	823.86
551.332	827.46
551.785	830.86
552.238	845.16
552.691	846.26
553.144	856.66
553.596	882.46
554.049	898.86
554.502	927.46
554.955	946.06
555.407	942.96
555.86	926.86
556.313	924.76
556.765	918.56
557.218	918.86
557.67	914.66
558.123	907.36
558.576	907.16
559.028	906.96
559.48	928.56
559.933	897.46
560.385	884.66
560.838	835.06
561.29	817.26
561.742	820.56
562.195	793.26
562.647	809.16
563.099	813.96
563.551	798.16
564.004	806.86
564.456	796.86
564.908	789.36
565.36	772.46
565.812	754.76
566.264	746.86
566.716	745.06
567.168	736.76
567.62	747.96
568.072	729.16
568.524	722.86
568.976	720.36
569.428	700.56
569.88	699.36
570.332	711.96
570.784	713.86
571.235	708.56
571.687	721.96
572.139	737.26
572.59	737.46
573.042	738.06
573.494	743.66
573.945	739.76
574.397	719.26
574.849	720.96
575.3	719.76
575.752	713.96
576.203	701.86
576.655	714.46
577.106	705.26
577.557	701.06
578.009	702.76
578.46	690.76
578.912	701.06
579.363	689.66
579.814	696.56
580.265	700.06
580.717	703.36
581.168	699.96
581.619	710.56
582.07	714.76
582.521	708.76
582.972	700.16
583.423	701.96
583.875	707.36
584.326	711.26
584.777	728.06
585.227	742.36
585.678	770.66
586.129	796.16
586.58	823.36
587.031	835.76
587.482	880.66
587.933	926.36
588.384	888.36
588.834	838.66
589.285	803.36
589.736	804.26
590.186	809.46
590.637	802.76
591.088	782.56
591.538	774.16
591.989	760.66
592.439	754.86
592.89	744.86
593.34	738.26
593.791	734.26
594.241	728.36
594.692	727.46
595.142	732.16
595.593	733.06
596.043	726.16
596.493	746.36
596.943	736.86
597.394	750.66
597.844	744.16
598.294	755.56
598.744	779.66
599.195	810.96
599.645	866.86
600.095	904.66
600.545	962.56
600.995	1017.66
601.445	1066.56
601.895	1138.36
602.345	1177.16
602.795	1168.76
603.245	1115.56
603.695	1064.96
604.145	999.66
604.594	955.16
605.044	890.86
605.494	833.66
605.944	789.16
606.393	774.66
606.843	759.26
607.293	770.36
607.743	752.16
608.192	775.06
608.642	779.96
609.091	789.26
609.541	790.36
609.99	802.96
610.44	797.96
610.889	744.46
611.339	727.56
611.788	708.86
612.238	720.76
612.687	742.56
613.136	725.86
613.586	745.06
614.035	727.16
614.484	741.96
614.933	736.66
615.383	738.36
615.832	734.96
616.281	726.16
616.73	701.36
617.179	676.66
617.628	672.56
618.077	651.26
618.526	645.56
618.975	640.06
619.424	644.86
619.873	646.86
620.322	630.26
620.771	636.96
621.22	630.56
621.669	619.56
622.118	616.56
622.567	610.76
623.015	601.06
623.464	587.26
623.913	583.46
624.361	580.66
624.81	571.96
625.259	580.86
625.707	583.56
626.156	576.66
626.604	596.16
627.053	574.36
627.501	591.66
627.95	598.46
628.398	609.56
628.847	594.16
629.295	599.56
629.744	599.96
630.192	593.06
630.64	590.46
631.089	572.66
631.537	569.96
631.985	550.96
632.433	564.86
632.881	558.16
633.33	560.66
633.778	553.66
634.226	547.06
634.674	564.16
635.122	575.16
635.57	580.86
636.018	590.96
636.466	592.46
636.914	581.46
637.362	592.06
637.81	599.46
638.258	618.06
638.705	609.86
639.153	640.66
639.601	662.86
640.049	677.56
640.497	697.96
640.944	717.16
641.392	673.46
641.84	638.26
642.287	613.96
642.735	591.86
643.182	594.66
643.63	591.26
644.078	588.76
644.525	601.06
644.973	603.76
645.42	622.36
645.867	645.36
646.315	659.46
646.762	677.46
647.21	711.46
647.657	729.96
648.104	769.46
648.551	777.16
648.999	837.06
649.446	920.86
649.893	1013.66
650.34	1161.56
650.787	1367.66
651.234	1697.16
651.682	2200.56
652.129	2982.86
652.576	4227.46
653.023	6172.86
653.47	8305.06
653.917	10228.56
654.363	11716.36
654.81	12833.06
655.257	12191.46
655.704	8091.76
656.151	4880.46
656.598	3204.46
657.044	2296.36
657.491	1794.16
657.938	1442.86
658.385	1215.56
658.831	1068.36
659.278	965.66
659.724	861.36
660.171	798.26
660.618	731.86
661.064	692.26
661.511	679.66
661.957	663.76
662.404	656.56
662.85	663.96
663.296	641.56
663.743	578.16
664.189	553.56
664.635	554.86
665.082	548.36
665.528	549.86
665.974	540.76
666.42	533.46
666.867	525.06
667.313	507.96
667.759	490.06
668.205	474.66
668.651	472.06
669.097	469.66
669.543	463.76
669.989	463.26
670.435	466.66
670.881	470.66
671.327	476.76
671.773	496.26
672.219	525.16
672.665	580.66
673.11	613.86
673.556	673.46
674.002	705.06
674.448	693.16
674.893	584.56
675.339	501.86
675.785	464.96
676.23	446.06
676.676	422.26
677.122	406.66
677.567	398.76
678.013	389.76
678.458	386.16
678.904	381.16
679.349	371.36
679.794	373.86
680.24	370.76
680.685	372.76
681.131	368.36
681.576	376.46
682.021	382.36
682.466	373.56
682.912	369.66
683.357	376.26
683.802	412.16
684.247	439.56
684.692	481.06
685.137	521.66
685.583	567.76
686.028	593.46
686.473	552.06
686.918	471.56
687.363	443.66
687.807	421.16
688.252	393.36
688.697	374.66
689.142	363.66
689.587	360.26
690.032	353.26
690.477	370.96
690.921	377.86
691.366	406.66
691.811	420.26
692.255	450.26
692.7	491.36
693.145	551.16
693.589	759.86
694.034	1239.06
694.478	1667.06
694.923	1832.46
695.367	2357.06
695.812	1263.96
696.256	527.16
696.701	394.96
697.145	367.46
697.59	355.86
698.034	338.06
698.478	351.46
698.922	339.36
699.367	340.16
699.811	359.76
700.255	373.06
700.699	406.16
701.143	452.26
701.588	512.06
702.032	541.76
702.476	541.46
702.92	519.16
703.364	533.46
703.808	705.46
704.252	1149.16
704.696	1565.76
705.14	1769.86
705.584	2254.36
706.027	1138.16
706.471	553.26
706.915	423.06
707.359	374.06
707.803	343.36
708.246	332.06
708.69	337.46
709.134	338.16
709.577	330.96
710.021	336.86
710.465	325.26
710.908	317.96
711.352	319.56
711.795	331.96
712.239	376.86
712.682	412.76
713.126	439.66
713.569	481.76
714.012	380.76
714.456	315.86
714.899	305.56
715.342	291.06
715.786	283.76
716.229	271.96
716.672	274.86
717.115	264.66
717.558	266.76
718.002	265.46
718.445	278.16
718.888	305.16
719.331	318.46
719.774	323.86
720.217	323.16
720.66	308.16
721.103	284.16
721.546	268.56
721.989	268.96
722.432	248.26
722.874	258.96
723.317	249.16
723.76	245.26
724.203	276.96
724.645	340.76
725.088	480.36
725.531	606.76
725.974	673.86
726.416	578.06
726.859	329.06
727.301	264.86
727.744	252.56
728.187	246.56
728.629	249.36
729.071	263.56
729.514	279.06
729.956	295.06
730.399	301.36
730.841	300.06
731.283	296.16
731.726	286.16
732.168	285.36
732.61	279.46
733.053	305.86
733.495	337.06
733.937	386.46
734.379	425.46
734.821	475.66
735.263	588.26
735.705	929.46
736.148	1747.16
736.59	2793.66
737.032	3214.66
737.474	2628.46
737.916	876.76
738.357	459.06
738.799	355.06
739.241	326.16
739.683	299.86
740.125	314.26
740.567	323.26
741.008	337.56
741.45	345.16
741.892	347.06
742.334	371.96
742.775	387.16
743.217	364.96
743.658	295.26
744.1	270.26
744.542	281.66
744.983	338.86
745.425	370.86
745.866	366.96
746.307	297.06
746.749	298.46
747.19	348.56
747.632	509.06
748.073	991.96
748.514	2066.26
748.956	3055.56
749.397	3851.96
749.838	3209.26
750.279	3122.06
750.72	1593.96
751.162	591.16
751.603	343.06
752.044	267.36
752.485	227.86
752.926	231.46
753.367	219.26
753.808	213.26
754.249	200.06
754.69	201.36
755.131	199.06
755.572	192.86
756.013	192.56
756.453	195.06
756.894	199.56
757.335	194.16
757.776	210.36
758.216	206.56
758.657	216.56
759.098	221.26
759.538	244.16
759.979	289.96
760.42	406.86
760.86	797.46
761.301	2089.76
761.741	4898.16
762.182	6727.46
762.622	4773.96
763.063	1408.66
763.503	578.86
763.943	343.56
764.384	290.36
764.824	276.66
765.264	265.06
765.705	229.16
766.145	193.86
766.585	193.96
767.025	174.66
767.465	178.36
767.906	200.36
768.346	222.16
768.786	230.46
769.226	237.86
769.666	341.06
770.106	703.26
770.546	1734.36
770.986	2791.56
771.426	2467.06
771.866	842.16
772.306	352.46
772.745	221.46
773.185	180.56
773.625	176.76
774.065	157.16
774.505	172.86
774.944	227.76
775.384	399.76
775.824	639.76
776.263	616.96
776.703	307.06
777.142	168.86
777.582	142.66
778.021	133.96
778.461	139.36
778.9	137.16
779.34	140.06
779.779	126.46
780.219	121.26
780.658	111.26
781.097	115.66
781.537	118.26
781.976	117.06
782.415	108.36
782.855	108.26
783.294	113.16
783.733	107.56
784.172	118.26
784.611	108.56
785.05	112.06
785.489	116.66
785.928	122.06
786.367	127.66
786.806	122.96
787.245	140.96
787.684	147.16
788.123	154.56
788.562	140.76
789.001	133.46
789.44	139.76
789.879	121.56
790.317	131.36
790.756	133.46
791.195	130.26
791.634	167.36
792.072	223.26
792.511	409.36
792.95	1119.16
793.388	2261.36
793.827	2000.06
794.265	718.46
794.704	297.76
795.142	194.76
795.581	167.26
796.019	147.66
796.458	140.66
796.896	137.76
797.334	144.96
797.773	160.66
798.211	238.86
798.649	487.16
799.087	1122.66
799.526	1729.56
799.964	2188.36
800.402	2107.96
800.84	815.56
801.278	328.26
801.716	202.66
802.154	164.36
802.592	154.86
803.03	147.26
803.468	145.26
803.906	146.56
804.344	160.06
804.782	154.96
805.22	145.66
805.658	139.76
806.096	158.76
806.533	170.06
806.971	185.96
807.409	240.96
807.847	343.86
808.284	756.46
808.722	2076.06
809.16	3545.56
809.597	3455.16
810.035	5864.46
810.472	6023.66
810.91	2225.86
811.347	867.46
811.785	444.56
812.222	271.66
812.66	212.86
813.097	179.56
813.535	144.76
813.972	145.56
814.409	122.86
814.846	118.36
815.284	115.46
815.721	104.26
816.158	103.76
816.595	121.36
817.032	167.06
817.47	196.36
817.907	134.66
818.344	111.16
818.781	103.26
819.218	105.26
819.655	134.56
820.092	205.06
820.529	228.56
820.966	176.66
821.403	131.96
821.839	101.46
822.276	98.86
822.713	135.46
823.15	151.86
823.587	125.46
824.023	159.06
824.46	341.86
824.897	995.86
825.333	1421.16
825.77	624.56
826.206	257.66
826.643	147.06
827.08	115.86
827.516	90.06
827.953	88.26
828.389	85.96
828.825	71.86
829.262	73.36
829.698	72.36
830.135	64.86
830.571	67.46
831.007	72.86
831.443	68.96
831.88	71.06
832.316	68.46
832.752	67.96
833.188	66.66
833.624	69.06
834.06	71.26
834.497	70.26
834.933	70.76
835.369	81.56
835.805	74.66
836.241	85.26
836.677	85.06
837.112	104.06
837.548	114.26
837.984	146.06
838.42	229.86
838.856	562.76
839.292	1668.76
839.727	2426.26
840.163	1155.96
840.599	1032.26
841.034	2197.16
841.47	2225.36
841.906	827.96
842.341	358.06
842.777	217.06
843.212	213.66
843.648	207.76
844.083	119.26
844.519	89.86
844.954	78.36
845.39	66.86
845.825	64.66
846.261	57.26
846.696	58.26
847.131	61.16
847.566	65.36
848.002	61.26
848.437	58.66
848.872	68.66
849.307	68.06
849.742	90.26
850.177	195.06
850.613	606.46
851.048	934.86
851.483	407.96
851.918	171.76
852.353	94.16
852.788	58.66
853.223	57.86
853.657	53.56
854.092	48.76
854.527	46.66
854.962	47.36
855.397	46.06
855.832	53.86
856.266	44.96
856.701	47.76
857.136	36.26
857.57	41.46
858.005	56.66
858.44	67.56
858.874	47.36
859.309	60.16
859.743	45.66
860.178	55.46
860.612	48.06
861.047	53.96
861.481	72.16
861.915	78.86
862.35	54.66
862.784	38.86
863.218	41.06
863.653	35.36
864.087	57.66
864.521	60.16
864.955	74.26
865.39	166.86
865.824	185.96
866.258	119.76
866.692	195.16
867.126	192.16
867.56	111.06
867.994	61.06
868.428	40.46
868.862	53.86
869.296	63.36
869.73	62.46
870.164	56.86
870.598	48.46
871.031	43.56
871.465	32.86
871.899	30.56
872.333	29.46
872.766	29.46
873.2	21.76
873.634	34.76
874.067	31.36
874.501	29.26
874.935	39.06
875.368	37.56
875.802	32.16
876.235	23.06
876.669	29.26
877.102	21.96
877.535	32.36
877.969	24.66
878.402	26.56
878.836	27.56
879.269	28.56
879.702	32.16
880.135	28.16
880.569	23.46
881.002	23.76
881.435	25.56
881.868	13.36
882.301	22.36
882.734	19.46
883.167	26.66
883.601	23.26
884.034	23.16
884.467	17.16
884.899	22.66
885.332	20.56
885.765	18.86
886.198	22.26
886.631	22.76
887.064	22.86
887.497	23.26
887.929	26.16
888.362	24.06
888.795	16.16
889.228	20.56
889.66	19.16
890.093	23.76
890.526	24.66
890.958	17.86
891.391	14.46
891.823	19.36
892.256	17.06
892.688	13.16
893.121	17.26
893.553	18.86
893.985	24.66
894.418	14.86
894.85	16.36
895.282	23.56
895.715	18.96
896.147	18.16
896.579	16.86
897.011	22.06
897.444	23.86
897.876	17.36
898.308	21.76
898.74	14.96
899.172	12.86
899.604	25.26
900.036	23.06
900.468	13.96
900.9	15.26
901.332	23.26
901.764	20.06
902.196	16.56
902.628	16.26
903.06	22.06
903.491	30.46
903.923	22.56
904.355	21.26
904.787	25.26
905.218	22.96
905.65	22.96
906.082	17.06
906.513	11.26
906.945	22.96
907.376	11.96
907.808	20.46
908.239	19.86
908.671	22.56
909.102	23.56
909.534	28.66
909.965	55.66
910.397	104.56
910.828	346.36
911.259	499.66
911.691	233.96
912.122	116.66
912.553	53.26
912.984	35.26
913.415	29.76
913.847	19.66
914.278	20.06
914.709	18.36
915.14	21.86
915.571	19.26
916.002	14.86
916.433	16.46
916.864	15.96
917.295	13.26
917.726	19.76
918.157	18.46
918.587	25.26
919.018	23.76
919.449	28.16
919.88	25.16
920.311	33.06
920.741	50.86
921.172	179.36
921.603	159.36
922.033	69.86
922.464	51.56
922.895	23.86
923.325	21.26
923.756	10.86
924.186	18.96
924.617	19.06
925.047	22.46
925.478	28.86
925.908	26.96
926.338	14.66
926.769	13.16
927.199	15.66
927.629	7.06
928.06	14.66
928.49	16.86
928.92	16.66
929.35	11.06
929.78	12.66
930.21	7.86
930.641	6.26
931.071	2.06
931.501	2.76
931.931	4.86
932.361	10.76
932.791	1.66
933.221	2.76
933.651	6.56
934.08	15.56
934.51	31.66
934.94	11.96
935.37	14.76
935.8	17.56
936.229	5.56
936.659	13.76
937.089	11.06
937.519	13.36
937.948	22.86
938.378	21.06
938.807	8.26
939.237	7.26
939.666	11.66
940.096	-3.24
940.525	6.36
940.955	2.66
941.384	2.66
941.814	-5.34
942.243	3.26
942.672	2.26
943.102	-2.74
943.531	2.76
943.96	2.16
944.39	4.76
944.819	-1.94
945.248	2.66
945.677	3.46
946.106	0.76
946.535	9.36
946.964	-3.34
947.393	3.76
947.822	2.26
948.251	-1.24
948.68	3.46
949.109	-0.24
949.538	2.96
949.967	1.36
950.396	3.06
950.825	-2.44
951.254	3.56
951.682	-2.54
952.111	2.96
952.54	9.46
952.969	1.06
953.397	-7.44
953.826	1.96
954.254	-8.44
954.683	4.86
955.112	-1.94
955.54	-3.44
955.969	0.86
956.397	0.06
956.826	-2.04
957.254	14.66
957.682	1.16
958.111	10.66
958.539	3.46
958.967	-5.24
959.396	-0.64
959.824	6.06
960.252	3.56
960.68	-3.14
961.109	-0.14
961.537	-1.24
961.965	-2.54
962.393	3.36
962.821	-4.04
963.249	4.66
963.677	6.06
964.105	6.76
964.533	46.76
964.961	49.06
965.389	22.76
965.817	15.26
966.245	3.66
966.672	0.96
967.1	-9.74
967.528	-0.24
967.956	0.36
968.383	-0.44
968.811	-3.44
969.239	-2.04
969.666	-4.44
970.094	-2.54
970.522	5.26
970.949	-4.54
971.377	-4.54
971.804	2.76
972.232	-1.44
972.659	-2.34
973.087	-4.54
973.514	-3.74
973.941	-4.44
974.369	5.56
974.796	0.96
975.223	-2.34
975.651	-5.04
976.078	3.16
976.505	3.46
976.932	5.66
977.359	18.16
977.786	14.26
978.214	-0.04
978.641	-2.94
979.068	6.36
979.495	-4.74
979.922	-3.34
980.349	-3.74
980.776	1.36
981.202	-3.84
981.629	4.26
982.056	8.96
982.483	-4.24
982.91	1.16
983.337	-2.94
983.763	-0.94
984.19	-3.84
984.617	-1.94
985.043	-5.54
985.47	0.96
985.897	-0.44
986.323	-7.44
986.75	3.86
987.176	-0.44
987.603	-1.14
988.029	3.36
988.456	-3.44
988.882	2.46
989.308	-2.64
989.735	-7.94
990.161	6.36
990.587	1.76
991.014	0.66
991.44	12.76
991.866	-1.34
992.292	-4.34
992.719	-2.14
993.145	3.86
993.571	-5.74
993.997	-5.84
994.423	-1.34
994.849	-5.54
995.275	2.66
995.701	0.36
996.127	-0.04
996.553	2.46
996.979	-3.34
997.405	3.26
997.83	-9.34
998.256	-11.14
998.682	-9.64
999.108	-4.14
999.534	0.96
999.959	4.76
1000.385	-3.64
1000.811	2.36
1001.236	-9.64
1001.662	-5.24
1002.087	-8.04
1002.513	3.86
1002.938	7.16
1003.364	-2.84
1003.789	6.06
1004.215	2.06
1004.64	2.86
1005.066	6.76
1005.491	2.06
1005.916	0.66
1006.342	-3.54
1006.767	-4.24
1007.192	6.16
1007.617	-2.74
1008.042	-7.84
1008.468	-3.34
1008.893	2.26
1009.318	-2.24
1009.743	-8.14
1010.168	5.86
1010.593	3.86
1011.018	-9.34
1011.443	0.46
1011.868	-0.34
1012.293	-6.04
1012.718	3.36
1013.143	1.36
1013.567	-2.94
1013.992	-2.64
1014.417	-14.14
1014.842	2.66
1015.267	0.56
1015.691	-5.64
1016.116	2.36
1016.541	-1.64
1016.965	0.36
1017.39	2.96
1017.814	-0.14
1018.239	0.96
1018.663	-4.84
1019.088	-8.74
1019.512	-3.34
1019.937	-2.84
1020.361	-2.74
1020.785	-12.34
1021.21	-2.74
1021.634	2.66
1022.058	2.96
1022.483	6.66
1022.907	2.36
1023.331	2.36
1023.755	0.16
1024.179	-3.64
1024.604	-8.24
1025.028	-6.44
1025.452	-2.44
1025.876	-5.04
1026.3	-2.64
1026.724	-5.94
1027.148	-4.74
1027.572	-5.74
1027.996	-8.64
1028.42	-3.74
1028.843	-0.74
1029.267	-3.64
1029.691	3.06
1030.115	-7.84
1030.539	-7.64
1030.962	-9.34
1031.386	-3.74
1031.81	0.76
1032.233	-0.54
1032.657	-2.04
1033.08	-3.54
1033.504	0.16
1033.927	-4.84
1034.351	-1.74
1034.774	-4.44
1035.198	-0.84
1035.621	-0.24
1036.045	-4.34
1036.468	4.66
1036.891	-12.44
1037.315	-9.64
1037.738	-10.74
1038.161	1.36
1038.584	0.36
1039.008	-2.14
1039.431	-3.44
1039.854	-1.74
1040.277	-14.84
1040.7	-12.34
1041.123	1.86
1041.546	-2.54
1041.969	-5.44
1042.392	-4.44
1042.815	-1.24
1043.238	5.96
1043.661	2.76
1044.084	-4.64
1044.507	-8.54
1044.93	-1.04
1045.352	-6.44
1045.775	2.46
1046.198	3.16
1046.621	2.16
1047.043	1.96
1047.466	7.66
1047.889	-5.84
1048.311	-11.94
1048.734	1.36
1049.156	-1.64
1049.579	-0.04
1050.001	-6.94
1050.424	3.96
1050.846	1.46
1051.269	-0.54
1051.691	1.06
1052.113	-5.94
1052.536	1.36
1052.958	-2.74
1053.38	-8.74
1053.802	-10.84
1054.225	0.26
1054.647	-5.74
1055.069	0.26
1055.491	4.86
1055.913	-9.04
1056.335	3.26
1056.757	0.16
1057.179	-2.94
1057.601	-3.44
1058.023	-7.54
1058.445	-3.84
1058.867	-2.54
1059.289	-1.34
1059.711	-8.44
1060.133	-5.04
1060.555	-8.44
1060.976	-8.94
1061.398	-5.44
1061.82	-8.74
1062.241	-3.14
1062.663	-7.24
1063.085	-4.74
1063.506	0.16
1063.928	4.66
1064.35	2.46
1064.771	-9.14
1065.193	0.16
1065.614	-6.64
1066.035	-3.84
1066.457	-0.64
1066.878	0.76
1067.3	-4.34
1067.721	0.16
1068.142	-0.64
1068.564	-2.64
1068.985	-3.94
1069.406	-1.04
1069.827	-8.54
1070.248	-0.24
1070.67	-4.74
1071.091	-9.74
1071.512	-3.74
1071.933	-7.74
1072.354	-4.34
1072.775	-2.14
1073.196	-6.04
1073.617	-2.94
1074.038	-4.14
1074.459	-6.24
1074.88	-9.24
1075.3	-0.04
1075.721	-6.74
1076.142	-0.34
1076.563	-3.74
1076.983	-9.74
1077.404	-7.64
1077.825	-10.74
1078.246	-4.54
1078.666	-10.64
1079.087	0.76
1079.507	-3.44
1079.928	0.96
1080.348	-6.54
1080.769	-2.84
1081.189	0.06
1081.61	-1.74
1082.03	-1.54
1082.451	-5.04
1082.871	-2.14
1083.291	-8.94
1083.711	-7.44
1084.132	-1.54
1084.552	-7.84
1084.972	-3.64
1085.392	-3.54
1085.813	-7.64
1086.233	-4.74
1086.653	-5.94
1087.073	-5.74
1087.493	-10.64
1087.913	-2.24
1088.333	-3.24
1088.753	-5.44
1089.173	1.56
1089.593	-4.04
1090.013	5.86
1090.433	2.06
1090.852	-1.04
1091.272	-0.34
1091.692	-3.54
1092.112	0.56
1092.531	-5.84
1092.951	-11.34
1093.371	-5.64
1093.79	-0.24
1094.21	-3.84
1094.63	-0.34
1095.049	0.96
1095.469	-5.14
1095.888	-2.84
1096.308	4.36
1096.727	5.66
1097.146	-7.14
1097.566	2.16
1097.985	-10.54
1098.405	-4.74
1098.824	-1.94
1099.243	-7.94
1099.662	-7.64
1100.082	-7.14
1100.501	-2.04
1100.92	-5.94
1101.339	-4.94
1101.758	-9.64
