Data from 20171114-ORNL-Ar_H_NY_Subt18_08-06-06-812.txt Node
Date: Tue Nov 14 08:06:06 EST 2017
User: Ender
Spectrometer: HR+D1039
Trigger mode: 0
Integration Time (sec): 2.730000E-2
Scans to average: 10
Electric dark correction enabled: true
Nonlinearity correction enabled: false
Boxcar width: 0
XAxis mode: Wavelengths
Number of Pixels in Spectrum: 2048
>>>>>Begin Spectral Data<<<<<
187.836	-1.03
188.309	-1.03
188.782	-1.03
189.255	-0.43
189.728	-2.23
190.201	3.47
190.674	0.87
191.147	3.07
191.619	-2.43
192.092	-1.83
192.565	5.27
193.038	1.67
193.511	-0.93
193.984	2.77
194.456	-6.03
194.929	1.97
195.402	-0.83
195.874	-3.33
196.347	0.97
196.82	-8.03
197.292	4.37
197.765	0.97
198.237	-4.13
198.71	4.17
199.182	-1.13
199.655	-0.53
200.127	0.97
200.6	-1.03
201.072	-2.43
201.544	-2.73
202.017	-4.33
202.489	2.47
202.961	-5.13
203.433	-0.33
203.906	-8.43
204.378	-2.13
204.85	-3.03
205.322	-8.03
205.794	-2.63
206.266	-8.13
206.739	-8.03
207.211	0.77
207.683	-3.43
208.155	-5.33
208.627	-6.33
209.099	-1.53
209.57	-8.03
210.042	-7.63
210.514	-6.23
210.986	-4.83
211.458	-5.53
211.93	-1.83
212.402	1.37
212.873	-5.63
213.345	-5.53
213.817	-15.23
214.288	-8.13
214.76	-14.03
215.232	1.17
215.703	-9.63
216.175	-4.43
216.646	-1.03
217.118	-6.03
217.589	-2.43
218.061	-5.43
218.532	-4.43
219.004	-2.03
219.475	-1.93
219.946	-6.03
220.418	-10.43
220.889	3.07
221.36	3.77
221.832	-1.73
222.303	-5.73
222.774	3.87
223.245	-4.43
223.717	-7.53
224.188	-5.63
224.659	-10.63
225.13	-4.63
225.601	-2.43
226.072	6.27
226.543	-0.73
227.014	-0.23
227.485	-3.43
227.956	-7.33
228.427	-5.03
228.898	-1.63
229.369	5.27
229.839	-4.83
230.31	-5.43
230.781	1.67
231.252	-3.03
231.722	-6.83
232.193	0.37
232.664	0.47
233.135	1.17
233.605	-0.63
234.076	-2.83
234.546	-6.33
235.017	5.47
235.487	1.17
235.958	-0.93
236.428	-4.03
236.899	8.17
237.369	1.37
237.84	-2.33
238.31	4.07
238.78	1.17
239.251	-2.93
239.721	6.77
240.191	0.77
240.662	6.67
241.132	1.47
241.602	-0.03
242.072	2.27
242.542	2.27
243.013	1.67
243.483	1.67
243.953	3.87
244.423	2.57
244.893	-2.23
245.363	3.47
245.833	8.57
246.303	-1.73
246.773	3.87
247.243	4.67
247.712	2.07
248.182	7.87
248.652	8.97
249.122	-1.43
249.592	15.77
250.061	13.17
250.531	34.77
251.001	16.77
251.471	18.67
251.94	19.07
252.41	6.07
252.879	0.77
253.349	9.27
253.818	11.17
254.288	4.07
254.757	2.67
255.227	7.17
255.696	6.67
256.166	1.77
256.635	2.27
257.105	9.47
257.574	4.27
258.043	3.57
258.513	15.47
258.982	19.87
259.451	6.87
259.92	7.57
260.389	8.27
260.859	16.67
261.328	15.97
261.797	22.47
262.266	6.97
262.735	14.57
263.204	6.07
263.673	-2.13
264.142	5.77
264.611	-2.53
265.08	2.37
265.549	1.07
266.018	5.07
266.487	-2.43
266.955	-4.13
267.424	-1.73
267.893	3.37
268.362	6.37
268.83	2.87
269.299	4.87
269.768	6.87
270.236	7.67
270.705	1.27
271.174	8.27
271.642	7.07
272.111	8.87
272.579	22.07
273.048	27.37
273.516	27.77
273.985	32.17
274.453	26.37
274.922	17.97
275.39	15.57
275.858	5.87
276.327	9.47
276.795	18.37
277.263	11.37
277.731	30.37
278.2	59.87
278.668	61.37
279.136	51.77
279.604	18.77
280.072	16.77
280.54	10.07
281.008	9.17
281.477	7.87
281.945	17.97
282.413	14.97
282.881	11.37
283.348	12.67
283.816	18.87
284.284	15.87
284.752	23.77
285.22	21.77
285.688	17.97
286.156	23.97
286.623	46.77
287.091	56.77
287.559	33.77
288.026	22.47
288.494	23.57
288.962	10.97
289.429	11.87
289.897	15.67
290.364	15.37
290.832	15.47
291.3	14.27
291.767	19.47
292.234	22.57
292.702	16.97
293.169	16.97
293.637	24.67
294.104	24.27
294.571	12.57
295.039	18.57
295.506	16.97
295.973	15.87
296.44	14.37
296.908	22.57
297.375	21.27
297.842	19.37
298.309	12.67
298.776	16.47
299.243	23.87
299.71	19.37
300.177	26.57
300.644	24.97
301.111	19.87
301.578	21.57
302.045	17.47
302.512	22.57
302.979	25.37
303.446	21.97
303.913	22.87
304.379	17.17
304.846	27.57
305.313	26.07
305.78	27.07
306.246	29.57
306.713	34.27
307.18	25.47
307.646	32.07
308.113	31.57
308.579	28.47
309.046	25.37
309.512	27.07
309.979	17.77
310.445	31.27
310.912	34.97
311.378	28.07
311.845	31.97
312.311	36.87
312.777	37.27
313.244	33.77
313.71	37.77
314.176	27.37
314.642	32.87
315.109	31.17
315.575	38.17
316.041	44.77
316.507	34.87
316.973	32.67
317.439	40.97
317.905	37.77
318.371	38.17
318.837	30.27
319.303	29.07
319.769	35.17
320.235	39.47
320.701	39.57
321.167	41.87
321.633	39.47
322.099	42.47
322.564	48.27
323.03	41.77
323.496	41.27
323.962	45.47
324.427	33.37
324.893	42.67
325.359	39.27
325.824	37.27
326.29	36.37
326.755	41.17
327.221	51.87
327.686	42.47
328.152	45.67
328.617	42.07
329.083	51.67
329.548	53.07
330.014	47.67
330.479	41.07
330.944	46.97
331.41	45.17
331.875	50.17
332.34	42.27
332.805	46.97
333.271	49.07
333.736	44.27
334.201	56.77
334.666	54.67
335.131	54.47
335.596	54.27
336.061	43.37
336.526	47.17
336.991	51.67
337.456	57.27
337.921	51.57
338.386	48.37
338.851	53.27
339.316	51.57
339.781	53.87
340.246	53.87
340.711	48.67
341.175	52.87
341.64	52.27
342.105	49.67
342.569	56.27
343.034	65.97
343.499	59.07
343.963	59.37
344.428	65.17
344.893	63.27
345.357	59.87
345.822	65.37
346.286	70.97
346.751	76.27
347.215	72.27
347.679	81.47
348.144	102.67
348.608	88.97
349.073	72.47
349.537	74.57
350.001	78.17
350.465	93.97
350.93	77.67
351.394	85.37
351.858	71.97
352.322	94.37
352.786	87.27
353.25	105.97
353.715	110.97
354.179	102.47
354.643	130.27
355.107	126.27
355.571	114.37
356.035	101.57
356.498	117.07
356.962	128.67
357.426	124.97
357.89	107.87
358.354	90.47
358.818	87.77
359.281	84.77
359.745	78.57
360.209	74.57
360.673	76.17
361.136	86.07
361.6	91.57
362.064	90.67
362.527	85.27
362.991	92.87
363.454	90.37
363.918	79.87
364.381	80.47
364.845	83.57
365.308	89.87
365.772	89.07
366.235	87.37
366.698	83.37
367.162	95.77
367.625	90.47
368.088	90.37
368.552	88.97
369.015	91.57
369.478	97.77
369.941	106.47
370.404	103.47
370.867	110.47
371.331	111.67
371.794	117.17
372.257	111.47
372.72	117.67
373.183	111.67
373.646	109.67
374.109	106.97
374.572	107.97
375.035	108.17
375.497	113.67
375.96	109.37
376.423	110.67
376.886	112.57
377.349	113.57
377.811	108.57
378.274	110.67
378.737	114.77
379.199	114.37
379.662	117.07
380.125	121.47
380.587	117.07
381.05	122.97
381.512	130.17
381.975	139.77
382.437	136.77
382.9	129.47
383.362	130.57
383.825	149.07
384.287	152.77
384.75	147.57
385.212	149.47
385.674	137.77
386.136	137.07
386.599	130.27
387.061	125.77
387.523	129.77
387.985	137.17
388.447	146.87
388.91	144.07
389.372	157.57
389.834	150.17
390.296	142.57
390.758	157.47
391.22	172.27
391.682	212.67
392.144	297.37
392.606	233.17
393.068	175.27
393.529	162.77
393.991	163.17
394.453	155.87
394.915	157.67
395.377	194.57
395.838	211.57
396.3	158.17
396.762	144.87
397.224	137.27
397.685	129.97
398.147	133.87
398.608	132.07
399.07	137.57
399.531	144.17
399.993	146.87
400.454	157.27
400.916	148.47
401.377	153.87
401.839	160.77
402.3	154.87
402.762	177.67
403.223	187.47
403.684	174.97
404.145	168.07
404.607	166.97
405.068	168.47
405.529	177.37
405.99	191.57
406.451	177.97
406.913	179.27
407.374	170.27
407.835	164.27
408.296	165.17
408.757	173.97
409.218	192.77
409.679	185.77
410.14	175.37
410.601	188.97
411.062	193.97
411.522	201.47
411.983	197.67
412.444	179.47
412.905	186.67
413.366	187.87
413.826	197.97
414.287	224.77
414.748	277.07
415.208	253.37
415.669	218.87
416.13	214.87
416.59	201.67
417.051	217.87
417.511	223.37
417.972	238.57
418.432	251.87
418.893	295.67
419.353	257.57
419.814	207.47
420.274	186.47
420.734	189.37
421.195	206.17
421.655	204.57
422.115	192.77
422.576	196.27
423.036	205.47
423.496	212.27
423.956	221.37
424.416	239.27
424.876	278.27
425.336	271.77
425.797	270.77
426.257	260.87
426.717	249.27
427.177	241.27
427.637	231.97
428.097	239.77
428.556	250.37
429.016	277.17
429.476	279.87
429.936	274.57
430.396	274.47
430.856	305.17
431.315	329.67
431.775	358.97
432.235	396.07
432.694	364.97
433.154	374.97
433.614	397.07
434.073	350.47
434.533	287.67
434.993	276.87
435.452	293.77
435.912	308.67
436.371	298.47
436.83	296.07
437.29	279.27
437.749	258.47
438.209	249.17
438.668	281.07
439.127	298.47
439.587	271.07
440.046	253.97
440.505	265.47
440.964	283.67
441.424	337.27
441.883	325.77
442.342	270.27
442.801	228.57
443.26	227.07
443.719	232.77
444.178	223.47
444.637	219.47
445.096	231.07
445.555	231.87
446.014	229.67
446.473	233.37
446.932	234.17
447.391	242.37
447.849	237.37
448.308	220.77
448.767	228.87
449.226	244.17
449.685	248.77
450.143	248.47
450.602	237.87
451.061	233.17
451.519	246.37
451.978	237.17
452.436	237.67
452.895	244.67
453.353	258.87
453.812	238.57
454.27	242.07
454.729	244.87
455.187	247.17
455.646	256.67
456.104	254.77
456.562	269.07
457.021	275.87
457.479	273.77
457.937	276.47
458.395	273.17
458.854	256.07
459.312	262.87
459.77	280.07
460.228	264.77
460.686	247.37
461.144	248.07
461.602	255.87
462.06	244.17
462.518	264.77
462.976	265.97
463.434	258.47
463.892	271.37
464.35	283.07
464.808	297.27
465.266	272.97
465.724	275.47
466.181	278.67
466.639	277.57
467.097	303.67
467.555	314.07
468.012	311.47
468.47	321.07
468.928	344.77
469.385	354.97
469.843	360.17
470.3	361.87
470.758	373.87
471.215	398.17
471.673	419.47
472.13	425.87
472.588	430.47
473.045	381.67
473.503	385.77
473.96	405.87
474.417	418.37
474.875	449.67
475.332	485.37
475.789	478.27
476.246	485.87
476.704	498.77
477.161	515.77
477.618	533.47
478.075	582.07
478.532	631.77
478.989	709.97
479.446	832.87
479.903	795.57
480.36	828.37
480.817	886.47
481.274	997.37
481.731	1098.47
482.188	1194.57
482.645	1332.07
483.102	1431.27
483.558	1578.97
484.015	1625.47
484.472	1601.87
484.929	1564.17
485.385	1505.67
485.842	1459.77
486.299	1400.27
486.755	1343.77
487.212	1132.47
487.668	949.67
488.125	883.87
488.582	800.37
489.038	778.77
489.494	730.87
489.951	711.47
490.407	692.57
490.864	670.37
491.32	663.67
491.776	655.37
492.233	664.87
492.689	632.67
493.145	631.57
493.602	617.77
494.058	623.67
494.514	632.37
494.97	661.87
495.426	672.27
495.882	647.37
496.338	634.17
496.794	654.47
497.251	638.57
497.707	663.87
498.163	657.37
498.618	661.87
499.074	669.67
499.53	696.47
499.986	693.47
500.442	668.27
500.898	647.77
501.354	648.77
501.809	658.37
502.265	665.47
502.721	682.17
503.177	679.37
503.632	680.47
504.088	701.97
504.543	722.77
504.999	734.27
505.455	678.37
505.91	659.57
506.366	656.97
506.821	655.77
507.277	632.67
507.732	648.67
508.187	645.47
508.643	654.77
509.098	651.17
509.553	682.37
510.009	684.47
510.464	690.77
510.919	707.37
511.375	705.97
511.83	730.67
512.285	750.07
512.74	774.97
513.195	807.37
513.65	796.07
514.105	795.77
514.56	799.67
515.015	821.67
515.47	843.17
515.925	823.07
516.38	809.67
516.835	817.97
517.29	816.77
517.745	807.77
518.2	783.07
518.655	768.17
519.109	766.57
519.564	768.57
520.019	758.37
520.474	743.87
520.928	743.37
521.383	740.37
521.838	736.57
522.292	737.17
522.747	726.47
523.201	720.87
523.656	713.07
524.11	716.37
524.565	710.27
525.019	710.37
525.474	721.07
525.928	722.37
526.382	720.87
526.837	716.37
527.291	728.07
527.745	715.97
528.2	719.77
528.654	719.07
529.108	707.07
529.562	716.47
530.016	712.37
530.47	710.07
530.925	716.37
531.379	723.07
531.833	728.47
532.287	724.87
532.741	725.47
533.195	734.87
533.649	739.77
534.103	733.67
534.556	723.97
535.01	726.17
535.464	736.37
535.918	751.17
536.372	744.27
536.826	732.47
537.279	725.37
537.733	736.77
538.187	733.37
538.64	736.77
539.094	742.77
539.548	759.77
540.001	747.17
540.455	760.17
540.908	754.37
541.362	760.27
541.815	765.97
542.269	783.97
542.722	784.47
543.175	793.17
543.629	789.67
544.082	801.77
544.536	808.27
544.989	803.47
545.442	809.97
545.895	811.77
546.349	818.57
546.802	819.47
547.255	820.47
547.708	836.27
548.161	846.17
548.614	851.57
549.067	852.67
549.52	851.47
549.973	836.17
550.426	833.17
550.879	817.97
551.332	827.07
551.785	839.67
552.238	826.47
552.691	843.57
553.144	858.47
553.596	874.57
554.049	881.87
554.502	928.37
554.955	924.07
555.407	929.47
555.86	925.07
556.313	913.57
556.765	911.27
557.218	905.27
557.67	897.17
558.123	906.37
558.576	890.07
559.028	903.17
559.48	912.97
559.933	899.37
560.385	864.17
560.838	836.47
561.29	804.27
561.742	809.77
562.195	786.37
562.647	782.77
563.099	792.77
563.551	802.47
564.004	806.17
564.456	797.27
564.908	782.77
565.36	766.77
565.812	755.97
566.264	754.37
566.716	732.77
567.168	738.77
567.62	740.87
568.072	718.27
568.524	718.47
568.976	699.17
569.428	688.17
569.88	700.07
570.332	698.17
570.784	702.27
571.235	703.27
571.687	715.07
572.139	725.47
572.59	732.27
573.042	728.47
573.494	729.67
573.945	723.17
574.397	705.17
574.849	717.57
575.3	708.27
575.752	699.27
576.203	698.37
576.655	707.97
577.106	697.67
577.557	681.87
578.009	684.07
578.46	679.37
578.912	670.07
579.363	676.97
579.814	691.47
580.265	681.17
580.717	680.17
581.168	693.67
581.619	689.57
582.07	699.77
582.521	695.27
582.972	685.27
583.423	694.97
583.875	710.77
584.326	722.47
584.777	756.37
585.227	832.97
585.678	923.37
586.129	1001.07
586.58	1070.07
587.031	1159.27
587.482	1299.27
587.933	1489.17
588.384	1300.47
588.834	987.67
589.285	821.77
589.736	792.67
590.186	796.17
590.637	788.97
591.088	763.57
591.538	753.37
591.989	752.17
592.439	745.47
592.89	740.87
593.34	724.67
593.791	727.67
594.241	722.57
594.692	727.97
595.142	719.17
595.593	716.97
596.043	727.97
596.493	732.27
596.943	730.67
597.394	744.27
597.844	721.67
598.294	743.27
598.744	762.67
599.195	782.57
599.645	836.17
600.095	870.87
600.545	935.47
600.995	981.57
601.445	1044.17
601.895	1103.77
602.345	1156.97
602.795	1129.97
603.245	1080.17
603.695	1031.97
604.145	969.67
604.594	931.17
605.044	877.87
605.494	818.07
605.944	765.77
606.393	754.37
606.843	747.97
607.293	748.27
607.743	745.07
608.192	770.37
608.642	775.87
609.091	785.07
609.541	781.37
609.99	784.87
610.44	789.07
610.889	725.97
611.339	713.67
611.788	700.17
612.238	709.77
612.687	729.37
613.136	728.27
613.586	748.67
614.035	750.27
614.484	773.07
614.933	765.67
615.383	758.57
615.832	746.47
616.281	734.47
616.73	702.37
617.179	683.27
617.628	660.17
618.077	639.07
618.526	634.37
618.975	626.17
619.424	616.77
619.873	621.67
620.322	626.07
620.771	624.67
621.22	616.97
621.669	609.07
622.118	589.57
622.567	589.87
623.015	576.07
623.464	581.47
623.913	575.57
624.361	564.67
624.81	562.27
625.259	573.57
625.707	565.17
626.156	573.77
626.604	572.57
627.053	569.77
627.501	572.17
627.95	581.67
628.398	590.87
628.847	575.37
629.295	570.77
629.744	580.77
630.192	575.47
630.64	567.17
631.089	578.27
631.537	588.17
631.985	586.47
632.433	598.77
632.881	606.97
633.33	669.27
633.778	640.97
634.226	576.27
634.674	581.37
635.122	584.37
635.57	610.97
636.018	642.17
636.466	598.37
636.914	565.67
637.362	571.87
637.81	581.27
638.258	579.97
638.705	593.77
639.153	619.27
639.601	628.67
640.049	637.27
640.497	679.47
640.944	704.17
641.392	659.47
641.84	624.57
642.287	599.97
642.735	583.17
643.182	588.77
643.63	574.97
644.078	585.57
644.525	593.47
644.973	605.07
645.42	615.67
645.867	629.27
646.315	641.87
646.762	661.47
647.21	698.77
647.657	720.87
648.104	758.87
648.551	772.17
648.999	846.17
649.446	928.07
649.893	1022.27
650.34	1164.67
650.787	1395.57
651.234	1739.57
651.682	2272.17
652.129	3102.87
652.576	4438.37
653.023	6545.87
653.47	8980.67
653.917	11214.47
654.363	12984.97
654.81	14322.97
655.257	13638.07
655.704	8978.47
656.151	5308.57
656.598	3440.27
657.044	2448.77
657.491	1880.47
657.938	1502.77
658.385	1239.17
658.831	1100.37
659.278	963.27
659.724	864.77
660.171	793.57
660.618	722.97
661.064	696.47
661.511	667.97
661.957	658.47
662.404	645.57
662.85	659.17
663.296	625.97
663.743	570.67
664.189	536.47
664.635	537.57
665.082	543.57
665.528	533.37
665.974	528.87
666.42	520.47
666.867	508.47
667.313	494.67
667.759	483.77
668.205	484.67
668.651	492.27
669.097	487.67
669.543	505.27
669.989	477.97
670.435	449.67
670.881	447.77
671.327	451.37
671.773	474.77
672.219	492.87
672.665	548.87
673.11	591.37
673.556	630.87
674.002	671.07
674.448	656.67
674.893	548.87
675.339	474.97
675.785	442.37
676.23	416.57
676.676	391.87
677.122	376.87
677.567	370.47
678.013	373.47
678.458	360.47
678.904	357.87
679.349	348.87
679.794	362.27
680.24	355.57
680.685	355.47
681.131	350.47
681.576	347.27
682.021	365.47
682.466	351.57
682.912	346.57
683.357	357.37
683.802	383.07
684.247	408.87
684.692	454.27
685.137	503.67
685.583	537.57
686.028	571.37
686.473	511.67
686.918	447.87
687.363	416.47
687.807	396.77
688.252	375.87
688.697	353.87
689.142	340.07
689.587	325.97
690.032	328.67
690.477	349.47
690.921	349.97
691.366	382.37
691.811	403.97
692.255	432.47
692.7	462.57
693.145	495.87
693.589	691.37
694.034	1117.57
694.478	1544.77
694.923	1747.57
695.367	2277.47
695.812	1192.17
696.256	504.07
696.701	363.57
697.145	347.27
697.59	324.17
698.034	316.87
698.478	331.47
698.922	328.07
699.367	329.67
699.811	340.27
700.255	354.77
700.699	389.97
701.143	421.17
701.588	479.57
702.032	515.87
702.476	519.67
702.92	486.27
703.364	496.87
703.808	635.07
704.252	1027.17
704.696	1437.17
705.14	1669.67
705.584	2129.27
706.027	1065.77
706.471	518.87
706.915	404.37
707.359	349.57
707.803	324.37
708.246	311.07
708.69	309.77
709.134	316.97
709.577	310.07
710.021	317.67
710.465	300.67
710.908	297.87
711.352	296.97
711.795	312.47
712.239	351.57
712.682	387.37
713.126	416.77
713.569	463.37
714.012	356.67
714.456	316.67
714.899	298.27
715.342	276.87
715.786	262.77
716.229	263.37
716.672	257.47
717.115	247.37
717.558	247.57
718.002	250.77
718.445	263.27
718.888	287.87
719.331	298.07
719.774	308.17
720.217	315.57
720.66	279.37
721.103	269.27
721.546	255.07
721.989	251.17
722.432	231.87
722.874	237.57
723.317	236.47
723.76	233.27
724.203	255.47
724.645	317.77
725.088	442.67
725.531	571.37
725.974	642.87
726.416	547.87
726.859	309.67
727.301	246.47
727.744	236.87
728.187	230.57
728.629	236.77
729.071	239.87
729.514	255.77
729.956	272.17
730.399	286.67
730.841	285.67
731.283	279.47
731.726	263.67
732.168	256.67
732.61	260.17
733.053	285.77
733.495	310.57
733.937	348.37
734.379	400.67
734.821	437.27
735.263	536.77
735.705	824.37
736.148	1546.97
736.59	2554.47
737.032	3051.27
737.474	2471.27
737.916	809.77
738.357	419.77
738.799	328.37
739.241	302.17
739.683	286.07
740.125	291.17
740.567	297.77
741.008	315.07
741.45	321.17
741.892	315.77
742.334	347.37
742.775	363.07
743.217	348.97
743.658	271.77
744.1	251.17
744.542	262.47
744.983	313.27
745.425	347.87
745.866	342.77
746.307	283.07
746.749	279.27
747.19	315.67
747.632	449.67
748.073	861.87
748.514	1836.07
748.956	2826.97
749.397	3557.17
749.838	2955.17
750.279	2963.97
750.72	1502.77
751.162	537.47
751.603	321.67
752.044	257.77
752.485	220.57
752.926	206.47
753.367	202.07
753.808	191.97
754.249	188.67
754.69	184.87
755.131	180.97
755.572	180.27
756.013	177.07
756.453	185.27
756.894	190.57
757.335	184.57
757.776	197.57
758.216	194.37
758.657	196.57
759.098	197.87
759.538	229.57
759.979	265.67
760.42	371.57
760.86	685.97
761.301	1794.67
761.741	4352.97
762.182	6438.37
762.622	4525.57
763.063	1302.77
763.503	532.17
763.943	343.27
764.384	338.97
764.824	390.97
765.264	425.17
765.705	300.37
766.145	208.87
766.585	187.77
767.025	175.17
767.465	183.37
767.906	233.57
768.346	318.97
768.786	332.17
769.226	258.77
769.666	312.07
770.106	606.67
770.546	1533.47
770.986	2635.37
771.426	2385.47
771.866	790.57
772.306	320.67
772.745	206.97
773.185	174.97
773.625	169.97
774.065	164.07
774.505	190.27
774.944	294.57
775.384	640.57
775.824	1142.97
776.263	1124.77
776.703	487.07
777.142	214.07
777.582	160.27
778.021	136.97
778.461	138.07
778.9	136.37
779.34	134.47
779.779	121.77
780.219	111.17
780.658	115.27
781.097	107.77
781.537	116.07
781.976	114.47
782.415	108.47
782.855	101.17
783.294	104.07
783.733	103.87
784.172	110.87
784.611	100.07
785.05	108.47
785.489	109.17
785.928	117.87
786.367	118.27
786.806	114.87
787.245	124.87
787.684	138.17
788.123	153.17
788.562	133.77
789.001	125.47
789.44	126.17
789.879	114.77
790.317	124.97
790.756	127.27
791.195	128.07
791.634	149.17
792.072	203.07
792.511	352.57
792.95	979.97
793.388	2129.57
793.827	1922.47
794.265	675.87
794.704	279.17
795.142	183.27
795.581	150.77
796.019	128.57
796.458	136.27
796.896	122.27
797.334	128.77
797.773	149.57
798.211	219.77
798.649	428.77
799.087	1002.87
799.526	1571.57
799.964	2000.07
800.402	2009.37
800.84	760.97
801.278	296.67
801.716	188.57
802.154	152.87
802.592	147.47
803.03	142.47
803.468	134.47
803.906	135.97
804.344	141.97
804.782	134.97
805.22	138.77
805.658	132.07
806.096	144.47
806.533	149.87
806.971	172.77
807.409	219.27
807.847	308.47
808.284	651.87
808.722	1831.17
809.16	3272.07
809.597	3081.87
810.035	5353.97
810.472	5769.37
810.91	2078.87
811.347	786.27
811.785	394.27
812.222	248.87
812.66	191.57
813.097	172.57
813.535	138.47
813.972	130.17
814.409	117.97
814.846	109.77
815.284	109.97
815.721	98.97
816.158	110.77
816.595	118.57
817.032	183.27
817.47	193.67
817.907	170.07
818.344	148.57
818.781	114.97
819.218	96.77
819.655	122.07
820.092	183.17
820.529	215.87
820.966	174.17
821.403	133.87
821.839	113.77
822.276	103.27
822.713	120.07
823.15	139.47
823.587	112.27
824.023	143.97
824.46	286.17
824.897	876.67
825.333	1351.87
825.77	582.87
826.206	231.07
826.643	138.37
827.08	100.87
827.516	76.27
827.953	73.87
828.389	76.47
828.825	72.77
829.262	70.07
829.698	67.07
830.135	64.27
830.571	59.67
831.007	59.77
831.443	64.97
831.88	61.77
832.316	62.77
832.752	63.07
833.188	58.77
833.624	62.07
834.06	63.37
834.497	66.97
834.933	68.87
835.369	74.67
835.805	68.37
836.241	76.27
836.677	80.17
837.112	91.77
837.548	100.47
837.984	129.17
838.42	193.47
838.856	479.77
839.292	1488.57
839.727	2301.27
840.163	1058.37
840.599	909.37
841.034	2005.77
841.47	2123.47
841.906	765.27
842.341	328.87
842.777	223.87
843.212	301.57
843.648	297.27
844.083	149.77
844.519	98.77
844.954	79.17
845.39	57.37
845.825	55.37
846.261	56.87
846.696	55.27
847.131	55.67
847.566	60.47
848.002	51.97
848.437	52.47
848.872	60.27
849.307	60.57
849.742	84.87
850.177	181.27
850.613	550.37
851.048	870.47
851.483	378.37
851.918	154.87
852.353	79.07
852.788	64.87
853.223	57.27
853.657	48.87
854.092	46.87
854.527	37.77
854.962	36.27
855.397	45.07
855.832	47.87
856.266	39.77
856.701	39.87
857.136	37.27
857.57	42.17
858.005	48.17
858.44	59.47
858.874	41.67
859.309	50.47
859.743	36.27
860.178	40.37
860.612	40.17
861.047	55.47
861.481	65.77
861.915	68.07
862.35	49.87
862.784	38.57
863.218	37.97
863.653	31.17
864.087	46.87
864.521	48.07
864.955	73.27
865.39	161.27
865.824	183.67
866.258	117.57
866.692	158.07
867.126	174.77
867.56	103.87
867.994	50.97
868.428	35.97
868.862	46.47
869.296	54.27
869.73	60.67
870.164	53.87
870.598	49.97
871.031	36.47
871.465	33.07
871.899	33.47
872.333	27.77
872.766	27.07
873.2	28.17
873.634	29.07
874.067	28.87
874.501	21.67
874.935	30.77
875.368	27.47
875.802	23.97
876.235	19.27
876.669	22.67
877.102	21.57
877.535	27.67
877.969	28.07
878.402	25.47
878.836	21.87
879.269	28.47
879.702	19.97
880.135	25.47
880.569	21.97
881.002	30.87
881.435	23.07
881.868	18.07
882.301	27.87
882.734	14.57
883.167	26.77
883.601	18.97
884.034	18.47
884.467	13.77
884.899	16.77
885.332	20.67
885.765	13.97
886.198	16.97
886.631	22.87
887.064	14.57
887.497	24.47
887.929	27.57
888.362	16.17
888.795	10.37
889.228	19.07
889.66	17.57
890.093	16.37
890.526	12.07
890.958	17.67
891.391	15.67
891.823	23.27
892.256	20.37
892.688	6.37
893.121	13.97
893.553	14.87
893.985	15.07
894.418	14.17
894.85	14.37
895.282	15.87
895.715	14.97
896.147	20.07
896.579	15.67
897.011	17.27
897.444	19.37
897.876	8.97
898.308	21.37
898.74	14.17
899.172	14.97
899.604	23.07
900.036	17.77
900.468	20.37
900.9	11.87
901.332	21.07
901.764	12.07
902.196	19.47
902.628	13.27
903.06	19.37
903.491	37.97
903.923	25.47
904.355	19.97
904.787	19.67
905.218	14.77
905.65	22.57
906.082	9.37
906.513	13.27
906.945	15.97
907.376	14.37
907.808	15.57
908.239	19.07
908.671	17.07
909.102	16.67
909.534	22.17
909.965	44.67
910.397	90.47
910.828	309.97
911.259	473.87
911.691	217.97
912.122	106.27
912.553	50.17
912.984	32.67
913.415	22.97
913.847	22.57
914.278	9.67
914.709	9.57
915.14	16.47
915.571	12.57
916.002	12.17
916.433	18.27
916.864	14.37
917.295	12.87
917.726	26.27
918.157	15.07
918.587	25.27
919.018	21.37
919.449	18.87
919.88	20.87
920.311	32.87
920.741	54.17
921.172	160.97
921.603	151.57
922.033	74.17
922.464	43.77
922.895	18.97
923.325	19.37
923.756	21.57
924.186	18.77
924.617	27.87
925.047	42.17
925.478	46.57
925.908	44.27
926.338	25.17
926.769	16.77
927.199	23.87
927.629	4.77
928.06	17.87
928.49	15.37
928.92	9.27
929.35	9.57
929.78	7.97
930.21	14.17
930.641	8.87
931.071	10.37
931.501	4.47
931.931	6.77
932.361	8.27
932.791	5.87
933.221	8.27
933.651	5.77
934.08	17.87
934.51	25.17
934.94	7.37
935.37	8.47
935.8	10.57
936.229	11.27
936.659	10.37
937.089	1.37
937.519	12.57
937.948	21.77
938.378	10.37
938.807	8.77
939.237	6.87
939.666	7.37
940.096	-5.93
940.525	-0.33
940.955	7.77
941.384	4.17
941.814	-6.23
942.243	3.77
942.672	7.37
943.102	-3.13
943.531	-2.03
943.96	5.97
944.39	1.07
944.819	4.07
945.248	4.17
945.677	0.77
946.106	4.07
946.535	3.67
946.964	1.17
947.393	1.87
947.822	-0.43
948.251	-1.23
948.68	2.97
949.109	2.77
949.538	6.77
949.967	6.07
950.396	-2.73
950.825	2.27
951.254	0.87
951.682	-2.53
952.111	-2.03
952.54	5.67
952.969	-6.53
953.397	-2.63
953.826	3.17
954.254	-6.73
954.683	5.07
955.112	-1.43
955.54	-0.23
955.969	4.47
956.397	4.57
956.826	-3.73
957.254	3.17
957.682	3.37
958.111	4.87
958.539	-3.53
958.967	2.07
959.396	-0.73
959.824	-1.73
960.252	-2.43
960.68	-11.13
961.109	-1.73
961.537	-4.33
961.965	2.37
962.393	-1.93
962.821	-6.93
963.249	-0.83
963.677	12.67
964.105	11.47
964.533	40.07
964.961	39.67
965.389	20.47
965.817	9.07
966.245	-3.13
966.672	0.07
967.1	-3.03
967.528	1.67
967.956	-2.63
968.383	0.67
968.811	-2.93
969.239	-1.83
969.666	2.57
970.094	2.57
970.522	-4.63
970.949	0.87
971.377	-0.53
971.804	0.07
972.232	-1.43
972.659	2.37
973.087	-7.63
973.514	-1.13
973.941	1.47
974.369	2.37
974.796	4.37
975.223	2.77
975.651	-2.83
976.078	4.87
976.505	3.17
976.932	9.47
977.359	14.47
977.786	11.87
978.214	-0.83
978.641	-6.23
979.068	-4.13
979.495	-4.93
979.922	-1.93
980.349	-9.93
980.776	-0.03
981.202	-4.23
981.629	1.57
982.056	3.47
982.483	2.47
982.91	-1.43
983.337	-7.73
983.763	-0.83
984.19	-6.23
984.617	-7.13
985.043	-2.93
985.47	-0.33
985.897	-2.53
986.323	5.97
986.75	3.77
987.176	-1.33
987.603	-5.73
988.029	0.07
988.456	-0.93
988.882	4.07
989.308	-5.13
989.735	-6.03
990.161	2.37
990.587	-3.63
991.014	0.97
991.44	5.17
991.866	-0.83
992.292	-2.23
992.719	-7.23
993.145	3.17
993.571	-10.13
993.997	-4.93
994.423	-5.93
994.849	-3.33
995.275	-2.03
995.701	-0.53
996.127	-2.43
996.553	2.57
996.979	-3.23
997.405	-1.73
997.83	-3.43
998.256	-8.13
998.682	-3.93
999.108	-9.83
999.534	-4.73
999.959	-4.63
1000.385	-4.93
1000.811	-0.83
1001.236	-5.63
1001.662	-1.53
1002.087	-8.93
1002.513	-1.43
1002.938	1.27
1003.364	-5.23
1003.789	4.47
1004.215	7.17
1004.64	-3.33
1005.066	-1.93
1005.491	2.27
1005.916	-2.93
1006.342	-8.23
1006.767	-5.33
1007.192	5.67
1007.617	-7.63
1008.042	0.17
1008.468	-2.43
1008.893	-3.63
1009.318	-2.83
1009.743	-1.43
1010.168	3.47
1010.593	-3.93
1011.018	-8.03
1011.443	-2.93
1011.868	2.07
1012.293	-1.53
1012.718	-7.13
1013.143	2.37
1013.567	-0.53
1013.992	-3.73
1014.417	-11.53
1014.842	-0.83
1015.267	-8.23
1015.691	-7.63
1016.116	4.57
1016.541	-2.63
1016.965	-4.63
1017.39	-1.63
1017.814	-4.83
1018.239	-1.23
1018.663	-7.43
1019.088	-13.43
1019.512	-3.83
1019.937	1.67
1020.361	-7.73
1020.785	-11.13
1021.21	-2.73
1021.634	-4.73
1022.058	-5.53
1022.483	3.67
1022.907	-2.13
1023.331	-5.83
1023.755	-7.33
1024.179	1.27
1024.604	-4.73
1025.028	-0.83
1025.452	-7.93
1025.876	-2.33
1026.3	6.67
1026.724	-5.53
1027.148	-5.93
1027.572	-11.93
1027.996	-6.43
1028.42	-4.13
1028.843	-5.83
1029.267	-5.23
1029.691	-6.33
1030.115	-8.83
1030.539	-6.63
1030.962	-5.23
1031.386	-10.63
1031.81	1.97
1032.233	-2.03
1032.657	-1.33
1033.08	-2.03
1033.504	-3.53
1033.927	-3.83
1034.351	-0.53
1034.774	-3.83
1035.198	-4.23
1035.621	-3.13
1036.045	-7.13
1036.468	1.07
1036.891	-9.13
1037.315	-3.93
1037.738	-5.73
1038.161	-1.33
1038.584	-10.73
1039.008	-8.43
1039.431	-5.33
1039.854	-0.43
1040.277	-8.53
1040.7	-9.13
1041.123	-3.03
1041.546	-5.03
1041.969	0.67
1042.392	-10.83
1042.815	-5.93
1043.238	-2.33
1043.661	2.27
1044.084	-7.73
1044.507	-5.63
1044.93	-5.33
1045.352	-0.23
1045.775	-5.53
1046.198	0.37
1046.621	-11.23
1047.043	-2.53
1047.466	7.07
1047.889	-2.03
1048.311	-4.93
1048.734	-7.53
1049.156	-2.63
1049.579	-0.03
1050.001	-7.23
1050.424	-5.13
1050.846	-3.03
1051.269	-0.13
1051.691	-4.03
1052.113	-4.23
1052.536	-5.63
1052.958	-7.03
1053.38	-6.43
1053.802	-14.83
1054.225	2.07
1054.647	-7.53
1055.069	-11.03
1055.491	-0.13
1055.913	-6.53
1056.335	-4.33
1056.757	-6.13
1057.179	-7.33
1057.601	-10.23
1058.023	-2.13
1058.445	-11.13
1058.867	-3.93
1059.289	-4.13
1059.711	-0.83
1060.133	-2.43
1060.555	-6.63
1060.976	-4.63
1061.398	-7.43
1061.82	-1.23
1062.241	-4.13
1062.663	-5.83
1063.085	-0.93
1063.506	-0.53
1063.928	-3.83
1064.35	-1.43
1064.771	-12.23
1065.193	1.97
1065.614	-13.53
1066.035	-5.13
1066.457	-5.73
1066.878	-4.33
1067.3	-8.63
1067.721	-6.33
1068.142	-7.03
1068.564	-5.83
1068.985	-9.23
1069.406	-8.03
1069.827	-10.73
1070.248	-8.73
1070.67	-4.63
1071.091	-4.53
1071.512	1.77
1071.933	-5.43
1072.354	-7.73
1072.775	-5.23
1073.196	-10.33
1073.617	-10.23
1074.038	-6.63
1074.459	-5.93
1074.88	-5.63
1075.3	-0.03
1075.721	-3.33
1076.142	5.27
1076.563	2.77
1076.983	-11.33
1077.404	-8.63
1077.825	-7.43
1078.246	-9.33
1078.666	-12.33
1079.087	-4.53
1079.507	-11.13
1079.928	-3.93
1080.348	-0.03
1080.769	-7.23
1081.189	-1.53
1081.61	0.57
1082.03	-5.23
1082.451	-6.73
1082.871	1.17
1083.291	-8.73
1083.711	-8.43
1084.132	-8.53
1084.552	-5.53
1084.972	-3.73
1085.392	-14.03
1085.813	-9.73
1086.233	-5.83
1086.653	-2.03
1087.073	-0.53
1087.493	-10.53
1087.913	-5.03
1088.333	-5.73
1088.753	-3.83
1089.173	-0.53
1089.593	-0.63
1090.013	0.77
1090.433	-0.93
1090.852	-3.63
1091.272	-3.63
1091.692	-6.13
1092.112	-0.93
1092.531	-9.53
1092.951	-15.83
1093.371	-0.53
1093.79	4.77
1094.21	-8.43
1094.63	-2.63
1095.049	-3.13
1095.469	-5.43
1095.888	-11.73
1096.308	2.37
1096.727	0.47
1097.146	-4.93
1097.566	-3.53
1097.985	-6.63
1098.405	4.07
1098.824	-8.13
1099.243	-4.43
1099.662	-5.03
1100.082	0.27
1100.501	-0.53
1100.92	-11.23
1101.339	-9.33
1101.758	-11.73
