Data from 20171114-ORNL-Ar_H_NY_Subt18_08-08-49-261.txt Node
Date: Tue Nov 14 08:08:49 EST 2017
User: Ender
Spectrometer: HR+D1039
Trigger mode: 0
Integration Time (sec): 2.730000E-2
Scans to average: 10
Electric dark correction enabled: true
Nonlinearity correction enabled: false
Boxcar width: 0
XAxis mode: Wavelengths
Number of Pixels in Spectrum: 2048
>>>>>Begin Spectral Data<<<<<
187.836	-4.19
188.309	-4.19
188.782	-4.19
189.255	2.21
189.728	-2.19
190.201	3.61
190.674	-0.89
191.147	-1.19
191.619	-6.99
192.092	3.51
192.565	3.71
193.038	-0.19
193.511	2.61
193.984	2.21
194.456	-4.49
194.929	4.01
195.402	-1.59
195.874	-0.19
196.347	-5.39
196.82	-7.49
197.292	1.51
197.765	-7.49
198.237	-12.59
198.71	1.21
199.182	-1.79
199.655	4.71
200.127	2.01
200.6	-1.79
201.072	0.71
201.544	-0.69
202.017	0.31
202.489	6.11
202.961	5.51
203.433	-2.09
203.906	-3.59
204.378	-6.59
204.85	-2.79
205.322	-8.59
205.794	-4.99
206.266	-3.09
206.739	-10.29
207.211	3.21
207.683	-5.99
208.155	0.51
208.627	-6.79
209.099	-1.39
209.57	-7.29
210.042	-6.29
210.514	-6.29
210.986	-7.69
211.458	-10.29
211.93	-3.29
212.402	-2.29
212.873	-6.49
213.345	-12.29
213.817	-9.39
214.288	-8.09
214.76	-14.89
215.232	1.11
215.703	-0.49
216.175	-6.69
216.646	-6.69
217.118	-8.49
217.589	-3.49
218.061	-5.19
218.532	-0.09
219.004	0.21
219.475	-2.99
219.946	-1.69
220.418	-9.49
220.889	1.51
221.36	-0.49
221.832	-4.79
222.303	-4.99
222.774	-4.59
223.245	-5.59
223.717	0.21
224.188	-10.29
224.659	-7.59
225.13	0.21
225.601	-0.29
226.072	1.81
226.543	-1.39
227.014	-4.19
227.485	0.71
227.956	-10.09
228.427	-5.29
228.898	3.11
229.369	1.01
229.839	-4.69
230.31	-5.69
230.781	-1.09
231.252	-5.09
231.722	-12.89
232.193	-9.19
232.664	-4.69
233.135	-2.39
233.605	-2.59
234.076	-3.99
234.546	4.11
235.017	5.11
235.487	-0.79
235.958	-0.99
236.428	-1.29
236.899	-6.69
237.369	5.61
237.84	-4.29
238.31	1.51
238.78	-3.39
239.251	-3.19
239.721	-6.89
240.191	-5.69
240.662	-2.69
241.132	-3.89
241.602	-2.79
242.072	-6.49
242.542	1.61
243.013	0.71
243.483	-1.99
243.953	3.21
244.423	1.31
244.893	-9.99
245.363	-2.39
245.833	2.21
246.303	-2.79
246.773	0.71
247.243	-0.29
247.712	-1.29
248.182	-1.19
248.652	-0.29
249.122	-5.49
249.592	-0.69
250.061	-1.59
250.531	6.41
251.001	-3.99
251.471	2.81
251.94	6.61
252.41	1.71
252.879	-5.29
253.349	9.21
253.818	1.41
254.288	-1.49
254.757	2.01
255.227	-2.99
255.696	1.11
256.166	-0.39
256.635	-0.19
257.105	6.51
257.574	0.61
258.043	2.81
258.513	-2.89
258.982	4.81
259.451	-4.49
259.92	0.51
260.389	5.41
260.859	8.91
261.328	2.71
261.797	3.51
262.266	-0.69
262.735	9.51
263.204	4.81
263.673	-5.89
264.142	10.81
264.611	-9.09
265.08	-1.39
265.549	-3.29
266.018	3.71
266.487	-3.99
266.955	0.21
267.424	-2.59
267.893	3.41
268.362	-3.59
268.83	-0.69
269.299	6.51
269.768	6.71
270.236	-0.19
270.705	-5.89
271.174	-1.79
271.642	-2.39
272.111	7.61
272.579	2.31
273.048	4.71
273.516	-2.89
273.985	8.41
274.453	10.21
274.922	5.71
275.39	3.51
275.858	-1.79
276.327	5.81
276.795	7.11
277.263	6.01
277.731	12.91
278.2	12.71
278.668	9.11
279.136	10.91
279.604	1.01
280.072	10.21
280.54	3.81
281.008	8.11
281.477	7.61
281.945	5.41
282.413	5.01
282.881	10.21
283.348	2.31
283.816	8.61
284.284	5.31
284.752	13.31
285.22	6.51
285.688	7.91
286.156	11.51
286.623	21.81
287.091	13.91
287.559	13.41
288.026	10.81
288.494	12.81
288.962	4.91
289.429	2.91
289.897	15.81
290.364	13.01
290.832	15.31
291.3	11.41
291.767	8.41
292.234	12.81
292.702	6.91
293.169	15.11
293.637	19.11
294.104	16.61
294.571	4.91
295.039	6.41
295.506	8.31
295.973	8.51
296.44	8.61
296.908	10.71
297.375	8.61
297.842	10.81
298.309	10.71
298.776	0.51
299.243	12.21
299.71	5.91
300.177	17.91
300.644	18.71
301.111	10.41
301.578	18.71
302.045	4.71
302.512	13.31
302.979	17.91
303.446	12.61
303.913	9.71
304.379	8.21
304.846	21.11
305.313	20.91
305.78	11.81
306.246	18.21
306.713	17.71
307.18	17.61
307.646	19.81
308.113	17.71
308.579	13.61
309.046	17.01
309.512	16.31
309.979	16.71
310.445	19.71
310.912	21.91
311.378	23.41
311.845	25.31
312.311	23.91
312.777	25.01
313.244	29.31
313.71	37.61
314.176	25.21
314.642	25.21
315.109	19.51
315.575	20.31
316.041	32.01
316.507	24.51
316.973	24.51
317.439	28.21
317.905	26.91
318.371	25.11
318.837	26.91
319.303	27.91
319.769	28.31
320.235	29.31
320.701	26.91
321.167	22.81
321.633	26.31
322.099	27.41
322.564	33.71
323.03	24.21
323.496	30.11
323.962	28.71
324.427	21.81
324.893	35.51
325.359	32.51
325.824	32.71
326.29	28.01
326.755	30.91
327.221	33.01
327.686	29.91
328.152	38.21
328.617	34.61
329.083	40.71
329.548	42.81
330.014	34.41
330.479	32.01
330.944	36.01
331.41	35.51
331.875	42.91
332.34	36.81
332.805	34.61
333.271	35.61
333.736	29.41
334.201	41.31
334.666	42.61
335.131	47.01
335.596	42.21
336.061	38.51
336.526	30.81
336.991	38.51
337.456	47.91
337.921	42.51
338.386	42.71
338.851	46.21
339.316	45.11
339.781	44.11
340.246	50.11
340.711	43.41
341.175	45.81
341.64	38.91
342.105	46.41
342.569	45.61
343.034	46.61
343.499	45.81
343.963	47.61
344.428	57.21
344.893	53.91
345.357	49.51
345.822	53.41
346.286	56.11
346.751	65.51
347.215	60.11
347.679	62.91
348.144	75.81
348.608	65.71
349.073	61.21
349.537	63.61
350.001	67.91
350.465	78.21
350.93	71.81
351.394	67.41
351.858	56.61
352.322	75.11
352.786	76.01
353.25	86.21
353.715	92.01
354.179	79.01
354.643	103.51
355.107	101.81
355.571	84.51
356.035	89.41
356.498	97.01
356.962	103.11
357.426	107.21
357.89	94.21
358.354	77.51
358.818	75.21
359.281	74.41
359.745	65.81
360.209	67.61
360.673	68.21
361.136	72.11
361.6	76.51
362.064	71.81
362.527	73.31
362.991	82.61
363.454	68.61
363.918	60.41
364.381	72.91
364.845	71.21
365.308	78.61
365.772	74.91
366.235	71.71
366.698	70.21
367.162	78.31
367.625	75.91
368.088	77.81
368.552	81.11
369.015	79.51
369.478	87.11
369.941	86.51
370.404	81.21
370.867	89.81
371.331	94.31
371.794	97.01
372.257	89.81
372.72	104.41
373.183	85.61
373.646	86.91
374.109	89.81
374.572	89.01
375.035	94.51
375.497	100.71
375.96	91.01
376.423	94.71
376.886	103.41
377.349	103.11
377.811	95.41
378.274	92.01
378.737	91.81
379.199	97.31
379.662	104.31
380.125	106.41
380.587	103.71
381.05	106.01
381.512	112.71
381.975	114.31
382.437	111.41
382.9	109.61
383.362	115.61
383.825	121.71
384.287	118.21
384.75	111.51
385.212	118.21
385.674	116.61
386.136	123.81
386.599	110.41
387.061	118.31
387.523	125.31
387.985	117.01
388.447	122.41
388.91	119.31
389.372	121.31
389.834	123.51
390.296	128.41
390.758	125.81
391.22	123.71
391.682	150.51
392.144	156.41
392.606	145.51
393.068	133.91
393.529	145.41
393.991	136.11
394.453	134.61
394.915	137.51
395.377	135.31
395.838	137.11
396.3	129.81
396.762	129.71
397.224	132.61
397.685	126.51
398.147	127.01
398.608	122.01
399.07	128.91
399.531	128.41
399.993	145.41
400.454	153.91
400.916	137.11
401.377	138.01
401.839	150.61
402.3	146.71
402.762	163.41
403.223	167.51
403.684	163.01
404.145	150.81
404.607	153.91
405.068	154.31
405.529	164.31
405.99	176.11
406.451	172.31
406.913	167.61
407.374	157.81
407.835	160.21
408.296	162.31
408.757	168.91
409.218	183.21
409.679	178.81
410.14	175.81
410.601	182.41
411.062	176.71
411.522	178.01
411.983	173.21
412.444	168.01
412.905	177.61
413.366	183.71
413.826	198.81
414.287	219.71
414.748	273.31
415.208	250.91
415.669	213.71
416.13	212.81
416.59	206.71
417.051	221.41
417.511	222.11
417.972	242.81
418.432	247.01
418.893	294.91
419.353	261.11
419.814	198.21
420.274	178.21
420.734	180.91
421.195	199.11
421.655	191.21
422.115	197.91
422.576	193.91
423.036	201.51
423.496	213.41
423.956	221.71
424.416	232.11
424.876	269.21
425.336	271.41
425.797	261.61
426.257	255.01
426.717	246.01
427.177	239.11
427.637	232.11
428.097	227.71
428.556	244.61
429.016	266.61
429.476	270.21
429.936	271.91
430.396	280.11
430.856	291.11
431.315	312.71
431.775	337.91
432.235	372.61
432.694	337.91
433.154	357.41
433.614	386.91
434.073	333.91
434.533	279.61
434.993	266.81
435.452	279.91
435.912	296.41
436.371	292.71
436.83	282.61
437.29	261.61
437.749	245.81
438.209	250.41
438.668	267.11
439.127	285.11
439.587	263.91
440.046	251.11
440.505	253.91
440.964	272.31
441.424	320.31
441.883	308.61
442.342	259.71
442.801	235.81
443.26	231.81
443.719	228.21
444.178	231.41
444.637	224.61
445.096	230.91
445.555	233.41
446.014	230.21
446.473	235.51
446.932	236.21
447.391	229.91
447.849	239.81
448.308	223.41
448.767	233.11
449.226	238.11
449.685	238.91
450.143	248.41
450.602	244.31
451.061	236.61
451.519	242.41
451.978	244.71
452.436	242.11
452.895	239.51
453.353	260.31
453.812	249.21
454.27	252.51
454.729	251.21
455.187	243.41
455.646	250.71
456.104	259.61
456.562	264.51
457.021	276.71
457.479	271.61
457.937	275.51
458.395	271.91
458.854	269.51
459.312	265.51
459.77	278.41
460.228	265.31
460.686	256.51
461.144	257.01
461.602	248.41
462.06	253.61
462.518	261.11
462.976	257.31
463.434	269.41
463.892	272.31
464.35	290.11
464.808	292.61
465.266	277.21
465.724	279.21
466.181	289.11
466.639	276.81
467.097	295.01
467.555	310.71
468.012	306.51
468.47	314.51
468.928	342.51
469.385	353.11
469.843	355.51
470.3	362.41
470.758	370.21
471.215	396.11
471.673	412.61
472.13	420.91
472.588	435.81
473.045	395.91
473.503	393.51
473.96	414.81
474.417	410.71
474.875	442.11
475.332	487.21
475.789	474.91
476.246	480.01
476.704	494.11
477.161	519.21
477.618	527.81
478.075	568.31
478.532	615.21
478.989	689.61
479.446	799.21
479.903	764.81
480.36	789.11
480.817	845.41
481.274	941.11
481.731	1030.61
482.188	1102.81
482.645	1231.11
483.102	1315.21
483.558	1436.61
484.015	1478.61
484.472	1448.91
484.929	1405.91
485.385	1368.51
485.842	1323.01
486.299	1285.71
486.755	1249.71
487.212	1064.51
487.668	916.51
488.125	845.01
488.582	786.91
489.038	743.51
489.494	716.31
489.951	687.41
490.407	673.31
490.864	654.31
491.32	650.81
491.776	652.11
492.233	662.51
492.689	629.81
493.145	625.61
493.602	617.51
494.058	631.61
494.514	632.21
494.97	660.41
495.426	665.11
495.882	638.41
496.338	623.91
496.794	636.61
497.251	624.01
497.707	640.51
498.163	640.71
498.618	651.81
499.074	646.41
499.53	683.81
499.986	673.11
500.442	651.71
500.898	643.61
501.354	635.11
501.809	635.91
502.265	638.21
502.721	655.11
503.177	658.21
503.632	662.81
504.088	671.91
504.543	683.31
504.999	702.41
505.455	665.91
505.91	652.31
506.366	667.31
506.821	647.81
507.277	655.01
507.732	652.41
508.187	650.21
508.643	663.91
509.098	664.71
509.553	682.31
510.009	687.81
510.464	699.41
510.919	712.91
511.375	719.51
511.83	732.71
512.285	738.11
512.74	776.01
513.195	801.41
513.65	799.91
514.105	787.31
514.56	793.81
515.015	811.41
515.47	822.81
515.925	801.31
516.38	806.11
516.835	813.71
517.29	806.51
517.745	793.01
518.2	779.21
518.655	773.61
519.109	758.51
519.564	762.81
520.019	753.41
520.474	748.41
520.928	748.01
521.383	734.81
521.838	733.41
522.292	737.31
522.747	739.31
523.201	729.91
523.656	716.61
524.11	716.21
524.565	726.21
525.019	710.11
525.474	720.91
525.928	723.41
526.382	718.71
526.837	721.71
527.291	726.11
527.745	723.81
528.2	725.01
528.654	717.61
529.108	711.31
529.562	706.51
530.016	707.71
530.47	710.71
530.925	706.91
531.379	720.01
531.833	725.01
532.287	725.51
532.741	719.01
533.195	724.91
533.649	732.31
534.103	736.11
534.556	727.61
535.01	730.31
535.464	717.61
535.918	741.21
536.372	742.61
536.826	743.61
537.279	726.51
537.733	719.81
538.187	736.31
538.64	736.51
539.094	737.41
539.548	749.81
540.001	744.91
540.455	758.11
540.908	755.81
541.362	760.21
541.815	771.01
542.269	782.91
542.722	785.11
543.175	794.11
543.629	804.61
544.082	817.31
544.536	812.21
544.989	807.21
545.442	822.91
545.895	814.41
546.349	818.91
546.802	816.71
547.255	833.51
547.708	836.31
548.161	851.31
548.614	841.71
549.067	853.81
549.52	844.61
549.973	842.11
550.426	831.21
550.879	828.61
551.332	828.61
551.785	841.21
552.238	836.51
552.691	852.01
553.144	869.01
553.596	878.71
554.049	899.51
554.502	925.91
554.955	938.81
555.407	949.71
555.86	930.31
556.313	921.61
556.765	904.51
557.218	910.21
557.67	916.31
558.123	915.01
558.576	899.01
559.028	905.21
559.48	920.41
559.933	898.11
560.385	876.31
560.838	840.71
561.29	826.51
561.742	816.71
562.195	811.41
562.647	800.91
563.099	814.31
563.551	809.31
564.004	820.31
564.456	803.41
564.908	783.91
565.36	768.51
565.812	760.31
566.264	748.51
566.716	743.71
567.168	738.01
567.62	750.01
568.072	727.11
568.524	721.61
568.976	721.51
569.428	707.31
569.88	708.31
570.332	706.31
570.784	703.61
571.235	711.01
571.687	719.01
572.139	734.91
572.59	748.41
573.042	735.31
573.494	740.91
573.945	740.51
574.397	713.21
574.849	719.61
575.3	714.31
575.752	709.11
576.203	714.81
576.655	715.41
577.106	710.21
577.557	697.01
578.009	697.51
578.46	700.11
578.912	686.11
579.363	692.11
579.814	704.71
580.265	692.01
580.717	689.51
581.168	700.21
581.619	707.31
582.07	704.11
582.521	705.01
582.972	701.41
583.423	706.11
583.875	700.61
584.326	704.51
584.777	729.51
585.227	755.01
585.678	781.51
586.129	799.91
586.58	831.11
587.031	851.71
587.482	897.01
587.933	940.81
588.384	896.61
588.834	833.31
589.285	815.21
589.736	814.41
590.186	801.21
590.637	793.61
591.088	776.21
591.538	770.91
591.989	764.41
592.439	753.41
592.89	744.71
593.34	734.01
593.791	730.61
594.241	731.91
594.692	732.71
595.142	728.71
595.593	720.21
596.043	728.91
596.493	742.41
596.943	729.71
597.394	752.11
597.844	756.11
598.294	763.31
598.744	793.71
599.195	816.81
599.645	863.11
600.095	900.41
600.545	954.61
600.995	1017.21
601.445	1077.21
601.895	1139.61
602.345	1173.21
602.795	1167.61
603.245	1118.21
603.695	1052.01
604.145	993.01
604.594	954.21
605.044	907.71
605.494	826.71
605.944	791.21
606.393	781.81
606.843	761.01
607.293	756.91
607.743	756.41
608.192	770.41
608.642	791.41
609.091	787.81
609.541	804.71
609.99	798.61
610.44	791.61
610.889	753.51
611.339	727.31
611.788	713.51
612.238	720.21
612.687	734.31
613.136	725.01
613.586	730.61
614.035	737.91
614.484	751.61
614.933	742.21
615.383	739.01
615.832	734.31
616.281	737.61
616.73	704.71
617.179	688.41
617.628	671.51
618.077	662.81
618.526	648.61
618.975	638.51
619.424	648.01
619.873	643.31
620.322	645.61
620.771	635.01
621.22	635.61
621.669	615.51
622.118	611.31
622.567	599.11
623.015	599.21
623.464	584.41
623.913	585.11
624.361	571.41
624.81	584.21
625.259	579.31
625.707	576.31
626.156	577.21
626.604	593.21
627.053	592.21
627.501	596.11
627.95	590.71
628.398	608.51
628.847	593.81
629.295	587.11
629.744	604.71
630.192	593.91
630.64	584.31
631.089	580.61
631.537	569.21
631.985	562.71
632.433	568.31
632.881	551.21
633.33	565.71
633.778	552.61
634.226	551.11
634.674	568.51
635.122	570.61
635.57	573.41
636.018	589.61
636.466	597.91
636.914	577.71
637.362	590.61
637.81	600.41
638.258	609.41
638.705	614.41
639.153	643.01
639.601	647.31
640.049	673.01
640.497	702.61
640.944	725.51
641.392	680.41
641.84	637.31
642.287	612.41
642.735	582.91
643.182	595.81
643.63	585.51
644.078	585.31
644.525	608.31
644.973	608.81
645.42	614.71
645.867	651.11
646.315	659.31
646.762	681.31
647.21	707.31
647.657	727.71
648.104	763.91
648.551	789.51
648.999	853.11
649.446	930.91
649.893	1006.31
650.34	1154.91
650.787	1387.91
651.234	1707.81
651.682	2186.81
652.129	2996.61
652.576	4257.81
653.023	6179.71
653.47	8335.71
653.917	10323.21
654.363	11769.11
654.81	12914.11
655.257	12277.91
655.704	8132.71
656.151	4899.31
656.598	3214.31
657.044	2329.01
657.491	1794.01
657.938	1448.11
658.385	1232.91
658.831	1071.21
659.278	951.21
659.724	851.41
660.171	796.71
660.618	728.01
661.064	701.91
661.511	683.71
661.957	672.01
662.404	666.61
662.85	664.71
663.296	648.61
663.743	587.61
664.189	562.81
664.635	553.91
665.082	554.81
665.528	544.21
665.974	532.01
666.42	533.61
666.867	532.11
667.313	506.81
667.759	488.51
668.205	471.81
668.651	468.41
669.097	473.01
669.543	465.21
669.989	463.71
670.435	466.11
670.881	464.41
671.327	481.11
671.773	491.91
672.219	524.31
672.665	571.01
673.11	614.61
673.556	663.41
674.002	708.51
674.448	688.31
674.893	577.51
675.339	500.81
675.785	467.71
676.23	444.11
676.676	411.41
677.122	403.41
677.567	392.41
678.013	398.01
678.458	384.81
678.904	382.11
679.349	372.61
679.794	373.01
680.24	360.31
680.685	366.11
681.131	371.81
681.576	373.41
682.021	375.71
682.466	371.71
682.912	373.31
683.357	372.21
683.802	401.71
684.247	443.01
684.692	486.41
685.137	528.71
685.583	570.91
686.028	589.91
686.473	542.21
686.918	476.61
687.363	446.31
687.807	418.61
688.252	387.01
688.697	374.91
689.142	362.81
689.587	354.81
690.032	347.01
690.477	364.91
690.921	374.31
691.366	407.61
691.811	429.81
692.255	456.31
692.7	494.01
693.145	549.41
693.589	761.91
694.034	1240.21
694.478	1667.11
694.923	1848.41
695.367	2378.81
695.812	1275.61
696.256	534.61
696.701	401.41
697.145	356.31
697.59	349.51
698.034	331.71
698.478	336.41
698.922	338.31
699.367	349.01
699.811	354.41
700.255	373.51
700.699	409.81
701.143	447.91
701.588	498.41
702.032	543.51
702.476	544.81
702.92	533.81
703.364	535.21
703.808	703.51
704.252	1150.91
704.696	1577.81
705.14	1765.71
705.584	2245.61
706.027	1131.51
706.471	558.11
706.915	425.11
707.359	375.41
707.803	337.41
708.246	336.61
708.69	330.91
709.134	336.81
709.577	323.01
710.021	336.71
710.465	327.01
710.908	318.81
711.352	321.71
711.795	333.21
712.239	375.31
712.682	409.91
713.126	434.61
713.569	480.21
714.012	381.51
714.456	322.41
714.899	309.61
715.342	294.51
715.786	278.91
716.229	272.01
716.672	267.81
717.115	268.21
717.558	263.71
718.002	270.41
718.445	284.21
718.888	294.71
719.331	314.41
719.774	324.41
720.217	323.51
720.66	302.61
721.103	279.51
721.546	272.01
721.989	269.81
722.432	247.91
722.874	254.61
723.317	247.61
723.76	251.71
724.203	272.11
724.645	341.71
725.088	484.21
725.531	610.51
725.974	671.31
726.416	581.51
726.859	327.91
727.301	260.81
727.744	250.71
728.187	246.71
728.629	250.11
729.071	259.41
729.514	282.31
729.956	289.41
730.399	301.71
730.841	303.31
731.283	300.01
731.726	289.41
732.168	282.51
732.61	283.81
733.053	305.71
733.495	332.01
733.937	376.81
734.379	431.91
734.821	467.31
735.263	592.31
735.705	921.91
736.148	1757.71
736.59	2796.01
737.032	3216.71
737.474	2634.81
737.916	873.61
738.357	465.81
738.799	357.91
739.241	319.21
739.683	301.01
740.125	308.51
740.567	311.71
741.008	340.51
741.45	333.91
741.892	334.91
742.334	380.31
742.775	385.51
743.217	365.91
743.658	289.31
744.1	273.11
744.542	283.71
744.983	340.11
745.425	370.51
745.866	366.51
746.307	296.71
746.749	295.51
747.19	354.01
747.632	504.71
748.073	1000.61
748.514	2070.41
748.956	3071.21
749.397	3867.61
749.838	3198.41
750.279	3126.01
750.72	1591.11
751.162	596.71
751.603	342.51
752.044	267.41
752.485	234.51
752.926	223.01
753.367	214.11
753.808	213.11
754.249	210.51
754.69	202.21
755.131	192.11
755.572	190.51
756.013	194.11
756.453	195.71
756.894	198.41
757.335	205.51
757.776	206.81
758.216	214.11
758.657	207.51
759.098	219.71
759.538	243.21
759.979	290.91
760.42	411.01
760.86	799.81
761.301	2078.01
761.741	4884.31
762.182	6754.91
762.622	4795.51
763.063	1408.81
763.503	576.61
763.943	356.51
764.384	298.31
764.824	279.11
765.264	266.21
765.705	225.91
766.145	193.81
766.585	184.91
767.025	178.81
767.465	180.81
767.906	206.71
768.346	222.51
768.786	232.31
769.226	236.41
769.666	342.31
770.106	700.91
770.546	1714.21
770.986	2804.71
771.426	2481.91
771.866	845.01
772.306	358.31
772.745	219.91
773.185	184.51
773.625	170.51
774.065	162.71
774.505	174.11
774.944	228.11
775.384	411.01
775.824	663.11
776.263	635.01
776.703	312.31
777.142	175.81
777.582	145.31
778.021	138.31
778.461	136.91
778.9	131.01
779.34	131.01
779.779	126.31
780.219	113.51
780.658	115.91
781.097	112.31
781.537	118.11
781.976	120.11
782.415	110.71
782.855	107.01
783.294	111.51
783.733	116.81
784.172	111.41
784.611	111.61
785.05	118.51
785.489	121.61
785.928	128.61
786.367	130.31
786.806	126.51
787.245	134.61
787.684	140.51
788.123	155.21
788.562	143.91
789.001	134.11
789.44	127.81
789.879	125.11
790.317	126.11
790.756	131.91
791.195	137.11
791.634	162.81
792.072	224.21
792.511	403.21
792.95	1126.01
793.388	2268.51
793.827	1994.01
794.265	717.71
794.704	298.91
795.142	195.11
795.581	158.21
796.019	141.81
796.458	143.61
796.896	123.81
797.334	145.21
797.773	167.21
798.211	244.41
798.649	490.81
799.087	1114.81
799.526	1726.11
799.964	2175.71
800.402	2098.71
800.84	813.11
801.278	335.61
801.716	203.91
802.154	165.31
802.592	161.81
803.03	148.81
803.468	144.81
803.906	153.91
804.344	163.91
804.782	146.71
805.22	142.11
805.658	143.71
806.096	156.31
806.533	172.21
806.971	188.41
807.409	239.91
807.847	355.51
808.284	755.41
808.722	2075.91
809.16	3518.41
809.597	3465.61
810.035	5877.41
810.472	6038.21
810.91	2245.91
811.347	857.71
811.785	443.11
812.222	269.61
812.66	209.31
813.097	175.31
813.535	152.31
813.972	139.11
814.409	132.51
814.846	116.01
815.284	118.31
815.721	108.51
816.158	109.31
816.595	114.21
817.032	167.61
817.47	197.31
817.907	134.91
818.344	110.51
818.781	103.71
819.218	102.41
819.655	135.61
820.092	204.81
820.529	226.11
820.966	181.81
821.403	138.61
821.839	113.61
822.276	106.71
822.713	129.61
823.15	148.61
823.587	129.71
824.023	158.51
824.46	342.41
824.897	991.11
825.333	1418.71
825.77	619.31
826.206	253.21
826.643	150.11
827.08	107.71
827.516	90.71
827.953	80.71
828.389	86.81
828.825	76.01
829.262	69.31
829.698	70.21
830.135	66.91
830.571	72.61
831.007	67.01
831.443	78.21
831.88	65.11
832.316	64.31
832.752	78.41
833.188	72.21
833.624	68.01
834.06	75.31
834.497	70.11
834.933	77.61
835.369	82.51
835.805	71.21
836.241	80.21
836.677	87.91
837.112	96.81
837.548	108.81
837.984	146.31
838.42	225.71
838.856	557.51
839.292	1664.91
839.727	2445.21
840.163	1147.21
840.599	1034.11
841.034	2191.71
841.47	2228.91
841.906	831.81
842.341	355.91
842.777	215.31
843.212	225.61
843.648	200.41
844.083	124.61
844.519	93.51
844.954	78.61
845.39	63.81
845.825	67.11
846.261	62.71
846.696	57.01
847.131	50.91
847.566	59.11
848.002	52.51
848.437	58.71
848.872	59.91
849.307	65.41
849.742	89.11
850.177	202.71
850.613	607.21
851.048	928.01
851.483	400.11
851.918	164.71
852.353	89.91
852.788	56.61
853.223	53.51
853.657	55.01
854.092	52.31
854.527	41.11
854.962	42.81
855.397	50.21
855.832	48.81
856.266	42.01
856.701	39.91
857.136	42.71
857.57	44.01
858.005	55.01
858.44	63.51
858.874	46.91
859.309	60.71
859.743	45.41
860.178	47.41
860.612	44.71
861.047	63.61
861.481	77.71
861.915	71.61
862.35	49.41
862.784	37.51
863.218	39.51
863.653	33.31
864.087	55.41
864.521	61.51
864.955	76.01
865.39	166.01
865.824	182.21
866.258	122.51
866.692	184.61
867.126	192.21
867.56	116.71
867.994	59.21
868.428	38.71
868.862	48.21
869.296	55.81
869.73	61.91
870.164	58.61
870.598	51.81
871.031	41.01
871.465	35.81
871.899	36.61
872.333	25.51
872.766	30.41
873.2	23.71
873.634	31.81
874.067	34.11
874.501	27.71
874.935	34.51
875.368	30.91
875.802	29.31
876.235	31.51
876.669	25.01
877.102	16.11
877.535	20.01
877.969	24.81
878.402	27.81
878.836	21.01
879.269	24.61
879.702	25.31
880.135	21.91
880.569	29.21
881.002	29.51
881.435	25.91
881.868	14.81
882.301	23.21
882.734	17.61
883.167	25.71
883.601	18.11
884.034	17.61
884.467	20.21
884.899	22.11
885.332	16.81
885.765	20.91
886.198	16.21
886.631	18.41
887.064	21.21
887.497	23.01
887.929	26.81
888.362	13.51
888.795	13.91
889.228	20.01
889.66	20.81
890.093	21.91
890.526	24.21
890.958	15.51
891.391	19.41
891.823	25.61
892.256	16.41
892.688	10.51
893.121	18.31
893.553	15.21
893.985	19.81
894.418	19.91
894.85	16.31
895.282	20.31
895.715	20.31
896.147	17.01
896.579	13.91
897.011	13.51
897.444	15.01
897.876	17.21
898.308	18.81
898.74	19.51
899.172	12.91
899.604	21.71
900.036	19.01
900.468	18.61
900.9	15.61
901.332	19.61
901.764	11.11
902.196	19.11
902.628	19.71
903.06	15.51
903.491	28.11
903.923	26.01
904.355	20.61
904.787	27.31
905.218	24.91
905.65	21.21
906.082	10.11
906.513	16.11
906.945	21.21
907.376	15.91
907.808	24.91
908.239	15.61
908.671	23.31
909.102	21.11
909.534	24.81
909.965	54.61
910.397	102.41
910.828	339.21
911.259	503.01
911.691	224.91
912.122	112.61
912.553	54.91
912.984	34.11
913.415	27.41
913.847	27.31
914.278	15.11
914.709	19.81
915.14	24.11
915.571	22.71
916.002	12.51
916.433	18.61
916.864	17.91
917.295	10.51
917.726	19.71
918.157	15.91
918.587	30.81
919.018	26.21
919.449	25.61
919.88	24.81
920.311	38.61
920.741	56.91
921.172	179.91
921.603	165.01
922.033	78.61
922.464	48.91
922.895	25.51
923.325	20.41
923.756	13.11
924.186	12.51
924.617	17.21
925.047	26.41
925.478	24.71
925.908	22.01
926.338	11.41
926.769	7.91
927.199	19.21
927.629	6.51
928.06	16.71
928.49	18.11
928.92	16.31
929.35	10.51
929.78	9.41
930.21	4.81
930.641	9.21
931.071	10.61
931.501	-1.09
931.931	8.11
932.361	8.11
932.791	5.91
933.221	6.51
933.651	7.91
934.08	25.71
934.51	30.21
934.94	9.11
935.37	14.51
935.8	9.91
936.229	3.81
936.659	7.71
937.089	2.91
937.519	13.11
937.948	26.51
938.378	17.01
938.807	10.71
939.237	4.01
939.666	7.31
940.096	-0.99
940.525	6.91
940.955	0.01
941.384	3.81
941.814	-4.39
942.243	-1.99
942.672	4.11
943.102	-7.59
943.531	0.41
943.96	3.71
944.39	3.61
944.819	1.61
945.248	6.61
945.677	1.51
946.106	7.81
946.535	8.71
946.964	1.41
947.393	8.21
947.822	-2.29
948.251	-3.29
948.68	-2.29
949.109	4.91
949.538	3.51
949.967	3.31
950.396	3.71
950.825	-2.19
951.254	0.81
951.682	-4.69
952.111	3.01
952.54	7.51
952.969	-5.29
953.397	-8.79
953.826	-1.09
954.254	-6.49
954.683	0.11
955.112	-3.29
955.54	3.41
955.969	8.11
956.397	1.61
956.826	-3.49
957.254	7.31
957.682	-0.59
958.111	-0.99
958.539	3.91
958.967	5.91
959.396	1.31
959.824	0.31
960.252	1.31
960.68	-3.39
961.109	-4.39
961.537	-13.59
961.965	2.81
962.393	2.31
962.821	-2.69
963.249	-4.19
963.677	5.31
964.105	6.81
964.533	46.21
964.961	45.31
965.389	24.81
965.817	6.31
966.245	1.71
966.672	3.81
967.1	-5.99
967.528	-2.79
967.956	-0.99
968.383	3.11
968.811	1.71
969.239	-3.99
969.666	-6.39
970.094	4.81
970.522	3.41
970.949	-1.39
971.377	-3.29
971.804	2.31
972.232	1.51
972.659	-0.29
973.087	-7.19
973.514	-7.29
973.941	-8.29
974.369	6.91
974.796	3.61
975.223	2.71
975.651	-3.39
976.078	9.11
976.505	-2.89
976.932	2.21
977.359	18.51
977.786	10.21
978.214	-3.59
978.641	-0.39
979.068	2.61
979.495	-6.89
979.922	1.21
980.349	-3.49
980.776	1.71
981.202	3.61
981.629	2.21
982.056	1.81
982.483	-1.39
982.91	2.31
983.337	-6.69
983.763	0.81
984.19	-0.89
984.617	-3.29
985.043	-14.69
985.47	2.51
985.897	-4.49
986.323	-9.89
986.75	0.21
987.176	-1.59
987.603	1.21
988.029	0.91
988.456	-0.79
988.882	2.81
989.308	-1.49
989.735	-6.39
990.161	-0.69
990.587	-6.49
991.014	2.31
991.44	2.61
991.866	-2.89
992.292	-8.59
992.719	3.91
993.145	0.71
993.571	-8.19
993.997	-6.79
994.423	-3.99
994.849	-1.29
995.275	-4.99
995.701	-0.59
996.127	-1.99
996.553	-2.29
996.979	-6.39
997.405	-3.19
997.83	-3.09
998.256	-3.69
998.682	-2.99
999.108	-4.69
999.534	-0.19
999.959	-3.09
1000.385	-3.29
1000.811	-2.49
1001.236	-5.89
1001.662	-6.79
1002.087	-8.69
1002.513	5.31
1002.938	4.61
1003.364	-3.49
1003.789	-1.19
1004.215	4.41
1004.64	1.71
1005.066	3.61
1005.491	2.71
1005.916	-3.49
1006.342	-0.69
1006.767	-3.39
1007.192	6.01
1007.617	-4.09
1008.042	-9.69
1008.468	-4.89
1008.893	-0.79
1009.318	-9.39
1009.743	-4.49
1010.168	5.21
1010.593	3.81
1011.018	-7.09
1011.443	-4.49
1011.868	-2.59
1012.293	-4.99
1012.718	-7.59
1013.143	0.01
1013.567	0.91
1013.992	2.11
1014.417	-13.89
1014.842	4.41
1015.267	-3.89
1015.691	-4.39
1016.116	8.31
1016.541	4.31
1016.965	3.21
1017.39	6.81
1017.814	-1.39
1018.239	3.21
1018.663	-0.59
1019.088	-2.69
1019.512	-5.59
1019.937	-2.09
1020.361	-4.89
1020.785	-6.59
1021.21	-4.19
1021.634	-6.99
1022.058	5.11
1022.483	0.71
1022.907	-1.99
1023.331	-3.39
1023.755	-9.99
1024.179	1.11
1024.604	-7.89
1025.028	-0.99
1025.452	-2.59
1025.876	-4.19
1026.3	-1.59
1026.724	-9.29
1027.148	3.81
1027.572	-11.69
1027.996	-4.09
1028.42	-0.39
1028.843	-9.19
1029.267	-5.69
1029.691	-3.49
1030.115	-7.69
1030.539	-5.49
1030.962	-6.79
1031.386	-17.99
1031.81	-6.19
1032.233	-0.89
1032.657	6.91
1033.08	-1.29
1033.504	-2.29
1033.927	-4.59
1034.351	-4.69
1034.774	-3.69
1035.198	-0.89
1035.621	-5.19
1036.045	-7.89
1036.468	-1.29
1036.891	-7.49
1037.315	-13.59
1037.738	-6.69
1038.161	-1.29
1038.584	-3.39
1039.008	-8.29
1039.431	-8.49
1039.854	-2.69
1040.277	-8.59
1040.7	-12.89
1041.123	1.21
1041.546	-10.49
1041.969	-2.99
1042.392	-2.99
1042.815	-3.49
1043.238	2.61
1043.661	5.21
1044.084	-12.09
1044.507	-4.79
1044.93	-3.09
1045.352	-6.39
1045.775	-2.09
1046.198	-0.29
1046.621	1.51
1047.043	1.51
1047.466	3.71
1047.889	-2.29
1048.311	-3.09
1048.734	0.51
1049.156	-5.29
1049.579	-4.99
1050.001	-8.99
1050.424	1.21
1050.846	-3.59
1051.269	-2.79
1051.691	-9.39
1052.113	-2.69
1052.536	-3.79
1052.958	1.71
1053.38	-0.19
1053.802	-7.19
1054.225	6.01
1054.647	-12.19
1055.069	-8.69
1055.491	-0.39
1055.913	-7.29
1056.335	-1.79
1056.757	-6.59
1057.179	-6.79
1057.601	-5.89
1058.023	-1.29
1058.445	-6.29
1058.867	-5.19
1059.289	-7.49
1059.711	-10.69
1060.133	2.31
1060.555	-6.09
1060.976	-8.79
1061.398	-8.69
1061.82	-4.59
1062.241	-7.79
1062.663	-8.09
1063.085	-2.79
1063.506	2.91
1063.928	-5.59
1064.35	-8.49
1064.771	-14.29
1065.193	-3.19
1065.614	-15.09
1066.035	-7.99
1066.457	-1.79
1066.878	6.91
1067.3	-4.99
1067.721	-0.99
1068.142	-3.29
1068.564	-4.39
1068.985	-1.19
1069.406	-5.59
1069.827	0.31
1070.248	-2.09
1070.67	-5.19
1071.091	-3.69
1071.512	2.61
1071.933	-3.29
1072.354	-1.89
1072.775	-8.29
1073.196	-10.39
1073.617	-0.89
1074.038	-5.89
1074.459	-0.99
1074.88	-5.09
1075.3	1.81
1075.721	-6.99
1076.142	-2.59
1076.563	1.01
1076.983	-15.79
1077.404	-5.49
1077.825	-8.69
1078.246	-4.79
1078.666	-9.19
1079.087	-3.59
1079.507	-5.79
1079.928	3.81
1080.348	-3.09
1080.769	-8.49
1081.189	0.21
1081.61	-5.69
1082.03	-2.29
1082.451	-10.59
1082.871	-2.39
1083.291	-4.19
1083.711	-5.79
1084.132	-2.89
1084.552	-2.89
1084.972	-1.49
1085.392	-9.89
1085.813	-8.49
1086.233	-11.39
1086.653	-4.59
1087.073	1.51
1087.493	-4.99
1087.913	-7.09
1088.333	-7.39
1088.753	-4.59
1089.173	4.91
1089.593	-3.39
1090.013	-0.29
1090.433	4.11
1090.852	-9.49
1091.272	4.11
1091.692	-5.19
1092.112	-4.79
1092.531	-8.59
1092.951	-8.39
1093.371	-3.09
1093.79	-0.39
1094.21	-0.19
1094.63	-4.49
1095.049	-5.09
1095.469	-4.69
1095.888	-8.79
1096.308	-1.09
1096.727	2.91
1097.146	-5.79
1097.566	-1.79
1097.985	-7.09
1098.405	-2.59
1098.824	-12.69
1099.243	-5.49
1099.662	-7.19
1100.082	1.01
1100.501	-2.09
1100.92	-3.79
1101.339	-3.79
1101.758	-2.29
