Data from 20171114-ORNL-Ar_H_NY_Subt18_08-07-21-335.txt Node
Date: Tue Nov 14 08:07:21 EST 2017
User: Ender
Spectrometer: HR+D1039
Trigger mode: 0
Integration Time (sec): 2.730000E-2
Scans to average: 10
Electric dark correction enabled: true
Nonlinearity correction enabled: false
Boxcar width: 0
XAxis mode: Wavelengths
Number of Pixels in Spectrum: 2048
>>>>>Begin Spectral Data<<<<<
187.836	-4.48
188.309	-4.48
188.782	-4.48
189.255	-0.98
189.728	2.32
190.201	8.52
190.674	1.32
191.147	6.52
191.619	-5.68
192.092	2.62
192.565	1.72
193.038	-0.38
193.511	-2.08
193.984	-3.78
194.456	-1.18
194.929	3.72
195.402	-2.98
195.874	-5.28
196.347	3.42
196.82	-6.38
197.292	6.92
197.765	0.62
198.237	-7.08
198.71	-0.88
199.182	-5.68
199.655	-0.48
200.127	0.62
200.6	-4.58
201.072	-1.48
201.544	-4.58
202.017	-1.68
202.489	1.92
202.961	-0.78
203.433	0.82
203.906	-4.78
204.378	-4.88
204.85	-7.98
205.322	-8.38
205.794	-4.18
206.266	-4.38
206.739	-10.28
207.211	0.62
207.683	-5.88
208.155	-11.28
208.627	-9.88
209.099	-5.38
209.57	-9.38
210.042	-9.98
210.514	-2.68
210.986	-2.68
211.458	-8.48
211.93	0.92
212.402	0.32
212.873	-7.18
213.345	-12.88
213.817	-14.78
214.288	-11.78
214.76	-12.58
215.232	-3.78
215.703	-6.98
216.175	-7.88
216.646	-7.08
217.118	-6.28
217.589	-4.88
218.061	-1.98
218.532	-9.88
219.004	-5.28
219.475	-4.48
219.946	-8.28
220.418	-5.68
220.889	1.32
221.36	6.12
221.832	-2.28
222.303	-7.38
222.774	-5.18
223.245	-6.98
223.717	-3.48
224.188	-3.08
224.659	-10.78
225.13	0.82
225.601	-0.08
226.072	-2.68
226.543	-5.08
227.014	0.42
227.485	-2.28
227.956	-6.88
228.427	-1.98
228.898	0.42
229.369	3.42
229.839	-6.18
230.31	-5.68
230.781	1.32
231.252	-4.38
231.722	-8.58
232.193	-1.78
232.664	-1.98
233.135	4.02
233.605	-4.88
234.076	-5.78
234.546	-4.58
235.017	0.42
235.487	3.62
235.958	-6.88
236.428	-5.18
236.899	-1.88
237.369	-5.18
237.84	-4.98
238.31	4.32
238.78	-2.58
239.251	-9.88
239.721	-0.38
240.191	0.02
240.662	-4.48
241.132	-3.98
241.602	-3.68
242.072	-2.98
242.542	4.32
243.013	1.22
243.483	-5.28
243.953	-5.78
244.423	-3.28
244.893	-9.78
245.363	1.62
245.833	-0.08
246.303	-12.68
246.773	3.32
247.243	1.72
247.712	-3.98
248.182	8.72
248.652	3.32
249.122	-5.78
249.592	4.32
250.061	11.02
250.531	14.12
251.001	2.72
251.471	12.02
251.94	10.42
252.41	0.02
252.879	-4.58
253.349	6.82
253.818	-0.68
254.288	-1.38
254.757	-1.38
255.227	-4.78
255.696	-6.88
256.166	3.02
256.635	0.52
257.105	5.12
257.574	-3.58
258.043	0.92
258.513	0.02
258.982	5.72
259.451	-2.38
259.92	3.72
260.389	1.92
260.859	11.82
261.328	-0.78
261.797	4.22
262.266	4.12
262.735	8.42
263.204	-0.68
263.673	-4.58
264.142	-0.28
264.611	-2.18
265.08	-1.88
265.549	-5.08
266.018	3.32
266.487	-3.98
266.955	-5.88
267.424	-7.18
267.893	7.02
268.362	-4.08
268.83	-4.08
269.299	8.82
269.768	2.32
270.236	3.42
270.705	0.12
271.174	3.82
271.642	-2.18
272.111	0.02
272.579	8.42
273.048	12.52
273.516	16.02
273.985	14.12
274.453	7.32
274.922	10.12
275.39	4.42
275.858	1.62
276.327	-1.48
276.795	13.72
277.263	1.82
277.731	18.52
278.2	26.52
278.668	28.82
279.136	24.22
279.604	10.02
280.072	5.82
280.54	1.02
281.008	11.52
281.477	10.92
281.945	10.72
282.413	8.22
282.881	11.92
283.348	-1.18
283.816	6.82
284.284	5.52
284.752	11.72
285.22	8.02
285.688	4.32
286.156	10.42
286.623	23.62
287.091	22.32
287.559	20.72
288.026	13.02
288.494	4.82
288.962	3.82
289.429	3.22
289.897	4.22
290.364	10.02
290.832	10.82
291.3	14.52
291.767	11.92
292.234	10.12
292.702	7.02
293.169	14.12
293.637	19.12
294.104	13.02
294.571	5.82
295.039	7.32
295.506	9.62
295.973	9.02
296.44	6.62
296.908	4.62
297.375	7.52
297.842	12.62
298.309	7.82
298.776	7.02
299.243	13.92
299.71	7.52
300.177	17.22
300.644	10.62
301.111	14.92
301.578	12.02
302.045	9.22
302.512	17.52
302.979	16.02
303.446	12.62
303.913	15.72
304.379	14.72
304.846	19.62
305.313	15.42
305.78	14.12
306.246	19.42
306.713	19.22
307.18	11.32
307.646	16.72
308.113	21.72
308.579	16.92
309.046	18.02
309.512	12.32
309.979	7.32
310.445	16.12
310.912	17.52
311.378	25.92
311.845	16.42
312.311	11.32
312.777	22.72
313.244	24.62
313.71	31.52
314.176	18.62
314.642	15.72
315.109	19.52
315.575	27.02
316.041	31.82
316.507	26.72
316.973	26.72
317.439	23.42
317.905	23.72
318.371	23.52
318.837	16.52
319.303	23.12
319.769	25.62
320.235	22.32
320.701	25.92
321.167	28.62
321.633	20.12
322.099	30.02
322.564	27.72
323.03	30.82
323.496	29.62
323.962	29.12
324.427	31.22
324.893	31.62
325.359	26.72
325.824	25.82
326.29	28.02
326.755	26.92
327.221	29.52
327.686	28.72
328.152	32.12
328.617	27.42
329.083	37.82
329.548	39.32
330.014	40.52
330.479	29.92
330.944	37.62
331.41	29.72
331.875	32.02
332.34	34.32
332.805	30.92
333.271	35.82
333.736	33.92
334.201	40.32
334.666	41.22
335.131	40.82
335.596	44.82
336.061	34.02
336.526	26.42
336.991	41.72
337.456	44.72
337.921	37.92
338.386	35.92
338.851	32.92
339.316	40.52
339.781	39.92
340.246	42.12
340.711	40.12
341.175	42.42
341.64	32.62
342.105	42.72
342.569	44.02
343.034	46.92
343.499	45.62
343.963	47.22
344.428	60.82
344.893	48.82
345.357	49.92
345.822	46.22
346.286	53.12
346.751	57.22
347.215	51.62
347.679	62.02
348.144	72.32
348.608	59.12
349.073	53.42
349.537	55.72
350.001	63.42
350.465	70.72
350.93	60.42
351.394	68.62
351.858	62.62
352.322	62.82
352.786	66.32
353.25	73.62
353.715	87.32
354.179	83.92
354.643	94.92
355.107	102.02
355.571	84.32
356.035	80.62
356.498	92.42
356.962	92.82
357.426	98.12
357.89	88.32
358.354	77.62
358.818	67.42
359.281	66.02
359.745	60.52
360.209	66.62
360.673	59.92
361.136	70.02
361.6	72.82
362.064	71.42
362.527	72.72
362.991	77.72
363.454	71.02
363.918	60.22
364.381	72.22
364.845	69.32
365.308	74.82
365.772	77.32
366.235	74.42
366.698	70.42
367.162	80.42
367.625	79.02
368.088	73.32
368.552	78.72
369.015	76.62
369.478	82.32
369.941	85.62
370.404	82.12
370.867	88.82
371.331	93.12
371.794	96.32
372.257	91.42
372.72	98.02
373.183	95.72
373.646	84.52
374.109	87.92
374.572	84.52
375.035	87.32
375.497	94.62
375.96	95.32
376.423	94.32
376.886	100.42
377.349	99.42
377.811	87.52
378.274	95.32
378.737	102.02
379.199	101.12
379.662	100.22
380.125	100.32
380.587	99.42
381.05	102.02
381.512	112.82
381.975	116.42
382.437	114.02
382.9	113.02
383.362	116.42
383.825	128.12
384.287	127.52
384.75	124.02
385.212	126.02
385.674	122.72
386.136	123.52
386.599	105.82
387.061	119.62
387.523	122.22
387.985	120.72
388.447	129.52
388.91	128.52
389.372	137.32
389.834	135.72
390.296	131.42
390.758	137.32
391.22	153.82
391.682	176.72
392.144	244.22
392.606	193.52
393.068	146.52
393.529	149.02
393.991	136.62
394.453	128.22
394.915	137.32
395.377	168.42
395.838	184.72
396.3	145.02
396.762	143.72
397.224	125.12
397.685	123.82
398.147	125.92
398.608	129.02
399.07	121.42
399.531	120.42
399.993	131.42
400.454	145.12
400.916	141.62
401.377	138.22
401.839	148.02
402.3	139.52
402.762	162.12
403.223	172.52
403.684	166.02
404.145	152.42
404.607	158.12
405.068	158.82
405.529	163.42
405.99	173.82
406.451	172.42
406.913	162.32
407.374	153.42
407.835	154.92
408.296	160.52
408.757	162.42
409.218	180.32
409.679	173.52
410.14	170.52
410.601	177.12
411.062	178.92
411.522	181.62
411.983	185.52
412.444	170.12
412.905	176.72
413.366	171.42
413.826	187.42
414.287	210.92
414.748	257.72
415.208	246.42
415.669	211.72
416.13	211.02
416.59	197.92
417.051	210.32
417.511	217.92
417.972	228.32
418.432	242.22
418.893	294.62
419.353	252.52
419.814	191.42
420.274	177.12
420.734	182.32
421.195	193.22
421.655	190.92
422.115	191.22
422.576	196.12
423.036	197.12
423.496	206.32
423.956	211.22
424.416	217.72
424.876	256.92
425.336	255.42
425.797	261.52
426.257	245.32
426.717	231.92
427.177	225.92
427.637	223.52
428.097	229.22
428.556	243.32
429.016	265.72
429.476	257.12
429.936	261.42
430.396	270.52
430.856	292.02
431.315	306.72
431.775	338.72
432.235	368.12
432.694	349.52
433.154	353.42
433.614	369.32
434.073	325.22
434.533	273.72
434.993	258.32
435.452	280.72
435.912	283.02
436.371	277.02
436.83	270.32
437.29	260.72
437.749	246.12
438.209	235.92
438.668	260.02
439.127	278.92
439.587	260.22
440.046	247.62
440.505	259.22
440.964	276.02
441.424	306.32
441.883	297.52
442.342	263.52
442.801	226.32
443.26	225.52
443.719	229.72
444.178	215.12
444.637	211.62
445.096	219.42
445.555	226.12
446.014	223.02
446.473	235.52
446.932	232.62
447.391	230.52
447.849	233.42
448.308	212.52
448.767	227.82
449.226	246.62
449.685	243.32
450.143	252.32
450.602	231.42
451.061	228.62
451.519	234.32
451.978	235.22
452.436	235.92
452.895	239.62
453.353	259.32
453.812	240.12
454.27	244.22
454.729	235.92
455.187	248.72
455.646	246.42
456.104	245.72
456.562	256.12
457.021	271.92
457.479	257.82
457.937	280.32
458.395	263.62
458.854	247.22
459.312	263.12
459.77	270.72
460.228	258.02
460.686	244.62
461.144	250.82
461.602	254.32
462.06	237.02
462.518	257.62
462.976	260.02
463.434	258.32
463.892	264.32
464.35	271.72
464.808	284.92
465.266	269.12
465.724	271.62
466.181	278.72
466.639	274.72
467.097	285.92
467.555	306.62
468.012	305.02
468.47	311.22
468.928	331.52
469.385	342.92
469.843	346.72
470.3	352.22
470.758	359.32
471.215	392.82
471.673	408.02
472.13	405.72
472.588	416.12
473.045	375.42
473.503	386.22
473.96	397.72
474.417	406.92
474.875	435.32
475.332	480.62
475.789	465.62
476.246	467.62
476.704	489.82
477.161	513.32
477.618	523.22
478.075	562.42
478.532	626.72
478.989	685.12
479.446	793.72
479.903	771.02
480.36	797.02
480.817	858.42
481.274	957.92
481.731	1051.52
482.188	1134.62
482.645	1268.62
483.102	1361.02
483.558	1493.72
484.015	1536.22
484.472	1511.83
484.929	1467.52
485.385	1436.62
485.842	1387.32
486.299	1317.52
486.755	1266.72
487.212	1081.52
487.668	914.42
488.125	849.92
488.582	773.92
489.038	753.72
489.494	719.02
489.951	691.42
490.407	662.52
490.864	648.12
491.32	652.72
491.776	646.52
492.233	653.32
492.689	623.02
493.145	612.82
493.602	599.52
494.058	620.12
494.514	620.22
494.97	641.62
495.426	656.32
495.882	625.92
496.338	619.62
496.794	630.72
497.251	627.92
497.707	639.82
498.163	635.32
498.618	642.62
499.074	646.82
499.53	681.32
499.986	662.42
500.442	654.12
500.898	639.92
501.354	630.12
501.809	644.92
502.265	636.92
502.721	651.92
503.177	664.32
503.632	655.82
504.088	678.42
504.543	696.22
504.999	707.12
505.455	662.72
505.91	651.32
506.366	645.12
506.821	634.52
507.277	637.42
507.732	627.92
508.187	644.62
508.643	652.32
509.098	650.32
509.553	664.32
510.009	674.62
510.464	679.52
510.919	698.72
511.375	714.72
511.83	721.82
512.285	733.22
512.74	762.22
513.195	795.92
513.65	777.32
514.105	781.72
514.56	778.52
515.015	789.12
515.47	820.32
515.925	794.72
516.38	796.32
516.835	810.52
517.29	795.32
517.745	788.42
518.2	773.82
518.655	753.42
519.109	756.92
519.564	748.72
520.019	737.72
520.474	736.12
520.928	740.52
521.383	721.92
521.838	720.02
522.292	723.22
522.747	723.22
523.201	717.62
523.656	713.72
524.11	711.32
524.565	705.72
525.019	705.42
525.474	713.22
525.928	718.42
526.382	703.72
526.837	711.82
527.291	723.52
527.745	717.52
528.2	705.12
528.654	708.72
529.108	690.12
529.562	697.02
530.016	699.02
530.47	702.42
530.925	705.12
531.379	714.42
531.833	702.92
532.287	710.32
532.741	713.32
533.195	706.12
533.649	728.32
534.103	734.52
534.556	723.92
535.01	716.12
535.464	717.72
535.918	721.52
536.372	721.02
536.826	723.32
537.279	721.22
537.733	723.32
538.187	717.62
538.64	722.22
539.094	730.92
539.548	733.72
540.001	733.82
540.455	735.82
540.908	745.82
541.362	743.82
541.815	757.02
542.269	771.62
542.722	762.82
543.175	778.42
543.629	777.02
544.082	796.92
544.536	808.22
544.989	802.32
545.442	807.02
545.895	817.52
546.349	810.52
546.802	809.32
547.255	808.62
547.708	827.92
548.161	841.32
548.614	838.72
549.067	835.82
549.52	833.02
549.973	821.92
550.426	832.82
550.879	812.32
551.332	816.22
551.785	824.32
552.238	817.92
552.691	825.22
553.144	852.92
553.596	874.22
554.049	880.82
554.502	905.32
554.955	920.52
555.407	921.32
555.86	915.02
556.313	903.52
556.765	885.22
557.218	890.42
557.67	896.62
558.123	879.52
558.576	884.62
559.028	889.82
559.48	902.92
559.933	883.42
560.385	863.42
560.838	822.32
561.29	794.12
561.742	807.52
562.195	785.12
562.647	780.82
563.099	796.22
563.551	791.22
564.004	800.32
564.456	785.62
564.908	773.72
565.36	766.62
565.812	749.42
566.264	737.72
566.716	735.82
567.168	714.12
567.62	723.82
568.072	716.92
568.524	710.42
568.976	689.22
569.428	691.62
569.88	689.72
570.332	687.22
570.784	695.52
571.235	695.42
571.687	708.82
572.139	716.12
572.59	722.62
573.042	722.72
573.494	722.82
573.945	716.92
574.397	703.82
574.849	706.72
575.3	704.22
575.752	693.32
576.203	687.12
576.655	695.52
577.106	675.52
577.557	678.22
578.009	673.62
578.46	675.92
578.912	671.52
579.363	671.92
579.814	675.82
580.265	666.82
580.717	676.72
581.168	681.32
581.619	684.52
582.07	687.42
582.521	679.82
582.972	677.12
583.423	688.82
583.875	694.42
584.326	705.92
584.777	742.52
585.227	797.82
585.678	859.02
586.129	921.62
586.58	973.52
587.031	1022.82
587.482	1123.22
587.933	1254.03
588.384	1132.72
588.834	905.52
589.285	802.32
589.736	785.62
590.186	775.22
590.637	781.52
591.088	746.82
591.538	747.42
591.989	745.12
592.439	740.22
592.89	720.92
593.34	716.32
593.791	717.92
594.241	710.92
594.692	715.22
595.142	700.82
595.593	704.32
596.043	715.12
596.493	731.02
596.943	721.22
597.394	726.22
597.844	722.72
598.294	741.62
598.744	767.32
599.195	789.72
599.645	827.02
600.095	872.52
600.545	929.02
600.995	984.12
601.445	1034.22
601.895	1104.32
602.345	1150.53
602.795	1131.72
603.245	1082.02
603.695	1027.52
604.145	966.22
604.594	929.92
605.044	870.02
605.494	811.02
605.944	773.82
606.393	760.02
606.843	734.72
607.293	742.62
607.743	738.12
608.192	757.72
608.642	760.32
609.091	771.32
609.541	784.62
609.99	771.82
610.44	768.72
610.889	730.02
611.339	705.42
611.788	699.62
612.238	705.52
612.687	721.22
613.136	723.02
613.586	738.12
614.035	735.02
614.484	743.42
614.933	740.72
615.383	735.42
615.832	734.82
616.281	733.52
616.73	691.52
617.179	679.42
617.628	662.92
618.077	647.72
618.526	628.12
618.975	616.42
619.424	633.72
619.873	617.82
620.322	621.82
620.771	611.62
621.22	611.52
621.669	600.72
622.118	597.72
622.567	583.62
623.015	577.02
623.464	577.52
623.913	562.82
624.361	563.92
624.81	561.42
625.259	551.62
625.707	562.22
626.156	565.82
626.604	566.62
627.053	561.62
627.501	570.22
627.95	571.22
628.398	583.82
628.847	585.12
629.295	577.52
629.744	578.22
630.192	572.92
630.64	576.22
631.089	562.42
631.537	561.02
631.985	558.42
632.433	573.72
632.881	574.42
633.33	595.02
633.778	586.42
634.226	538.52
634.674	553.42
635.122	573.92
635.57	575.12
636.018	604.92
636.466	567.42
636.914	565.02
637.362	572.62
637.81	585.22
638.258	586.62
638.705	584.72
639.153	613.92
639.601	619.72
640.049	639.72
640.497	681.02
640.944	708.72
641.392	654.42
641.84	621.82
642.287	583.12
642.735	577.62
643.182	575.12
643.63	569.52
644.078	572.52
644.525	598.42
644.973	588.02
645.42	605.52
645.867	618.92
646.315	640.82
646.762	662.32
647.21	686.32
647.657	709.82
648.104	742.02
648.551	770.82
648.999	831.22
649.446	914.22
649.893	998.72
650.34	1142.82
650.787	1359.62
651.234	1683.72
651.682	2201.32
652.129	3013.32
652.576	4307.53
653.023	6336.93
653.47	8632.82
653.917	10721.02
654.363	12340.92
654.81	13614.82
655.257	12893.23
655.704	8458.82
656.151	5039.12
656.598	3295.43
657.044	2349.62
657.491	1799.02
657.938	1441.92
658.385	1220.52
658.831	1056.22
659.278	939.82
659.724	844.32
660.171	776.22
660.618	713.52
661.064	681.22
661.511	661.52
661.957	640.72
662.404	640.62
662.85	639.32
663.296	621.82
663.743	564.42
664.189	532.22
664.635	533.92
665.082	529.82
665.528	531.22
665.974	517.52
666.42	514.92
666.867	498.82
667.313	493.72
667.759	482.62
668.205	463.92
668.651	467.32
669.097	467.12
669.543	471.32
669.989	455.62
670.435	448.32
670.881	442.52
671.327	448.62
671.773	472.72
672.219	494.92
672.665	562.12
673.11	582.42
673.556	628.72
674.002	672.52
674.448	658.02
674.893	554.22
675.339	485.82
675.785	449.32
676.23	422.02
676.676	395.92
677.122	389.12
677.567	369.42
678.013	367.12
678.458	369.32
678.904	365.42
679.349	357.72
679.794	362.02
680.24	352.92
680.685	352.22
681.131	343.92
681.576	346.02
682.021	360.12
682.466	349.02
682.912	347.82
683.357	353.22
683.802	381.92
684.247	405.72
684.692	460.92
685.137	507.32
685.583	551.32
686.028	570.32
686.473	532.32
686.918	457.12
687.363	424.92
687.807	390.72
688.252	367.32
688.697	362.12
689.142	343.12
689.587	347.92
690.032	327.32
690.477	345.02
690.921	351.82
691.366	381.92
691.811	407.42
692.255	429.12
692.7	466.82
693.145	515.52
693.589	722.32
694.034	1170.12
694.478	1568.12
694.923	1766.52
695.367	2312.73
695.812	1206.42
696.256	506.92
696.701	366.02
697.145	354.22
697.59	336.62
698.034	329.62
698.478	329.02
698.922	330.52
699.367	328.82
699.811	342.02
700.255	367.82
700.699	400.42
701.143	433.12
701.588	478.72
702.032	523.72
702.476	521.62
702.92	504.92
703.364	501.32
703.808	655.72
704.252	1064.52
704.696	1483.12
705.14	1700.72
705.584	2167.23
706.027	1080.92
706.471	525.22
706.915	402.52
707.359	356.42
707.803	327.82
708.246	312.52
708.69	314.02
709.134	322.92
709.577	313.52
710.021	320.52
710.465	309.52
710.908	306.72
711.352	295.82
711.795	315.82
712.239	361.12
712.682	387.92
713.126	422.12
713.569	462.82
714.012	365.22
714.456	324.22
714.899	298.32
715.342	280.42
715.786	262.42
716.229	265.92
716.672	262.42
717.115	252.02
717.558	246.22
718.002	255.92
718.445	268.22
718.888	287.62
719.331	287.22
719.774	302.62
720.217	308.72
720.66	288.22
721.103	265.92
721.546	259.02
721.989	252.72
722.432	234.22
722.874	237.52
723.317	227.52
723.76	237.22
724.203	256.32
724.645	323.02
725.088	458.12
725.531	569.52
725.974	648.52
726.416	556.22
726.859	315.52
727.301	245.12
727.744	241.32
728.187	239.62
728.629	246.92
729.071	238.12
729.514	262.62
729.956	275.92
730.399	286.42
730.841	289.32
731.283	282.52
731.726	267.92
732.168	260.42
732.61	276.42
733.053	288.92
733.495	327.62
733.937	358.12
734.379	402.12
734.821	450.42
735.263	556.52
735.705	876.42
736.148	1626.12
736.59	2646.32
737.032	3109.42
737.474	2503.32
737.916	829.62
738.357	426.22
738.799	335.42
739.241	304.32
739.683	285.12
740.125	296.42
740.567	304.32
741.008	315.72
741.45	317.12
741.892	322.12
742.334	362.22
742.775	362.62
743.217	349.62
743.658	276.72
744.1	264.42
744.542	271.62
744.983	311.02
745.425	341.12
745.866	348.72
746.307	284.02
746.749	288.02
747.19	326.22
747.632	470.22
748.073	916.72
748.514	1927.53
748.956	2904.03
749.397	3663.63
749.838	3040.32
750.279	3016.72
750.72	1510.92
751.162	560.22
751.603	326.92
752.044	254.52
752.485	216.12
752.926	216.22
753.367	204.32
753.808	192.02
754.249	183.62
754.69	183.72
755.131	191.52
755.572	192.22
756.013	177.82
756.453	187.72
756.894	190.12
757.335	195.42
757.776	195.22
758.216	193.32
758.657	204.12
759.098	206.92
759.538	230.32
759.979	274.92
760.42	381.62
760.86	738.62
761.301	1910.53
761.741	4587.53
762.182	6573.92
762.622	4619.62
763.063	1341.12
763.503	546.92
763.943	343.02
764.384	303.82
764.824	340.02
765.264	354.72
765.705	267.82
766.145	200.12
766.585	177.92
767.025	179.52
767.465	178.42
767.906	225.12
768.346	273.32
768.786	289.32
769.226	254.82
769.666	320.92
770.106	633.42
770.546	1610.12
770.986	2682.23
771.426	2412.82
771.866	803.62
772.306	331.92
772.745	210.62
773.185	176.22
773.625	169.42
774.065	159.32
774.505	177.12
774.944	271.52
775.384	546.52
775.824	937.42
776.263	906.42
776.703	406.32
777.142	194.02
777.582	144.52
778.021	134.92
778.461	130.92
778.9	126.72
779.34	124.82
779.779	112.42
780.219	119.12
780.658	103.92
781.097	110.82
781.537	111.32
781.976	114.62
782.415	108.32
782.855	103.92
783.294	95.22
783.733	108.32
784.172	111.22
784.611	103.42
785.05	109.12
785.489	110.32
785.928	118.82
786.367	124.32
786.806	117.32
787.245	122.72
787.684	134.12
788.123	151.02
788.562	124.82
789.001	129.52
789.44	121.12
789.879	117.62
790.317	116.02
790.756	134.62
791.195	125.02
791.634	152.32
792.072	211.42
792.511	386.32
792.95	1038.72
793.388	2177.93
793.827	1951.52
794.265	686.32
794.704	281.22
795.142	185.12
795.581	163.52
796.019	133.92
796.458	131.72
796.896	117.72
797.334	135.92
797.773	158.42
798.211	217.92
798.649	456.92
799.087	1059.62
799.526	1639.22
799.964	2066.33
800.402	2040.43
800.84	770.02
801.278	304.82
801.716	192.02
802.154	153.42
802.592	145.92
803.03	141.72
803.468	138.42
803.906	147.72
804.344	154.72
804.782	141.12
805.22	131.92
805.658	133.32
806.096	149.72
806.533	156.72
806.971	174.82
807.409	223.82
807.847	330.82
808.284	705.32
808.722	1943.82
809.16	3378.93
809.597	3251.03
810.035	5590.23
810.472	5873.73
810.91	2137.32
811.347	817.92
811.785	415.72
812.222	265.32
812.66	191.32
813.097	166.42
813.535	142.42
813.972	126.42
814.409	126.02
814.846	115.92
815.284	113.12
815.721	102.62
816.158	103.02
816.595	115.62
817.032	164.62
817.47	185.82
817.907	145.32
818.344	121.12
818.781	109.12
819.218	100.02
819.655	129.92
820.092	194.72
820.529	216.72
820.966	177.82
821.403	132.62
821.839	106.12
822.276	101.62
822.713	126.42
823.15	146.92
823.587	114.72
824.023	154.42
824.46	314.62
824.897	930.22
825.333	1386.52
825.77	590.62
826.206	240.62
826.643	139.02
827.08	106.22
827.516	84.12
827.953	75.82
828.389	80.62
828.825	72.52
829.262	69.02
829.698	64.12
830.135	66.12
830.571	59.32
831.007	64.52
831.443	64.02
831.88	60.12
832.316	66.02
832.752	62.62
833.188	63.32
833.624	65.72
834.06	64.42
834.497	64.22
834.933	70.52
835.369	76.92
835.805	71.42
836.241	74.12
836.677	75.62
837.112	90.02
837.548	107.52
837.984	139.82
838.42	207.32
838.856	515.82
839.292	1557.83
839.727	2340.23
840.163	1092.92
840.599	949.22
841.034	2081.42
841.47	2151.53
841.906	798.52
842.341	339.52
842.777	222.32
843.212	258.82
843.648	250.12
844.083	136.52
844.519	90.02
844.954	72.52
845.39	58.82
845.825	54.42
846.261	60.42
846.696	53.92
847.131	51.62
847.566	54.32
848.002	52.72
848.437	57.12
848.872	58.42
849.307	64.22
849.742	88.22
850.177	182.52
850.613	573.22
851.048	897.12
851.483	381.92
851.918	152.52
852.353	86.52
852.788	61.02
853.223	53.72
853.657	54.72
854.092	46.42
854.527	39.12
854.962	34.22
855.397	43.42
855.832	52.72
856.266	38.72
856.701	42.32
857.136	37.12
857.57	42.92
858.005	46.02
858.44	53.92
858.874	44.42
859.309	51.02
859.743	39.12
860.178	46.62
860.612	41.32
861.047	49.82
861.481	71.32
861.915	72.42
862.35	49.22
862.784	32.12
863.218	35.72
863.653	29.42
864.087	40.72
864.521	50.02
864.955	69.52
865.39	159.42
865.824	182.82
866.258	120.12
866.692	174.42
867.126	179.42
867.56	105.92
867.994	50.92
868.428	38.42
868.862	51.62
869.296	58.52
869.73	60.72
870.164	55.72
870.598	51.22
871.031	36.22
871.465	27.02
871.899	32.22
872.333	18.42
872.766	29.72
873.2	20.72
873.634	27.92
874.067	20.02
874.501	26.02
874.935	36.32
875.368	30.82
875.802	27.92
876.235	18.62
876.669	27.62
877.102	24.02
877.535	26.02
877.969	22.32
878.402	24.32
878.836	15.92
879.269	22.92
879.702	24.52
880.135	18.72
880.569	22.22
881.002	23.22
881.435	18.62
881.868	15.82
882.301	24.02
882.734	17.32
883.167	20.72
883.601	14.02
884.034	16.72
884.467	16.32
884.899	21.02
885.332	20.62
885.765	20.82
886.198	19.72
886.631	12.42
887.064	14.52
887.497	23.32
887.929	27.92
888.362	13.12
888.795	11.82
889.228	19.72
889.66	18.72
890.093	19.62
890.526	13.52
890.958	15.42
891.391	18.52
891.823	18.72
892.256	15.22
892.688	12.62
893.121	15.52
893.553	16.72
893.985	23.62
894.418	18.62
894.85	11.82
895.282	17.62
895.715	13.02
896.147	16.42
896.579	14.12
897.011	8.12
897.444	16.72
897.876	15.72
898.308	17.32
898.74	16.82
899.172	12.02
899.604	25.92
900.036	13.62
900.468	11.62
900.9	12.82
901.332	19.72
901.764	15.02
902.196	12.52
902.628	18.32
903.06	18.62
903.491	30.62
903.923	21.32
904.355	18.22
904.787	28.12
905.218	23.62
905.65	22.12
906.082	10.42
906.513	14.82
906.945	17.02
907.376	12.52
907.808	22.22
908.239	16.52
908.671	17.42
909.102	17.22
909.534	21.72
909.965	49.42
910.397	97.12
910.828	317.72
911.259	479.42
911.691	220.32
912.122	108.72
912.553	51.32
912.984	31.72
913.415	22.02
913.847	23.12
914.278	15.82
914.709	16.42
915.14	24.12
915.571	18.12
916.002	19.72
916.433	20.42
916.864	13.82
917.295	7.62
917.726	19.42
918.157	15.62
918.587	31.42
919.018	24.32
919.449	23.42
919.88	24.02
920.311	29.62
920.741	48.12
921.172	167.52
921.603	151.72
922.033	69.62
922.464	47.12
922.895	24.32
923.325	21.62
923.756	15.52
924.186	14.92
924.617	21.12
925.047	30.32
925.478	37.62
925.908	32.72
926.338	18.62
926.769	15.52
927.199	19.02
927.629	7.62
928.06	16.62
928.49	14.52
928.92	12.12
929.35	10.02
929.78	11.92
930.21	7.72
930.641	8.42
931.071	11.32
931.501	-2.18
931.931	6.82
932.361	10.52
932.791	4.42
933.221	4.42
933.651	4.92
934.08	15.42
934.51	30.52
934.94	8.62
935.37	11.52
935.8	9.02
936.229	7.52
936.659	11.12
937.089	3.02
937.519	12.12
937.948	26.22
938.378	14.72
938.807	5.62
939.237	5.62
939.666	0.52
940.096	-8.98
940.525	0.82
940.955	-2.68
941.384	3.32
941.814	-6.88
942.243	3.62
942.672	-1.08
943.102	1.62
943.531	1.32
943.96	-2.78
944.39	1.22
944.819	2.22
945.248	4.12
945.677	4.42
946.106	7.12
946.535	5.12
946.964	-4.98
947.393	6.32
947.822	-1.98
948.251	-1.98
948.68	6.72
949.109	6.12
949.538	5.12
949.967	4.82
950.396	-2.88
950.825	1.32
951.254	0.62
951.682	-4.38
952.111	2.12
952.54	-1.98
952.969	-5.58
953.397	-4.08
953.826	-3.38
954.254	-10.98
954.683	-1.68
955.112	-3.38
955.54	2.52
955.969	4.02
956.397	0.02
956.826	-0.38
957.254	5.92
957.682	2.82
958.111	4.62
958.539	0.82
958.967	5.72
959.396	-1.48
959.824	-0.88
960.252	-2.58
960.68	-13.98
961.109	-7.38
961.537	-5.88
961.965	-5.38
962.393	-3.98
962.821	-4.98
963.249	-0.18
963.677	5.42
964.105	5.72
964.533	41.52
964.961	42.02
965.389	20.02
965.817	6.52
966.245	-0.48
966.672	-2.18
967.1	-6.58
967.528	6.32
967.956	-2.38
968.383	-3.18
968.811	-3.88
969.239	-1.98
969.666	-9.68
970.094	4.12
970.522	-0.28
970.949	-3.08
971.377	-3.08
971.804	-2.88
972.232	-2.48
972.659	-5.48
973.087	-2.58
973.514	-1.08
973.941	-0.58
974.369	5.82
974.796	2.72
975.223	-4.68
975.651	2.72
976.078	6.32
976.505	2.92
976.932	2.62
977.359	9.42
977.786	17.82
978.214	-2.28
978.641	-8.08
979.068	-0.68
979.495	0.32
979.922	-1.58
980.349	-3.38
980.776	-1.28
981.202	-3.18
981.629	5.02
982.056	6.02
982.483	-6.88
982.91	5.32
983.337	-5.08
983.763	3.22
984.19	-5.08
984.617	-6.08
985.043	-12.18
985.47	-4.08
985.897	-6.98
986.323	-10.18
986.75	4.22
987.176	0.42
987.603	-0.28
988.029	-3.28
988.456	-8.38
988.882	-4.38
989.308	-8.58
989.735	-8.98
990.161	-5.38
990.587	-7.48
991.014	0.82
991.44	4.12
991.866	-3.28
992.292	-6.88
992.719	2.32
993.145	0.72
993.571	-8.08
993.997	-6.08
994.423	2.32
994.849	-9.78
995.275	-3.58
995.701	-1.18
996.127	-8.28
996.553	-1.48
996.979	2.22
997.405	-1.28
997.83	-8.18
998.256	-2.98
998.682	-10.08
999.108	-3.08
999.534	-2.98
999.959	-7.98
1000.385	0.12
1000.811	-3.88
1001.236	-8.18
1001.662	-7.28
1002.087	-11.78
1002.513	-3.58
1002.938	0.92
1003.364	-2.48
1003.789	-2.68
1004.215	3.32
1004.64	-2.68
1005.066	-4.88
1005.491	3.52
1005.916	3.32
1006.342	-4.08
1006.767	-1.58
1007.192	4.42
1007.617	-3.58
1008.042	-6.78
1008.468	-7.58
1008.893	-2.48
1009.318	-8.08
1009.743	-6.28
1010.168	-3.28
1010.593	4.92
1011.018	-4.28
1011.443	-3.18
1011.868	-0.88
1012.293	-4.48
1012.718	-8.38
1013.143	-1.58
1013.567	1.32
1013.992	-5.58
1014.417	-15.78
1014.842	-1.38
1015.267	-4.48
1015.691	-5.38
1016.116	5.92
1016.541	0.62
1016.965	2.72
1017.39	-1.78
1017.814	-0.88
1018.239	-7.28
1018.663	-8.88
1019.088	-9.88
1019.512	-2.48
1019.937	-5.58
1020.361	-6.48
1020.785	-7.88
1021.21	-6.08
1021.634	-6.58
1022.058	-1.58
1022.483	7.32
1022.907	-4.98
1023.331	-1.78
1023.755	-2.48
1024.179	-4.38
1024.604	-4.58
1025.028	-9.98
1025.452	-6.48
1025.876	0.02
1026.3	0.02
1026.724	-10.28
1027.148	-8.28
1027.572	-6.28
1027.996	-3.58
1028.42	-3.38
1028.843	-3.68
1029.267	-5.88
1029.691	-3.18
1030.115	-7.78
1030.539	-7.68
1030.962	-6.98
1031.386	-12.08
1031.81	0.72
1032.233	0.22
1032.657	-2.28
1033.08	-4.38
1033.504	-1.48
1033.927	-3.38
1034.351	-2.68
1034.774	-4.28
1035.198	-2.78
1035.621	-7.48
1036.045	-6.48
1036.468	0.32
1036.891	-17.28
1037.315	-10.88
1037.738	-13.08
1038.161	-0.68
1038.584	-3.68
1039.008	-3.08
1039.431	-5.58
1039.854	-3.78
1040.277	-5.98
1040.7	-9.98
1041.123	-4.28
1041.546	-13.88
1041.969	-5.38
1042.392	-8.78
1042.815	-4.18
1043.238	0.52
1043.661	1.42
1044.084	-7.08
1044.507	-8.88
1044.93	-1.78
1045.352	-5.88
1045.775	-1.98
1046.198	-4.78
1046.621	-6.18
1047.043	-2.98
1047.466	3.42
1047.889	-4.18
1048.311	-8.38
1048.734	-7.28
1049.156	-1.68
1049.579	-5.88
1050.001	-4.68
1050.424	0.22
1050.846	-6.18
1051.269	-8.18
1051.691	-7.38
1052.113	-2.18
1052.536	-9.68
1052.958	-4.98
1053.38	-5.68
1053.802	-8.48
1054.225	7.52
1054.647	-8.18
1055.069	-8.08
1055.491	-3.68
1055.913	-6.88
1056.335	3.32
1056.757	-7.38
1057.179	-6.08
1057.601	-8.08
1058.023	0.52
1058.445	-7.38
1058.867	-4.78
1059.289	-0.88
1059.711	-5.48
1060.133	-3.78
1060.555	-6.18
1060.976	-9.38
1061.398	-5.28
1061.82	-4.98
1062.241	-8.08
1062.663	-6.38
1063.085	-2.78
1063.506	2.72
1063.928	-3.88
1064.35	2.72
1064.771	-7.28
1065.193	-0.68
1065.614	-17.28
1066.035	-4.28
1066.457	-5.08
1066.878	-0.68
1067.3	-4.28
1067.721	0.12
1068.142	-5.28
1068.564	-3.28
1068.985	-5.88
1069.406	-4.78
1069.827	-5.88
1070.248	0.42
1070.67	-7.58
1071.091	-8.68
1071.512	-9.88
1071.933	-8.48
1072.354	-13.68
1072.775	-6.58
1073.196	-3.28
1073.617	-7.48
1074.038	-11.38
1074.459	0.02
1074.88	-6.28
1075.3	-2.08
1075.721	-8.58
1076.142	-7.48
1076.563	-2.28
1076.983	-9.08
1077.404	-5.38
1077.825	-9.88
1078.246	-4.58
1078.666	-13.28
1079.087	-4.98
1079.507	-6.98
1079.928	-2.68
1080.348	-5.08
1080.769	-11.18
1081.189	-3.48
1081.61	-8.68
1082.03	-10.08
1082.451	-6.68
1082.871	-4.28
1083.291	-8.08
1083.711	-2.58
1084.132	-4.98
1084.552	-4.88
1084.972	-6.58
1085.392	-13.48
1085.813	-8.88
1086.233	-11.58
1086.653	-8.88
1087.073	0.52
1087.493	-1.48
1087.913	-5.48
1088.333	-5.78
1088.753	-2.48
1089.173	0.02
1089.593	-3.48
1090.013	1.82
1090.433	0.12
1090.852	-2.18
1091.272	-2.28
1091.692	-3.58
1092.112	-4.88
1092.531	-6.58
1092.951	-11.08
1093.371	-1.78
1093.79	1.52
1094.21	-2.58
1094.63	-8.08
1095.049	-8.78
1095.469	3.92
1095.888	-1.08
1096.308	-1.18
1096.727	4.82
1097.146	-6.88
1097.566	0.62
1097.985	-5.28
1098.405	-3.28
1098.824	-7.08
1099.243	-8.08
1099.662	-11.68
1100.082	-3.08
1100.501	-4.98
1100.92	-5.58
1101.339	-6.98
1101.758	-6.68
