Data from 20171114-ORNL-Ar_H_NY_Subt18_08-05-23-955.txt Node
Date: Tue Nov 14 08:05:23 EST 2017
User: Ender
Spectrometer: HR+D1039
Trigger mode: 0
Integration Time (sec): 2.730000E-2
Scans to average: 10
Electric dark correction enabled: true
Nonlinearity correction enabled: false
Boxcar width: 0
XAxis mode: Wavelengths
Number of Pixels in Spectrum: 2048
>>>>>Begin Spectral Data<<<<<
187.836	1.67
188.309	1.67
188.782	1.67
189.255	1.07
189.728	-2.43
190.201	5.67
190.674	3.87
191.147	1.37
191.619	-7.83
192.092	0.47
192.565	1.77
193.038	-0.73
193.511	-0.63
193.984	-0.13
194.456	-1.63
194.929	-0.03
195.402	-2.93
195.874	0.47
196.347	-3.63
196.82	-6.53
197.292	2.37
197.765	-6.13
198.237	-7.63
198.71	-2.23
199.182	-5.93
199.655	2.57
200.127	2.47
200.6	-6.13
201.072	-2.83
201.544	-4.93
202.017	-5.83
202.489	-1.73
202.961	-7.03
203.433	-0.13
203.906	-8.73
204.378	-10.33
204.85	-6.33
205.322	-4.33
205.794	-2.53
206.266	-5.73
206.739	-10.73
207.211	4.17
207.683	-10.13
208.155	-1.23
208.627	-2.43
209.099	-4.63
209.57	-8.73
210.042	-2.63
210.514	-2.83
210.986	-2.83
211.458	-6.53
211.93	-8.63
212.402	-4.73
212.873	-6.83
213.345	-9.13
213.817	-17.93
214.288	-4.73
214.76	-9.73
215.232	-3.33
215.703	-0.13
216.175	-4.33
216.646	-5.03
217.118	-9.83
217.589	-10.63
218.061	-0.43
218.532	-8.93
219.004	-1.53
219.475	2.97
219.946	-1.43
220.418	-13.83
220.889	5.07
221.36	-3.83
221.832	-2.43
222.303	-8.73
222.774	2.17
223.245	-14.23
223.717	-7.63
224.188	-1.93
224.659	-7.23
225.13	-1.93
225.601	-3.43
226.072	3.17
226.543	-0.13
227.014	2.87
227.485	-7.73
227.956	-4.73
228.427	0.97
228.898	-0.03
229.369	6.57
229.839	-0.53
230.31	-6.63
230.781	-0.43
231.252	3.07
231.722	-6.13
232.193	-4.03
232.664	0.77
233.135	2.27
233.605	3.37
234.076	-6.93
234.546	0.27
235.017	6.17
235.487	3.37
235.958	1.27
236.428	-3.23
236.899	1.17
237.369	3.57
237.84	-0.63
238.31	7.07
238.78	0.47
239.251	-0.53
239.721	1.47
240.191	0.67
240.662	-4.13
241.132	5.37
241.602	-4.63
242.072	-1.43
242.542	4.57
243.013	2.47
243.483	2.47
243.953	-0.23
244.423	-7.23
244.893	-3.93
245.363	5.07
245.833	2.97
246.303	3.17
246.773	8.47
247.243	5.17
247.712	1.47
248.182	8.47
248.652	7.47
249.122	-2.03
249.592	15.27
250.061	16.07
250.531	34.67
251.001	17.37
251.471	17.97
251.94	21.77
252.41	6.57
252.879	-0.23
253.349	10.57
253.818	13.17
254.288	4.17
254.757	3.37
255.227	4.97
255.696	3.67
256.166	3.77
256.635	9.57
257.105	9.77
257.574	4.07
258.043	15.37
258.513	16.57
258.982	15.97
259.451	12.37
259.92	16.17
260.389	10.97
260.859	20.77
261.328	15.27
261.797	20.07
262.266	9.37
262.735	15.67
263.204	4.67
263.673	1.77
264.142	10.67
264.611	-0.33
265.08	0.97
265.549	-2.73
266.018	8.47
266.487	-3.43
266.955	-1.33
267.424	-1.23
267.893	3.27
268.362	-0.63
268.83	0.47
269.299	13.07
269.768	6.67
270.236	9.87
270.705	6.97
271.174	3.77
271.642	10.17
272.111	7.97
272.579	23.97
273.048	23.97
273.516	33.07
273.985	32.57
274.453	24.67
274.922	19.27
275.39	13.07
275.858	4.17
276.327	13.17
276.795	20.17
277.263	17.87
277.731	29.67
278.2	55.87
278.668	64.27
279.136	49.07
279.604	20.67
280.072	17.07
280.54	12.77
281.008	4.87
281.477	18.27
281.945	11.37
282.413	13.17
282.881	15.77
283.348	8.67
283.816	15.07
284.284	19.77
284.752	20.27
285.22	12.07
285.688	19.07
286.156	14.27
286.623	52.57
287.091	58.57
287.559	30.67
288.026	18.17
288.494	18.87
288.962	7.57
289.429	11.17
289.897	25.07
290.364	20.67
290.832	18.37
291.3	14.77
291.767	15.87
292.234	17.67
292.702	17.37
293.169	16.47
293.637	23.37
294.104	28.27
294.571	11.37
295.039	11.17
295.506	24.57
295.973	18.57
296.44	18.97
296.908	18.17
297.375	20.87
297.842	17.87
298.309	15.47
298.776	16.37
299.243	22.07
299.71	11.87
300.177	17.47
300.644	23.67
301.111	24.17
301.578	27.27
302.045	24.07
302.512	23.07
302.979	26.77
303.446	29.87
303.913	22.47
304.379	22.57
304.846	32.27
305.313	26.17
305.78	27.87
306.246	24.27
306.713	22.77
307.18	33.57
307.646	28.67
308.113	21.57
308.579	28.27
309.046	30.57
309.512	31.87
309.979	23.97
310.445	36.07
310.912	28.37
311.378	33.67
311.845	31.97
312.311	31.87
312.777	29.37
313.244	35.97
313.71	41.57
314.176	32.97
314.642	33.47
315.109	39.17
315.575	41.37
316.041	35.77
316.507	31.67
316.973	41.57
317.439	41.97
317.905	37.77
318.371	36.07
318.837	32.67
319.303	34.97
319.769	31.27
320.235	38.27
320.701	33.57
321.167	38.17
321.633	38.97
322.099	37.17
322.564	48.77
323.03	48.77
323.496	46.27
323.962	43.27
324.427	34.07
324.893	46.67
325.359	40.37
325.824	37.77
326.29	44.17
326.755	41.57
327.221	40.97
327.686	37.27
328.152	48.37
328.617	49.47
329.083	46.77
329.548	48.97
330.014	45.67
330.479	43.57
330.944	42.97
331.41	40.17
331.875	43.37
332.34	44.77
332.805	46.37
333.271	47.77
333.736	41.97
334.201	55.47
334.666	53.57
335.131	58.37
335.596	49.87
336.061	54.87
336.526	39.37
336.991	46.87
337.456	56.77
337.921	53.97
338.386	48.67
338.851	44.77
339.316	50.17
339.781	50.27
340.246	50.57
340.711	48.67
341.175	57.57
341.64	50.87
342.105	53.07
342.569	59.97
343.034	57.87
343.499	64.07
343.963	57.87
344.428	65.27
344.893	58.87
345.357	63.67
345.822	62.57
346.286	75.27
346.751	79.47
347.215	68.47
347.679	78.07
348.144	100.87
348.608	89.57
349.073	73.47
349.537	75.27
350.001	82.97
350.465	95.47
350.93	84.27
351.394	87.17
351.858	69.07
352.322	88.57
352.786	89.67
353.25	103.17
353.715	112.67
354.179	105.57
354.643	121.37
355.107	123.47
355.571	110.47
356.035	108.87
356.498	117.77
356.962	129.37
357.426	133.47
357.89	120.07
358.354	96.17
358.818	88.57
359.281	85.57
359.745	77.97
360.209	81.57
360.673	77.47
361.136	82.77
361.6	88.57
362.064	92.87
362.527	74.27
362.991	96.47
363.454	82.57
363.918	73.87
364.381	78.27
364.845	77.37
365.308	78.77
365.772	85.17
366.235	88.67
366.698	82.67
367.162	88.37
367.625	91.17
368.088	92.57
368.552	88.27
369.015	95.17
369.478	100.47
369.941	104.97
370.404	97.17
370.867	108.17
371.331	103.87
371.794	115.47
372.257	108.27
372.72	112.77
373.183	110.07
373.646	102.27
374.109	110.07
374.572	112.57
375.035	110.27
375.497	117.37
375.96	103.07
376.423	111.17
376.886	120.17
377.349	101.07
377.811	102.67
378.274	108.77
378.737	108.67
379.199	112.97
379.662	117.37
380.125	122.77
380.587	118.47
381.05	125.77
381.512	128.07
381.975	139.07
382.437	132.67
382.9	122.97
383.362	132.27
383.825	142.47
384.287	150.37
384.75	143.77
385.212	146.57
385.674	139.57
386.136	144.27
386.599	124.27
387.061	128.87
387.523	124.27
387.985	136.37
388.447	144.37
388.91	147.87
389.372	161.27
389.834	151.37
390.296	145.87
390.758	161.47
391.22	166.17
391.682	200.47
392.144	293.97
392.606	227.97
393.068	177.17
393.529	170.87
393.991	148.27
394.453	143.87
394.915	153.97
395.377	186.37
395.838	213.37
396.3	149.37
396.762	142.47
397.224	131.47
397.685	137.37
398.147	134.47
398.608	126.17
399.07	130.37
399.531	137.67
399.993	137.37
400.454	152.57
400.916	138.57
401.377	142.57
401.839	147.07
402.3	153.37
402.762	166.27
403.223	171.87
403.684	163.47
404.145	160.77
404.607	161.17
405.068	165.07
405.529	174.27
405.99	189.07
406.451	180.27
406.913	170.97
407.374	168.77
407.835	163.67
408.296	166.47
408.757	178.17
409.218	186.37
409.679	176.97
410.14	170.47
410.601	176.17
411.062	178.97
411.522	188.67
411.983	183.57
412.444	173.37
412.905	183.67
413.366	183.77
413.826	195.67
414.287	214.97
414.748	259.07
415.208	242.07
415.669	210.67
416.13	204.17
416.59	204.77
417.051	203.47
417.511	214.57
417.972	232.17
418.432	248.27
418.893	285.17
419.353	247.57
419.814	194.37
420.274	185.47
420.734	183.17
421.195	197.47
421.655	186.97
422.115	190.17
422.576	189.67
423.036	190.67
423.496	212.47
423.956	213.07
424.416	225.57
424.876	263.67
425.336	263.17
425.797	255.17
426.257	254.87
426.717	235.27
427.177	228.07
427.637	224.97
428.097	234.27
428.556	241.97
429.016	267.97
429.476	261.07
429.936	277.87
430.396	274.67
430.856	291.17
431.315	313.27
431.775	344.37
432.235	370.77
432.694	349.07
433.154	353.77
433.614	385.37
434.073	340.27
434.533	285.27
434.993	270.27
435.452	279.17
435.912	294.47
436.371	280.87
436.83	283.17
437.29	268.17
437.749	246.67
438.209	240.57
438.668	271.47
439.127	288.87
439.587	266.37
440.046	248.47
440.505	253.97
440.964	284.97
441.424	321.87
441.883	307.27
442.342	258.47
442.801	229.87
443.26	219.47
443.719	222.17
444.178	217.67
444.637	205.17
445.096	221.27
445.555	220.07
446.014	224.77
446.473	225.47
446.932	230.47
447.391	221.67
447.849	223.27
448.308	216.37
448.767	217.87
449.226	235.77
449.685	228.17
450.143	243.17
450.602	245.97
451.061	235.17
451.519	228.97
451.978	233.77
452.436	239.47
452.895	230.17
453.353	243.37
453.812	245.77
454.27	233.67
454.729	233.87
455.187	231.67
455.646	240.37
456.104	244.57
456.562	259.97
457.021	264.17
457.479	255.17
457.937	266.37
458.395	257.47
458.854	251.17
459.312	254.37
459.77	284.57
460.228	258.77
460.686	243.67
461.144	246.97
461.602	241.27
462.06	235.17
462.518	246.57
462.976	259.37
463.434	257.67
463.892	261.67
464.35	279.27
464.808	286.37
465.266	256.87
465.724	260.47
466.181	270.67
466.639	271.87
467.097	287.77
467.555	297.37
468.012	297.77
468.47	307.17
468.928	325.67
469.385	340.47
469.843	353.67
470.3	348.27
470.758	367.57
471.215	385.07
471.673	410.37
472.13	403.07
472.588	420.97
473.045	365.77
473.503	374.77
473.96	394.07
474.417	397.37
474.875	434.07
475.332	475.67
475.789	466.27
476.246	462.07
476.704	482.87
477.161	501.17
477.618	520.57
478.075	561.47
478.532	616.17
478.989	690.77
479.446	804.37
479.903	759.07
480.36	808.67
480.817	867.67
481.274	975.27
481.731	1081.67
482.188	1150.57
482.645	1294.17
483.102	1416.77
483.558	1543.67
484.015	1616.17
484.472	1568.67
484.929	1528.37
485.385	1469.87
485.842	1433.77
486.299	1372.17
486.755	1294.97
487.212	1101.57
487.668	929.57
488.125	856.67
488.582	778.07
489.038	754.87
489.494	713.17
489.951	691.27
490.407	667.17
490.864	644.67
491.32	643.87
491.776	640.97
492.233	638.17
492.689	608.87
493.145	600.17
493.602	599.87
494.058	618.67
494.514	616.67
494.97	636.17
495.426	643.87
495.882	626.67
496.338	607.77
496.794	623.97
497.251	620.97
497.707	632.77
498.163	640.57
498.618	640.27
499.074	642.87
499.53	679.97
499.986	683.17
500.442	656.67
500.898	623.17
501.354	622.37
501.809	633.77
502.265	636.57
502.721	641.87
503.177	661.47
503.632	661.27
504.088	664.87
504.543	704.37
504.999	705.67
505.455	659.17
505.91	635.67
506.366	631.67
506.821	624.07
507.277	616.27
507.732	627.17
508.187	619.27
508.643	633.57
509.098	628.77
509.553	649.87
510.009	658.07
510.464	675.87
510.919	682.37
511.375	692.27
511.83	698.17
512.285	719.57
512.74	763.27
513.195	788.47
513.65	763.77
514.105	769.37
514.56	779.47
515.015	785.27
515.47	803.67
515.925	797.37
516.38	782.77
516.835	794.27
517.29	787.77
517.745	785.57
518.2	759.17
518.655	758.17
519.109	738.17
519.564	734.67
520.019	734.57
520.474	734.27
520.928	724.97
521.383	714.17
521.838	711.77
522.292	710.77
522.747	708.67
523.201	701.07
523.656	691.07
524.11	692.87
524.565	684.57
525.019	683.77
525.474	693.37
525.928	707.97
526.382	695.97
526.837	700.77
527.291	700.87
527.745	696.77
528.2	698.17
528.654	683.57
529.108	684.17
529.562	686.57
530.016	691.27
530.47	691.37
530.925	681.17
531.379	694.47
531.833	709.37
532.287	697.87
532.741	700.87
533.195	702.47
533.649	714.27
534.103	720.47
534.556	708.37
535.01	705.77
535.464	708.57
535.918	717.37
536.372	715.17
536.826	722.87
537.279	696.97
537.733	709.87
538.187	720.37
538.64	710.27
539.094	724.07
539.548	718.27
540.001	725.87
540.455	710.97
540.908	723.97
541.362	731.07
541.815	733.57
542.269	746.87
542.722	747.57
543.175	763.47
543.629	756.47
544.082	775.07
544.536	780.27
544.989	776.07
545.442	780.57
545.895	778.47
546.349	787.17
546.802	777.47
547.255	783.77
547.708	798.87
548.161	808.77
548.614	804.47
549.067	814.07
549.52	812.67
549.973	795.47
550.426	796.37
550.879	784.27
551.332	785.27
551.785	797.57
552.238	799.87
552.691	808.17
553.144	825.97
553.596	836.37
554.049	856.27
554.502	892.57
554.955	903.97
555.407	908.97
555.86	893.97
556.313	885.17
556.765	880.77
557.218	866.87
557.67	864.77
558.123	869.27
558.576	856.57
559.028	860.87
559.48	873.77
559.933	858.67
560.385	822.07
560.838	796.37
561.29	774.17
561.742	766.17
562.195	751.07
562.647	750.27
563.099	762.87
563.551	761.27
564.004	771.47
564.456	760.87
564.908	748.27
565.36	735.07
565.812	717.17
566.264	714.77
566.716	716.07
567.168	706.77
567.62	710.97
568.072	692.07
568.524	679.67
568.976	677.47
569.428	668.47
569.88	659.37
570.332	663.47
570.784	678.57
571.235	667.07
571.687	684.37
572.139	692.07
572.59	703.27
573.042	696.77
573.494	697.77
573.945	698.77
574.397	676.27
574.849	678.17
575.3	683.67
575.752	674.87
576.203	668.67
576.655	670.27
577.106	657.87
577.557	650.27
578.009	648.57
578.46	654.67
578.912	651.37
579.363	656.77
579.814	656.17
580.265	653.37
580.717	664.17
581.168	653.27
581.619	666.07
582.07	662.97
582.521	666.37
582.972	657.57
583.423	659.37
583.875	660.57
584.326	677.67
584.777	722.27
585.227	798.57
585.678	880.87
586.129	965.07
586.58	1034.67
587.031	1120.87
587.482	1272.17
587.933	1447.67
588.384	1255.07
588.834	935.77
589.285	777.37
589.736	754.97
590.186	755.17
590.637	749.97
591.088	727.37
591.538	723.37
591.989	713.57
592.439	705.37
592.89	706.27
593.34	692.67
593.791	686.87
594.241	687.27
594.692	689.97
595.142	690.27
595.593	685.87
596.043	689.07
596.493	691.07
596.943	695.07
597.394	705.17
597.844	685.67
598.294	705.47
598.744	729.87
599.195	753.27
599.645	802.17
600.095	831.47
600.545	883.37
600.995	937.97
601.445	981.67
601.895	1061.77
602.345	1097.57
602.795	1072.47
603.245	1033.17
603.695	985.37
604.145	931.17
604.594	886.37
605.044	843.57
605.494	785.67
605.944	734.47
606.393	712.77
606.843	706.47
607.293	713.47
607.743	710.17
608.192	718.67
608.642	729.87
609.091	736.77
609.541	748.07
609.99	745.47
610.44	734.27
610.889	694.77
611.339	674.57
611.788	669.47
612.238	677.37
612.687	693.77
613.136	691.37
613.586	718.77
614.035	713.37
614.484	726.67
614.933	733.87
615.383	729.17
615.832	713.17
616.281	702.17
616.73	667.07
617.179	643.17
617.628	627.47
618.077	614.67
618.526	603.57
618.975	593.77
619.424	600.67
619.873	589.27
620.322	585.17
620.771	581.87
621.22	582.67
621.669	579.67
622.118	563.07
622.567	559.67
623.015	549.47
623.464	551.07
623.913	535.17
624.361	532.07
624.81	531.67
625.259	531.77
625.707	534.17
626.156	532.87
626.604	541.47
627.053	540.77
627.501	541.47
627.95	546.87
628.398	549.67
628.847	542.07
629.295	546.47
629.744	555.27
630.192	544.07
630.64	545.67
631.089	537.07
631.537	551.37
631.985	558.97
632.433	574.67
632.881	576.27
633.33	628.87
633.778	609.17
634.226	538.77
634.674	545.37
635.122	547.87
635.57	570.97
636.018	604.07
636.466	556.27
636.914	528.67
637.362	542.47
637.81	550.47
638.258	552.47
638.705	550.17
639.153	581.57
639.601	589.67
640.049	611.57
640.497	639.47
640.944	667.67
641.392	611.47
641.84	581.97
642.287	558.77
642.735	539.17
643.182	543.57
643.63	543.27
644.078	545.77
644.525	571.37
644.973	567.97
645.42	572.17
645.867	593.47
646.315	604.37
646.762	635.77
647.21	661.47
647.657	678.67
648.104	713.37
648.551	736.97
648.999	802.67
649.446	861.47
649.893	956.07
650.34	1104.67
650.787	1316.67
651.234	1622.87
651.682	2137.17
652.129	2909.97
652.576	4196.87
653.023	6232.27
653.47	8568.67
653.917	10741.07
654.363	12484.67
654.81	13875.07
655.257	13241.77
655.704	8613.87
656.151	5086.57
656.598	3299.37
657.044	2332.07
657.491	1786.57
657.938	1434.97
658.385	1184.77
658.831	1037.77
659.278	926.07
659.724	813.07
660.171	757.87
660.618	697.47
661.064	654.87
661.511	631.97
661.957	624.87
662.404	615.57
662.85	611.17
663.296	587.07
663.743	540.97
664.189	509.87
664.635	510.97
665.082	495.17
665.528	503.87
665.974	496.07
666.42	484.27
666.867	475.17
667.313	460.37
667.759	451.57
668.205	453.87
668.651	461.67
669.097	453.97
669.543	470.67
669.989	442.37
670.435	422.87
670.881	424.57
671.327	426.17
671.773	436.37
672.219	455.37
672.665	512.17
673.11	547.87
673.556	588.57
674.002	639.87
674.448	616.47
674.893	517.67
675.339	457.77
675.785	414.27
676.23	386.87
676.676	371.27
677.122	359.57
677.567	357.77
678.013	352.37
678.458	339.67
678.904	345.87
679.349	322.37
679.794	330.67
680.24	330.97
680.685	322.17
681.131	331.57
681.576	327.07
682.021	329.27
682.466	330.27
682.912	322.37
683.357	326.87
683.802	354.97
684.247	387.17
684.692	436.17
685.137	466.97
685.583	506.27
686.028	528.07
686.473	493.57
686.918	426.17
687.363	391.17
687.807	369.27
688.252	350.47
688.697	334.67
689.142	314.17
689.587	309.67
690.032	311.47
690.477	321.17
690.921	327.87
691.366	354.77
691.811	387.57
692.255	408.47
692.7	427.97
693.145	465.97
693.589	641.07
694.034	1049.27
694.478	1432.97
694.923	1647.27
695.367	2160.97
695.812	1126.07
696.256	469.67
696.701	343.37
697.145	321.57
697.59	303.97
698.034	294.67
698.478	309.97
698.922	313.37
699.367	310.17
699.811	313.87
700.255	332.07
700.699	352.17
701.143	397.37
701.588	443.07
702.032	482.47
702.476	476.17
702.92	456.17
703.364	455.77
703.808	574.67
704.252	948.37
704.696	1368.77
705.14	1573.57
705.584	2027.97
706.027	999.97
706.471	484.77
706.915	373.87
707.359	321.07
707.803	298.27
708.246	285.17
708.69	291.07
709.134	295.57
709.577	290.57
710.021	291.67
710.465	286.47
710.908	288.17
711.352	282.97
711.795	295.07
712.239	328.87
712.682	361.27
713.126	388.07
713.569	435.67
714.012	353.47
714.456	300.47
714.899	280.27
715.342	260.47
715.786	243.67
716.229	241.67
716.672	244.47
717.115	232.57
717.558	236.37
718.002	234.67
718.445	249.87
718.888	263.47
719.331	271.97
719.774	293.87
720.217	280.57
720.66	267.37
721.103	249.67
721.546	238.97
721.989	237.37
722.432	221.17
722.874	227.37
723.317	212.47
723.76	218.77
724.203	239.87
724.645	301.47
725.088	412.67
725.531	525.97
725.974	610.17
726.416	515.27
726.859	276.97
727.301	227.67
727.744	220.77
728.187	218.57
728.629	230.57
729.071	225.27
729.514	241.37
729.956	253.27
730.399	270.37
730.841	262.77
731.283	257.07
731.726	247.67
732.168	248.87
732.61	242.67
733.053	265.37
733.495	290.07
733.937	322.77
734.379	362.97
734.821	400.57
735.263	498.97
735.705	760.47
736.148	1434.67
736.59	2384.77
737.032	2884.17
737.474	2348.37
737.916	750.57
738.357	400.47
738.799	309.47
739.241	276.07
739.683	262.87
740.125	272.47
740.567	276.37
741.008	292.77
741.45	288.17
741.892	301.67
742.334	333.07
742.775	343.27
743.217	319.87
743.658	249.67
744.1	230.87
744.542	244.67
744.983	291.87
745.425	320.87
745.866	324.07
746.307	267.47
746.749	267.07
747.19	299.27
747.632	412.47
748.073	802.67
748.514	1697.77
748.956	2654.47
749.397	3307.07
749.838	2754.97
750.279	2777.87
750.72	1408.07
751.162	516.87
751.603	300.27
752.044	239.17
752.485	204.37
752.926	197.67
753.367	192.17
753.808	178.07
754.249	176.97
754.69	175.77
755.131	174.97
755.572	168.77
756.013	168.27
756.453	179.37
756.894	177.97
757.335	173.57
757.776	180.87
758.216	178.87
758.657	181.97
759.098	187.67
759.538	207.17
759.979	239.67
760.42	337.27
760.86	631.47
761.301	1639.77
761.741	4049.37
762.182	6090.97
762.622	4290.97
763.063	1227.47
763.503	505.67
763.943	319.27
764.384	310.17
764.824	364.77
765.264	401.97
765.705	277.57
766.145	200.47
766.585	178.07
767.025	165.47
767.465	176.57
767.906	216.87
768.346	289.97
768.786	310.47
769.226	245.27
769.666	285.87
770.106	561.47
770.546	1404.97
770.986	2458.37
771.426	2255.27
771.866	740.07
772.306	298.97
772.745	191.57
773.185	160.67
773.625	158.47
774.065	151.37
774.505	180.47
774.944	283.87
775.384	616.67
775.824	1145.77
776.263	1135.37
776.703	476.17
777.142	206.27
777.582	145.47
778.021	123.87
778.461	125.87
778.9	124.97
779.34	125.97
779.779	109.67
780.219	102.97
780.658	94.07
781.097	106.97
781.537	108.87
781.976	101.67
782.415	102.87
782.855	95.77
783.294	95.07
783.733	97.87
784.172	105.87
784.611	95.47
785.05	105.87
785.489	106.27
785.928	107.17
786.367	111.17
786.806	108.57
787.245	118.37
787.684	128.07
788.123	140.37
788.562	123.47
789.001	119.37
789.44	112.37
789.879	113.07
790.317	107.97
790.756	119.47
791.195	117.47
791.634	130.37
792.072	190.77
792.511	329.27
792.95	907.57
793.388	2008.47
793.827	1846.77
794.265	638.77
794.704	264.97
795.142	171.87
795.581	140.77
796.019	127.47
796.458	122.97
796.896	113.17
797.334	123.47
797.773	146.17
798.211	200.07
798.649	398.57
799.087	940.37
799.526	1466.37
799.964	1861.17
800.402	1904.57
800.84	700.07
801.278	277.57
801.716	170.57
802.154	140.17
802.592	136.87
803.03	129.07
803.468	123.97
803.906	132.17
804.344	136.07
804.782	128.27
805.22	124.87
805.658	123.97
806.096	137.87
806.533	142.07
806.971	162.97
807.409	195.67
807.847	285.57
808.284	601.47
808.722	1690.87
809.16	3082.57
809.597	2873.97
810.035	4997.47
810.472	5468.77
810.91	1967.47
811.347	732.57
811.785	375.87
812.222	235.27
812.66	178.37
813.097	154.17
813.535	130.97
813.972	117.37
814.409	112.47
814.846	101.17
815.284	101.67
815.721	96.67
816.158	92.67
816.595	109.97
817.032	172.77
817.47	181.57
817.907	157.37
818.344	140.87
818.781	108.97
819.218	95.47
819.655	117.97
820.092	169.17
820.529	198.07
820.966	170.27
821.403	128.77
821.839	104.57
822.276	93.57
822.713	110.27
823.15	126.77
823.587	104.77
824.023	137.47
824.46	270.37
824.897	817.87
825.333	1266.27
825.77	545.27
826.206	217.37
826.643	132.37
827.08	89.77
827.516	77.57
827.953	69.07
828.389	75.57
828.825	64.57
829.262	58.77
829.698	56.87
830.135	59.87
830.571	63.07
831.007	59.87
831.443	52.87
831.88	53.77
832.316	60.07
832.752	57.07
833.188	59.67
833.624	60.27
834.06	63.57
834.497	66.37
834.933	67.77
835.369	64.77
835.805	71.87
836.241	67.87
836.677	75.87
837.112	79.17
837.548	101.47
837.984	123.57
838.42	184.17
838.856	438.87
839.292	1391.77
839.727	2175.17
840.163	1001.37
840.599	835.07
841.034	1875.87
841.47	2016.17
841.906	733.87
842.341	306.87
842.777	216.67
843.212	288.07
843.648	296.47
844.083	142.97
844.519	81.17
844.954	74.17
845.39	53.67
845.825	49.17
846.261	57.07
846.696	51.87
847.131	54.07
847.566	55.17
848.002	46.67
848.437	50.87
848.872	56.17
849.307	62.87
849.742	79.97
850.177	159.87
850.613	501.57
851.048	818.37
851.483	350.47
851.918	139.77
852.353	79.27
852.788	51.27
853.223	47.27
853.657	49.97
854.092	46.17
854.527	40.07
854.962	39.47
855.397	43.37
855.832	45.87
856.266	36.17
856.701	36.67
857.136	38.27
857.57	39.07
858.005	44.37
858.44	50.87
858.874	39.17
859.309	48.87
859.743	38.17
860.178	41.27
860.612	37.57
861.047	47.17
861.481	60.87
861.915	67.77
862.35	48.67
862.784	26.97
863.218	39.77
863.653	31.27
864.087	42.57
864.521	45.77
864.955	65.47
865.39	146.27
865.824	168.37
866.258	113.47
866.692	155.67
867.126	162.77
867.56	101.47
867.994	46.07
868.428	32.87
868.862	39.47
869.296	54.17
869.73	56.67
870.164	50.57
870.598	49.57
871.031	38.47
871.465	27.97
871.899	25.07
872.333	26.67
872.766	24.37
873.2	23.47
873.634	30.87
874.067	26.17
874.501	24.67
874.935	36.87
875.368	24.67
875.802	21.67
876.235	21.47
876.669	27.57
877.102	20.97
877.535	23.57
877.969	25.07
878.402	21.97
878.836	17.27
879.269	26.67
879.702	17.57
880.135	23.17
880.569	21.27
881.002	25.97
881.435	21.97
881.868	17.47
882.301	21.77
882.734	13.47
883.167	20.17
883.601	23.17
884.034	22.17
884.467	17.87
884.899	14.97
885.332	19.77
885.765	16.37
886.198	7.47
886.631	14.87
887.064	17.07
887.497	17.77
887.929	21.87
888.362	12.37
888.795	10.07
889.228	20.97
889.66	24.07
890.093	17.87
890.526	15.47
890.958	15.97
891.391	17.77
891.823	22.57
892.256	12.07
892.688	13.47
893.121	12.67
893.553	13.77
893.985	21.77
894.418	19.87
894.85	13.57
895.282	15.27
895.715	14.47
896.147	16.17
896.579	14.17
897.011	11.37
897.444	12.37
897.876	13.47
898.308	18.17
898.74	17.07
899.172	13.47
899.604	20.47
900.036	16.77
900.468	15.47
900.9	10.97
901.332	19.27
901.764	14.47
902.196	16.97
902.628	21.47
903.06	15.67
903.491	29.77
903.923	19.87
904.355	23.47
904.787	21.87
905.218	23.67
905.65	18.37
906.082	10.27
906.513	8.97
906.945	14.07
907.376	14.17
907.808	19.57
908.239	25.37
908.671	18.77
909.102	22.77
909.534	26.27
909.965	43.57
910.397	82.57
910.828	292.77
911.259	452.07
911.691	201.27
912.122	97.87
912.553	48.07
912.984	33.87
913.415	26.47
913.847	22.17
914.278	15.77
914.709	11.57
915.14	24.37
915.571	18.17
916.002	10.77
916.433	19.27
916.864	12.17
917.295	9.77
917.726	17.17
918.157	14.37
918.587	22.27
919.018	22.47
919.449	14.97
919.88	20.27
920.311	27.67
920.741	46.97
921.172	151.07
921.603	139.17
922.033	66.57
922.464	43.77
922.895	22.37
923.325	20.57
923.756	18.57
924.186	15.27
924.617	23.37
925.047	36.47
925.478	54.57
925.908	38.17
926.338	25.77
926.769	15.67
927.199	22.87
927.629	9.67
928.06	13.07
928.49	15.47
928.92	17.57
929.35	10.67
929.78	4.37
930.21	5.57
930.641	6.27
931.071	9.97
931.501	4.57
931.931	8.97
932.361	6.07
932.791	7.77
933.221	4.37
933.651	2.77
934.08	16.07
934.51	27.37
934.94	7.47
935.37	6.27
935.8	9.57
936.229	10.87
936.659	3.37
937.089	1.07
937.519	14.47
937.948	24.47
938.378	17.57
938.807	0.57
939.237	0.87
939.666	4.27
940.096	-6.33
940.525	-2.73
940.955	0.37
941.384	5.37
941.814	-8.33
942.243	-2.93
942.672	-1.03
943.102	-0.33
943.531	2.07
943.96	0.07
944.39	0.07
944.819	2.47
945.248	9.77
945.677	1.47
946.106	1.17
946.535	3.57
946.964	-0.73
947.393	-0.13
947.822	-0.03
948.251	-6.53
948.68	7.57
949.109	6.17
949.538	4.57
949.967	-2.53
950.396	1.37
950.825	2.07
951.254	-2.73
951.682	-8.53
952.111	-0.93
952.54	6.57
952.969	0.67
953.397	-8.23
953.826	-5.53
954.254	-6.83
954.683	-5.73
955.112	-0.13
955.54	2.27
955.969	-1.13
956.397	-1.33
956.826	-1.93
957.254	3.07
957.682	-3.93
958.111	4.17
958.539	-8.93
958.967	-1.33
959.396	-2.13
959.824	6.67
960.252	1.77
960.68	-6.53
961.109	-4.23
961.537	-3.63
961.965	7.47
962.393	0.67
962.821	-5.63
963.249	-2.33
963.677	8.17
964.105	8.47
964.533	44.37
964.961	44.27
965.389	22.27
965.817	5.37
966.245	-2.03
966.672	1.87
967.1	-6.63
967.528	1.17
967.956	-5.63
968.383	1.67
968.811	-1.23
969.239	-1.53
969.666	-5.73
970.094	-4.83
970.522	-5.03
970.949	-1.03
971.377	-5.83
971.804	-6.33
972.232	-2.93
972.659	-2.63
973.087	-0.83
973.514	-8.43
973.941	1.87
974.369	9.97
974.796	-1.73
975.223	-0.63
975.651	-1.93
976.078	1.07
976.505	-3.53
976.932	2.47
977.359	11.37
977.786	17.87
978.214	1.27
978.641	-4.83
979.068	-1.33
979.495	0.07
979.922	-0.53
980.349	-10.83
980.776	4.27
981.202	-3.23
981.629	1.17
982.056	4.37
982.483	-4.63
982.91	2.17
983.337	-3.73
983.763	-0.23
984.19	-4.13
984.617	-1.73
985.043	-10.33
985.47	-2.13
985.897	-5.43
986.323	-8.53
986.75	3.57
987.176	-4.33
987.603	-5.73
988.029	0.37
988.456	-4.83
988.882	6.77
989.308	-5.83
989.735	-3.23
990.161	-1.13
990.587	-8.43
991.014	-1.53
991.44	5.07
991.866	-3.83
992.292	-4.13
992.719	-3.83
993.145	-2.13
993.571	-4.23
993.997	-8.73
994.423	-7.43
994.849	-2.13
995.275	4.87
995.701	1.97
996.127	-1.73
996.553	0.37
996.979	-1.33
997.405	3.27
997.83	-7.23
998.256	-5.33
998.682	-3.73
999.108	-6.93
999.534	-3.63
999.959	-2.13
1000.385	-7.53
1000.811	1.87
1001.236	-9.73
1001.662	-7.03
1002.087	-11.63
1002.513	0.97
1002.938	-0.33
1003.364	1.37
1003.789	-2.23
1004.215	6.17
1004.64	-0.43
1005.066	1.17
1005.491	-0.53
1005.916	3.37
1006.342	-5.13
1006.767	-11.83
1007.192	1.07
1007.617	-1.93
1008.042	1.57
1008.468	-9.73
1008.893	-4.83
1009.318	-9.33
1009.743	0.37
1010.168	5.97
1010.593	-1.43
1011.018	-16.03
1011.443	2.37
1011.868	-5.23
1012.293	0.27
1012.718	-13.53
1013.143	1.87
1013.567	-3.53
1013.992	-6.73
1014.417	-15.83
1014.842	5.57
1015.267	-5.43
1015.691	-3.33
1016.116	1.97
1016.541	-1.93
1016.965	2.47
1017.39	1.17
1017.814	-2.53
1018.239	-0.13
1018.663	-6.93
1019.088	-12.83
1019.512	-0.43
1019.937	4.37
1020.361	-7.43
1020.785	-11.33
1021.21	-7.83
1021.634	-7.83
1022.058	-4.93
1022.483	4.47
1022.907	-4.43
1023.331	-7.63
1023.755	-5.03
1024.179	3.17
1024.604	-9.13
1025.028	-0.93
1025.452	-6.73
1025.876	-5.73
1026.3	0.87
1026.724	-8.33
1027.148	-3.63
1027.572	-6.23
1027.996	-2.83
1028.42	1.77
1028.843	-3.83
1029.267	-7.63
1029.691	-8.13
1030.115	-3.83
1030.539	-5.83
1030.962	-9.53
1031.386	-8.83
1031.81	-3.33
1032.233	-11.93
1032.657	-5.23
1033.08	-4.33
1033.504	-4.43
1033.927	-10.63
1034.351	0.87
1034.774	-7.23
1035.198	-3.23
1035.621	-8.53
1036.045	-5.73
1036.468	1.17
1036.891	-5.93
1037.315	-9.83
1037.738	-13.03
1038.161	-1.93
1038.584	-7.73
1039.008	-4.23
1039.431	-6.53
1039.854	-3.43
1040.277	-4.23
1040.7	-14.53
1041.123	-1.53
1041.546	-5.83
1041.969	-6.83
1042.392	-4.93
1042.815	-5.83
1043.238	-0.13
1043.661	-1.13
1044.084	-1.73
1044.507	-7.03
1044.93	-7.43
1045.352	-6.83
1045.775	2.97
1046.198	-0.33
1046.621	-3.93
1047.043	-4.93
1047.466	2.67
1047.889	1.47
1048.311	-1.43
1048.734	-4.63
1049.156	-4.03
1049.579	-5.13
1050.001	-9.13
1050.424	0.17
1050.846	-5.13
1051.269	-7.13
1051.691	-7.23
1052.113	-6.23
1052.536	-2.73
1052.958	3.57
1053.38	-7.73
1053.802	-11.73
1054.225	3.57
1054.647	-7.13
1055.069	-7.73
1055.491	0.97
1055.913	-8.93
1056.335	0.17
1056.757	-5.73
1057.179	-8.13
1057.601	-10.73
1058.023	-2.93
1058.445	-3.43
1058.867	-3.73
1059.289	0.77
1059.711	-8.53
1060.133	-6.93
1060.555	-5.03
1060.976	-7.63
1061.398	-5.53
1061.82	-11.13
1062.241	-7.83
1062.663	-9.13
1063.085	-7.93
1063.506	0.57
1063.928	-3.63
1064.35	-2.63
1064.771	-9.93
1065.193	-2.23
1065.614	-10.63
1066.035	0.67
1066.457	-2.23
1066.878	-0.73
1067.3	-5.93
1067.721	2.57
1068.142	-2.83
1068.564	-6.33
1068.985	-5.23
1069.406	-5.03
1069.827	-8.83
1070.248	-5.03
1070.67	-1.03
1071.091	-6.53
1071.512	-2.83
1071.933	-4.63
1072.354	-6.13
1072.775	-3.93
1073.196	-8.13
1073.617	-6.43
1074.038	-7.63
1074.459	-8.43
1074.88	-9.13
1075.3	-0.53
1075.721	-13.93
1076.142	-1.63
1076.563	1.47
1076.983	-13.43
1077.404	-11.03
1077.825	-14.03
1078.246	-9.43
1078.666	-14.33
1079.087	-5.53
1079.507	-5.93
1079.928	-0.03
1080.348	-6.83
1080.769	-10.53
1081.189	-2.63
1081.61	-1.73
1082.03	-6.83
1082.451	-9.03
1082.871	-1.73
1083.291	-6.43
1083.711	-6.43
1084.132	-5.23
1084.552	-8.23
1084.972	-2.33
1085.392	-12.53
1085.813	-8.53
1086.233	-3.83
1086.653	-2.63
1087.073	-4.23
1087.493	-6.93
1087.913	-11.53
1088.333	-12.03
1088.753	-2.13
1089.173	1.17
1089.593	-6.63
1090.013	-1.63
1090.433	-3.93
1090.852	-3.03
1091.272	-2.33
1091.692	-2.83
1092.112	-4.63
1092.531	-3.23
1092.951	-11.33
1093.371	-0.53
1093.79	1.57
1094.21	-6.23
1094.63	-9.33
1095.049	-4.93
1095.469	-0.83
1095.888	-9.03
1096.308	1.47
1096.727	2.07
1097.146	-9.43
1097.566	-5.93
1097.985	-9.83
1098.405	-3.93
1098.824	-5.53
1099.243	-8.53
1099.662	-9.63
1100.082	-6.23
1100.501	-1.43
1100.92	-5.03
1101.339	-5.83
1101.758	-4.33
