Data from 20171114-ORNL-Ar_H_NY_Subt18_08-05-53-436.txt Node
Date: Tue Nov 14 08:05:53 EST 2017
User: Ender
Spectrometer: HR+D1039
Trigger mode: 0
Integration Time (sec): 2.730000E-2
Scans to average: 10
Electric dark correction enabled: true
Nonlinearity correction enabled: false
Boxcar width: 0
XAxis mode: Wavelengths
Number of Pixels in Spectrum: 2048
>>>>>Begin Spectral Data<<<<<
187.836	-1.64
188.309	-1.64
188.782	-1.64
189.255	0.46
189.728	-1.34
190.201	6.46
190.674	-1.24
191.147	6.86
191.619	-8.04
192.092	2.16
192.565	4.56
193.038	-0.64
193.511	-2.54
193.984	1.56
194.456	-2.84
194.929	4.96
195.402	-3.24
195.874	-5.44
196.347	-1.84
196.82	-7.44
197.292	2.06
197.765	-4.24
198.237	-6.84
198.71	3.26
199.182	0.46
199.655	2.66
200.127	4.16
200.6	-2.94
201.072	-5.54
201.544	-8.44
202.017	1.06
202.489	3.76
202.961	-3.34
203.433	-5.24
203.906	-5.44
204.378	-7.24
204.85	-4.64
205.322	-9.94
205.794	1.56
206.266	-3.84
206.739	-13.34
207.211	-0.44
207.683	-11.24
208.155	-7.54
208.627	-7.64
209.099	0.26
209.57	-9.24
210.042	-8.84
210.514	-0.04
210.986	-4.94
211.458	-2.94
211.93	-0.14
212.402	-0.34
212.873	-8.74
213.345	-6.94
213.817	-15.34
214.288	-5.04
214.76	-13.04
215.232	-6.14
215.703	-6.24
216.175	-4.64
216.646	-5.54
217.118	-11.54
217.589	-3.84
218.061	-7.14
218.532	-2.14
219.004	-2.14
219.475	-0.54
219.946	-5.64
220.418	-5.34
220.889	0.66
221.36	-1.84
221.832	-2.94
222.303	-6.24
222.774	-0.94
223.245	-12.64
223.717	-7.44
224.188	-5.04
224.659	-6.44
225.13	-0.84
225.601	-4.54
226.072	0.86
226.543	-3.34
227.014	1.96
227.485	-2.04
227.956	-7.94
228.427	-4.64
228.898	-2.64
229.369	2.56
229.839	-4.14
230.31	-9.54
230.781	3.96
231.252	-0.24
231.722	-4.44
232.193	3.26
232.664	5.16
233.135	5.76
233.605	1.26
234.076	-6.04
234.546	4.86
235.017	0.06
235.487	0.56
235.958	-3.84
236.428	-6.34
236.899	4.26
237.369	5.96
237.84	-1.64
238.31	5.36
238.78	1.96
239.251	2.46
239.721	2.66
240.191	2.36
240.662	-0.44
241.132	-2.74
241.602	-0.34
242.072	-4.04
242.542	7.76
243.013	-1.04
243.483	3.96
243.953	6.76
244.423	0.86
244.893	-1.04
245.363	2.66
245.833	2.26
246.303	3.16
246.773	0.16
247.243	-0.94
247.712	6.86
248.182	13.86
248.652	7.76
249.122	-2.84
249.592	13.56
250.061	26.76
250.531	36.96
251.001	13.96
251.471	25.06
251.94	16.86
252.41	12.36
252.879	1.66
253.349	11.26
253.818	6.96
254.288	4.36
254.757	3.06
255.227	3.76
255.696	10.26
256.166	12.36
256.635	5.36
257.105	6.96
257.574	11.86
258.043	6.46
258.513	10.66
258.982	17.66
259.451	10.46
259.92	13.46
260.389	10.06
260.859	17.66
261.328	11.96
261.797	18.86
262.266	6.56
262.735	14.56
263.204	0.36
263.673	4.36
264.142	12.96
264.611	-0.24
265.08	3.16
265.549	-5.04
266.018	3.36
266.487	-3.14
266.955	-0.14
267.424	-5.04
267.893	8.66
268.362	2.96
268.83	7.76
269.299	7.56
269.768	5.66
270.236	7.16
270.705	0.96
271.174	10.36
271.642	10.56
272.111	14.76
272.579	13.96
273.048	22.76
273.516	26.96
273.985	22.66
274.453	31.46
274.922	22.36
275.39	6.66
275.858	0.46
276.327	11.76
276.795	14.96
277.263	7.96
277.731	28.46
278.2	51.56
278.668	60.96
279.136	42.66
279.604	22.86
280.072	15.36
280.54	12.76
281.008	9.36
281.477	17.76
281.945	12.86
282.413	12.36
282.881	14.76
283.348	2.36
283.816	16.46
284.284	8.86
284.752	16.46
285.22	15.86
285.688	15.06
286.156	18.96
286.623	46.76
287.091	52.86
287.559	31.36
288.026	17.56
288.494	15.96
288.962	9.36
289.429	9.26
289.897	15.06
290.364	16.36
290.832	15.36
291.3	14.16
291.767	13.86
292.234	17.86
292.702	16.56
293.169	16.46
293.637	20.66
294.104	23.56
294.571	3.86
295.039	18.56
295.506	18.36
295.973	18.26
296.44	14.46
296.908	17.36
297.375	19.46
297.842	17.46
298.309	15.66
298.776	16.66
299.243	19.06
299.71	17.86
300.177	21.36
300.644	22.96
301.111	18.46
301.578	23.46
302.045	12.36
302.512	21.16
302.979	24.86
303.446	18.26
303.913	15.16
304.379	22.56
304.846	34.16
305.313	29.86
305.78	23.96
306.246	28.26
306.713	28.66
307.18	26.16
307.646	27.26
308.113	25.86
308.579	27.26
309.046	27.16
309.512	25.96
309.979	15.66
310.445	24.06
310.912	36.46
311.378	32.46
311.845	26.46
312.311	29.26
312.777	29.36
313.244	32.46
313.71	37.36
314.176	36.86
314.642	38.06
315.109	29.96
315.575	37.76
316.041	40.16
316.507	33.16
316.973	32.46
317.439	40.96
317.905	27.56
318.371	36.06
318.837	31.86
319.303	29.96
319.769	27.36
320.235	35.16
320.701	40.26
321.167	38.16
321.633	31.56
322.099	43.06
322.564	47.36
323.03	33.46
323.496	35.16
323.962	40.96
324.427	36.56
324.893	42.26
325.359	40.76
325.824	42.66
326.29	37.06
326.755	43.56
327.221	37.46
327.686	37.96
328.152	48.96
328.617	43.66
329.083	45.96
329.548	54.26
330.014	49.76
330.479	39.06
330.944	48.16
331.41	40.76
331.875	51.06
332.34	40.26
332.805	46.96
333.271	43.96
333.736	53.16
334.201	57.66
334.666	55.36
335.131	59.36
335.596	52.66
336.061	50.06
336.526	46.26
336.991	44.46
337.456	54.26
337.921	54.16
338.386	50.06
338.851	45.66
339.316	50.46
339.781	47.86
340.246	56.16
340.711	52.36
341.175	49.46
341.64	45.06
342.105	49.96
342.569	57.26
343.034	58.96
343.499	60.16
343.963	49.86
344.428	65.36
344.893	64.66
345.357	67.56
345.822	66.46
346.286	68.46
346.751	68.86
347.215	68.46
347.679	79.06
348.144	98.86
348.608	84.16
349.073	61.96
349.537	73.26
350.001	78.06
350.465	91.86
350.93	90.86
351.394	84.26
351.858	73.36
352.322	85.46
352.786	78.56
353.25	96.66
353.715	109.46
354.179	100.56
354.643	121.66
355.107	114.56
355.571	110.76
356.035	103.96
356.498	112.66
356.962	135.66
357.426	133.86
357.89	119.46
358.354	91.46
358.818	85.86
359.281	79.26
359.745	75.96
360.209	82.16
360.673	78.06
361.136	80.56
361.6	83.56
362.064	81.96
362.527	86.76
362.991	94.16
363.454	86.26
363.918	79.26
364.381	82.96
364.845	78.76
365.308	89.96
365.772	91.26
366.235	93.36
366.698	87.36
367.162	88.66
367.625	93.36
368.088	89.56
368.552	88.96
369.015	88.46
369.478	98.66
369.941	100.46
370.404	97.26
370.867	107.26
371.331	112.56
371.794	115.56
372.257	114.26
372.72	119.36
373.183	115.36
373.646	109.46
374.109	102.06
374.572	105.56
375.035	116.76
375.497	110.06
375.96	107.26
376.423	106.16
376.886	116.86
377.349	107.96
377.811	104.56
378.274	104.66
378.737	104.36
379.199	108.76
379.662	111.76
380.125	121.26
380.587	113.66
381.05	124.46
381.512	130.06
381.975	140.56
382.437	134.96
382.9	130.66
383.362	123.16
383.825	140.66
384.287	148.36
384.75	144.86
385.212	140.66
385.674	139.66
386.136	138.26
386.599	123.96
387.061	135.76
387.523	126.06
387.985	131.26
388.447	141.66
388.91	141.36
389.372	157.56
389.834	156.36
390.296	150.36
390.758	159.06
391.22	168.36
391.682	216.36
392.144	299.86
392.606	228.06
393.068	176.26
393.529	171.06
393.991	155.46
394.453	149.76
394.915	151.66
395.377	198.66
395.838	219.16
396.3	154.96
396.762	145.56
397.224	130.66
397.685	128.56
398.147	124.56
398.608	129.46
399.07	125.06
399.531	143.36
399.993	142.86
400.454	151.36
400.916	147.16
401.377	149.36
401.839	152.86
402.3	157.96
402.762	174.16
403.223	177.06
403.684	175.06
404.145	162.16
404.607	163.16
405.068	164.66
405.529	175.16
405.99	191.46
406.451	185.96
406.913	174.26
407.374	167.56
407.835	162.66
408.296	172.26
408.757	184.56
409.218	190.06
409.679	181.86
410.14	171.56
410.601	177.96
411.062	182.36
411.522	191.46
411.983	193.56
412.444	176.36
412.905	183.46
413.366	191.96
413.826	200.86
414.287	216.56
414.748	267.26
415.208	248.26
415.669	215.46
416.13	211.46
416.59	204.56
417.051	215.66
417.511	215.36
417.972	238.56
418.432	252.16
418.893	287.06
419.353	253.66
419.814	201.56
420.274	185.36
420.734	179.96
421.195	205.26
421.655	194.66
422.115	190.66
422.576	194.56
423.036	205.36
423.496	207.66
423.956	216.16
424.416	234.26
424.876	265.16
425.336	262.86
425.797	267.76
426.257	261.46
426.717	241.96
427.177	235.16
427.637	226.96
428.097	235.86
428.556	246.56
429.016	273.66
429.476	273.36
429.936	276.26
430.396	283.06
430.856	294.16
431.315	317.96
431.775	355.96
432.235	385.06
432.694	357.16
433.154	366.66
433.614	399.46
434.073	340.66
434.533	289.86
434.993	276.46
435.452	285.66
435.912	297.36
436.371	293.26
436.83	284.46
437.29	272.36
437.749	255.66
438.209	249.76
438.668	280.86
439.127	300.46
439.587	281.06
440.046	250.36
440.505	263.16
440.964	279.66
441.424	323.66
441.883	318.76
442.342	265.76
442.801	227.96
443.26	216.26
443.719	220.96
444.178	227.16
444.637	214.66
445.096	226.06
445.555	222.46
446.014	225.06
446.473	232.06
446.932	234.66
447.391	225.76
447.849	229.76
448.308	224.96
448.767	220.86
449.226	243.26
449.685	239.66
450.143	247.56
450.602	238.16
451.061	229.66
451.519	237.56
451.978	233.26
452.436	239.76
452.895	246.46
453.353	254.86
453.812	246.96
454.27	244.86
454.729	242.36
455.187	238.86
455.646	240.16
456.104	251.46
456.562	257.76
457.021	267.46
457.479	260.76
457.937	269.96
458.395	269.86
458.854	248.06
459.312	258.06
459.77	275.16
460.228	258.96
460.686	249.96
461.144	255.96
461.602	243.56
462.06	242.96
462.518	256.86
462.976	257.56
463.434	265.56
463.892	268.76
464.35	277.46
464.808	288.46
465.266	270.56
465.724	277.46
466.181	276.56
466.639	279.26
467.097	290.26
467.555	311.76
468.012	305.46
468.47	313.66
468.928	324.76
469.385	346.06
469.843	349.96
470.3	357.16
470.758	368.16
471.215	389.16
471.673	409.16
472.13	410.96
472.588	424.56
473.045	376.46
473.503	380.76
473.96	396.76
474.417	409.26
474.875	437.46
475.332	474.16
475.789	464.96
476.246	470.66
476.704	488.66
477.161	515.16
477.618	533.06
478.075	570.66
478.532	620.06
478.989	702.36
479.446	815.26
479.903	788.16
480.36	806.36
480.817	881.66
481.274	976.96
481.731	1083.66
482.188	1184.16
482.645	1313.66
483.102	1436.76
483.558	1589.66
484.015	1626.46
484.472	1604.76
484.929	1548.96
485.385	1493.66
485.842	1459.36
486.299	1382.06
486.755	1320.26
487.212	1108.36
487.668	947.06
488.125	858.56
488.582	790.26
489.038	755.86
489.494	724.96
489.951	696.06
490.407	677.96
490.864	652.56
491.32	649.56
491.776	657.66
492.233	651.06
492.689	622.26
493.145	614.86
493.602	607.66
494.058	626.66
494.514	632.86
494.97	647.06
495.426	659.36
495.882	622.96
496.338	616.26
496.794	648.66
497.251	629.16
497.707	629.26
498.163	642.06
498.618	651.96
499.074	663.76
499.53	694.36
499.986	688.76
500.442	667.06
500.898	642.16
501.354	637.66
501.809	643.96
502.265	645.86
502.721	668.06
503.177	675.56
503.632	671.96
504.088	677.76
504.543	715.76
504.999	723.86
505.455	667.66
505.91	643.96
506.366	639.36
506.821	630.36
507.277	634.66
507.732	622.86
508.187	636.06
508.643	643.56
509.098	645.46
509.553	660.36
510.009	667.66
510.464	679.46
510.919	688.46
511.375	700.76
511.83	719.76
512.285	738.76
512.74	768.66
513.195	792.26
513.65	786.96
514.105	771.86
514.56	777.16
515.015	794.46
515.47	813.96
515.925	800.56
516.38	800.56
516.835	799.96
517.29	790.56
517.745	787.16
518.2	774.46
518.655	761.26
519.109	743.26
519.564	748.86
520.019	737.66
520.474	734.66
520.928	735.16
521.383	725.26
521.838	717.36
522.292	716.96
522.747	712.86
523.201	705.76
523.656	707.36
524.11	690.46
524.565	698.96
525.019	692.26
525.474	708.76
525.928	703.86
526.382	694.86
526.837	695.66
527.291	713.56
527.745	706.26
528.2	702.16
528.654	695.86
529.108	690.66
529.562	688.86
530.016	686.06
530.47	703.16
530.925	702.96
531.379	700.66
531.833	721.46
532.287	707.46
532.741	709.36
533.195	720.56
533.649	717.66
534.103	727.06
534.556	718.86
535.01	723.06
535.464	712.26
535.918	722.16
536.372	723.36
536.826	724.06
537.279	704.76
537.733	723.16
538.187	725.96
538.64	720.26
539.094	728.86
539.548	741.76
540.001	735.36
540.455	725.76
540.908	738.46
541.362	739.16
541.815	750.36
542.269	769.06
542.722	759.96
543.175	770.26
543.629	769.56
544.082	790.16
544.536	792.46
544.989	789.96
545.442	797.86
545.895	799.36
546.349	800.16
546.802	789.16
547.255	796.96
547.708	802.86
548.161	813.36
548.614	826.56
549.067	832.56
549.52	819.96
549.973	826.46
550.426	817.46
550.879	810.16
551.332	806.66
551.785	814.26
552.238	813.26
552.691	815.16
553.144	828.96
553.596	845.26
554.049	863.16
554.502	879.76
554.955	913.66
555.407	915.06
555.86	902.26
556.313	895.16
556.765	879.16
557.218	895.06
557.67	886.06
558.123	877.46
558.576	876.06
559.028	878.86
559.48	877.16
559.933	867.16
560.385	832.06
560.838	813.86
561.29	788.76
561.742	779.86
562.195	770.86
562.647	763.86
563.099	777.46
563.551	768.96
564.004	785.46
564.456	778.66
564.908	759.46
565.36	750.26
565.812	736.26
566.264	737.96
566.716	726.96
567.168	720.16
567.62	721.76
568.072	703.16
568.524	693.26
568.976	682.06
569.428	679.86
569.88	678.26
570.332	685.26
570.784	680.56
571.235	690.46
571.687	695.96
572.139	693.76
572.59	716.76
573.042	717.66
573.494	716.86
573.945	705.16
574.397	683.96
574.849	696.16
575.3	684.76
575.752	685.16
576.203	685.26
576.655	673.36
577.106	665.36
577.557	667.86
578.009	673.76
578.46	668.16
578.912	650.86
579.363	660.96
579.814	662.26
580.265	659.06
580.717	671.76
581.168	665.36
581.619	681.06
582.07	679.36
582.521	683.26
582.972	669.86
583.423	682.06
583.875	677.06
584.326	698.26
584.777	745.66
585.227	825.56
585.678	907.56
586.129	994.76
586.58	1061.96
587.031	1154.16
587.482	1310.46
587.933	1472.56
588.384	1278.76
588.834	972.46
589.285	802.26
589.736	771.06
590.186	767.26
590.637	767.86
591.088	746.96
591.538	736.46
591.989	732.06
592.439	725.16
592.89	712.36
593.34	702.56
593.791	704.86
594.241	702.26
594.692	718.16
595.142	702.76
595.593	696.76
596.043	700.26
596.493	704.96
596.943	708.96
597.394	719.06
597.844	706.16
598.294	718.96
598.744	748.06
599.195	764.96
599.645	809.86
600.095	844.76
600.545	897.46
600.995	961.46
601.445	1014.36
601.895	1081.06
602.345	1123.86
602.795	1109.76
603.245	1056.76
603.695	1001.76
604.145	943.66
604.594	907.56
605.044	856.46
605.494	793.56
605.944	743.46
606.393	737.86
606.843	718.56
607.293	720.76
607.743	723.36
608.192	734.26
608.642	759.16
609.091	751.26
609.541	766.56
609.99	761.96
610.44	758.66
610.889	712.36
611.339	694.46
611.788	689.06
612.238	699.56
612.687	701.96
613.136	712.26
613.586	732.36
614.035	722.46
614.484	746.76
614.933	751.16
615.383	734.66
615.832	734.16
616.281	721.96
616.73	674.16
617.179	654.46
617.628	650.16
618.077	630.36
618.526	621.36
618.975	614.16
619.424	602.46
619.873	608.66
620.322	604.66
620.771	604.46
621.22	594.56
621.669	586.36
622.118	580.16
622.567	574.26
623.015	558.66
623.464	561.06
623.913	553.56
624.361	540.76
624.81	546.46
625.259	546.46
625.707	543.36
626.156	544.26
626.604	555.76
627.053	559.06
627.501	544.86
627.95	565.96
628.398	583.76
628.847	568.16
629.295	555.46
629.744	569.86
630.192	554.86
630.64	557.86
631.089	552.26
631.537	557.56
631.985	579.56
632.433	587.56
632.881	597.06
633.33	642.66
633.778	622.16
634.226	550.46
634.674	554.96
635.122	565.96
635.57	583.16
636.018	613.76
636.466	571.86
636.914	546.86
637.362	559.76
637.81	560.66
638.258	577.56
638.705	567.66
639.153	600.16
639.601	607.96
640.049	637.36
640.497	660.56
640.944	673.26
641.392	641.96
641.84	612.06
642.287	580.46
642.735	563.96
643.182	561.56
643.63	559.96
644.078	568.76
644.525	577.96
644.973	590.56
645.42	596.16
645.867	616.36
646.315	624.36
646.762	647.86
647.21	685.76
647.657	711.56
648.104	742.96
648.551	762.56
648.999	827.86
649.446	908.26
649.893	992.96
650.34	1135.46
650.787	1362.36
651.234	1692.36
651.682	2210.56
652.129	3043.46
652.576	4369.36
653.023	6459.96
653.47	8877.46
653.917	11140.66
654.363	12931.26
654.81	14317.76
655.257	13595.96
655.704	8898.26
656.151	5255.56
656.598	3387.16
657.044	2419.76
657.491	1848.36
657.938	1474.36
658.385	1235.06
658.831	1067.36
659.278	948.36
659.724	848.06
660.171	769.86
660.618	703.26
661.064	681.96
661.511	653.86
661.957	648.66
662.404	638.66
662.85	644.06
663.296	608.76
663.743	550.46
664.189	523.46
664.635	520.96
665.082	514.66
665.528	510.36
665.974	506.96
666.42	496.66
666.867	495.06
667.313	483.36
667.759	472.56
668.205	466.76
668.651	473.06
669.097	472.96
669.543	487.76
669.989	454.26
670.435	438.66
670.881	430.76
671.327	447.06
671.773	454.56
672.219	480.76
672.665	527.76
673.11	563.36
673.556	609.26
674.002	644.36
674.448	639.46
674.893	534.16
675.339	458.76
675.785	425.36
676.23	408.86
676.676	383.66
677.122	371.36
677.567	365.66
678.013	353.86
678.458	346.56
678.904	351.46
679.349	341.46
679.794	341.36
680.24	349.46
680.685	343.46
681.131	336.36
681.576	340.86
682.021	347.36
682.466	343.26
682.912	339.26
683.357	339.26
683.802	372.86
684.247	399.76
684.692	447.56
685.137	483.46
685.583	519.56
686.028	538.06
686.473	499.76
686.918	428.86
687.363	401.56
687.807	383.06
688.252	349.46
688.697	346.66
689.142	329.46
689.587	320.66
690.032	319.56
690.477	326.96
690.921	337.86
691.366	376.06
691.811	386.36
692.255	410.96
692.7	453.16
693.145	478.36
693.589	671.66
694.034	1089.46
694.478	1469.76
694.923	1679.46
695.367	2203.56
695.812	1161.46
696.256	481.86
696.701	355.66
697.145	333.26
697.59	318.86
698.034	309.36
698.478	320.46
698.922	317.16
699.367	314.86
699.811	327.46
700.255	343.86
700.699	375.26
701.143	418.16
701.588	466.16
702.032	499.46
702.476	494.26
702.92	483.46
703.364	472.26
703.808	606.06
704.252	984.76
704.696	1397.36
705.14	1626.56
705.584	2072.66
706.027	1046.56
706.471	507.16
706.915	387.06
707.359	333.56
707.803	300.56
708.246	295.86
708.69	309.06
709.134	303.86
709.577	306.56
710.021	304.86
710.465	295.56
710.908	285.56
711.352	290.06
711.795	306.36
712.239	335.46
712.682	373.56
713.126	404.16
713.569	450.36
714.012	361.16
714.456	319.76
714.899	293.86
715.342	265.56
715.786	254.06
716.229	247.66
716.672	247.06
717.115	241.06
717.558	244.46
718.002	250.76
718.445	252.36
718.888	278.36
719.331	279.06
719.774	299.76
720.217	294.26
720.66	273.86
721.103	250.56
721.546	241.26
721.989	239.26
722.432	212.96
722.874	229.86
723.317	224.06
723.76	226.86
724.203	250.16
724.645	317.96
725.088	429.96
725.531	545.56
725.974	625.16
726.416	532.26
726.859	294.56
727.301	241.56
727.744	226.66
728.187	223.26
728.629	230.76
729.071	230.76
729.514	252.86
729.956	257.46
730.399	268.66
730.841	277.76
731.283	257.36
731.726	254.46
732.168	247.66
732.61	255.86
733.053	273.66
733.495	304.16
733.937	338.06
734.379	378.66
734.821	422.06
735.263	509.26
735.705	789.86
736.148	1500.56
736.59	2460.16
737.032	2963.46
737.474	2414.36
737.916	780.16
738.357	415.46
738.799	312.06
739.241	290.16
739.683	270.36
740.125	282.36
740.567	286.26
741.008	300.66
741.45	303.86
741.892	303.46
742.334	338.06
742.775	346.96
743.217	332.06
743.658	258.06
744.1	239.66
744.542	256.26
744.983	300.26
745.425	331.56
745.866	331.26
746.307	274.66
746.749	267.66
747.19	303.56
747.632	432.56
748.073	832.06
748.514	1764.26
748.956	2752.76
749.397	3437.36
749.838	2856.46
750.279	2882.86
750.72	1455.76
751.162	518.96
751.603	314.96
752.044	239.76
752.485	210.86
752.926	200.16
753.367	194.46
753.808	184.56
754.249	184.26
754.69	181.46
755.131	178.46
755.572	173.16
756.013	172.06
756.453	179.86
756.894	181.96
757.335	188.86
757.776	188.06
758.216	189.46
758.657	194.76
759.098	194.46
759.538	217.66
759.979	248.36
760.42	360.86
760.86	663.86
761.301	1712.76
761.741	4200.36
762.182	6243.76
762.622	4385.46
763.063	1257.46
763.503	524.56
763.943	333.36
764.384	324.06
764.824	384.26
765.264	409.16
765.705	285.16
766.145	203.46
766.585	179.36
767.025	169.36
767.465	175.16
767.906	230.66
768.346	302.76
768.786	319.26
769.226	246.96
769.666	299.46
770.106	579.36
770.546	1471.26
770.986	2563.06
771.426	2309.36
771.866	759.96
772.306	316.46
772.745	192.86
773.185	163.96
773.625	157.26
774.065	157.46
774.505	192.96
774.944	287.46
775.384	654.26
775.824	1198.66
776.263	1184.56
776.703	494.76
777.142	211.26
777.582	147.26
778.021	131.86
778.461	137.16
778.9	135.26
779.34	128.06
779.779	111.36
780.219	110.56
780.658	106.06
781.097	106.36
781.537	114.56
781.976	109.36
782.415	100.86
782.855	100.96
783.294	104.26
783.733	101.96
784.172	104.26
784.611	97.76
785.05	108.36
785.489	114.36
785.928	119.26
786.367	117.16
786.806	110.86
787.245	126.56
787.684	131.66
788.123	141.96
788.562	129.06
789.001	122.36
789.44	115.06
789.879	114.16
790.317	119.96
790.756	119.66
791.195	130.06
791.634	143.46
792.072	197.96
792.511	337.36
792.95	950.06
793.388	2048.36
793.827	1884.86
794.265	658.76
794.704	271.66
795.142	180.16
795.581	149.56
796.019	121.86
796.458	123.46
796.896	113.76
797.334	122.16
797.773	152.16
798.211	206.66
798.649	414.86
799.087	974.96
799.526	1529.46
799.964	1913.46
800.402	1944.46
800.84	730.26
801.278	289.16
801.716	179.46
802.154	144.16
802.592	137.06
803.03	132.56
803.468	130.96
803.906	135.16
804.344	143.36
804.782	129.86
805.22	128.16
805.658	120.06
806.096	141.96
806.533	148.46
806.971	170.16
807.409	203.56
807.847	293.66
808.284	615.16
808.722	1752.96
809.16	3169.06
809.597	2976.16
810.035	5192.86
810.472	5619.96
810.91	2006.36
811.347	762.46
811.785	396.86
812.222	253.46
812.66	186.46
813.097	152.06
813.535	139.76
813.972	119.26
814.409	114.96
814.846	102.76
815.284	101.56
815.721	99.96
816.158	103.96
816.595	115.76
817.032	170.36
817.47	194.06
817.907	163.96
818.344	149.26
818.781	111.96
819.218	94.86
819.655	117.96
820.092	179.26
820.529	206.96
820.966	172.26
821.403	126.76
821.839	99.66
822.276	104.76
822.713	121.16
823.15	132.66
823.587	112.56
824.023	138.86
824.46	282.76
824.897	853.66
825.333	1306.36
825.77	563.06
826.206	214.46
826.643	130.86
827.08	97.76
827.516	73.46
827.953	77.06
828.389	72.06
828.825	68.46
829.262	68.06
829.698	65.16
830.135	61.96
830.571	55.06
831.007	55.16
831.443	60.36
831.88	57.06
832.316	61.46
832.752	58.76
833.188	61.26
833.624	60.56
834.06	65.56
834.497	64.26
834.933	65.86
835.369	72.56
835.805	68.96
836.241	74.16
836.677	82.36
837.112	83.26
837.548	102.86
837.984	127.76
838.42	188.06
838.856	458.46
839.292	1431.76
839.727	2218.46
840.163	1031.96
840.599	874.96
841.034	1933.16
841.47	2061.56
841.906	752.26
842.341	308.66
842.777	213.46
843.212	311.16
843.648	312.56
844.083	147.66
844.519	92.66
844.954	76.16
845.39	58.86
845.825	57.16
846.261	64.06
846.696	49.46
847.131	54.46
847.566	60.86
848.002	54.76
848.437	49.36
848.872	54.46
849.307	57.66
849.742	83.46
850.177	166.36
850.613	527.06
851.048	841.16
851.483	367.36
851.918	148.56
852.353	82.26
852.788	58.96
853.223	53.06
853.657	55.46
854.092	47.16
854.527	42.16
854.962	39.76
855.397	38.16
855.832	42.56
856.266	35.36
856.701	37.06
857.136	36.66
857.57	35.56
858.005	40.26
858.44	58.16
858.874	39.16
859.309	48.86
859.743	35.16
860.178	45.26
860.612	40.26
861.047	50.66
861.481	65.26
861.915	67.26
862.35	47.56
862.784	31.86
863.218	35.46
863.653	28.86
864.087	40.86
864.521	47.16
864.955	63.56
865.39	142.56
865.824	166.46
866.258	114.96
866.692	163.76
867.126	170.06
867.56	99.96
867.994	50.36
868.428	35.96
868.862	44.76
869.296	50.86
869.73	59.06
870.164	49.96
870.598	39.26
871.031	36.16
871.465	24.06
871.899	33.36
872.333	21.36
872.766	22.56
873.2	24.56
873.634	28.86
874.067	24.36
874.501	21.66
874.935	30.76
875.368	24.96
875.802	28.76
876.235	23.06
876.669	22.46
877.102	23.56
877.535	26.76
877.969	14.76
878.402	17.56
878.836	21.26
879.269	19.76
879.702	22.06
880.135	21.46
880.569	24.26
881.002	29.46
881.435	21.86
881.868	15.06
882.301	24.66
882.734	18.16
883.167	18.76
883.601	15.26
884.034	21.56
884.467	13.46
884.899	13.46
885.332	15.66
885.765	17.46
886.198	16.36
886.631	25.96
887.064	15.66
887.497	20.76
887.929	24.06
888.362	12.76
888.795	12.66
889.228	7.36
889.66	17.16
890.093	12.66
890.526	17.76
890.958	7.96
891.391	21.76
891.823	19.36
892.256	19.76
892.688	10.36
893.121	8.76
893.553	12.96
893.985	24.76
894.418	24.46
894.85	9.96
895.282	12.76
895.715	9.36
896.147	17.46
896.579	22.56
897.011	11.46
897.444	16.56
897.876	15.16
898.308	16.26
898.74	22.66
899.172	11.36
899.604	24.66
900.036	21.06
900.468	14.36
900.9	15.76
901.332	12.16
901.764	15.76
902.196	18.76
902.628	16.76
903.06	11.26
903.491	26.46
903.923	13.16
904.355	23.46
904.787	18.66
905.218	21.66
905.65	13.86
906.082	14.86
906.513	9.36
906.945	11.76
907.376	9.36
907.808	15.46
908.239	22.26
908.671	21.26
909.102	24.76
909.534	22.86
909.965	45.26
910.397	88.76
910.828	297.36
911.259	446.96
911.691	209.46
912.122	99.56
912.553	50.16
912.984	29.86
913.415	27.16
913.847	23.46
914.278	19.96
914.709	12.46
915.14	11.86
915.571	18.66
916.002	13.26
916.433	17.86
916.864	18.46
917.295	11.56
917.726	19.16
918.157	18.16
918.587	28.56
919.018	18.36
919.449	21.16
919.88	23.06
920.311	31.36
920.741	44.86
921.172	163.16
921.603	154.06
922.033	66.76
922.464	46.26
922.895	23.66
923.325	20.86
923.756	14.46
924.186	16.56
924.617	26.06
925.047	39.16
925.478	58.16
925.908	39.36
926.338	30.66
926.769	15.76
927.199	23.26
927.629	8.56
928.06	18.56
928.49	13.96
928.92	13.46
929.35	10.76
929.78	7.56
930.21	8.36
930.641	5.46
931.071	11.36
931.501	3.16
931.931	6.26
932.361	7.06
932.791	-0.64
933.221	4.86
933.651	3.16
934.08	12.76
934.51	27.26
934.94	12.16
935.37	6.96
935.8	13.26
936.229	5.06
936.659	4.96
937.089	5.46
937.519	14.46
937.948	27.76
938.378	15.36
938.807	10.36
939.237	5.36
939.666	10.96
940.096	-5.04
940.525	2.56
940.955	0.46
941.384	3.36
941.814	-2.24
942.243	-4.14
942.672	5.06
943.102	1.56
943.531	-2.64
943.96	4.26
944.39	1.96
944.819	-0.74
945.248	0.66
945.677	2.86
946.106	6.36
946.535	8.66
946.964	0.56
947.393	3.96
947.822	1.16
948.251	-2.74
948.68	5.16
949.109	9.36
949.538	7.46
949.967	-0.04
950.396	4.16
950.825	3.76
951.254	8.16
951.682	-6.94
952.111	3.46
952.54	8.46
952.969	-0.54
953.397	-1.34
953.826	0.46
954.254	-1.24
954.683	1.36
955.112	-0.54
955.54	-0.74
955.969	6.06
956.397	2.26
956.826	-6.54
957.254	-0.54
957.682	1.56
958.111	6.76
958.539	-1.54
958.967	1.26
959.396	-4.74
959.824	2.36
960.252	0.16
960.68	-5.24
961.109	3.36
961.537	-5.84
961.965	1.26
962.393	0.26
962.821	-2.74
963.249	1.46
963.677	4.86
964.105	9.66
964.533	39.56
964.961	36.36
965.389	20.96
965.817	9.96
966.245	-1.84
966.672	-1.34
967.1	-13.94
967.528	-3.34
967.956	-3.64
968.383	2.46
968.811	-4.24
969.239	-2.34
969.666	-3.14
970.094	-0.54
970.522	1.76
970.949	-4.44
971.377	-2.64
971.804	-2.04
972.232	-3.44
972.659	4.06
973.087	-4.84
973.514	-2.44
973.941	-9.44
974.369	-3.64
974.796	3.06
975.223	0.36
975.651	-3.54
976.078	3.56
976.505	0.16
976.932	3.56
977.359	13.16
977.786	8.76
978.214	2.06
978.641	-0.44
979.068	-7.54
979.495	-0.84
979.922	-1.04
980.349	-2.14
980.776	1.46
981.202	-8.94
981.629	-1.24
982.056	4.96
982.483	-4.24
982.91	2.76
983.337	-6.34
983.763	8.76
984.19	-0.14
984.617	-6.74
985.043	-3.64
985.47	0.36
985.897	-3.34
986.323	-9.74
986.75	7.06
987.176	-4.44
987.603	-3.14
988.029	-3.54
988.456	-1.34
988.882	3.16
989.308	-5.54
989.735	1.16
990.161	1.06
990.587	-5.74
991.014	-11.64
991.44	4.16
991.866	-2.54
992.292	1.06
992.719	-1.34
993.145	2.46
993.571	-5.04
993.997	-6.44
994.423	-1.74
994.849	-4.64
995.275	-0.04
995.701	-1.74
996.127	-2.44
996.553	-0.04
996.979	-3.34
997.405	-1.44
997.83	-9.94
998.256	-2.04
998.682	-1.94
999.108	-3.34
999.534	-1.84
999.959	-2.44
1000.385	-1.04
1000.811	2.96
1001.236	-7.84
1001.662	-9.44
1002.087	-9.04
1002.513	1.96
1002.938	2.26
1003.364	-7.44
1003.789	-2.04
1004.215	4.96
1004.64	-4.74
1005.066	0.36
1005.491	-1.04
1005.916	-1.84
1006.342	-7.84
1006.767	-3.44
1007.192	-2.84
1007.617	-6.84
1008.042	-4.34
1008.468	-7.44
1008.893	-4.94
1009.318	-3.04
1009.743	-7.94
1010.168	-1.64
1010.593	0.66
1011.018	-9.74
1011.443	-3.24
1011.868	0.76
1012.293	-3.64
1012.718	-4.94
1013.143	0.26
1013.567	2.46
1013.992	-4.74
1014.417	-10.24
1014.842	0.06
1015.267	-3.34
1015.691	-0.84
1016.116	5.86
1016.541	-3.14
1016.965	2.06
1017.39	1.06
1017.814	-6.34
1018.239	-1.54
1018.663	-5.04
1019.088	-10.04
1019.512	-1.64
1019.937	-2.34
1020.361	-1.04
1020.785	-10.44
1021.21	-3.24
1021.634	-5.54
1022.058	-2.04
1022.483	0.66
1022.907	-2.84
1023.331	-6.84
1023.755	-4.24
1024.179	-0.94
1024.604	-6.54
1025.028	-2.94
1025.452	-3.54
1025.876	0.26
1026.3	0.46
1026.724	-12.04
1027.148	-1.74
1027.572	-7.54
1027.996	-6.44
1028.42	-6.44
1028.843	-4.14
1029.267	-5.74
1029.691	-7.64
1030.115	-7.04
1030.539	-3.44
1030.962	-7.64
1031.386	-7.64
1031.81	3.56
1032.233	-3.64
1032.657	-5.84
1033.08	2.16
1033.504	-1.04
1033.927	-6.74
1034.351	-3.44
1034.774	-5.24
1035.198	-1.24
1035.621	-7.44
1036.045	-12.24
1036.468	-3.84
1036.891	-16.34
1037.315	-12.54
1037.738	-9.14
1038.161	4.06
1038.584	-0.94
1039.008	-1.84
1039.431	-0.74
1039.854	0.86
1040.277	-8.94
1040.7	-10.44
1041.123	-2.64
1041.546	-4.84
1041.969	-1.14
1042.392	-6.94
1042.815	2.56
1043.238	-0.24
1043.661	0.46
1044.084	-3.44
1044.507	-9.14
1044.93	-7.74
1045.352	-10.54
1045.775	-5.74
1046.198	-7.34
1046.621	-1.34
1047.043	-3.94
1047.466	1.76
1047.889	-6.64
1048.311	-3.74
1048.734	1.56
1049.156	-2.84
1049.579	-1.24
1050.001	-2.24
1050.424	-0.74
1050.846	-2.44
1051.269	-0.94
1051.691	-9.34
1052.113	-2.74
1052.536	-2.54
1052.958	-8.74
1053.38	-6.64
1053.802	-3.44
1054.225	4.06
1054.647	-10.14
1055.069	-4.24
1055.491	-4.44
1055.913	-8.74
1056.335	1.56
1056.757	-3.04
1057.179	-1.24
1057.601	-4.54
1058.023	-2.34
1058.445	-7.24
1058.867	-6.64
1059.289	-4.64
1059.711	-6.64
1060.133	0.76
1060.555	-9.94
1060.976	-9.94
1061.398	-3.44
1061.82	-4.84
1062.241	-9.34
1062.663	-9.04
1063.085	-6.54
1063.506	0.16
1063.928	-6.04
1064.35	-2.84
1064.771	-13.14
1065.193	-2.44
1065.614	-11.44
1066.035	-4.24
1066.457	-3.44
1066.878	-1.54
1067.3	-9.54
1067.721	-1.84
1068.142	-6.54
1068.564	-8.14
1068.985	-6.44
1069.406	-9.64
1069.827	-9.04
1070.248	1.76
1070.67	-7.54
1071.091	-1.94
1071.512	-4.44
1071.933	-3.34
1072.354	-5.24
1072.775	-6.94
1073.196	-4.64
1073.617	-4.54
1074.038	-5.54
1074.459	0.36
1074.88	-7.34
1075.3	0.46
1075.721	-8.94
1076.142	0.66
1076.563	2.06
1076.983	-11.54
1077.404	-11.34
1077.825	-7.74
1078.246	-3.94
1078.666	-10.74
1079.087	-4.74
1079.507	-9.54
1079.928	2.36
1080.348	-8.14
1080.769	-7.14
1081.189	-0.34
1081.61	1.26
1082.03	-4.04
1082.451	-5.14
1082.871	-11.14
1083.291	-7.34
1083.711	-10.94
1084.132	-6.74
1084.552	-4.24
1084.972	-3.34
1085.392	-5.74
1085.813	-8.64
1086.233	-5.14
1086.653	-5.04
1087.073	0.56
1087.493	-7.44
1087.913	-4.24
1088.333	-6.84
1088.753	-3.04
1089.173	2.86
1089.593	-1.24
1090.013	4.96
1090.433	-1.64
1090.852	-7.94
1091.272	-7.04
1091.692	-5.44
1092.112	-1.14
1092.531	-10.94
1092.951	-11.64
1093.371	-10.34
1093.79	-1.94
1094.21	-7.74
1094.63	-10.54
1095.049	-9.34
1095.469	-5.84
1095.888	-8.44
1096.308	2.26
1096.727	6.86
1097.146	-4.94
1097.566	2.76
1097.985	-8.34
1098.405	-0.34
1098.824	-6.04
1099.243	-6.44
1099.662	-2.44
1100.082	-3.94
1100.501	-6.74
1100.92	-9.64
1101.339	-2.64
1101.758	-15.74
