Data from 20171114-ORNL-Ar_H_NY_Subt18_08-08-44-347.txt Node
Date: Tue Nov 14 08:08:44 EST 2017
User: Ender
Spectrometer: HR+D1039
Trigger mode: 0
Integration Time (sec): 2.730000E-2
Scans to average: 10
Electric dark correction enabled: true
Nonlinearity correction enabled: false
Boxcar width: 0
XAxis mode: Wavelengths
Number of Pixels in Spectrum: 2048
>>>>>Begin Spectral Data<<<<<
187.836	1.79
188.309	1.79
188.782	1.79
189.255	0.89
189.728	-1.81
190.201	6.29
190.674	5.39
191.147	3.09
191.619	-6.31
192.092	1.69
192.565	3.59
193.038	-2.31
193.511	-3.31
193.984	-1.81
194.456	-6.21
194.929	1.49
195.402	-3.21
195.874	0.79
196.347	1.49
196.82	-10.01
197.292	8.59
197.765	-1.01
198.237	-10.51
198.71	1.59
199.182	-0.21
199.655	0.79
200.127	5.19
200.6	-4.41
201.072	-2.51
201.544	-7.01
202.017	-1.11
202.489	4.29
202.961	-2.91
203.433	-5.21
203.906	-12.31
204.378	-10.71
204.85	-7.81
205.322	-12.41
205.794	-3.31
206.266	-8.01
206.739	-8.31
207.211	-1.81
207.683	-7.61
208.155	-3.81
208.627	-5.21
209.099	-2.11
209.57	-7.61
210.042	-9.11
210.514	-7.61
210.986	-0.81
211.458	-8.41
211.93	-2.01
212.402	-0.11
212.873	-3.91
213.345	-7.81
213.817	-15.01
214.288	-4.71
214.76	-13.51
215.232	-4.91
215.703	-5.51
216.175	-2.31
216.646	-7.21
217.118	-3.21
217.589	-5.81
218.061	-8.01
218.532	-6.51
219.004	-3.81
219.475	-4.51
219.946	-6.11
220.418	-13.01
220.889	3.39
221.36	2.09
221.832	-3.31
222.303	-7.51
222.774	-0.81
223.245	-11.11
223.717	-5.71
224.188	-4.21
224.659	-6.51
225.13	-7.11
225.601	-4.61
226.072	-1.61
226.543	-4.61
227.014	-2.91
227.485	-4.11
227.956	-8.31
228.427	-7.81
228.898	0.49
229.369	-1.51
229.839	-7.91
230.31	-9.11
230.781	2.29
231.252	-2.71
231.722	-7.91
232.193	-8.61
232.664	-4.51
233.135	-3.41
233.605	-1.31
234.076	-12.21
234.546	-4.41
235.017	0.69
235.487	-3.41
235.958	-6.21
236.428	-6.31
236.899	0.19
237.369	-4.41
237.84	-6.71
238.31	5.09
238.78	-7.71
239.251	-4.01
239.721	-3.11
240.191	-1.61
240.662	1.59
241.132	-3.91
241.602	-5.01
242.072	-1.61
242.542	0.59
243.013	-4.81
243.483	3.39
243.953	5.69
244.423	0.09
244.893	-8.31
245.363	-6.31
245.833	-0.61
246.303	-1.91
246.773	-0.31
247.243	2.29
247.712	-3.81
248.182	5.79
248.652	2.79
249.122	-5.41
249.592	1.89
250.061	2.29
250.531	16.49
251.001	4.09
251.471	10.69
251.94	1.89
252.41	-0.51
252.879	-4.61
253.349	12.59
253.818	6.29
254.288	-4.51
254.757	0.69
255.227	-5.71
255.696	-3.31
256.166	3.89
256.635	1.79
257.105	5.89
257.574	-3.51
258.043	-3.11
258.513	-3.31
258.982	6.29
259.451	-4.41
259.92	5.39
260.389	7.69
260.859	3.99
261.328	5.99
261.797	3.59
262.266	2.99
262.735	11.59
263.204	1.49
263.673	-6.21
264.142	4.39
264.611	0.29
265.08	-4.61
265.549	-1.11
266.018	-1.51
266.487	-4.71
266.955	-5.11
267.424	-2.31
267.893	-2.21
268.362	-3.91
268.83	-4.31
269.299	5.09
269.768	3.89
270.236	2.49
270.705	-3.51
271.174	-1.51
271.642	2.09
272.111	5.39
272.579	4.79
273.048	6.19
273.516	8.09
273.985	7.09
274.453	6.99
274.922	9.69
275.39	1.69
275.858	-1.21
276.327	5.69
276.795	9.19
277.263	-1.91
277.731	8.29
278.2	14.79
278.668	21.99
279.136	16.49
279.604	0.69
280.072	7.79
280.54	4.49
281.008	7.89
281.477	8.49
281.945	4.69
282.413	13.89
282.881	10.99
283.348	1.49
283.816	3.99
284.284	7.99
284.752	17.49
285.22	5.09
285.688	9.59
286.156	7.59
286.623	21.39
287.091	15.59
287.559	10.59
288.026	7.29
288.494	13.09
288.962	-0.01
289.429	4.79
289.897	11.99
290.364	12.29
290.832	13.49
291.3	12.49
291.767	7.19
292.234	12.59
292.702	0.79
293.169	14.79
293.637	12.79
294.104	20.49
294.571	4.39
295.039	3.99
295.506	7.09
295.973	12.69
296.44	8.39
296.908	7.89
297.375	5.89
297.842	9.39
298.309	10.29
298.776	7.49
299.243	7.39
299.71	4.79
300.177	13.99
300.644	14.39
301.111	11.49
301.578	18.59
302.045	6.99
302.512	15.79
302.979	15.59
303.446	16.49
303.913	12.79
304.379	12.69
304.846	20.29
305.313	19.89
305.78	21.49
306.246	20.59
306.713	20.09
307.18	22.39
307.646	15.69
308.113	20.69
308.579	17.09
309.046	18.59
309.512	16.59
309.979	15.79
310.445	22.39
310.912	17.29
311.378	26.09
311.845	25.99
312.311	23.99
312.777	23.59
313.244	26.49
313.71	35.89
314.176	24.19
314.642	18.39
315.109	21.39
315.575	31.89
316.041	30.29
316.507	24.19
316.973	25.99
317.439	19.99
317.905	27.69
318.371	27.49
318.837	26.29
319.303	30.89
319.769	20.99
320.235	26.49
320.701	18.09
321.167	25.79
321.633	21.19
322.099	28.89
322.564	38.09
323.03	28.49
323.496	32.69
323.962	28.49
324.427	26.59
324.893	30.59
325.359	27.39
325.824	25.49
326.29	30.09
326.755	30.09
327.221	31.79
327.686	35.19
328.152	35.69
328.617	33.29
329.083	40.89
329.548	39.89
330.014	36.49
330.479	31.19
330.944	33.99
331.41	36.59
331.875	39.99
332.34	29.09
332.805	36.49
333.271	32.59
333.736	29.49
334.201	49.79
334.666	45.29
335.131	45.69
335.596	43.89
336.061	43.49
336.526	33.89
336.991	43.09
337.456	45.79
337.921	43.89
338.386	33.49
338.851	38.19
339.316	37.89
339.781	38.99
340.246	43.09
340.711	36.89
341.175	40.99
341.64	36.49
342.105	46.29
342.569	43.09
343.034	52.69
343.499	46.59
343.963	41.79
344.428	51.89
344.893	54.79
345.357	48.99
345.822	46.69
346.286	56.69
346.751	59.09
347.215	51.09
347.679	60.99
348.144	82.19
348.608	68.19
349.073	59.29
349.537	60.39
350.001	69.89
350.465	78.59
350.93	66.79
351.394	67.69
351.858	60.39
352.322	70.29
352.786	67.89
353.25	85.79
353.715	93.59
354.179	89.09
354.643	105.29
355.107	105.69
355.571	84.39
356.035	81.59
356.498	93.99
356.962	94.99
357.426	99.49
357.89	92.89
358.354	77.69
358.818	74.69
359.281	64.79
359.745	63.89
360.209	65.79
360.673	63.29
361.136	70.29
361.6	75.19
362.064	75.49
362.527	73.59
362.991	75.59
363.454	63.39
363.918	62.49
364.381	64.89
364.845	68.89
365.308	75.89
365.772	78.69
366.235	82.29
366.698	74.39
367.162	69.59
367.625	72.39
368.088	74.19
368.552	72.09
369.015	70.49
369.478	85.49
369.941	88.09
370.404	80.29
370.867	88.49
371.331	88.19
371.794	88.09
372.257	86.39
372.72	95.89
373.183	94.39
373.646	86.19
374.109	89.39
374.572	92.99
375.035	93.29
375.497	94.99
375.96	97.39
376.423	91.39
376.886	102.79
377.349	94.79
377.811	85.89
378.274	92.99
378.737	98.19
379.199	99.49
379.662	97.19
380.125	97.79
380.587	93.09
381.05	109.29
381.512	108.89
381.975	114.29
382.437	109.39
382.9	106.99
383.362	112.79
383.825	122.49
384.287	112.49
384.75	112.29
385.212	117.39
385.674	121.99
386.136	118.89
386.599	112.99
387.061	114.39
387.523	117.09
387.985	122.59
388.447	126.09
388.91	121.39
389.372	129.39
389.834	128.59
390.296	117.09
390.758	129.59
391.22	133.89
391.682	155.69
392.144	184.99
392.606	161.49
393.068	130.79
393.529	148.29
393.991	137.49
394.453	127.59
394.915	131.29
395.377	141.19
395.838	147.89
396.3	128.69
396.762	131.49
397.224	127.09
397.685	125.29
398.147	120.59
398.608	117.49
399.07	125.99
399.531	127.39
399.993	133.89
400.454	146.09
400.916	135.79
401.377	139.09
401.839	148.49
402.3	139.09
402.762	145.29
403.223	168.59
403.684	158.79
404.145	147.79
404.607	152.39
405.068	153.79
405.529	156.89
405.99	176.89
406.451	164.79
406.913	160.49
407.374	151.09
407.835	155.89
408.296	158.59
408.757	162.39
409.218	174.69
409.679	171.49
410.14	166.99
410.601	168.29
411.062	169.49
411.522	169.69
411.983	171.29
412.444	170.19
412.905	172.09
413.366	179.69
413.826	190.49
414.287	205.59
414.748	255.59
415.208	235.79
415.669	210.29
416.13	203.19
416.59	197.79
417.051	208.09
417.511	208.09
417.972	234.39
418.432	244.29
418.893	276.69
419.353	251.89
419.814	199.19
420.274	178.99
420.734	173.39
421.195	194.19
421.655	187.79
422.115	181.49
422.576	185.49
423.036	193.39
423.496	201.39
423.956	206.09
424.416	229.49
424.876	258.99
425.336	246.19
425.797	251.19
426.257	251.09
426.717	231.69
427.177	223.69
427.637	218.69
428.097	227.89
428.556	235.99
429.016	263.59
429.476	256.19
429.936	261.39
430.396	263.99
430.856	279.29
431.315	293.29
431.775	325.69
432.235	363.29
432.694	337.29
433.154	344.39
433.614	379.49
434.073	326.69
434.533	273.89
434.993	263.09
435.452	272.49
435.912	280.29
436.371	275.59
436.83	262.89
437.29	259.09
437.749	245.79
438.209	240.99
438.668	268.69
439.127	288.19
439.587	248.49
440.046	245.09
440.505	251.29
440.964	266.29
441.424	307.49
441.883	306.59
442.342	251.79
442.801	224.39
443.26	222.69
443.719	225.79
444.178	221.99
444.637	201.79
445.096	214.29
445.555	223.99
446.014	220.89
446.473	226.49
446.932	234.69
447.391	227.69
447.849	230.29
448.308	211.59
448.767	223.19
449.226	237.89
449.685	233.19
450.143	248.19
450.602	239.89
451.061	229.39
451.519	223.49
451.978	228.09
452.436	228.19
452.895	240.59
453.353	246.59
453.812	241.99
454.27	239.89
454.729	234.79
455.187	239.89
455.646	244.19
456.104	247.19
456.562	259.69
457.021	269.79
457.479	254.39
457.937	271.59
458.395	263.29
458.854	249.89
459.312	252.69
459.77	279.29
460.228	255.79
460.686	239.59
461.144	250.89
461.602	243.89
462.06	239.49
462.518	255.49
462.976	254.89
463.434	246.99
463.892	262.09
464.35	263.99
464.808	278.79
465.266	267.99
465.724	272.79
466.181	272.59
466.639	271.79
467.097	284.09
467.555	294.49
468.012	289.99
468.47	306.49
468.928	320.49
469.385	334.59
469.843	347.59
470.3	347.69
470.758	359.99
471.215	380.99
471.673	403.59
472.13	410.49
472.588	412.99
473.045	379.09
473.503	378.99
473.96	394.29
474.417	409.59
474.875	426.59
475.332	471.79
475.789	456.09
476.246	468.39
476.704	481.69
477.161	497.79
477.618	517.39
478.075	556.39
478.532	599.69
478.989	673.29
479.446	783.29
479.903	741.59
480.36	763.49
480.817	807.99
481.274	904.39
481.731	991.89
482.188	1064.39
482.645	1182.19
483.102	1278.49
483.558	1398.19
484.015	1446.29
484.472	1411.89
484.929	1370.39
485.385	1337.09
485.842	1303.59
486.299	1249.39
486.755	1203.39
487.212	1029.09
487.668	872.89
488.125	816.69
488.582	746.29
489.038	718.19
489.494	679.99
489.951	662.49
490.407	644.59
490.864	633.49
491.32	622.79
491.776	627.79
492.233	634.89
492.689	588.39
493.145	595.29
493.602	595.99
494.058	602.49
494.514	606.39
494.97	630.09
495.426	633.89
495.882	605.39
496.338	599.99
496.794	605.49
497.251	597.69
497.707	614.69
498.163	622.89
498.618	626.69
499.074	625.69
499.53	658.89
499.986	657.99
500.442	628.79
500.898	605.79
501.354	600.79
501.809	617.89
502.265	618.29
502.721	628.79
503.177	639.49
503.632	637.19
504.088	638.39
504.543	670.69
504.999	693.39
505.455	641.49
505.91	632.29
506.366	624.19
506.821	623.99
507.277	624.09
507.732	624.39
508.187	622.29
508.643	629.39
509.098	632.79
509.553	654.79
510.009	654.69
510.464	670.49
510.919	678.49
511.375	689.99
511.83	704.39
512.285	713.19
512.74	752.79
513.195	773.59
513.65	766.89
514.105	747.79
514.56	756.39
515.015	773.19
515.47	785.49
515.925	775.79
516.38	774.09
516.835	790.59
517.29	759.19
517.745	753.49
518.2	754.59
518.655	742.29
519.109	729.49
519.564	739.39
520.019	724.49
520.474	712.89
520.928	719.99
521.383	713.39
521.838	703.49
522.292	708.19
522.747	706.59
523.201	697.39
523.656	698.79
524.11	692.69
524.565	694.39
525.019	691.79
525.474	694.49
525.928	689.59
526.382	695.99
526.837	693.39
527.291	698.59
527.745	686.29
528.2	690.89
528.654	684.49
529.108	682.29
529.562	680.29
530.016	690.69
530.47	685.09
530.925	681.39
531.379	687.79
531.833	691.99
532.287	698.49
532.741	683.69
533.195	690.39
533.649	701.19
534.103	712.39
534.556	700.49
535.01	693.59
535.464	686.69
535.918	706.59
536.372	711.39
536.826	697.89
537.279	695.29
537.733	700.29
538.187	712.19
538.64	713.19
539.094	718.19
539.548	728.09
540.001	718.59
540.455	718.39
540.908	729.79
541.362	730.99
541.815	745.49
542.269	753.19
542.722	753.89
543.175	754.19
543.629	764.69
544.082	787.89
544.536	791.39
544.989	783.49
545.442	787.29
545.895	787.59
546.349	787.19
546.802	790.79
547.255	794.59
547.708	807.19
548.161	808.09
548.614	805.99
549.067	818.49
549.52	812.79
549.973	806.49
550.426	803.39
550.879	787.79
551.332	799.09
551.785	804.59
552.238	809.59
552.691	811.79
553.144	828.39
553.596	839.69
554.049	849.89
554.502	895.49
554.955	912.19
555.407	911.79
555.86	889.49
556.313	887.29
556.765	882.59
557.218	874.39
557.67	885.69
558.123	860.89
558.576	876.59
559.028	872.39
559.48	866.79
559.933	871.99
560.385	832.29
560.838	815.49
561.29	797.59
561.742	791.89
562.195	765.39
562.647	765.79
563.099	771.49
563.551	774.19
564.004	778.29
564.456	768.59
564.908	757.79
565.36	744.19
565.812	727.59
566.264	724.69
566.716	721.59
567.168	700.09
567.62	710.49
568.072	698.19
568.524	691.89
568.976	692.19
569.428	682.39
569.88	673.89
570.332	683.49
570.784	687.09
571.235	679.99
571.687	694.89
572.139	708.89
572.59	713.69
573.042	706.49
573.494	716.49
573.945	709.89
574.397	680.89
574.849	692.59
575.3	693.59
575.752	683.29
576.203	681.19
576.655	688.49
577.106	675.79
577.557	668.29
578.009	667.99
578.46	662.99
578.912	661.99
579.363	673.69
579.814	662.89
580.265	665.59
580.717	669.59
581.168	669.49
581.619	675.29
582.07	677.49
582.521	674.19
582.972	666.99
583.423	669.99
583.875	675.29
584.326	686.89
584.777	713.09
585.227	746.69
585.678	780.89
586.129	815.49
586.58	841.29
587.031	879.99
587.482	938.89
587.933	1011.69
588.384	940.69
588.834	839.29
589.285	792.59
589.736	784.49
590.186	770.09
590.637	771.89
591.088	749.49
591.538	736.29
591.989	741.09
592.439	727.39
592.89	718.89
593.34	716.19
593.791	703.29
594.241	707.09
594.692	710.19
595.142	700.39
595.593	696.89
596.043	702.79
596.493	700.19
596.943	703.19
597.394	720.69
597.844	720.79
598.294	738.29
598.744	768.29
599.195	777.59
599.645	833.89
600.095	870.29
600.545	922.79
600.995	977.89
601.445	1040.09
601.895	1091.09
602.345	1145.59
602.795	1120.39
603.245	1075.69
603.695	1015.29
604.145	967.29
604.594	911.19
605.044	858.89
605.494	799.89
605.944	755.19
606.393	749.39
606.843	726.09
607.293	729.69
607.743	726.69
608.192	736.49
608.642	751.29
609.091	758.09
609.541	765.59
609.99	766.59
610.44	766.19
610.889	716.79
611.339	710.89
611.788	680.69
612.238	689.19
612.687	702.89
613.136	701.19
613.586	719.29
614.035	719.49
614.484	719.19
614.933	721.99
615.383	728.49
615.832	715.89
616.281	707.59
616.73	674.69
617.179	654.59
617.628	643.49
618.077	633.59
618.526	623.39
618.975	622.19
619.424	621.29
619.873	622.69
620.322	620.39
620.771	608.09
621.22	610.59
621.669	600.29
622.118	593.59
622.567	577.09
623.015	568.79
623.464	569.99
623.913	559.99
624.361	548.39
624.81	554.49
625.259	560.19
625.707	554.39
626.156	555.19
626.604	565.19
627.053	566.39
627.501	566.79
627.95	565.59
628.398	586.39
628.847	572.99
629.295	575.69
629.744	575.69
630.192	564.49
630.64	567.89
631.089	556.59
631.537	554.69
631.985	551.89
632.433	556.79
632.881	549.59
633.33	568.99
633.778	556.99
634.226	543.89
634.674	549.09
635.122	551.69
635.57	573.39
636.018	581.09
636.466	572.39
636.914	560.59
637.362	570.59
637.81	579.99
638.258	587.79
638.705	585.89
639.153	609.99
639.601	619.69
640.049	643.19
640.497	684.49
640.944	699.99
641.392	649.49
641.84	614.49
642.287	580.49
642.735	561.79
643.182	558.59
643.63	566.59
644.078	560.99
644.525	586.99
644.973	583.89
645.42	606.59
645.867	622.09
646.315	637.69
646.762	669.39
647.21	679.09
647.657	698.59
648.104	746.49
648.551	757.59
648.999	822.19
649.446	900.89
649.893	985.49
650.34	1117.49
650.787	1333.99
651.234	1647.09
651.682	2145.99
652.129	2913.69
652.576	4167.09
653.023	6066.89
653.47	8182.29
653.917	10129.19
654.363	11567.89
654.81	12703.49
655.257	12063.39
655.704	7980.59
656.151	4781.89
656.598	3130.89
657.044	2238.09
657.491	1741.49
657.938	1413.29
658.385	1187.39
658.831	1039.89
659.278	934.19
659.724	832.49
660.171	778.89
660.618	709.89
661.064	674.89
661.511	655.89
661.957	657.89
662.404	638.89
662.85	645.99
663.296	624.59
663.743	571.79
664.189	543.79
664.635	534.69
665.082	529.19
665.528	523.89
665.974	530.09
666.42	510.99
666.867	506.59
667.313	487.99
667.759	483.09
668.205	462.09
668.651	468.39
669.097	453.49
669.543	459.19
669.989	445.69
670.435	451.19
670.881	452.09
671.327	454.59
671.773	480.19
672.219	491.79
672.665	557.09
673.11	594.79
673.556	636.09
674.002	674.29
674.448	662.49
674.893	552.39
675.339	479.39
675.785	443.19
676.23	421.39
676.676	392.19
677.122	392.59
677.567	382.99
678.013	369.09
678.458	366.49
678.904	360.89
679.349	360.19
679.794	359.19
680.24	359.59
680.685	349.59
681.131	347.09
681.576	356.59
682.021	363.69
682.466	348.39
682.912	353.79
683.357	362.09
683.802	390.19
684.247	422.29
684.692	463.39
685.137	500.19
685.583	542.29
686.028	573.59
686.473	519.89
686.918	456.69
687.363	427.89
687.807	401.49
688.252	365.49
688.697	360.29
689.142	352.19
689.587	341.99
690.032	324.49
690.477	354.99
690.921	361.99
691.366	389.69
691.811	412.39
692.255	441.99
692.7	468.49
693.145	517.99
693.589	732.19
694.034	1181.99
694.478	1593.89
694.923	1768.19
695.367	2284.99
695.812	1225.79
696.256	508.69
696.701	370.59
697.145	351.39
697.59	344.29
698.034	327.39
698.478	335.39
698.922	329.59
699.367	330.59
699.811	333.59
700.255	355.49
700.699	393.49
701.143	443.49
701.588	482.79
702.032	520.29
702.476	515.49
702.92	501.39
703.364	503.29
703.808	673.19
704.252	1100.79
704.696	1509.89
705.14	1698.79
705.584	2151.89
706.027	1086.99
706.471	542.19
706.915	399.69
707.359	350.99
707.803	332.89
708.246	304.49
708.69	314.09
709.134	322.59
709.577	313.09
710.021	318.39
710.465	312.29
710.908	301.09
711.352	310.69
711.795	316.69
712.239	367.59
712.682	395.39
713.126	417.69
713.569	464.19
714.012	364.19
714.456	310.29
714.899	297.29
715.342	282.29
715.786	265.59
716.229	264.39
716.672	257.99
717.115	261.09
717.558	260.79
718.002	259.99
718.445	268.89
718.888	293.89
719.331	289.49
719.774	310.59
720.217	304.89
720.66	293.39
721.103	274.39
721.546	254.89
721.989	251.19
722.432	240.29
722.874	240.19
723.317	239.69
723.76	248.79
724.203	265.69
724.645	330.59
725.088	458.29
725.531	592.89
725.974	634.99
726.416	561.19
726.859	316.69
727.301	252.79
727.744	239.49
728.187	232.29
728.629	231.69
729.071	240.49
729.514	265.29
729.956	280.79
730.399	296.59
730.841	293.79
731.283	280.19
731.726	265.49
732.168	272.69
732.61	274.29
733.053	288.19
733.495	327.09
733.937	360.19
734.379	411.99
734.821	454.49
735.263	575.39
735.705	891.29
736.148	1677.79
736.59	2686.29
737.032	3090.69
737.474	2514.79
737.916	845.29
738.357	443.79
738.799	334.39
739.241	309.49
739.683	295.99
740.125	310.69
740.567	302.49
741.008	319.19
741.45	326.09
741.892	326.79
742.334	359.29
742.775	363.49
743.217	354.49
743.658	278.99
744.1	262.79
744.542	273.79
744.983	322.79
745.425	350.49
745.866	354.09
746.307	287.69
746.749	281.29
747.19	336.69
747.632	484.19
748.073	960.49
748.514	1981.39
748.956	2936.69
749.397	3689.39
749.838	3066.79
750.279	3000.69
750.72	1534.59
751.162	563.59
751.603	334.59
752.044	260.79
752.485	218.09
752.926	218.39
753.367	206.29
753.808	196.69
754.249	197.39
754.69	190.49
755.131	187.09
755.572	187.39
756.013	186.79
756.453	184.69
756.894	191.19
757.335	190.99
757.776	201.19
758.216	198.09
758.657	206.89
759.098	209.19
759.538	233.69
759.979	280.79
760.42	408.09
760.86	766.39
761.301	1987.29
761.741	4665.39
762.182	6514.99
762.622	4563.29
763.063	1353.59
763.503	556.49
763.943	342.89
764.384	295.39
764.824	295.99
765.264	297.49
765.705	239.39
766.145	196.79
766.585	180.89
767.025	174.69
767.465	174.09
767.906	206.09
768.346	230.29
768.786	249.19
769.226	231.69
769.666	327.49
770.106	669.69
770.546	1656.99
770.986	2675.79
771.426	2373.89
771.866	819.29
772.306	333.99
772.745	213.39
773.185	172.69
773.625	171.39
774.065	151.39
774.505	175.29
774.944	233.79
775.384	447.39
775.824	729.29
776.263	699.59
776.703	324.49
777.142	176.29
777.582	141.69
778.021	125.59
778.461	126.89
778.9	123.79
779.34	125.89
779.779	114.69
780.219	113.19
780.658	113.69
781.097	113.69
781.537	112.39
781.976	108.79
782.415	98.69
782.855	105.69
783.294	110.09
783.733	107.89
784.172	113.69
784.611	101.89
785.05	109.19
785.489	122.89
785.928	118.19
786.367	120.99
786.806	119.09
787.245	125.89
787.684	138.29
788.123	151.29
788.562	136.69
789.001	122.19
789.44	125.59
789.879	114.59
790.317	124.59
790.756	125.49
791.195	127.89
791.634	154.59
792.072	214.79
792.511	382.29
792.95	1069.19
793.388	2188.89
793.827	1914.59
794.265	688.69
794.704	285.19
795.142	189.69
795.581	159.49
796.019	135.79
796.458	126.29
796.896	130.69
797.334	131.99
797.773	164.89
798.211	231.19
798.649	482.39
799.087	1074.29
799.526	1668.09
799.964	2086.29
800.402	2031.09
800.84	776.19
801.278	320.39
801.716	183.39
802.154	157.19
802.592	153.79
803.03	147.79
803.468	139.99
803.906	150.09
804.344	160.79
804.782	144.29
805.22	137.99
805.658	133.49
806.096	154.59
806.533	161.09
806.971	178.29
807.409	233.09
807.847	334.49
808.284	725.29
808.722	1977.59
809.16	3369.89
809.597	3335.19
810.035	5634.49
810.472	5791.99
810.91	2142.39
811.347	828.29
811.785	421.39
812.222	260.69
812.66	200.09
813.097	166.39
813.535	146.29
813.972	131.19
814.409	124.39
814.846	107.09
815.284	109.49
815.721	105.79
816.158	112.39
816.595	119.99
817.032	153.99
817.47	176.39
817.907	135.99
818.344	107.99
818.781	101.19
819.218	105.59
819.655	124.39
820.092	194.09
820.529	218.89
820.966	177.19
821.403	124.49
821.839	103.39
822.276	97.29
822.713	126.69
823.15	143.49
823.587	123.19
824.023	153.29
824.46	330.69
824.897	944.79
825.333	1373.19
825.77	588.99
826.206	235.79
826.643	143.19
827.08	105.59
827.516	79.19
827.953	82.29
828.389	82.79
828.825	71.79
829.262	74.29
829.698	67.09
830.135	67.19
830.571	65.79
831.007	66.69
831.443	59.59
831.88	63.39
832.316	62.69
832.752	66.69
833.188	62.79
833.624	66.89
834.06	64.39
834.497	70.89
834.933	71.59
835.369	74.39
835.805	68.19
836.241	71.29
836.677	87.39
837.112	93.39
837.548	112.39
837.984	142.49
838.42	209.49
838.856	545.79
839.292	1608.69
839.727	2323.49
840.163	1114.69
840.599	1000.39
841.034	2124.59
841.47	2136.89
841.906	787.49
842.341	344.59
842.777	212.79
843.212	231.19
843.648	217.89
844.083	125.49
844.519	89.19
844.954	78.19
845.39	60.79
845.825	61.59
846.261	54.89
846.696	50.09
847.131	51.29
847.566	59.79
848.002	55.79
848.437	54.19
848.872	60.59
849.307	58.69
849.742	81.29
850.177	189.19
850.613	582.79
851.048	884.69
851.483	383.69
851.918	158.29
852.353	90.79
852.788	61.79
853.223	50.99
853.657	54.79
854.092	49.29
854.527	43.59
854.962	43.49
855.397	49.39
855.832	49.59
856.266	39.59
856.701	39.29
857.136	35.79
857.57	38.59
858.005	43.59
858.44	58.69
858.874	36.89
859.309	53.99
859.743	46.19
860.178	41.39
860.612	45.09
861.047	53.09
861.481	69.49
861.915	82.59
862.35	49.59
862.784	37.49
863.218	36.99
863.653	34.69
864.087	46.39
864.521	60.69
864.955	67.79
865.39	164.79
865.824	173.19
866.258	118.99
866.692	172.19
867.126	186.99
867.56	102.79
867.994	59.49
868.428	39.89
868.862	45.29
869.296	54.19
869.73	59.79
870.164	53.79
870.598	44.49
871.031	36.99
871.465	27.29
871.899	33.49
872.333	24.09
872.766	29.49
873.2	20.69
873.634	30.89
874.067	23.89
874.501	20.89
874.935	35.19
875.368	34.49
875.802	26.79
876.235	27.79
876.669	21.89
877.102	18.99
877.535	19.99
877.969	23.69
878.402	26.19
878.836	18.79
879.269	19.19
879.702	26.69
880.135	27.19
880.569	24.59
881.002	25.19
881.435	23.19
881.868	20.59
882.301	21.89
882.734	22.69
883.167	19.59
883.601	23.79
884.034	21.79
884.467	13.49
884.899	18.09
885.332	20.79
885.765	19.49
886.198	13.09
886.631	15.79
887.064	16.49
887.497	19.09
887.929	20.39
888.362	19.49
888.795	14.79
889.228	22.69
889.66	21.49
890.093	19.69
890.526	20.29
890.958	22.89
891.391	15.19
891.823	19.19
892.256	13.29
892.688	10.09
893.121	15.69
893.553	14.19
893.985	25.09
894.418	19.99
894.85	11.59
895.282	16.19
895.715	18.89
896.147	15.29
896.579	11.09
897.011	15.79
897.444	17.69
897.876	18.29
898.308	11.69
898.74	13.69
899.172	13.79
899.604	23.19
900.036	19.39
900.468	15.99
900.9	20.59
901.332	18.69
901.764	16.49
902.196	13.09
902.628	18.69
903.06	18.99
903.491	30.49
903.923	23.99
904.355	19.89
904.787	25.09
905.218	17.79
905.65	19.49
906.082	22.79
906.513	14.59
906.945	18.79
907.376	10.49
907.808	21.29
908.239	20.79
908.671	20.69
909.102	24.49
909.534	23.59
909.965	42.89
910.397	94.29
910.828	320.69
911.259	475.79
911.691	220.69
912.122	113.09
912.553	52.19
912.984	29.99
913.415	20.19
913.847	18.79
914.278	14.59
914.709	9.69
915.14	18.29
915.571	25.49
916.002	11.59
916.433	19.79
916.864	20.49
917.295	12.59
917.726	21.89
918.157	17.19
918.587	29.69
919.018	24.99
919.449	22.39
919.88	26.09
920.311	32.29
920.741	50.99
921.172	170.89
921.603	150.39
922.033	67.09
922.464	45.29
922.895	25.39
923.325	18.49
923.756	18.59
924.186	13.79
924.617	21.09
925.047	26.29
925.478	27.89
925.908	31.19
926.338	19.89
926.769	10.09
927.199	18.59
927.629	9.99
928.06	18.49
928.49	9.89
928.92	13.79
929.35	10.39
929.78	13.09
930.21	5.49
930.641	9.09
931.071	10.59
931.501	2.89
931.931	9.89
932.361	8.99
932.791	3.79
933.221	10.19
933.651	0.99
934.08	17.99
934.51	26.29
934.94	15.69
935.37	8.69
935.8	12.29
936.229	9.59
936.659	11.99
937.089	2.59
937.519	16.19
937.948	26.49
938.378	15.69
938.807	7.49
939.237	5.59
939.666	8.89
940.096	-2.91
940.525	5.39
940.955	3.69
941.384	1.89
941.814	2.89
942.243	5.09
942.672	0.29
943.102	-0.31
943.531	-4.51
943.96	8.99
944.39	4.09
944.819	-1.11
945.248	0.49
945.677	8.89
946.106	6.59
946.535	-0.51
946.964	3.99
947.393	2.69
947.822	1.89
948.251	-3.41
948.68	1.99
949.109	5.89
949.538	2.49
949.967	1.09
950.396	-0.11
950.825	2.19
951.254	-3.11
951.682	-7.11
952.111	-2.81
952.54	-4.31
952.969	-6.31
953.397	1.79
953.826	4.39
954.254	-6.31
954.683	0.69
955.112	-0.11
955.54	-5.51
955.969	1.49
956.397	-2.81
956.826	-2.31
957.254	4.89
957.682	1.99
958.111	4.09
958.539	-2.81
958.967	3.49
959.396	-3.31
959.824	3.29
960.252	-0.31
960.68	-3.01
961.109	-4.71
961.537	0.49
961.965	1.79
962.393	-2.01
962.821	-2.51
963.249	0.79
963.677	4.29
964.105	6.19
964.533	44.79
964.961	43.89
965.389	24.39
965.817	9.49
966.245	1.39
966.672	0.19
967.1	-3.51
967.528	-1.01
967.956	-5.01
968.383	-0.01
968.811	-2.71
969.239	-2.21
969.666	-7.41
970.094	2.39
970.522	2.99
970.949	-1.71
971.377	-0.81
971.804	0.09
972.232	-3.31
972.659	1.49
973.087	-6.51
973.514	-1.91
973.941	0.49
974.369	11.09
974.796	3.89
975.223	-0.81
975.651	-5.71
976.078	3.59
976.505	0.49
976.932	5.69
977.359	18.59
977.786	10.39
978.214	1.29
978.641	-2.51
979.068	-3.41
979.495	-2.81
979.922	3.69
980.349	-5.21
980.776	4.79
981.202	-3.31
981.629	5.59
982.056	12.99
982.483	-0.11
982.91	0.79
983.337	-4.91
983.763	5.29
984.19	-2.41
984.617	-4.61
985.043	-10.61
985.47	0.49
985.897	-0.01
986.323	-11.31
986.75	-1.21
987.176	0.19
987.603	-0.71
988.029	2.39
988.456	3.09
988.882	0.19
989.308	-5.71
989.735	-6.11
990.161	-2.41
990.587	-5.01
991.014	-2.11
991.44	3.99
991.866	-1.91
992.292	-6.31
992.719	-1.11
993.145	1.09
993.571	-12.01
993.997	-4.01
994.423	3.69
994.849	-7.11
995.275	-5.61
995.701	-0.91
996.127	-0.51
996.553	0.59
996.979	-2.01
997.405	-1.11
997.83	-5.61
998.256	-7.11
998.682	-6.51
999.108	-7.91
999.534	-1.01
999.959	-3.21
1000.385	-6.71
1000.811	1.79
1001.236	-6.41
1001.662	-7.21
1002.087	-10.91
1002.513	1.19
1002.938	1.39
1003.364	2.09
1003.789	-1.51
1004.215	6.29
1004.64	-3.11
1005.066	-0.61
1005.491	-1.21
1005.916	-1.21
1006.342	-3.71
1006.767	-5.11
1007.192	7.29
1007.617	-7.51
1008.042	-0.11
1008.468	-5.31
1008.893	-1.31
1009.318	-2.21
1009.743	-3.31
1010.168	4.19
1010.593	0.69
1011.018	-11.51
1011.443	-3.51
1011.868	3.49
1012.293	-1.11
1012.718	-7.31
1013.143	-5.71
1013.567	-0.91
1013.992	-2.11
1014.417	-11.41
1014.842	1.69
1015.267	-6.41
1015.691	-2.61
1016.116	1.99
1016.541	1.49
1016.965	-1.31
1017.39	3.59
1017.814	1.99
1018.239	-1.21
1018.663	-3.61
1019.088	-12.81
1019.512	-2.11
1019.937	0.79
1020.361	-4.41
1020.785	-10.31
1021.21	-5.81
1021.634	-4.31
1022.058	-2.61
1022.483	-0.21
1022.907	-3.51
1023.331	0.49
1023.755	-6.01
1024.179	-4.71
1024.604	-7.71
1025.028	-4.51
1025.452	-4.91
1025.876	-4.71
1026.3	-0.81
1026.724	-13.81
1027.148	-5.01
1027.572	-14.11
1027.996	-1.41
1028.42	-5.81
1028.843	-6.61
1029.267	-3.61
1029.691	1.79
1030.115	-9.11
1030.539	-10.11
1030.962	-3.91
1031.386	-10.41
1031.81	1.39
1032.233	-5.01
1032.657	-2.31
1033.08	-1.71
1033.504	-0.91
1033.927	-5.61
1034.351	-2.61
1034.774	-4.81
1035.198	-0.91
1035.621	-2.91
1036.045	-6.41
1036.468	0.69
1036.891	-13.21
1037.315	-4.41
1037.738	-7.61
1038.161	-5.41
1038.584	-6.71
1039.008	-8.41
1039.431	-3.81
1039.854	-1.41
1040.277	-11.61
1040.7	-13.71
1041.123	2.19
1041.546	-9.61
1041.969	-3.41
1042.392	-4.21
1042.815	1.09
1043.238	3.19
1043.661	0.99
1044.084	-6.51
1044.507	-6.91
1044.93	-7.21
1045.352	-6.21
1045.775	-3.01
1046.198	-4.41
1046.621	1.49
1047.043	0.89
1047.466	5.69
1047.889	-4.81
1048.311	-6.31
1048.734	-6.81
1049.156	1.29
1049.579	0.29
1050.001	-4.01
1050.424	-6.31
1050.846	-3.71
1051.269	-5.11
1051.691	-7.71
1052.113	-3.41
1052.536	-4.21
1052.958	-0.71
1053.38	-3.71
1053.802	-10.41
1054.225	0.29
1054.647	-10.01
1055.069	-3.71
1055.491	1.79
1055.913	-10.91
1056.335	-3.01
1056.757	-6.81
1057.179	-9.41
1057.601	-4.41
1058.023	-4.61
1058.445	-6.01
1058.867	-2.81
1059.289	-1.61
1059.711	-13.71
1060.133	0.49
1060.555	-7.21
1060.976	-6.31
1061.398	-9.31
1061.82	-11.71
1062.241	-5.91
1062.663	-6.21
1063.085	-7.11
1063.506	-4.81
1063.928	-2.31
1064.35	-2.61
1064.771	-10.71
1065.193	-4.11
1065.614	-9.71
1066.035	-3.51
1066.457	-8.71
1066.878	3.49
1067.3	-10.21
1067.721	0.29
1068.142	-1.31
1068.564	-3.01
1068.985	-10.41
1069.406	-12.41
1069.827	-9.11
1070.248	0.59
1070.67	-9.81
1071.091	-4.21
1071.512	-4.91
1071.933	-9.71
1072.354	-4.41
1072.775	-8.41
1073.196	-10.51
1073.617	-4.51
1074.038	-0.91
1074.459	-3.81
1074.88	-13.11
1075.3	0.19
1075.721	-4.91
1076.142	-3.01
1076.563	-7.61
1076.983	-10.41
1077.404	-12.01
1077.825	-7.41
1078.246	-2.91
1078.666	-12.71
1079.087	-4.21
1079.507	-9.31
1079.928	0.09
1080.348	-3.71
1080.769	-8.71
1081.189	-5.41
1081.61	-3.21
1082.03	-8.11
1082.451	-8.11
1082.871	-6.71
1083.291	-4.21
1083.711	-12.61
1084.132	-6.41
1084.552	-9.11
1084.972	-2.41
1085.392	-8.31
1085.813	-6.21
1086.233	-8.91
1086.653	-7.51
1087.073	-6.01
1087.493	-6.61
1087.913	-5.61
1088.333	-5.81
1088.753	-3.71
1089.173	1.69
1089.593	-4.71
1090.013	-3.51
1090.433	-0.61
1090.852	-4.01
1091.272	-0.51
1091.692	-1.21
1092.112	-1.41
1092.531	-9.11
1092.951	-13.61
1093.371	0.09
1093.79	-1.01
1094.21	-8.41
1094.63	-9.41
1095.049	-10.41
1095.469	-3.31
1095.888	-3.01
1096.308	-9.21
1096.727	1.29
1097.146	-5.61
1097.566	-5.11
1097.985	-2.61
1098.405	-3.61
1098.824	-6.31
1099.243	-7.91
1099.662	-10.81
1100.082	-0.61
1100.501	-4.31
1100.92	-7.81
1101.339	-7.91
1101.758	-0.21
