Data from 20171114-ORNL-Ar_H_NY_Subt18_08-06-27-558.txt Node
Date: Tue Nov 14 08:06:27 EST 2017
User: Ender
Spectrometer: HR+D1039
Trigger mode: 0
Integration Time (sec): 2.730000E-2
Scans to average: 10
Electric dark correction enabled: true
Nonlinearity correction enabled: false
Boxcar width: 0
XAxis mode: Wavelengths
Number of Pixels in Spectrum: 2048
>>>>>Begin Spectral Data<<<<<
187.836	1.19
188.309	1.19
188.782	1.19
189.255	1.19
189.728	0.69
190.201	7.89
190.674	-2.21
191.147	0.19
191.619	-11.21
192.092	3.19
192.565	4.49
193.038	3.69
193.511	1.89
193.984	-2.31
194.456	-5.41
194.929	1.29
195.402	-5.51
195.874	0.89
196.347	1.79
196.82	-12.61
197.292	5.39
197.765	4.19
198.237	-3.71
198.71	-1.21
199.182	-2.51
199.655	-4.31
200.127	-1.51
200.6	-3.71
201.072	-6.91
201.544	-4.81
202.017	-6.01
202.489	1.59
202.961	1.49
203.433	-3.31
203.906	-4.41
204.378	-6.01
204.85	-3.61
205.322	-14.81
205.794	-6.71
206.266	-4.31
206.739	-2.21
207.211	6.39
207.683	-10.11
208.155	-8.41
208.627	-4.61
209.099	-3.11
209.57	-6.71
210.042	-2.81
210.514	-5.51
210.986	-3.41
211.458	-7.81
211.93	-4.41
212.402	-1.31
212.873	-1.01
213.345	-11.71
213.817	-13.61
214.288	-4.31
214.76	-12.61
215.232	3.69
215.703	-0.11
216.175	-3.41
216.646	-6.41
217.118	-9.61
217.589	-4.31
218.061	-2.21
218.532	-2.81
219.004	-5.81
219.475	-7.71
219.946	-6.61
220.418	-7.71
220.889	4.19
221.36	-3.71
221.832	-2.91
222.303	-8.41
222.774	0.79
223.245	-10.81
223.717	-8.71
224.188	0.89
224.659	-11.01
225.13	-5.71
225.601	1.99
226.072	2.99
226.543	-3.41
227.014	-0.91
227.485	-3.71
227.956	-7.91
228.427	0.09
228.898	2.29
229.369	3.29
229.839	-1.11
230.31	-8.31
230.781	-0.91
231.252	-4.61
231.722	-1.41
232.193	-4.21
232.664	-1.41
233.135	-0.31
233.605	-0.01
234.076	-8.61
234.546	6.09
235.017	2.19
235.487	2.29
235.958	-2.11
236.428	-0.31
236.899	-3.01
237.369	3.79
237.84	-1.51
238.31	8.39
238.78	2.89
239.251	-2.91
239.721	2.39
240.191	-1.31
240.662	-2.11
241.132	-2.91
241.602	-5.21
242.072	-0.01
242.542	9.19
243.013	-2.01
243.483	0.69
243.953	5.19
244.423	-4.01
244.893	-2.81
245.363	6.79
245.833	4.69
246.303	-1.01
246.773	6.69
247.243	4.59
247.712	5.09
248.182	11.19
248.652	9.69
249.122	-0.91
249.592	12.39
250.061	24.59
250.531	33.79
251.001	17.99
251.471	25.19
251.94	13.69
252.41	4.89
252.879	-6.91
253.349	15.49
253.818	6.99
254.288	4.39
254.757	4.29
255.227	3.39
255.696	4.59
256.166	7.29
256.635	7.49
257.105	12.39
257.574	8.79
258.043	5.69
258.513	7.99
258.982	18.99
259.451	6.89
259.92	15.79
260.389	16.29
260.859	22.19
261.328	4.99
261.797	16.59
262.266	6.19
262.735	8.39
263.204	7.09
263.673	-0.81
264.142	4.99
264.611	-2.51
265.08	3.29
265.549	1.49
266.018	9.09
266.487	1.49
266.955	-0.81
267.424	-1.11
267.893	8.39
268.362	5.29
268.83	7.69
269.299	14.59
269.768	5.09
270.236	10.39
270.705	4.59
271.174	6.79
271.642	10.69
272.111	9.09
272.579	14.69
273.048	18.39
273.516	26.79
273.985	23.59
274.453	20.89
274.922	20.09
275.39	13.19
275.858	2.49
276.327	9.19
276.795	19.39
277.263	9.79
277.731	26.89
278.2	53.79
278.668	54.49
279.136	49.89
279.604	15.69
280.072	15.59
280.54	14.89
281.008	15.99
281.477	16.29
281.945	16.89
282.413	12.89
282.881	12.79
283.348	13.59
283.816	20.39
284.284	20.69
284.752	24.79
285.22	18.29
285.688	14.99
286.156	19.99
286.623	46.09
287.091	56.79
287.559	25.19
288.026	15.09
288.494	20.59
288.962	6.29
289.429	3.59
289.897	15.79
290.364	16.39
290.832	19.09
291.3	14.49
291.767	15.59
292.234	13.09
292.702	15.99
293.169	16.19
293.637	18.19
294.104	19.69
294.571	10.49
295.039	11.89
295.506	16.99
295.973	22.89
296.44	17.19
296.908	22.19
297.375	17.69
297.842	17.39
298.309	12.99
298.776	18.29
299.243	20.69
299.71	14.99
300.177	22.19
300.644	22.19
301.111	18.79
301.578	23.49
302.045	10.29
302.512	28.49
302.979	26.79
303.446	22.49
303.913	22.59
304.379	16.89
304.846	33.39
305.313	22.39
305.78	28.19
306.246	30.19
306.713	25.39
307.18	28.09
307.646	31.49
308.113	29.39
308.579	23.59
309.046	23.19
309.512	29.99
309.979	18.99
310.445	29.69
310.912	34.29
311.378	29.99
311.845	25.09
312.311	27.39
312.777	35.09
313.244	35.99
313.71	36.79
314.176	34.19
314.642	32.89
315.109	27.09
315.575	37.99
316.041	36.89
316.507	37.39
316.973	39.09
317.439	35.79
317.905	36.89
318.371	36.99
318.837	35.29
319.303	39.69
319.769	40.29
320.235	34.49
320.701	36.59
321.167	36.29
321.633	36.49
322.099	37.79
322.564	44.19
323.03	44.99
323.496	37.99
323.962	40.09
324.427	34.19
324.893	39.69
325.359	38.29
325.824	37.49
326.29	36.59
326.755	38.19
327.221	38.49
327.686	35.59
328.152	45.29
328.617	46.29
329.083	49.99
329.548	50.29
330.014	49.19
330.479	46.49
330.944	47.19
331.41	44.09
331.875	48.99
332.34	42.49
332.805	50.59
333.271	47.49
333.736	46.39
334.201	56.29
334.666	52.19
335.131	60.29
335.596	53.29
336.061	54.09
336.526	44.19
336.991	49.29
337.456	61.29
337.921	51.09
338.386	43.99
338.851	41.99
339.316	50.89
339.781	46.49
340.246	52.59
340.711	47.89
341.175	54.99
341.64	47.09
342.105	49.09
342.569	54.19
343.034	59.39
343.499	55.79
343.963	49.89
344.428	65.19
344.893	61.49
345.357	62.79
345.822	63.89
346.286	67.89
346.751	75.19
347.215	66.49
347.679	77.59
348.144	98.99
348.608	84.49
349.073	69.09
349.537	76.59
350.001	86.39
350.465	90.09
350.93	83.99
351.394	80.79
351.858	82.69
352.322	90.09
352.786	88.99
353.25	106.19
353.715	120.59
354.179	98.69
354.643	126.49
355.107	134.49
355.571	107.29
356.035	108.29
356.498	118.99
356.962	122.09
357.426	133.19
357.89	118.09
358.354	87.39
358.818	84.79
359.281	84.79
359.745	75.49
360.209	78.19
360.673	76.19
361.136	83.69
361.6	85.09
362.064	80.19
362.527	89.29
362.991	98.19
363.454	85.79
363.918	75.39
364.381	81.09
364.845	88.09
365.308	87.79
365.772	85.89
366.235	85.39
366.698	83.99
367.162	89.79
367.625	85.99
368.088	93.99
368.552	86.09
369.015	94.09
369.478	98.59
369.941	104.39
370.404	96.59
370.867	107.49
371.331	110.69
371.794	119.99
372.257	117.49
372.72	120.59
373.183	116.69
373.646	106.09
374.109	105.69
374.572	111.19
375.035	108.59
375.497	112.29
375.96	113.39
376.423	107.59
376.886	121.69
377.349	114.99
377.811	107.49
378.274	102.89
378.737	111.69
379.199	114.69
379.662	120.99
380.125	115.59
380.587	114.99
381.05	122.29
381.512	133.09
381.975	138.39
382.437	129.59
382.9	127.29
383.362	134.69
383.825	145.39
384.287	152.19
384.75	144.59
385.212	144.39
385.674	142.49
386.136	139.69
386.599	131.49
387.061	125.79
387.523	128.89
387.985	140.19
388.447	149.39
388.91	156.19
389.372	162.09
389.834	155.49
390.296	149.79
390.758	163.19
391.22	171.29
391.682	216.39
392.144	299.79
392.606	229.79
393.068	173.89
393.529	176.89
393.991	159.29
394.453	153.69
394.915	160.09
395.377	201.69
395.838	216.39
396.3	161.39
396.762	142.39
397.224	137.09
397.685	137.39
398.147	132.79
398.608	139.19
399.07	137.99
399.531	145.89
399.993	148.79
400.454	158.59
400.916	148.69
401.377	151.39
401.839	153.49
402.3	159.79
402.762	168.49
403.223	186.19
403.684	180.79
404.145	167.59
404.607	168.29
405.068	172.89
405.529	177.39
405.99	189.99
406.451	179.99
406.913	176.79
407.374	172.69
407.835	166.49
408.296	173.69
408.757	179.09
409.218	189.79
409.679	187.59
410.14	178.79
410.601	180.99
411.062	188.99
411.522	201.29
411.983	192.39
412.444	184.79
412.905	189.09
413.366	186.49
413.826	195.49
414.287	224.09
414.748	269.39
415.208	252.29
415.669	212.99
416.13	209.19
416.59	210.29
417.051	226.49
417.511	230.19
417.972	251.59
418.432	254.29
418.893	301.39
419.353	267.19
419.814	211.89
420.274	183.49
420.734	187.09
421.195	211.09
421.655	204.89
422.115	200.89
422.576	194.39
423.036	201.89
423.496	212.19
423.956	224.79
424.416	248.19
424.876	267.09
425.336	272.29
425.797	265.69
426.257	264.69
426.717	249.89
427.177	240.69
427.637	233.99
428.097	243.99
428.556	249.99
429.016	281.29
429.476	281.79
429.936	284.09
430.396	280.79
430.856	303.59
431.315	331.49
431.775	368.79
432.235	400.69
432.694	364.39
433.154	380.19
433.614	411.99
434.073	352.39
434.533	299.09
434.993	273.79
435.452	292.09
435.912	314.89
436.371	299.89
436.83	292.99
437.29	276.79
437.749	256.39
438.209	257.59
438.668	283.19
439.127	291.09
439.587	278.69
440.046	257.99
440.505	267.09
440.964	296.39
441.424	334.69
441.883	335.89
442.342	265.09
442.801	233.89
443.26	226.79
443.719	227.79
444.178	225.09
444.637	216.89
445.096	225.79
445.555	234.89
446.014	232.69
446.473	235.79
446.932	243.69
447.391	235.69
447.849	234.69
448.308	222.99
448.767	234.09
449.226	236.49
449.685	250.29
450.143	258.39
450.602	248.29
451.061	231.89
451.519	242.79
451.978	244.69
452.436	246.29
452.895	252.79
453.353	273.49
453.812	251.39
454.27	248.09
454.729	251.39
455.187	250.79
455.646	253.79
456.104	263.49
456.562	266.79
457.021	279.29
457.479	266.59
457.937	283.09
458.395	268.79
458.854	250.89
459.312	270.49
459.77	285.89
460.228	263.39
460.686	247.89
461.144	259.59
461.602	249.89
462.06	256.79
462.518	261.19
462.976	255.89
463.434	269.79
463.892	271.09
464.35	284.69
464.808	303.49
465.266	283.79
465.724	288.89
466.181	278.29
466.639	275.59
467.097	303.89
467.555	313.79
468.012	315.49
468.47	325.89
468.928	344.99
469.385	356.99
469.843	360.99
470.3	365.49
470.758	380.79
471.215	402.69
471.673	428.79
472.13	420.99
472.588	440.99
473.045	386.99
473.503	385.49
473.96	408.09
474.417	422.29
474.875	455.89
475.332	488.19
475.789	480.19
476.246	490.39
476.704	510.19
477.161	531.89
477.618	542.19
478.075	581.59
478.532	638.59
478.989	715.59
479.446	841.89
479.903	812.59
480.36	853.29
480.817	904.99
481.274	1012.09
481.731	1109.79
482.188	1206.79
482.645	1346.39
483.102	1447.69
483.558	1586.99
484.015	1662.29
484.472	1613.19
484.929	1567.29
485.385	1521.49
485.842	1461.59
486.299	1416.49
486.755	1351.09
487.212	1137.59
487.668	959.49
488.125	876.59
488.582	814.79
489.038	777.49
489.494	744.19
489.951	716.29
490.407	692.89
490.864	684.39
491.32	676.29
491.776	665.59
492.233	678.29
492.689	642.49
493.145	635.79
493.602	622.89
494.058	635.69
494.514	634.49
494.97	662.39
495.426	671.19
495.882	650.49
496.338	634.09
496.794	656.19
497.251	651.79
497.707	659.79
498.163	655.99
498.618	666.59
499.074	670.89
499.53	706.49
499.986	695.59
500.442	683.19
500.898	660.09
501.354	650.79
501.809	649.69
502.265	663.89
502.721	690.79
503.177	701.39
503.632	689.99
504.088	701.09
504.543	732.39
504.999	734.89
505.455	682.19
505.91	664.69
506.366	662.49
506.821	650.49
507.277	653.39
507.732	655.29
508.187	658.89
508.643	658.79
509.098	664.09
509.553	684.39
510.009	687.09
510.464	707.59
510.919	714.79
511.375	720.49
511.83	731.19
512.285	754.49
512.74	791.49
513.195	817.29
513.65	805.89
514.105	801.59
514.56	799.19
515.015	815.49
515.47	845.49
515.925	819.59
516.38	826.29
516.835	819.49
517.29	815.29
517.745	803.69
518.2	789.39
518.655	776.59
519.109	778.79
519.564	760.49
520.019	756.99
520.474	757.09
520.928	751.19
521.383	747.29
521.838	746.19
522.292	737.49
522.747	735.99
523.201	736.69
523.656	721.99
524.11	728.49
524.565	719.39
525.019	719.09
525.474	732.69
525.928	734.39
526.382	724.19
526.837	722.69
527.291	710.19
527.745	726.29
528.2	725.99
528.654	720.09
529.108	707.89
529.562	718.19
530.016	713.49
530.47	730.99
530.925	715.29
531.379	728.89
531.833	734.59
532.287	732.79
532.741	725.29
533.195	732.49
533.649	738.19
534.103	753.19
534.556	737.99
535.01	734.09
535.464	741.69
535.918	748.09
536.372	749.19
536.826	751.29
537.279	731.39
537.733	738.19
538.187	746.19
538.64	734.59
539.094	754.39
539.548	763.99
540.001	752.19
540.455	765.29
540.908	770.49
541.362	771.79
541.815	777.79
542.269	787.69
542.722	789.49
543.175	806.19
543.629	801.09
544.082	816.89
544.536	818.99
544.989	809.49
545.442	812.19
545.895	822.29
546.349	822.89
546.802	820.69
547.255	833.09
547.708	836.99
548.161	847.39
548.614	847.49
549.067	866.49
549.52	855.69
549.973	842.59
550.426	846.09
550.879	831.89
551.332	833.09
551.785	835.79
552.238	845.79
552.691	849.59
553.144	868.59
553.596	872.69
554.049	900.89
554.502	926.09
554.955	942.59
555.407	946.99
555.86	946.09
556.313	924.29
556.765	910.89
557.218	909.79
557.67	925.29
558.123	917.49
558.576	912.79
559.028	917.29
559.48	921.89
559.933	911.99
560.385	864.59
560.838	848.09
561.29	804.69
561.742	810.79
562.195	794.09
562.647	794.49
563.099	802.69
563.551	815.79
564.004	817.59
564.456	802.99
564.908	789.39
565.36	781.29
565.812	758.69
566.264	753.79
566.716	755.99
567.168	744.99
567.62	751.99
568.072	735.69
568.524	728.79
568.976	711.29
569.428	699.89
569.88	699.79
570.332	701.79
570.784	711.49
571.235	718.59
571.687	722.19
572.139	724.89
572.59	735.79
573.042	734.49
573.494	740.49
573.945	731.09
574.397	718.49
574.849	714.59
575.3	729.39
575.752	711.79
576.203	702.29
576.655	707.99
577.106	691.59
577.557	690.89
578.009	696.09
578.46	691.29
578.912	680.99
579.363	689.69
579.814	693.19
580.265	689.89
580.717	699.19
581.168	693.99
581.619	697.79
582.07	701.59
582.521	704.19
582.972	695.29
583.423	707.19
583.875	700.09
584.326	731.59
584.777	769.29
585.227	846.19
585.678	946.99
586.129	1025.09
586.58	1085.19
587.031	1171.59
587.482	1341.19
587.933	1513.29
588.384	1325.09
588.834	999.99
589.285	830.99
589.736	815.89
590.186	813.39
590.637	799.39
591.088	766.79
591.538	761.49
591.989	758.39
592.439	752.59
592.89	746.99
593.34	732.29
593.791	744.79
594.241	725.39
594.692	738.39
595.142	726.29
595.593	720.59
596.043	733.09
596.493	743.19
596.943	743.99
597.394	744.89
597.844	737.19
598.294	749.69
598.744	781.59
599.195	817.79
599.645	843.79
600.095	886.29
600.545	947.69
600.995	1000.99
601.445	1061.89
601.895	1121.69
602.345	1167.49
602.795	1148.79
603.245	1098.39
603.695	1041.49
604.145	993.69
604.594	941.39
605.044	891.09
605.494	827.29
605.944	774.59
606.393	771.09
606.843	764.19
607.293	762.69
607.743	753.19
608.192	777.79
608.642	783.89
609.091	792.19
609.541	802.89
609.99	797.29
610.44	790.19
610.889	747.99
611.339	720.99
611.788	711.49
612.238	722.79
612.687	737.79
613.136	752.59
613.586	761.59
614.035	755.79
614.484	773.39
614.933	779.99
615.383	770.19
615.832	771.79
616.281	755.19
616.73	719.29
617.179	695.89
617.628	673.79
618.077	650.79
618.526	637.99
618.975	632.29
619.424	633.19
619.873	634.49
620.322	645.39
620.771	640.39
621.22	629.29
621.669	618.59
622.118	610.09
622.567	601.19
623.015	591.89
623.464	592.99
623.913	584.19
624.361	564.69
624.81	568.39
625.259	574.19
625.707	584.39
626.156	575.99
626.604	580.79
627.053	580.09
627.501	578.89
627.95	595.09
628.398	602.49
628.847	586.79
629.295	591.89
629.744	606.89
630.192	586.69
630.64	586.99
631.089	580.19
631.537	603.99
631.985	599.59
632.433	617.59
632.881	616.69
633.33	671.19
633.778	649.29
634.226	586.09
634.674	594.49
635.122	592.39
635.57	605.99
636.018	645.49
636.466	594.09
636.914	576.69
637.362	584.89
637.81	585.39
638.258	601.69
638.705	592.99
639.153	619.59
639.601	635.89
640.049	657.59
640.497	688.19
640.944	718.39
641.392	666.09
641.84	644.49
642.287	606.79
642.735	579.49
643.182	585.19
643.63	586.19
644.078	589.39
644.525	609.09
644.973	617.59
645.42	623.59
645.867	645.69
646.315	666.79
646.762	684.59
647.21	717.49
647.657	745.09
648.104	774.09
648.551	797.49
648.999	858.59
649.446	943.49
649.893	1030.99
650.34	1188.79
650.787	1434.79
651.234	1787.09
651.682	2298.39
652.129	3181.09
652.576	4577.59
653.023	6705.59
653.47	9258.79
653.917	11541.29
654.363	13280.69
654.81	14654.79
655.257	13949.69
655.704	9147.59
656.151	5403.39
656.598	3514.69
657.044	2489.19
657.491	1907.09
657.938	1519.19
658.385	1281.89
658.831	1112.39
659.278	987.09
659.724	886.49
660.171	812.19
660.618	740.99
661.064	697.69
661.511	682.09
661.957	668.99
662.404	660.39
662.85	673.89
663.296	640.89
663.743	577.49
664.189	556.49
664.635	547.99
665.082	543.69
665.528	540.79
665.974	525.99
666.42	524.49
666.867	521.59
667.313	501.69
667.759	500.19
668.205	489.89
668.651	498.29
669.097	493.29
669.543	506.09
669.989	477.59
670.435	462.29
670.881	453.69
671.327	458.39
671.773	478.29
672.219	506.69
672.665	559.69
673.11	594.99
673.556	647.29
674.002	694.59
674.448	681.29
674.893	554.19
675.339	485.39
675.785	459.59
676.23	427.69
676.676	401.19
677.122	386.29
677.567	385.59
678.013	380.79
678.458	369.79
678.904	374.69
679.349	357.39
679.794	368.99
680.24	358.29
680.685	361.09
681.131	356.39
681.576	363.49
682.021	360.89
682.466	359.29
682.912	349.39
683.357	356.09
683.802	401.19
684.247	417.29
684.692	466.99
685.137	505.89
685.583	540.59
686.028	578.59
686.473	525.39
686.918	460.59
687.363	420.59
687.807	400.99
688.252	377.19
688.697	360.09
689.142	347.99
689.587	345.29
690.032	330.59
690.477	354.49
690.921	360.79
691.366	392.59
691.811	414.79
692.255	433.69
692.7	470.39
693.145	516.89
693.589	707.69
694.034	1156.89
694.478	1569.49
694.923	1768.79
695.367	2332.59
695.812	1224.09
696.256	505.19
696.701	380.39
697.145	356.69
697.59	336.59
698.034	331.79
698.478	335.29
698.922	337.69
699.367	332.99
699.811	348.29
700.255	366.09
700.699	394.49
701.143	428.49
701.588	483.69
702.032	531.99
702.476	526.19
702.92	497.99
703.364	502.09
703.808	642.49
704.252	1058.79
704.696	1477.09
705.14	1711.79
705.584	2183.29
706.027	1081.19
706.471	530.49
706.915	407.89
707.359	355.29
707.803	331.29
708.246	318.29
708.69	316.79
709.134	323.79
709.577	319.69
710.021	332.89
710.465	310.99
710.908	309.19
711.352	308.19
711.795	318.59
712.239	354.19
712.682	401.19
713.126	430.89
713.569	474.99
714.012	388.09
714.456	331.09
714.899	313.59
715.342	270.89
715.786	270.39
716.229	268.79
716.672	267.79
717.115	260.89
717.558	256.69
718.002	251.99
718.445	266.29
718.888	287.09
719.331	307.79
719.774	306.79
720.217	308.79
720.66	288.99
721.103	272.19
721.546	262.89
721.989	251.69
722.432	243.09
722.874	243.09
723.317	234.49
723.76	240.39
724.203	263.29
724.645	330.09
725.088	451.79
725.531	588.09
725.974	657.19
726.416	553.69
726.859	311.39
727.301	256.39
727.744	242.49
728.187	236.19
728.629	245.69
729.071	244.99
729.514	264.19
729.956	277.09
730.399	284.29
730.841	294.79
731.283	273.29
731.726	269.99
732.168	274.09
732.61	269.49
733.053	286.59
733.495	324.69
733.937	362.79
734.379	403.49
734.821	450.69
735.263	557.69
735.705	853.29
736.148	1597.99
736.59	2630.49
737.032	3142.29
737.474	2520.59
737.916	819.39
738.357	433.69
738.799	334.39
739.241	305.29
739.683	290.89
740.125	293.89
740.567	311.39
741.008	323.49
741.45	315.19
741.892	321.39
742.334	355.89
742.775	363.49
743.217	350.99
743.658	271.69
744.1	255.89
744.542	270.09
744.983	314.39
745.425	352.89
745.866	345.69
746.307	283.69
746.749	288.99
747.19	334.49
747.632	455.69
748.073	901.59
748.514	1889.99
748.956	2919.69
749.397	3647.79
749.838	3023.89
750.279	3017.79
750.72	1519.09
751.162	557.49
751.603	330.39
752.044	259.99
752.485	227.39
752.926	210.69
753.367	212.59
753.808	197.99
754.249	197.49
754.69	189.99
755.131	187.39
755.572	191.49
756.013	183.99
756.453	190.69
756.894	190.49
757.335	198.29
757.776	202.99
758.216	200.59
758.657	199.49
759.098	200.89
759.538	228.89
759.979	274.39
760.42	381.19
760.86	713.19
761.301	1841.69
761.741	4496.99
762.182	6563.79
762.622	4594.79
763.063	1320.09
763.503	546.39
763.943	356.39
764.384	343.59
764.824	407.59
765.264	441.49
765.705	302.19
766.145	209.29
766.585	189.19
767.025	181.19
767.465	191.89
767.906	238.79
768.346	319.59
768.786	341.09
769.226	268.19
769.666	322.59
770.106	631.89
770.546	1587.49
770.986	2686.09
771.426	2408.69
771.866	797.59
772.306	332.89
772.745	214.09
773.185	177.29
773.625	171.69
774.065	168.19
774.505	198.09
774.944	307.29
775.384	668.59
775.824	1216.29
776.263	1172.19
776.703	502.99
777.142	222.29
777.582	154.69
778.021	138.99
778.461	139.79
778.9	141.69
779.34	139.39
779.779	120.09
780.219	113.09
780.658	112.69
781.097	115.09
781.537	118.89
781.976	115.39
782.415	103.39
782.855	107.99
783.294	109.49
783.733	104.79
784.172	106.29
784.611	110.29
785.05	120.19
785.489	115.39
785.928	124.29
786.367	122.39
786.806	121.99
787.245	136.69
787.684	140.69
788.123	152.79
788.562	135.59
789.001	131.09
789.44	122.69
789.879	122.89
790.317	123.09
790.756	129.99
791.195	128.89
791.634	152.59
792.072	210.59
792.511	370.09
792.95	1015.29
793.388	2183.39
793.827	1973.19
794.265	684.19
794.704	283.79
795.142	191.29
795.581	156.69
796.019	142.59
796.458	132.69
796.896	130.09
797.334	137.19
797.773	164.49
798.211	215.89
798.649	439.79
799.087	1045.89
799.526	1620.89
799.964	2050.09
800.402	2057.99
800.84	756.99
801.278	305.29
801.716	183.29
802.154	153.89
802.592	156.29
803.03	142.99
803.468	136.99
803.906	145.59
804.344	156.09
804.782	142.49
805.22	136.59
805.658	135.29
806.096	153.89
806.533	163.59
806.971	172.39
807.409	211.89
807.847	324.79
808.284	662.69
808.722	1878.89
809.16	3339.99
809.597	3159.29
810.035	5509.29
810.472	5891.49
810.91	2108.19
811.347	805.69
811.785	405.69
812.222	268.69
812.66	200.59
813.097	163.49
813.535	147.69
813.972	128.79
814.409	121.99
814.846	107.79
815.284	110.19
815.721	102.09
816.158	107.39
816.595	123.59
817.032	178.59
817.47	197.09
817.907	176.79
818.344	155.59
818.781	123.49
819.218	99.39
819.655	126.29
820.092	188.99
820.529	220.89
820.966	176.79
821.403	136.99
821.839	101.79
822.276	104.49
822.713	125.99
823.15	142.49
823.587	117.59
824.023	150.29
824.46	296.59
824.897	912.89
825.333	1389.69
825.77	591.49
826.206	238.19
826.643	140.09
827.08	101.19
827.516	86.49
827.953	85.19
828.389	82.39
828.825	76.79
829.262	71.79
829.698	68.49
830.135	65.89
830.571	65.19
831.007	72.39
831.443	69.59
831.88	64.69
832.316	65.69
832.752	73.59
833.188	68.89
833.624	63.49
834.06	71.89
834.497	74.09
834.933	76.79
835.369	74.09
835.805	63.69
836.241	75.29
836.677	85.59
837.112	94.09
837.548	110.59
837.984	136.99
838.42	205.99
838.856	500.99
839.292	1547.79
839.727	2344.99
840.163	1079.39
840.599	924.49
841.034	2041.19
841.47	2160.39
841.906	779.59
842.341	346.49
842.777	233.09
843.212	317.29
843.648	307.09
844.083	154.09
844.519	92.59
844.954	78.29
845.39	61.39
845.825	54.59
846.261	59.39
846.696	57.79
847.131	55.39
847.566	64.99
848.002	62.99
848.437	51.89
848.872	57.19
849.307	57.79
849.742	86.79
850.177	181.69
850.613	566.79
851.048	897.69
851.483	386.39
851.918	155.69
852.353	89.99
852.788	65.19
853.223	53.39
853.657	55.99
854.092	48.99
854.527	40.89
854.962	43.79
855.397	47.59
855.832	48.69
856.266	43.09
856.701	39.99
857.136	35.09
857.57	43.19
858.005	46.09
858.44	60.39
858.874	46.99
859.309	50.69
859.743	42.09
860.178	45.79
860.612	41.49
861.047	50.79
861.481	74.29
861.915	68.79
862.35	55.49
862.784	33.99
863.218	36.29
863.653	32.29
864.087	46.79
864.521	55.79
864.955	73.69
865.39	160.39
865.824	180.49
866.258	113.59
866.692	167.19
867.126	177.09
867.56	99.09
867.994	50.29
868.428	43.79
868.862	50.29
869.296	54.79
869.73	58.29
870.164	57.19
870.598	51.29
871.031	36.59
871.465	27.39
871.899	24.59
872.333	24.39
872.766	20.89
873.2	23.99
873.634	25.79
874.067	22.39
874.501	24.59
874.935	34.49
875.368	28.79
875.802	30.69
876.235	21.39
876.669	20.89
877.102	21.49
877.535	24.09
877.969	23.89
878.402	28.89
878.836	17.89
879.269	18.49
879.702	31.69
880.135	23.49
880.569	21.99
881.002	32.79
881.435	23.79
881.868	17.99
882.301	23.09
882.734	14.99
883.167	33.79
883.601	24.69
884.034	25.59
884.467	16.29
884.899	15.49
885.332	13.19
885.765	21.09
886.198	22.29
886.631	16.79
887.064	16.39
887.497	26.49
887.929	25.59
888.362	13.89
888.795	12.69
889.228	14.49
889.66	24.19
890.093	18.09
890.526	17.29
890.958	20.19
891.391	19.59
891.823	24.29
892.256	18.59
892.688	14.29
893.121	14.99
893.553	19.89
893.985	21.39
894.418	19.59
894.85	15.29
895.282	19.89
895.715	17.69
896.147	18.89
896.579	23.99
897.011	7.99
897.444	21.79
897.876	18.59
898.308	17.79
898.74	16.39
899.172	15.19
899.604	22.09
900.036	20.39
900.468	18.99
900.9	19.29
901.332	16.99
901.764	15.29
902.196	19.79
902.628	16.59
903.06	20.49
903.491	28.39
903.923	26.19
904.355	20.09
904.787	22.09
905.218	27.29
905.65	10.39
906.082	17.09
906.513	6.09
906.945	15.59
907.376	13.59
907.808	22.19
908.239	22.49
908.671	15.09
909.102	17.69
909.534	26.89
909.965	49.09
910.397	94.49
910.828	318.09
911.259	479.09
911.691	217.29
912.122	115.39
912.553	54.39
912.984	38.39
913.415	31.69
913.847	28.59
914.278	18.69
914.709	15.19
915.14	15.89
915.571	17.59
916.002	12.89
916.433	21.59
916.864	16.39
917.295	14.39
917.726	21.39
918.157	19.19
918.587	27.19
919.018	20.29
919.449	20.69
919.88	25.39
920.311	30.19
920.741	52.89
921.172	170.09
921.603	161.19
922.033	68.89
922.464	43.79
922.895	26.79
923.325	22.29
923.756	15.89
924.186	21.69
924.617	32.29
925.047	40.19
925.478	49.69
925.908	48.19
926.338	26.69
926.769	20.19
927.199	21.09
927.629	12.79
928.06	20.79
928.49	19.49
928.92	16.69
929.35	12.29
929.78	10.59
930.21	10.79
930.641	10.49
931.071	13.89
931.501	8.99
931.931	5.79
932.361	8.49
932.791	3.09
933.221	5.29
933.651	3.69
934.08	22.39
934.51	27.99
934.94	20.09
935.37	12.09
935.8	11.59
936.229	8.69
936.659	5.99
937.089	2.99
937.519	16.09
937.948	19.59
938.378	17.89
938.807	5.19
939.237	11.19
939.666	13.19
940.096	-1.81
940.525	3.09
940.955	0.29
941.384	2.79
941.814	-7.81
942.243	-1.81
942.672	1.89
943.102	-8.91
943.531	0.39
943.96	7.39
944.39	0.49
944.819	-1.21
945.248	1.09
945.677	-0.31
946.106	7.59
946.535	11.89
946.964	4.19
947.393	6.59
947.822	0.89
948.251	-9.71
948.68	5.79
949.109	3.69
949.538	9.29
949.967	-2.71
950.396	3.39
950.825	0.09
951.254	-0.51
951.682	-9.21
952.111	2.49
952.54	6.69
952.969	-2.11
953.397	-6.31
953.826	-3.41
954.254	-2.41
954.683	0.49
955.112	-2.11
955.54	1.39
955.969	2.99
956.397	3.19
956.826	-0.31
957.254	6.09
957.682	-0.41
958.111	1.09
958.539	7.39
958.967	7.59
959.396	-1.51
959.824	2.09
960.252	1.09
960.68	-4.61
961.109	-5.51
961.537	-2.21
961.965	1.69
962.393	3.09
962.821	-3.21
963.249	1.89
963.677	7.89
964.105	4.69
964.533	47.39
964.961	36.99
965.389	20.99
965.817	10.29
966.245	1.59
966.672	0.99
967.1	-5.81
967.528	-0.61
967.956	2.19
968.383	4.49
968.811	3.29
969.239	-1.61
969.666	-4.81
970.094	3.59
970.522	7.39
970.949	-1.01
971.377	0.49
971.804	3.39
972.232	-3.41
972.659	0.09
973.087	-1.41
973.514	-7.31
973.941	-6.31
974.369	0.09
974.796	-4.61
975.223	-1.21
975.651	-4.11
976.078	3.89
976.505	0.69
976.932	5.69
977.359	12.09
977.786	8.99
978.214	-0.11
978.641	-1.91
979.068	-5.11
979.495	-1.71
979.922	1.19
980.349	-4.41
980.776	-1.91
981.202	-0.11
981.629	5.09
982.056	6.09
982.483	-4.01
982.91	4.19
983.337	-6.51
983.763	6.59
984.19	-5.71
984.617	-4.01
985.043	-4.91
985.47	-5.81
985.897	-1.31
986.323	-6.21
986.75	7.49
987.176	-2.31
987.603	-2.71
988.029	3.59
988.456	-2.21
988.882	8.79
989.308	-11.41
989.735	-1.41
990.161	1.09
990.587	-1.51
991.014	3.69
991.44	5.89
991.866	0.39
992.292	-2.01
992.719	-1.21
993.145	-0.21
993.571	-8.01
993.997	-6.61
994.423	-0.51
994.849	-8.01
995.275	2.89
995.701	-4.41
996.127	-2.21
996.553	3.09
996.979	-1.61
997.405	-2.81
997.83	-3.91
998.256	-4.91
998.682	-5.21
999.108	-4.91
999.534	1.69
999.959	-3.41
1000.385	-2.11
1000.811	-4.91
1001.236	-9.71
1001.662	-9.01
1002.087	-8.71
1002.513	-2.31
1002.938	-0.11
1003.364	-0.61
1003.789	-0.31
1004.215	7.49
1004.64	-2.41
1005.066	5.89
1005.491	-7.51
1005.916	-1.51
1006.342	-9.01
1006.767	-6.51
1007.192	3.79
1007.617	-7.01
1008.042	-7.71
1008.468	-10.01
1008.893	-3.11
1009.318	-0.51
1009.743	5.99
1010.168	4.39
1010.593	6.99
1011.018	-7.81
1011.443	-0.71
1011.868	3.89
1012.293	-3.31
1012.718	-3.71
1013.143	2.99
1013.567	1.69
1013.992	-3.51
1014.417	-14.11
1014.842	4.29
1015.267	-6.21
1015.691	-4.11
1016.116	3.49
1016.541	-2.91
1016.965	3.89
1017.39	6.29
1017.814	-1.21
1018.239	2.59
1018.663	-5.81
1019.088	-10.31
1019.512	-2.81
1019.937	-2.61
1020.361	-8.81
1020.785	-11.51
1021.21	-1.81
1021.634	-4.81
1022.058	-0.71
1022.483	5.09
1022.907	-11.31
1023.331	-0.31
1023.755	-3.01
1024.179	-1.11
1024.604	-8.51
1025.028	-4.01
1025.452	-8.51
1025.876	1.39
1026.3	-3.11
1026.724	-10.71
1027.148	-4.71
1027.572	-3.31
1027.996	-0.31
1028.42	-3.41
1028.843	-5.31
1029.267	-4.51
1029.691	-6.01
1030.115	-2.21
1030.539	-8.81
1030.962	-3.71
1031.386	-6.41
1031.81	1.69
1032.233	-3.31
1032.657	-3.01
1033.08	-2.61
1033.504	-6.21
1033.927	-10.11
1034.351	-0.91
1034.774	-5.41
1035.198	-2.91
1035.621	-0.01
1036.045	-4.21
1036.468	-1.51
1036.891	-13.81
1037.315	-7.21
1037.738	-8.51
1038.161	-1.31
1038.584	-5.31
1039.008	-11.61
1039.431	-3.31
1039.854	0.19
1040.277	-8.71
1040.7	-11.11
1041.123	3.49
1041.546	-7.11
1041.969	-4.31
1042.392	-8.11
1042.815	-3.41
1043.238	2.89
1043.661	-0.31
1044.084	-9.21
1044.507	-3.41
1044.93	-4.31
1045.352	-1.71
1045.775	-5.31
1046.198	2.59
1046.621	0.89
1047.043	-0.51
1047.466	3.79
1047.889	-0.81
1048.311	-2.41
1048.734	-2.81
1049.156	-4.41
1049.579	-3.61
1050.001	-4.41
1050.424	-3.21
1050.846	-1.11
1051.269	-6.41
1051.691	-4.71
1052.113	-4.81
1052.536	-3.51
1052.958	-7.31
1053.38	-12.11
1053.802	-14.81
1054.225	-1.61
1054.647	-10.41
1055.069	-9.71
1055.491	2.69
1055.913	-3.11
1056.335	2.89
1056.757	-3.21
1057.179	-3.41
1057.601	-8.11
1058.023	-4.31
1058.445	-6.01
1058.867	-4.91
1059.289	-4.81
1059.711	-3.01
1060.133	-8.01
1060.555	-1.71
1060.976	-7.01
1061.398	-10.41
1061.82	-4.71
1062.241	-7.41
1062.663	-4.71
1063.085	-5.31
1063.506	-2.01
1063.928	-0.51
1064.35	-0.91
1064.771	-11.31
1065.193	-8.01
1065.614	-7.41
1066.035	-4.11
1066.457	-3.91
1066.878	-3.31
1067.3	-9.51
1067.721	-5.31
1068.142	-3.31
1068.564	-8.81
1068.985	-7.71
1069.406	-5.81
1069.827	-6.21
1070.248	3.79
1070.67	-4.01
1071.091	-8.91
1071.512	-3.41
1071.933	-6.21
1072.354	-6.31
1072.775	-4.01
1073.196	-8.21
1073.617	-6.11
1074.038	-7.01
1074.459	-3.11
1074.88	-10.21
1075.3	0.09
1075.721	-7.01
1076.142	-1.61
1076.563	-1.91
1076.983	-6.11
1077.404	-7.61
1077.825	-15.21
1078.246	-5.51
1078.666	-12.31
1079.087	-7.71
1079.507	-8.31
1079.928	-1.11
1080.348	-4.91
1080.769	-0.41
1081.189	2.49
1081.61	-7.51
1082.03	-7.61
1082.451	-9.71
1082.871	-3.71
1083.291	-8.51
1083.711	-5.11
1084.132	-5.81
1084.552	-6.61
1084.972	0.79
1085.392	-10.31
1085.813	-12.61
1086.233	-9.01
1086.653	-7.01
1087.073	-4.01
1087.493	-6.31
1087.913	-12.51
1088.333	-7.81
1088.753	-1.61
1089.173	6.09
1089.593	-3.81
1090.013	-0.01
1090.433	-2.31
1090.852	-3.61
1091.272	-2.51
1091.692	0.19
1092.112	-1.21
1092.531	-11.31
1092.951	-16.51
1093.371	-3.71
1093.79	-7.51
1094.21	-1.81
1094.63	-2.51
1095.049	-1.21
1095.469	-7.61
1095.888	-3.11
1096.308	4.29
1096.727	5.39
1097.146	-3.51
1097.566	3.69
1097.985	-7.11
1098.405	1.09
1098.824	-6.21
1099.243	-8.61
1099.662	-2.41
1100.082	-7.41
1100.501	-6.21
1100.92	-8.51
1101.339	-1.51
1101.758	-2.41
