Data from 20171114-ORNL-Ar_H_NY_Subt18_08-05-17-403.txt Node
Date: Tue Nov 14 08:05:17 EST 2017
User: Ender
Spectrometer: HR+D1039
Trigger mode: 0
Integration Time (sec): 2.730000E-2
Scans to average: 10
Electric dark correction enabled: true
Nonlinearity correction enabled: false
Boxcar width: 0
XAxis mode: Wavelengths
Number of Pixels in Spectrum: 2048
>>>>>Begin Spectral Data<<<<<
187.836	-2.32
188.309	-2.32
188.782	-2.32
189.255	-2.82
189.728	4.88
190.201	4.98
190.674	-0.02
191.147	1.08
191.619	-2.22
192.092	-0.82
192.565	4.38
193.038	1.98
193.511	-1.92
193.984	-3.92
194.456	-0.12
194.929	-0.02
195.402	-0.72
195.874	-2.42
196.347	-3.72
196.82	-9.12
197.292	3.08
197.765	-0.32
198.237	-10.82
198.71	-0.82
199.182	-3.32
199.655	3.08
200.127	-1.12
200.6	-3.52
201.072	-1.52
201.544	-9.42
202.017	-3.12
202.489	2.68
202.961	-3.02
203.433	-3.62
203.906	-4.72
204.378	-6.22
204.85	-7.52
205.322	-8.92
205.794	-3.02
206.266	-3.02
206.739	-10.92
207.211	0.08
207.683	-15.02
208.155	-7.22
208.627	-8.02
209.099	-1.82
209.57	-10.42
210.042	-11.02
210.514	-4.42
210.986	-1.42
211.458	-9.72
211.93	-5.52
212.402	2.38
212.873	-9.12
213.345	-11.42
213.817	-8.92
214.288	-1.72
214.76	-8.92
215.232	-5.22
215.703	-4.52
216.175	-2.82
216.646	-7.52
217.118	-6.42
217.589	-5.22
218.061	-5.12
218.532	-8.02
219.004	-3.02
219.475	-7.32
219.946	-7.42
220.418	-8.52
220.889	2.08
221.36	3.08
221.832	-6.12
222.303	-10.32
222.774	0.88
223.245	-7.52
223.717	-7.42
224.188	-6.02
224.659	-12.32
225.13	-7.02
225.601	-7.42
226.072	-3.32
226.543	-2.02
227.014	-1.62
227.485	0.18
227.956	-10.92
228.427	0.98
228.898	6.38
229.369	7.38
229.839	-6.12
230.31	-9.82
230.781	0.08
231.252	-0.12
231.722	-7.52
232.193	-5.92
232.664	-1.22
233.135	-2.42
233.605	0.48
234.076	-3.92
234.546	0.08
235.017	0.88
235.487	1.88
235.958	-0.62
236.428	-5.02
236.899	7.28
237.369	4.48
237.84	-4.02
238.31	1.68
238.78	2.98
239.251	0.18
239.721	2.38
240.191	-0.12
240.662	-0.62
241.132	2.38
241.602	-4.22
242.072	2.78
242.542	9.78
243.013	-2.72
243.483	-0.12
243.953	-0.42
244.423	3.48
244.893	0.48
245.363	4.78
245.833	1.68
246.303	-0.72
246.773	7.68
247.243	-2.12
247.712	2.18
248.182	4.08
248.652	3.18
249.122	-1.22
249.592	8.78
250.061	20.08
250.531	35.68
251.001	21.98
251.471	20.38
251.94	17.48
252.41	7.08
252.879	5.08
253.349	12.08
253.818	11.88
254.288	3.28
254.757	5.98
255.227	1.58
255.696	7.98
256.166	5.68
256.635	6.58
257.105	11.28
257.574	11.18
258.043	11.98
258.513	13.18
258.982	20.28
259.451	10.48
259.92	16.18
260.389	6.68
260.859	17.18
261.328	6.78
261.797	14.08
262.266	12.68
262.735	13.88
263.204	1.28
263.673	1.48
264.142	6.78
264.611	-7.22
265.08	-1.52
265.549	2.78
266.018	8.78
266.487	-2.92
266.955	-1.52
267.424	-0.32
267.893	1.88
268.362	0.58
268.83	-3.92
269.299	11.88
269.768	7.18
270.236	10.48
270.705	-1.22
271.174	5.78
271.642	4.78
272.111	9.98
272.579	20.48
273.048	18.58
273.516	32.48
273.985	32.28
274.453	28.68
274.922	20.68
275.39	19.28
275.858	3.38
276.327	9.88
276.795	18.78
277.263	12.68
277.731	30.18
278.2	56.78
278.668	69.78
279.136	56.08
279.604	25.38
280.072	18.38
280.54	15.08
281.008	12.38
281.477	19.38
281.945	15.58
282.413	18.58
282.881	15.98
283.348	5.88
283.816	12.08
284.284	17.08
284.752	25.08
285.22	13.78
285.688	18.68
286.156	16.58
286.623	42.78
287.091	57.58
287.559	30.78
288.026	18.18
288.494	17.98
288.962	8.48
289.429	10.48
289.897	14.08
290.364	13.88
290.832	15.78
291.3	13.58
291.767	8.88
292.234	16.78
292.702	11.68
293.169	20.18
293.637	22.28
294.104	22.98
294.571	12.98
295.039	11.68
295.506	19.58
295.973	21.38
296.44	17.78
296.908	23.18
297.375	19.28
297.842	22.88
298.309	20.08
298.776	19.08
299.243	22.68
299.71	18.18
300.177	22.58
300.644	25.48
301.111	21.48
301.578	22.28
302.045	24.78
302.512	23.68
302.979	27.18
303.446	21.18
303.913	24.28
304.379	22.38
304.846	30.58
305.313	29.78
305.78	22.88
306.246	29.78
306.713	31.78
307.18	27.38
307.646	27.28
308.113	33.48
308.579	25.68
309.046	32.38
309.512	28.18
309.979	20.98
310.445	27.48
310.912	33.68
311.378	31.68
311.845	25.98
312.311	36.48
312.777	30.48
313.244	34.58
313.71	38.88
314.176	32.78
314.642	34.68
315.109	32.28
315.575	33.18
316.041	37.48
316.507	41.78
316.973	39.18
317.439	36.28
317.905	39.28
318.371	34.88
318.837	35.98
319.303	37.98
319.769	33.08
320.235	35.58
320.701	39.28
321.167	34.48
321.633	32.28
322.099	44.28
322.564	48.28
323.03	43.68
323.496	39.68
323.962	46.88
324.427	39.38
324.893	44.98
325.359	39.68
325.824	38.88
326.29	38.18
326.755	41.08
327.221	42.98
327.686	41.58
328.152	49.98
328.617	41.78
329.083	49.08
329.548	47.98
330.014	50.38
330.479	47.78
330.944	49.58
331.41	45.48
331.875	46.88
332.34	43.58
332.805	49.08
333.271	47.68
333.736	43.78
334.201	50.48
334.666	48.38
335.131	59.58
335.596	54.28
336.061	48.78
336.526	46.18
336.991	46.08
337.456	56.78
337.921	51.68
338.386	49.48
338.851	48.48
339.316	51.48
339.781	46.08
340.246	57.78
340.711	48.58
341.175	56.58
341.64	46.28
342.105	58.08
342.569	56.48
343.034	60.08
343.499	56.98
343.963	59.38
344.428	65.38
344.893	60.08
345.357	70.98
345.822	62.98
346.286	64.58
346.751	78.78
347.215	67.18
347.679	72.18
348.144	96.88
348.608	86.68
349.073	71.38
349.537	78.88
350.001	88.18
350.465	89.58
350.93	87.48
351.394	82.28
351.858	78.58
352.322	88.98
352.786	87.88
353.25	107.68
353.715	117.18
354.179	104.28
354.643	120.68
355.107	133.58
355.571	110.88
356.035	105.88
356.498	121.18
356.962	132.98
357.426	135.18
357.89	122.78
358.354	94.08
358.818	83.88
359.281	81.68
359.745	84.28
360.209	76.88
360.673	77.18
361.136	84.08
361.6	92.08
362.064	84.08
362.527	89.08
362.991	91.68
363.454	79.28
363.918	76.48
364.381	82.68
364.845	81.58
365.308	93.38
365.772	89.38
366.235	88.38
366.698	84.88
367.162	85.98
367.625	90.28
368.088	89.28
368.552	91.78
369.015	87.88
369.478	103.58
369.941	99.98
370.404	95.98
370.867	106.08
371.331	104.58
371.794	118.28
372.257	107.78
372.72	115.58
373.183	108.48
373.646	108.28
374.109	105.68
374.572	108.28
375.035	108.48
375.497	107.78
375.96	113.18
376.423	104.48
376.886	114.58
377.349	111.28
377.811	104.98
378.274	105.78
378.737	103.78
379.199	113.28
379.662	110.58
380.125	117.68
380.587	115.38
381.05	125.18
381.512	128.58
381.975	132.58
382.437	130.48
382.9	131.28
383.362	135.18
383.825	144.58
384.287	148.38
384.75	138.28
385.212	141.38
385.674	148.08
386.136	135.58
386.599	128.08
387.061	133.38
387.523	129.18
387.985	131.38
388.447	152.58
388.91	144.98
389.372	152.88
389.834	155.48
390.296	146.58
390.758	157.88
391.22	175.08
391.682	204.98
392.144	291.18
392.606	237.98
393.068	168.18
393.529	164.58
393.991	153.28
394.453	152.58
394.915	150.88
395.377	187.28
395.838	210.58
396.3	162.38
396.762	138.18
397.224	140.68
397.685	135.88
398.147	135.98
398.608	129.18
399.07	124.88
399.531	137.18
399.993	143.18
400.454	159.38
400.916	150.58
401.377	145.38
401.839	150.68
402.3	156.38
402.762	170.68
403.223	184.58
403.684	166.08
404.145	164.48
404.607	157.58
405.068	162.98
405.529	169.48
405.99	186.68
406.451	181.08
406.913	174.68
407.374	167.48
407.835	165.08
408.296	172.98
408.757	166.88
409.218	189.38
409.679	183.78
410.14	172.98
410.601	183.48
411.062	180.48
411.522	194.58
411.983	194.58
412.444	181.28
412.905	184.78
413.366	187.08
413.826	198.48
414.287	215.98
414.748	265.28
415.208	247.08
415.669	213.88
416.13	203.88
416.59	200.18
417.051	215.38
417.511	224.08
417.972	240.98
418.432	247.68
418.893	284.18
419.353	253.38
419.814	194.98
420.274	183.88
420.734	181.88
421.195	205.78
421.655	194.18
422.115	193.48
422.576	188.58
423.036	190.98
423.496	204.48
423.956	216.78
424.416	225.68
424.876	269.78
425.336	261.78
425.797	264.58
426.257	265.68
426.717	247.98
427.177	238.28
427.637	232.38
428.097	228.78
428.556	250.78
429.016	265.58
429.476	265.78
429.936	276.08
430.396	282.18
430.856	291.88
431.315	308.98
431.775	353.58
432.235	374.18
432.694	347.98
433.154	364.68
433.614	389.58
434.073	335.48
434.533	287.08
434.993	263.88
435.452	289.18
435.912	293.78
436.371	292.08
436.83	290.88
437.29	268.08
437.749	249.98
438.209	244.88
438.668	276.78
439.127	285.68
439.587	273.18
440.046	248.58
440.505	262.38
440.964	277.08
441.424	324.88
441.883	312.88
442.342	256.08
442.801	228.88
443.26	217.28
443.719	222.78
444.178	221.68
444.637	211.08
445.096	225.58
445.555	224.58
446.014	228.98
446.473	221.18
446.932	227.58
447.391	232.88
447.849	237.18
448.308	216.28
448.767	220.48
449.226	233.28
449.685	230.48
450.143	254.38
450.602	233.68
451.061	231.18
451.519	236.68
451.978	239.28
452.436	236.88
452.895	236.18
453.353	254.68
453.812	241.68
454.27	245.58
454.729	242.68
455.187	242.28
455.646	246.38
456.104	244.48
456.562	257.28
457.021	266.18
457.479	265.08
457.937	276.28
458.395	275.68
458.854	246.78
459.312	249.98
459.77	278.68
460.228	259.28
460.686	241.18
461.144	247.88
461.602	243.08
462.06	245.38
462.518	247.58
462.976	251.78
463.434	262.38
463.892	260.88
464.35	274.08
464.808	288.88
465.266	264.58
465.724	263.58
466.181	278.78
466.639	265.28
467.097	286.48
467.555	304.58
468.012	305.78
468.47	311.78
468.928	328.58
469.385	346.38
469.843	352.28
470.3	348.28
470.758	374.78
471.215	384.78
471.673	416.98
472.13	401.18
472.588	428.88
473.045	372.48
473.503	381.38
473.96	395.48
474.417	410.78
474.875	437.98
475.332	474.68
475.789	456.88
476.246	466.88
476.704	490.18
477.161	505.88
477.618	526.88
478.075	563.68
478.532	611.88
478.989	698.18
479.446	799.08
479.903	763.78
480.36	810.68
480.817	877.38
481.274	989.18
481.731	1081.58
482.188	1172.48
482.645	1316.78
483.102	1431.18
483.558	1563.98
484.015	1613.68
484.472	1583.58
484.929	1542.98
485.385	1485.88
485.842	1441.78
486.299	1392.58
486.755	1301.58
487.212	1103.28
487.668	938.28
488.125	854.18
488.582	782.08
489.038	757.98
489.494	714.98
489.951	693.98
490.407	677.18
490.864	655.88
491.32	649.48
491.776	649.28
492.233	649.18
492.689	610.98
493.145	606.68
493.602	605.28
494.058	615.48
494.514	621.38
494.97	639.98
495.426	658.68
495.882	633.78
496.338	618.88
496.794	625.18
497.251	628.48
497.707	641.88
498.163	646.88
498.618	651.78
499.074	654.28
499.53	676.68
499.986	674.08
500.442	658.98
500.898	638.68
501.354	633.18
501.809	635.48
502.265	650.68
502.721	665.98
503.177	672.48
503.632	671.88
504.088	674.58
504.543	717.78
504.999	720.98
505.455	661.58
505.91	641.48
506.366	640.98
506.821	627.68
507.277	624.48
507.732	626.48
508.187	620.58
508.643	632.08
509.098	640.08
509.553	665.68
510.009	670.88
510.464	674.08
510.919	690.98
511.375	701.78
511.83	710.28
512.285	724.78
512.74	765.28
513.195	791.68
513.65	774.78
514.105	769.68
514.56	776.88
515.015	790.28
515.47	800.78
515.925	789.98
516.38	801.48
516.835	797.88
517.29	783.98
517.745	782.68
518.2	766.88
518.655	758.68
519.109	768.18
519.564	746.78
520.019	735.78
520.474	730.78
520.928	732.08
521.383	742.28
521.838	714.58
522.292	717.48
522.747	711.88
523.201	706.78
523.656	699.88
524.11	700.08
524.565	699.98
525.019	691.48
525.474	700.08
525.928	703.28
526.382	700.58
526.837	697.48
527.291	705.78
527.745	701.68
528.2	700.38
528.654	695.38
529.108	685.98
529.562	695.18
530.016	694.98
530.47	691.78
530.925	698.38
531.379	695.88
531.833	712.88
532.287	705.08
532.741	704.48
533.195	710.38
533.649	723.58
534.103	727.48
534.556	705.58
535.01	720.08
535.464	711.28
535.918	729.88
536.372	713.88
536.826	719.58
537.279	706.38
537.733	718.48
538.187	716.78
538.64	716.68
539.094	723.58
539.548	723.78
540.001	715.58
540.455	728.48
540.908	725.48
541.362	738.48
541.815	742.48
542.269	740.38
542.722	753.78
543.175	764.58
543.629	770.18
544.082	784.38
544.536	790.18
544.989	783.38
545.442	799.08
545.895	795.68
546.349	790.98
546.802	791.68
547.255	797.38
547.708	804.58
548.161	813.68
548.614	824.98
549.067	829.48
549.52	823.88
549.973	810.28
550.426	806.28
550.879	790.08
551.332	798.18
551.785	807.38
552.238	808.38
552.691	824.48
553.144	840.28
553.596	844.98
554.049	852.18
554.502	891.18
554.955	905.18
555.407	910.48
555.86	900.38
556.313	906.58
556.765	875.68
557.218	867.88
557.67	873.28
558.123	874.18
558.576	867.58
559.028	873.68
559.48	875.28
559.933	869.88
560.385	851.08
560.838	795.98
561.29	778.58
561.742	786.38
562.195	756.38
562.647	756.38
563.099	761.78
563.551	762.48
564.004	780.08
564.456	760.68
564.908	752.08
565.36	742.68
565.812	734.18
566.264	717.08
566.716	711.18
567.168	706.28
567.62	719.48
568.072	702.18
568.524	687.08
568.976	678.38
569.428	675.68
569.88	664.88
570.332	678.48
570.784	666.38
571.235	680.88
571.687	686.88
572.139	688.98
572.59	702.78
573.042	709.68
573.494	692.48
573.945	698.68
574.397	684.08
574.849	682.68
575.3	683.68
575.752	676.08
576.203	667.98
576.655	672.98
577.106	659.28
577.557	651.28
578.009	665.08
578.46	662.68
578.912	650.58
579.363	665.28
579.814	661.88
580.265	657.18
580.717	668.68
581.168	670.58
581.619	668.38
582.07	678.38
582.521	664.28
582.972	662.78
583.423	660.98
583.875	670.28
584.326	695.78
584.777	732.18
585.227	811.88
585.678	896.38
586.129	980.58
586.58	1044.98
587.031	1136.68
587.482	1293.98
587.933	1474.98
588.384	1284.08
588.834	958.48
589.285	789.88
589.736	776.48
590.186	754.08
590.637	746.88
591.088	726.28
591.538	729.98
591.989	716.88
592.439	713.48
592.89	708.78
593.34	703.98
593.791	691.78
594.241	681.98
594.692	691.38
595.142	677.58
595.593	680.18
596.043	695.38
596.493	696.68
596.943	708.78
597.394	705.88
597.844	704.58
598.294	711.08
598.744	732.28
599.195	757.88
599.645	795.78
600.095	827.68
600.545	889.98
600.995	941.78
601.445	1002.28
601.895	1058.28
602.345	1106.28
602.795	1082.68
603.245	1046.08
603.695	985.68
604.145	930.98
604.594	889.98
605.044	829.58
605.494	778.38
605.944	738.88
606.393	723.38
606.843	700.28
607.293	719.18
607.743	710.18
608.192	726.18
608.642	742.38
609.091	744.98
609.541	745.88
609.99	749.88
610.44	751.98
610.889	703.48
611.339	674.98
611.788	672.98
612.238	681.38
612.687	690.78
613.136	694.68
613.586	716.78
614.035	712.68
614.484	729.88
614.933	740.88
615.383	722.68
615.832	723.68
616.281	703.28
616.73	665.08
617.179	641.58
617.628	632.38
618.077	609.78
618.526	602.98
618.975	603.18
619.424	590.38
619.873	594.08
620.322	604.28
620.771	589.68
621.22	578.88
621.669	565.48
622.118	562.38
622.567	560.98
623.015	549.58
623.464	555.58
623.913	546.08
624.361	532.58
624.81	534.78
625.259	536.68
625.707	545.28
626.156	545.88
626.604	546.08
627.053	546.48
627.501	539.28
627.95	545.38
628.398	559.78
628.847	546.58
629.295	550.18
629.744	555.58
630.192	550.28
630.64	548.28
631.089	544.48
631.537	553.98
631.985	563.58
632.433	572.18
632.881	577.58
633.33	625.78
633.778	608.98
634.226	540.48
634.674	545.08
635.122	551.08
635.57	570.08
636.018	603.88
636.466	548.58
636.914	534.38
637.362	545.48
637.81	550.08
638.258	550.08
638.705	556.28
639.153	583.38
639.601	597.58
640.049	613.28
640.497	647.58
640.944	669.68
641.392	606.88
641.84	589.98
642.287	569.08
642.735	545.38
643.182	547.78
643.63	547.08
644.078	549.18
644.525	567.48
644.973	570.18
645.42	582.28
645.867	592.48
646.315	611.28
646.762	635.88
647.21	653.38
647.657	683.98
648.104	721.78
648.551	742.08
648.999	798.28
649.446	872.38
649.893	965.58
650.34	1108.58
650.787	1312.68
651.234	1642.88
651.682	2128.88
652.129	2921.28
652.576	4163.48
653.023	6188.58
653.47	8535.98
653.917	10697.48
654.363	12454.48
654.81	13884.98
655.257	13221.98
655.704	8647.08
656.151	5067.28
656.598	3284.18
657.044	2336.28
657.491	1788.78
657.938	1436.98
658.385	1207.18
658.831	1034.28
659.278	937.98
659.724	818.08
660.171	760.58
660.618	692.08
661.064	654.28
661.511	635.78
661.957	625.88
662.404	615.48
662.85	618.68
663.296	597.68
663.743	532.28
664.189	514.28
664.635	506.28
665.082	497.08
665.528	501.88
665.974	494.68
666.42	488.58
666.867	480.18
667.313	469.48
667.759	463.28
668.205	462.28
668.651	464.18
669.097	464.88
669.543	471.08
669.989	450.58
670.435	430.58
670.881	416.78
671.327	420.48
671.773	446.88
672.219	462.78
672.665	516.28
673.11	559.18
673.556	592.78
674.002	628.98
674.448	620.78
674.893	524.18
675.339	445.18
675.785	417.58
676.23	403.48
676.676	377.08
677.122	361.08
677.567	345.88
678.013	349.08
678.458	336.58
678.904	336.78
679.349	321.88
679.794	340.88
680.24	331.18
680.685	328.98
681.131	330.28
681.576	327.98
682.021	330.68
682.466	324.58
682.912	331.58
683.357	326.68
683.802	352.28
684.247	389.98
684.692	427.28
685.137	467.78
685.583	503.28
686.028	541.08
686.473	491.68
686.918	424.88
687.363	392.78
687.807	373.28
688.252	347.88
688.697	333.88
689.142	314.98
689.587	313.18
690.032	308.78
690.477	317.28
690.921	327.58
691.366	357.48
691.811	372.58
692.255	406.88
692.7	434.88
693.145	474.88
693.589	641.08
694.034	1041.18
694.478	1445.58
694.923	1637.08
695.367	2160.38
695.812	1131.38
696.256	471.18
696.701	355.28
697.145	330.08
697.59	312.08
698.034	300.08
698.478	310.88
698.922	305.28
699.367	311.18
699.811	323.08
700.255	339.48
700.699	359.58
701.143	400.98
701.588	447.78
702.032	482.68
702.476	477.88
702.92	461.18
703.364	456.08
703.808	587.08
704.252	954.58
704.696	1351.78
705.14	1578.28
705.584	2027.08
706.027	1003.28
706.471	491.78
706.915	368.18
707.359	329.98
707.803	300.88
708.246	297.08
708.69	292.48
709.134	289.38
709.577	285.38
710.021	302.58
710.465	287.38
710.908	284.68
711.352	283.98
711.795	293.08
712.239	324.58
712.682	355.68
713.126	395.28
713.569	444.98
714.012	349.68
714.456	297.98
714.899	280.58
715.342	256.78
715.786	246.08
716.229	244.98
716.672	245.18
717.115	229.08
717.558	235.48
718.002	230.08
718.445	242.68
718.888	266.88
719.331	266.38
719.774	294.28
720.217	277.88
720.66	265.08
721.103	253.88
721.546	239.18
721.989	232.38
722.432	219.98
722.874	227.68
723.317	209.38
723.76	216.68
724.203	243.58
724.645	296.18
725.088	420.48
725.531	533.78
725.974	611.38
726.416	514.78
726.859	285.98
727.301	224.18
727.744	220.98
728.187	213.28
728.629	224.68
729.071	225.08
729.514	247.88
729.956	254.98
730.399	257.98
730.841	273.08
731.283	260.68
731.726	254.78
732.168	239.68
732.61	246.08
733.053	272.08
733.495	291.48
733.937	330.68
734.379	366.88
734.821	404.88
735.263	499.58
735.705	770.28
736.148	1443.08
736.59	2393.98
737.032	2905.88
737.474	2366.88
737.916	764.88
738.357	399.28
738.799	303.08
739.241	277.38
739.683	264.38
740.125	272.78
740.567	273.68
741.008	289.18
741.45	298.08
741.892	294.68
742.334	329.58
742.775	336.48
743.217	325.48
743.658	251.58
744.1	239.08
744.542	240.28
744.983	291.28
745.425	322.88
745.866	318.68
746.307	266.18
746.749	257.68
747.19	299.78
747.632	406.98
748.073	789.58
748.514	1703.68
748.956	2666.58
749.397	3322.88
749.838	2765.78
750.279	2810.28
750.72	1423.58
751.162	513.58
751.603	296.68
752.044	232.68
752.485	208.78
752.926	197.28
753.367	187.88
753.808	176.48
754.249	176.88
754.69	171.58
755.131	171.78
755.572	167.68
756.013	165.68
756.453	166.68
756.894	168.28
757.335	177.18
757.776	184.28
758.216	184.78
758.657	185.18
759.098	192.28
759.538	212.38
759.979	248.98
760.42	341.38
760.86	642.88
761.301	1646.68
761.741	4060.08
762.182	6117.38
762.622	4299.48
763.063	1226.58
763.503	508.48
763.943	327.38
764.384	311.08
764.824	377.98
765.264	413.68
765.705	291.18
766.145	197.08
766.585	171.78
767.025	168.68
767.465	173.58
767.906	224.98
768.346	297.18
768.786	309.28
769.226	247.08
769.666	289.68
770.106	554.98
770.546	1409.58
770.986	2496.98
771.426	2256.98
771.866	749.08
772.306	309.68
772.745	196.78
773.185	156.48
773.625	156.68
774.065	153.18
774.505	177.08
774.944	280.18
775.384	599.58
775.824	1126.58
776.263	1105.88
776.703	469.28
777.142	205.38
777.582	143.38
778.021	132.68
778.461	132.18
778.9	125.48
779.34	125.08
779.779	106.38
780.219	95.98
780.658	101.48
781.097	99.98
781.537	102.68
781.976	99.78
782.415	102.08
782.855	99.58
783.294	98.08
783.733	95.48
784.172	102.38
784.611	96.08
785.05	97.28
785.489	98.48
785.928	105.88
786.367	118.28
786.806	108.98
787.245	112.88
787.684	129.38
788.123	136.38
788.562	126.78
789.001	119.08
789.44	111.88
789.879	104.58
790.317	115.38
790.756	115.48
791.195	119.58
791.634	132.08
792.072	189.38
792.511	328.18
792.95	908.28
793.388	2007.98
793.827	1853.48
794.265	637.98
794.704	262.48
795.142	176.08
795.581	139.68
796.019	128.58
796.458	118.98
796.896	113.68
797.334	122.58
797.773	151.38
798.211	200.98
798.649	395.98
799.087	932.88
799.526	1489.08
799.964	1873.78
800.402	1914.58
800.84	712.48
801.278	275.38
801.716	172.38
802.154	133.08
802.592	134.58
803.03	127.18
803.468	123.08
803.906	132.78
804.344	134.88
804.782	126.08
805.22	119.08
805.658	118.78
806.096	135.88
806.533	144.58
806.971	155.48
807.409	202.58
807.847	289.68
808.284	586.88
808.722	1689.38
809.16	3073.58
809.597	2865.78
810.035	5046.28
810.472	5565.48
810.91	1979.88
811.347	741.88
811.785	374.98
812.222	242.28
812.66	185.58
813.097	149.48
813.535	132.18
813.972	118.98
814.409	112.68
814.846	100.98
815.284	99.88
815.721	88.58
816.158	94.78
816.595	109.48
817.032	167.68
817.47	191.38
817.907	160.38
818.344	138.78
818.781	106.68
819.218	95.58
819.655	108.58
820.092	165.98
820.529	197.88
820.966	171.78
821.403	126.28
821.839	98.28
822.276	93.08
822.713	118.88
823.15	130.88
823.587	105.28
824.023	137.48
824.46	274.18
824.897	817.38
825.333	1288.18
825.77	549.18
826.206	215.88
826.643	124.68
827.08	89.68
827.516	74.98
827.953	69.28
828.389	77.08
828.825	61.58
829.262	63.78
829.698	55.08
830.135	61.88
830.571	55.88
831.007	54.38
831.443	60.88
831.88	54.98
832.316	58.38
832.752	60.28
833.188	61.88
833.624	56.38
834.06	57.08
834.497	66.08
834.933	64.28
835.369	64.88
835.805	59.28
836.241	66.08
836.677	74.38
837.112	82.68
837.548	93.38
837.984	128.98
838.42	180.08
838.856	449.28
839.292	1394.08
839.727	2174.28
840.163	1009.28
840.599	843.28
841.034	1888.18
841.47	2016.78
841.906	732.78
842.341	305.68
842.777	209.58
843.212	291.88
843.648	291.88
844.083	150.58
844.519	88.68
844.954	67.78
845.39	52.18
845.825	54.68
846.261	53.98
846.696	45.18
847.131	46.38
847.566	52.38
848.002	43.38
848.437	51.88
848.872	56.58
849.307	56.88
849.742	74.48
850.177	167.28
850.613	513.38
851.048	832.08
851.483	351.78
851.918	138.78
852.353	76.18
852.788	58.28
853.223	57.68
853.657	47.08
854.092	46.18
854.527	37.68
854.962	35.48
855.397	41.68
855.832	44.78
856.266	42.08
856.701	33.98
857.136	31.78
857.57	38.88
858.005	47.48
858.44	53.28
858.874	40.58
859.309	52.08
859.743	37.48
860.178	42.38
860.612	37.28
861.047	49.78
861.481	59.98
861.915	65.28
862.35	53.38
862.784	32.48
863.218	35.88
863.653	36.38
864.087	42.08
864.521	48.98
864.955	68.08
865.39	144.28
865.824	163.68
866.258	109.08
866.692	156.28
867.126	172.28
867.56	102.88
867.994	47.78
868.428	36.48
868.862	43.48
869.296	50.08
869.73	55.98
870.164	44.68
870.598	39.78
871.031	34.78
871.465	25.08
871.899	33.18
872.333	26.28
872.766	26.48
873.2	20.38
873.634	25.98
874.067	24.78
874.501	24.68
874.935	29.98
875.368	24.68
875.802	31.88
876.235	23.98
876.669	20.68
877.102	14.98
877.535	24.28
877.969	22.58
878.402	20.18
878.836	14.18
879.269	20.08
879.702	20.18
880.135	20.98
880.569	21.08
881.002	23.28
881.435	22.68
881.868	9.68
882.301	21.78
882.734	14.28
883.167	14.58
883.601	14.98
884.034	21.58
884.467	15.38
884.899	17.98
885.332	16.28
885.765	15.58
886.198	9.98
886.631	14.68
887.064	20.08
887.497	13.38
887.929	18.28
888.362	12.08
888.795	14.08
889.228	20.48
889.66	14.78
890.093	16.18
890.526	8.68
890.958	15.18
891.391	18.58
891.823	20.48
892.256	14.38
892.688	11.58
893.121	10.48
893.553	14.38
893.985	17.68
894.418	17.88
894.85	10.98
895.282	15.58
895.715	13.38
896.147	12.68
896.579	12.38
897.011	18.88
897.444	8.18
897.876	13.68
898.308	10.28
898.74	9.78
899.172	15.18
899.604	18.88
900.036	21.28
900.468	9.48
900.9	9.38
901.332	18.18
901.764	9.78
902.196	15.48
902.628	18.68
903.06	11.88
903.491	22.88
903.923	17.98
904.355	15.98
904.787	18.38
905.218	21.68
905.65	25.58
906.082	10.88
906.513	7.28
906.945	14.88
907.376	17.18
907.808	16.88
908.239	20.88
908.671	13.28
909.102	19.98
909.534	17.58
909.965	46.48
910.397	84.08
910.828	288.88
911.259	449.58
911.691	204.28
912.122	102.48
912.553	43.88
912.984	38.68
913.415	23.88
913.847	24.38
914.278	16.78
914.709	8.18
915.14	17.98
915.571	12.88
916.002	10.28
916.433	16.28
916.864	14.98
917.295	8.88
917.726	15.88
918.157	11.88
918.587	25.38
919.018	18.28
919.449	24.58
919.88	20.98
920.311	25.78
920.741	49.08
921.172	154.68
921.603	141.48
922.033	68.68
922.464	42.48
922.895	24.98
923.325	19.68
923.756	10.38
924.186	16.18
924.617	16.28
925.047	39.58
925.478	43.78
925.908	36.68
926.338	18.78
926.769	11.58
927.199	17.78
927.629	6.88
928.06	18.68
928.49	14.58
928.92	11.18
929.35	11.98
929.78	6.78
930.21	4.28
930.641	12.38
931.071	6.48
931.501	3.18
931.931	5.18
932.361	2.68
932.791	-2.02
933.221	1.68
933.651	-0.92
934.08	15.58
934.51	23.78
934.94	7.48
935.37	8.58
935.8	8.38
936.229	5.88
936.659	9.58
937.089	1.78
937.519	11.38
937.948	23.98
938.378	21.68
938.807	4.48
939.237	0.48
939.666	9.58
940.096	-3.82
940.525	-1.52
940.955	1.78
941.384	6.18
941.814	-6.32
942.243	-4.22
942.672	-1.02
943.102	-9.92
943.531	-0.42
943.96	1.98
944.39	0.48
944.819	3.18
945.248	5.48
945.677	2.48
946.106	2.48
946.535	0.18
946.964	-2.82
947.393	1.58
947.822	-0.92
948.251	-5.52
948.68	4.88
949.109	6.38
949.538	6.48
949.967	2.88
950.396	-2.12
950.825	0.38
951.254	1.98
951.682	-8.32
952.111	4.58
952.54	3.38
952.969	0.28
953.397	-9.12
953.826	-3.62
954.254	-7.92
954.683	1.18
955.112	-1.62
955.54	-2.52
955.969	-2.82
956.397	0.08
956.826	-7.22
957.254	2.88
957.682	-2.02
958.111	-0.12
958.539	-0.52
958.967	0.08
959.396	-0.32
959.824	1.48
960.252	-2.02
960.68	-9.42
961.109	0.48
961.537	-3.02
961.965	-2.82
962.393	0.98
962.821	-3.12
963.249	-4.22
963.677	3.68
964.105	3.48
964.533	41.68
964.961	38.38
965.389	20.28
965.817	6.68
966.245	0.58
966.672	-2.82
967.1	-2.32
967.528	-2.52
967.956	-6.42
968.383	-1.02
968.811	-2.12
969.239	-3.92
969.666	-5.82
970.094	2.98
970.522	-1.32
970.949	-4.82
971.377	-8.02
971.804	-6.62
972.232	-2.32
972.659	-6.12
973.087	-1.32
973.514	-6.52
973.941	-7.92
974.369	-0.92
974.796	-2.22
975.223	3.48
975.651	-2.72
976.078	-0.82
976.505	-3.72
976.932	5.28
977.359	11.48
977.786	17.48
978.214	-0.12
978.641	-2.12
979.068	-10.32
979.495	0.68
979.922	-10.22
980.349	-4.02
980.776	10.18
981.202	-3.62
981.629	7.18
982.056	7.88
982.483	-4.22
982.91	0.18
983.337	-5.22
983.763	2.38
984.19	-8.22
984.617	-2.92
985.043	-3.02
985.47	-2.42
985.897	-7.82
986.323	-8.52
986.75	-1.32
987.176	-5.22
987.603	-3.32
988.029	-4.72
988.456	-5.42
988.882	2.48
989.308	-9.72
989.735	-8.52
990.161	1.48
990.587	-2.02
991.014	0.18
991.44	9.88
991.866	-5.42
992.292	-7.62
992.719	-4.02
993.145	-4.52
993.571	-11.52
993.997	-4.82
994.423	-7.22
994.849	-8.22
995.275	-0.12
995.701	-1.22
996.127	-5.42
996.553	2.08
996.979	-6.92
997.405	-4.32
997.83	-2.12
998.256	-8.52
998.682	-8.62
999.108	-6.92
999.534	-8.22
999.959	-0.62
1000.385	-1.62
1000.811	-3.62
1001.236	-6.92
1001.662	-6.22
1002.087	-9.52
1002.513	0.08
1002.938	0.98
1003.364	-8.42
1003.789	-8.22
1004.215	4.08
1004.64	-2.42
1005.066	2.58
1005.491	-0.82
1005.916	0.88
1006.342	-2.42
1006.767	-9.22
1007.192	2.58
1007.617	-8.52
1008.042	-6.42
1008.468	-8.12
1008.893	-9.12
1009.318	-9.92
1009.743	-9.52
1010.168	-1.22
1010.593	-3.02
1011.018	-6.52
1011.443	-5.12
1011.868	-7.02
1012.293	-0.62
1012.718	-8.42
1013.143	0.98
1013.567	1.98
1013.992	-1.52
1014.417	-12.42
1014.842	1.28
1015.267	-2.82
1015.691	-8.62
1016.116	-0.22
1016.541	-4.12
1016.965	0.28
1017.39	1.38
1017.814	2.08
1018.239	-6.62
1018.663	-6.12
1019.088	-10.42
1019.512	-4.12
1019.937	-7.02
1020.361	-4.62
1020.785	-12.22
1021.21	-4.32
1021.634	0.28
1022.058	1.28
1022.483	-7.92
1022.907	-2.32
1023.331	-3.12
1023.755	-3.72
1024.179	-4.12
1024.604	-2.12
1025.028	-7.92
1025.452	-4.52
1025.876	-0.82
1026.3	0.68
1026.724	-10.62
1027.148	-5.82
1027.572	-9.32
1027.996	-6.72
1028.42	-0.92
1028.843	-3.62
1029.267	-2.72
1029.691	-1.22
1030.115	-6.02
1030.539	-10.12
1030.962	-6.22
1031.386	-10.42
1031.81	2.68
1032.233	1.88
1032.657	-0.02
1033.08	-1.22
1033.504	-2.92
1033.927	-6.82
1034.351	-5.02
1034.774	-4.92
1035.198	-5.42
1035.621	-10.12
1036.045	-12.12
1036.468	-4.72
1036.891	-11.62
1037.315	-8.32
1037.738	-7.62
1038.161	0.08
1038.584	-7.22
1039.008	-8.82
1039.431	-5.82
1039.854	-8.82
1040.277	-13.62
1040.7	-10.12
1041.123	4.38
1041.546	-11.92
1041.969	-2.72
1042.392	-3.72
1042.815	-4.42
1043.238	-0.12
1043.661	-3.02
1044.084	-2.82
1044.507	-6.62
1044.93	-11.42
1045.352	-3.62
1045.775	-3.32
1046.198	-3.62
1046.621	-6.02
1047.043	-0.82
1047.466	-0.82
1047.889	-0.72
1048.311	-6.82
1048.734	-5.42
1049.156	-1.52
1049.579	-3.52
1050.001	-5.92
1050.424	3.48
1050.846	-2.52
1051.269	-2.02
1051.691	-7.42
1052.113	-5.52
1052.536	-2.82
1052.958	-6.72
1053.38	-4.72
1053.802	-8.82
1054.225	-7.42
1054.647	-9.32
1055.069	-3.62
1055.491	4.88
1055.913	-9.02
1056.335	-7.02
1056.757	-11.12
1057.179	-2.02
1057.601	-8.62
1058.023	-6.42
1058.445	-3.62
1058.867	-5.82
1059.289	-6.52
1059.711	-9.42
1060.133	-4.82
1060.555	-5.12
1060.976	-7.92
1061.398	-10.32
1061.82	-7.92
1062.241	-6.82
1062.663	-6.42
1063.085	-2.12
1063.506	-0.82
1063.928	-1.62
1064.35	-9.72
1064.771	-11.22
1065.193	-2.32
1065.614	-7.02
1066.035	-3.02
1066.457	-5.72
1066.878	-1.72
1067.3	-9.92
1067.721	-11.62
1068.142	-4.32
1068.564	-3.32
1068.985	-3.32
1069.406	-4.32
1069.827	-4.62
1070.248	1.78
1070.67	-6.22
1071.091	-2.22
1071.512	-4.62
1071.933	-8.22
1072.354	-9.32
1072.775	-4.32
1073.196	-6.02
1073.617	-4.92
1074.038	-7.12
1074.459	-5.32
1074.88	-8.62
1075.3	2.38
1075.721	-11.82
1076.142	-4.42
1076.563	-1.52
1076.983	-9.22
1077.404	-10.62
1077.825	-14.42
1078.246	-6.72
1078.666	-12.12
1079.087	-8.62
1079.507	-9.82
1079.928	1.88
1080.348	-3.52
1080.769	-10.52
1081.189	-2.42
1081.61	-3.92
1082.03	-6.02
1082.451	-6.72
1082.871	-8.82
1083.291	-8.92
1083.711	-8.12
1084.132	-2.72
1084.552	-7.62
1084.972	3.28
1085.392	-9.02
1085.813	-8.72
1086.233	-9.32
1086.653	-10.82
1087.073	-0.12
1087.493	-13.22
1087.913	-2.62
1088.333	-12.42
1088.753	-1.92
1089.173	-4.52
1089.593	-4.92
1090.013	-4.92
1090.433	2.28
1090.852	-4.92
1091.272	-4.72
1091.692	-2.02
1092.112	-6.12
1092.531	-9.62
1092.951	-12.82
1093.371	-3.62
1093.79	-1.92
1094.21	-7.12
1094.63	-12.32
1095.049	-5.52
1095.469	-0.52
1095.888	-6.12
1096.308	-1.62
1096.727	3.68
1097.146	-4.92
1097.566	-5.02
1097.985	-8.62
1098.405	-6.72
1098.824	-2.52
1099.243	-9.02
1099.662	-13.12
1100.082	-3.72
1100.501	-3.42
1100.92	-10.12
1101.339	-5.32
1101.758	-14.72
