Data from 20171114-ORNL-Ar_H_NY_Subt18_08-08-10-197.txt Node
Date: Tue Nov 14 08:08:10 EST 2017
User: Ender
Spectrometer: HR+D1039
Trigger mode: 0
Integration Time (sec): 2.730000E-2
Scans to average: 10
Electric dark correction enabled: true
Nonlinearity correction enabled: false
Boxcar width: 0
XAxis mode: Wavelengths
Number of Pixels in Spectrum: 2048
>>>>>Begin Spectral Data<<<<<
187.836	-4.11
188.309	-4.11
188.782	-4.11
189.255	3.59
189.728	-3.11
190.201	1.79
190.674	2.29
191.147	3.29
191.619	-8.91
192.092	-0.51
192.565	7.99
193.038	-1.11
193.511	7.49
193.984	-0.61
194.456	-3.51
194.929	2.19
195.402	-3.51
195.874	-3.31
196.347	1.79
196.82	-3.51
197.292	1.69
197.765	-3.01
198.237	-5.11
198.71	-0.71
199.182	0.49
199.655	2.29
200.127	8.99
200.6	-3.41
201.072	0.89
201.544	-0.51
202.017	-4.51
202.489	6.99
202.961	-7.21
203.433	-2.21
203.906	-9.11
204.378	-2.61
204.85	-1.71
205.322	-9.31
205.794	-3.51
206.266	-6.11
206.739	-12.11
207.211	3.29
207.683	-6.21
208.155	-7.11
208.627	-11.71
209.099	-7.01
209.57	-8.51
210.042	-1.31
210.514	-5.71
210.986	-4.41
211.458	-11.01
211.93	-5.81
212.402	4.29
212.873	-2.81
213.345	-8.11
213.817	-8.51
214.288	-5.81
214.76	-4.01
215.232	1.29
215.703	-1.31
216.175	-7.31
216.646	-3.31
217.118	-9.01
217.589	-5.51
218.061	-4.51
218.532	-3.71
219.004	-1.01
219.475	-6.41
219.946	-8.31
220.418	-7.21
220.889	3.59
221.36	-0.51
221.832	-3.91
222.303	-9.01
222.774	-6.91
223.245	-10.41
223.717	-3.31
224.188	-3.31
224.659	-12.11
225.13	-10.71
225.601	-1.81
226.072	0.39
226.543	-0.41
227.014	-4.91
227.485	-1.21
227.956	-3.41
228.427	-5.71
228.898	-2.81
229.369	1.29
229.839	-0.81
230.31	-7.11
230.781	1.19
231.252	-5.91
231.722	-6.81
232.193	-5.61
232.664	-2.91
233.135	-1.11
233.605	-6.51
234.076	-2.51
234.546	-0.11
235.017	10.99
235.487	0.99
235.958	-6.91
236.428	-0.81
236.899	0.59
237.369	2.69
237.84	-2.81
238.31	0.09
238.78	0.79
239.251	0.89
239.721	3.09
240.191	1.09
240.662	0.49
241.132	0.29
241.602	1.09
242.072	2.09
242.542	8.99
243.013	-1.81
243.483	10.09
243.953	-0.31
244.423	-2.81
244.893	-1.31
245.363	2.79
245.833	-4.91
246.303	-4.91
246.773	4.69
247.243	0.09
247.712	4.19
248.182	6.99
248.652	4.99
249.122	-7.31
249.592	7.79
250.061	11.69
250.531	25.89
251.001	16.89
251.471	17.39
251.94	17.99
252.41	4.59
252.879	6.19
253.349	11.19
253.818	6.29
254.288	3.69
254.757	3.59
255.227	-1.31
255.696	0.89
256.166	5.49
256.635	7.19
257.105	8.19
257.574	12.79
258.043	10.69
258.513	7.39
258.982	15.89
259.451	0.99
259.92	9.89
260.389	11.59
260.859	12.29
261.328	7.69
261.797	16.59
262.266	7.59
262.735	10.39
263.204	-0.01
263.673	-5.11
264.142	4.19
264.611	-4.41
265.08	-5.71
265.549	-3.41
266.018	-1.41
266.487	-1.31
266.955	-0.91
267.424	0.29
267.893	6.59
268.362	-3.01
268.83	-2.11
269.299	5.69
269.768	6.29
270.236	6.59
270.705	3.89
271.174	2.79
271.642	11.69
272.111	6.49
272.579	15.19
273.048	21.79
273.516	25.99
273.985	23.59
274.453	23.59
274.922	21.09
275.39	7.19
275.858	2.69
276.327	11.89
276.795	22.09
277.263	9.29
277.731	29.19
278.2	49.79
278.668	48.29
279.136	46.69
279.604	18.89
280.072	19.69
280.54	11.09
281.008	4.59
281.477	9.39
281.945	11.39
282.413	13.29
282.881	9.79
283.348	3.09
283.816	13.49
284.284	12.99
284.752	19.99
285.22	16.59
285.688	14.39
286.156	13.39
286.623	39.79
287.091	46.69
287.559	31.09
288.026	15.49
288.494	19.19
288.962	0.79
289.429	4.29
289.897	18.29
290.364	14.19
290.832	18.19
291.3	14.99
291.767	14.39
292.234	16.19
292.702	6.19
293.169	17.19
293.637	20.19
294.104	22.99
294.571	5.79
295.039	9.89
295.506	10.59
295.973	20.69
296.44	18.49
296.908	19.09
297.375	13.69
297.842	18.99
298.309	18.29
298.776	12.59
299.243	23.49
299.71	16.39
300.177	23.19
300.644	18.69
301.111	13.59
301.578	18.99
302.045	18.29
302.512	28.19
302.979	17.89
303.446	21.19
303.913	21.19
304.379	12.39
304.846	22.39
305.313	19.99
305.78	20.29
306.246	21.39
306.713	21.39
307.18	20.59
307.646	24.09
308.113	25.69
308.579	24.99
309.046	22.89
309.512	22.39
309.979	14.39
310.445	21.39
310.912	29.89
311.378	30.99
311.845	27.89
312.311	25.19
312.777	30.19
313.244	31.99
313.71	37.59
314.176	31.49
314.642	26.69
315.109	29.19
315.575	30.59
316.041	37.29
316.507	33.19
316.973	37.19
317.439	24.79
317.905	34.09
318.371	29.89
318.837	32.79
319.303	36.89
319.769	36.49
320.235	38.79
320.701	29.99
321.167	30.69
321.633	32.79
322.099	34.69
322.564	39.29
323.03	41.19
323.496	32.99
323.962	35.89
324.427	40.89
324.893	37.99
325.359	36.09
325.824	34.09
326.29	29.79
326.755	40.39
327.221	40.69
327.686	34.99
328.152	42.19
328.617	36.89
329.083	44.69
329.548	50.79
330.014	42.59
330.479	40.09
330.944	40.49
331.41	42.29
331.875	47.59
332.34	40.99
332.805	47.89
333.271	49.79
333.736	42.39
334.201	46.99
334.666	51.39
335.131	54.69
335.596	45.69
336.061	50.19
336.526	44.99
336.991	45.99
337.456	47.89
337.921	47.59
338.386	41.59
338.851	40.89
339.316	43.19
339.781	43.09
340.246	50.79
340.711	47.29
341.175	52.39
341.64	41.89
342.105	49.99
342.569	48.99
343.034	51.09
343.499	52.69
343.963	56.99
344.428	63.49
344.893	57.39
345.357	61.89
345.822	59.39
346.286	67.29
346.751	65.39
347.215	63.39
347.679	75.69
348.144	99.99
348.608	79.69
349.073	70.59
349.537	73.29
350.001	74.99
350.465	86.49
350.93	86.29
351.394	80.39
351.858	68.09
352.322	77.99
352.786	81.19
353.25	97.09
353.715	105.79
354.179	99.69
354.643	118.79
355.107	127.79
355.571	103.99
356.035	97.49
356.498	111.59
356.962	122.79
357.426	128.99
357.89	120.09
358.354	90.29
358.818	78.49
359.281	80.79
359.745	74.89
360.209	72.89
360.673	73.09
361.136	76.19
361.6	86.39
362.064	79.59
362.527	82.09
362.991	94.49
363.454	80.29
363.918	81.19
364.381	77.09
364.845	77.39
365.308	80.69
365.772	92.39
366.235	83.49
366.698	82.29
367.162	82.09
367.625	85.19
368.088	84.49
368.552	84.99
369.015	89.19
369.478	97.09
369.941	99.89
370.404	90.89
370.867	107.39
371.331	103.99
371.794	112.89
372.257	113.09
372.72	118.19
373.183	110.29
373.646	103.19
374.109	104.09
374.572	110.49
375.035	110.49
375.497	114.79
375.96	103.59
376.423	101.09
376.886	107.99
377.349	106.79
377.811	97.09
378.274	109.19
378.737	107.79
379.199	111.39
379.662	114.99
380.125	117.29
380.587	119.19
381.05	122.79
381.512	128.89
381.975	130.59
382.437	128.59
382.9	125.29
383.362	132.19
383.825	146.29
384.287	153.49
384.75	145.29
385.212	136.59
385.674	134.89
386.136	138.99
386.599	122.29
387.061	131.69
387.523	126.89
387.985	136.29
388.447	146.89
388.91	151.59
389.372	163.59
389.834	155.79
390.296	153.09
390.758	156.19
391.22	174.59
391.682	214.09
392.144	304.39
392.606	236.09
393.068	166.89
393.529	176.59
393.991	149.69
394.453	153.69
394.915	156.29
395.377	204.69
395.838	228.39
396.3	163.39
396.762	146.69
397.224	135.39
397.685	132.09
398.147	131.49
398.608	129.69
399.07	129.39
399.531	131.29
399.993	144.69
400.454	157.89
400.916	143.49
401.377	145.19
401.839	151.89
402.3	152.39
402.762	163.99
403.223	185.19
403.684	184.09
404.145	170.19
404.607	160.39
405.068	162.59
405.529	178.49
405.99	186.29
406.451	175.09
406.913	176.49
407.374	161.69
407.835	163.39
408.296	168.19
408.757	176.49
409.218	190.39
409.679	182.59
410.14	177.69
410.601	178.79
411.062	188.89
411.522	190.59
411.983	190.09
412.444	182.99
412.905	180.09
413.366	179.89
413.826	190.39
414.287	217.49
414.748	262.49
415.208	251.79
415.669	216.19
416.13	205.19
416.59	204.69
417.051	211.79
417.511	222.49
417.972	238.69
418.432	245.49
418.893	291.29
419.353	245.49
419.814	198.19
420.274	183.09
420.734	189.59
421.195	200.99
421.655	196.89
422.115	204.59
422.576	187.29
423.036	198.89
423.496	211.69
423.956	216.89
424.416	227.09
424.876	265.99
425.336	264.89
425.797	269.79
426.257	266.39
426.717	239.29
427.177	233.69
427.637	223.99
428.097	240.89
428.556	250.79
429.016	273.29
429.476	271.79
429.936	276.99
430.396	281.89
430.856	290.29
431.315	319.49
431.775	352.79
432.235	380.69
432.694	353.19
433.154	368.79
433.614	406.39
434.073	347.59
434.533	290.79
434.993	279.99
435.452	292.09
435.912	298.09
436.371	287.19
436.83	291.89
437.29	276.69
437.749	255.79
438.209	250.89
438.668	278.09
439.127	295.59
439.587	266.49
440.046	249.09
440.505	262.69
440.964	281.59
441.424	328.69
441.883	309.49
442.342	265.99
442.801	225.69
443.26	225.39
443.719	217.89
444.178	219.69
444.637	221.99
445.096	216.89
445.555	226.29
446.014	224.09
446.473	224.29
446.932	236.79
447.391	227.29
447.849	237.19
448.308	218.39
448.767	223.29
449.226	228.89
449.685	241.29
450.143	243.29
450.602	232.09
451.061	224.39
451.519	226.19
451.978	233.49
452.436	237.39
452.895	242.09
453.353	252.59
453.812	240.09
454.27	238.89
454.729	241.49
455.187	240.89
455.646	243.39
456.104	259.39
456.562	257.69
457.021	270.79
457.479	260.69
457.937	275.39
458.395	263.39
458.854	248.39
459.312	251.19
459.77	284.89
460.228	257.19
460.686	240.49
461.144	256.49
461.602	242.09
462.06	254.19
462.518	251.59
462.976	255.79
463.434	253.29
463.892	258.89
464.35	275.59
464.808	287.39
465.266	266.29
465.724	269.29
466.181	274.49
466.639	276.59
467.097	286.89
467.555	294.69
468.012	290.29
468.47	302.39
468.928	324.79
469.385	346.89
469.843	344.39
470.3	335.39
470.758	360.59
471.215	385.49
471.673	410.59
472.13	405.49
472.588	422.09
473.045	372.49
473.503	381.69
473.96	401.59
474.417	404.69
474.875	436.69
475.332	469.89
475.789	456.29
476.246	467.39
476.704	484.89
477.161	509.39
477.618	536.49
478.075	564.79
478.532	623.59
478.989	698.49
479.446	811.29
479.903	768.59
480.36	803.39
480.817	860.79
481.274	967.49
481.731	1068.99
482.188	1151.19
482.645	1295.39
483.102	1411.99
483.558	1536.59
484.015	1577.09
484.472	1554.99
484.929	1506.99
485.385	1452.59
485.842	1420.59
486.299	1352.19
486.755	1295.89
487.212	1104.09
487.668	913.89
488.125	853.39
488.582	774.29
489.038	748.09
489.494	701.99
489.951	684.79
490.407	661.29
490.864	644.89
491.32	641.29
491.776	634.49
492.233	642.29
492.689	611.79
493.145	601.29
493.602	595.29
494.058	608.89
494.514	594.49
494.97	650.39
495.426	645.59
495.882	616.19
496.338	609.49
496.794	617.79
497.251	609.59
497.707	618.99
498.163	621.89
498.618	639.79
499.074	644.69
499.53	678.19
499.986	670.99
500.442	645.39
500.898	624.19
501.354	627.99
501.809	634.09
502.265	637.59
502.721	659.49
503.177	666.79
503.632	664.29
504.088	666.49
504.543	714.59
504.999	708.39
505.455	652.59
505.91	623.39
506.366	631.69
506.821	622.89
507.277	619.59
507.732	616.29
508.187	620.99
508.643	630.99
509.098	623.69
509.553	654.09
510.009	651.39
510.464	660.89
510.919	673.19
511.375	686.09
511.83	700.59
512.285	720.19
512.74	748.99
513.195	778.99
513.65	765.59
514.105	769.79
514.56	767.39
515.015	787.49
515.47	795.19
515.925	787.39
516.38	770.99
516.835	786.89
517.29	781.49
517.745	767.49
518.2	755.49
518.655	739.89
519.109	730.79
519.564	722.39
520.019	719.79
520.474	704.79
520.928	711.59
521.383	717.39
521.838	697.29
522.292	698.09
522.747	693.79
523.201	707.99
523.656	687.89
524.11	691.89
524.565	688.09
525.019	689.39
525.474	702.49
525.928	701.89
526.382	693.19
526.837	693.19
527.291	695.19
527.745	686.89
528.2	686.39
528.654	672.59
529.108	673.49
529.562	681.99
530.016	684.09
530.47	692.59
530.925	688.19
531.379	698.49
531.833	704.79
532.287	693.89
532.741	694.39
533.195	691.49
533.649	701.89
534.103	714.39
534.556	694.19
535.01	700.89
535.464	692.09
535.918	712.69
536.372	712.29
536.826	703.19
537.279	690.19
537.733	696.59
538.187	712.69
538.64	703.49
539.094	720.79
539.548	708.29
540.001	718.29
540.455	716.79
540.908	731.89
541.362	727.89
541.815	737.79
542.269	748.59
542.722	746.39
543.175	760.19
543.629	749.99
544.082	773.79
544.536	767.39
544.989	779.39
545.442	791.09
545.895	783.79
546.349	768.39
546.802	783.49
547.255	780.79
547.708	795.09
548.161	811.89
548.614	808.49
549.067	824.29
549.52	797.89
549.973	792.29
550.426	794.09
550.879	784.49
551.332	786.69
551.785	801.29
552.238	795.69
552.691	805.49
553.144	825.89
553.596	831.49
554.049	853.49
554.502	872.79
554.955	903.69
555.407	885.09
555.86	883.19
556.313	878.39
556.765	869.59
557.218	868.29
557.67	873.69
558.123	865.79
558.576	855.29
559.028	864.89
559.48	861.69
559.933	853.89
560.385	824.69
560.838	794.89
561.29	766.29
561.742	779.09
562.195	765.49
562.647	747.39
563.099	755.09
563.551	765.39
564.004	777.99
564.456	763.19
564.908	752.69
565.36	742.39
565.812	723.69
566.264	723.89
566.716	720.79
567.168	710.79
567.62	715.19
568.072	697.29
568.524	691.79
568.976	681.59
569.428	672.09
569.88	660.59
570.332	670.09
570.784	674.99
571.235	685.39
571.687	686.99
572.139	696.29
572.59	705.29
573.042	700.29
573.494	700.89
573.945	698.49
574.397	668.89
574.849	676.69
575.3	679.39
575.752	667.69
576.203	669.49
576.655	678.09
577.106	661.49
577.557	667.09
578.009	656.19
578.46	658.09
578.912	664.19
579.363	651.69
579.814	662.49
580.265	658.69
580.717	660.99
581.168	655.29
581.619	670.09
582.07	683.49
582.521	668.89
582.972	661.49
583.423	675.39
583.875	677.89
584.326	686.19
584.777	738.69
585.227	821.39
585.678	921.99
586.129	1012.29
586.58	1089.69
587.031	1171.19
587.482	1325.49
587.933	1511.79
588.384	1310.59
588.834	972.19
589.285	803.09
589.736	770.99
590.186	763.59
590.637	759.39
591.088	738.59
591.538	737.99
591.989	729.59
592.439	727.69
592.89	709.49
593.34	704.79
593.791	710.79
594.241	706.09
594.692	703.59
595.142	693.19
595.593	685.29
596.043	711.69
596.493	708.19
596.943	709.99
597.394	709.99
597.844	707.59
598.294	722.69
598.744	746.09
599.195	779.39
599.645	799.49
600.095	856.69
600.545	906.09
600.995	958.99
601.445	1017.59
601.895	1076.79
602.345	1132.49
602.795	1091.59
603.245	1057.39
603.695	992.59
604.145	940.89
604.594	902.59
605.044	842.39
605.494	774.39
605.944	748.69
606.393	730.09
606.843	725.99
607.293	725.29
607.743	726.49
608.192	737.09
608.642	754.49
609.091	764.89
609.541	768.29
609.99	759.69
610.44	766.89
610.889	719.29
611.339	707.19
611.788	684.29
612.238	702.09
612.687	725.09
613.136	722.39
613.586	734.39
614.035	730.39
614.484	746.39
614.933	759.69
615.383	745.69
615.832	735.69
616.281	722.39
616.73	675.89
617.179	665.79
617.628	652.79
618.077	626.89
618.526	629.79
618.975	616.49
619.424	610.79
619.873	611.69
620.322	612.89
620.771	595.79
621.22	599.89
621.669	594.29
622.118	585.79
622.567	575.99
623.015	566.89
623.464	563.99
623.913	567.29
624.361	554.09
624.81	550.09
625.259	548.59
625.707	563.99
626.156	552.49
626.604	562.89
627.053	549.49
627.501	560.29
627.95	571.49
628.398	582.79
628.847	563.39
629.295	559.99
629.744	562.29
630.192	568.09
630.64	570.59
631.089	566.29
631.537	576.19
631.985	584.59
632.433	607.69
632.881	615.49
633.33	668.49
633.778	658.89
634.226	577.99
634.674	568.99
635.122	585.99
635.57	604.09
636.018	632.99
636.466	576.09
636.914	561.29
637.362	568.09
637.81	571.79
638.258	572.49
638.705	572.69
639.153	612.09
639.601	608.99
640.049	640.99
640.497	672.99
640.944	687.09
641.392	631.89
641.84	606.49
642.287	582.09
642.735	571.89
643.182	575.09
643.63	575.09
644.078	577.19
644.525	592.29
644.973	602.69
645.42	607.39
645.867	625.79
646.315	634.29
646.762	663.49
647.21	693.79
647.657	712.49
648.104	754.39
648.551	778.89
648.999	842.19
649.446	918.09
649.893	1006.09
650.34	1163.49
650.787	1390.89
651.234	1748.39
651.682	2280.59
652.129	3147.69
652.576	4534.19
653.023	6680.29
653.47	9116.49
653.917	11310.29
654.363	12929.79
654.81	14249.39
655.257	13559.89
655.704	8888.89
656.151	5242.09
656.598	3378.49
657.044	2415.89
657.491	1860.79
657.938	1483.89
658.385	1246.79
658.831	1076.49
659.278	954.19
659.724	856.79
660.171	780.29
660.618	720.99
661.064	687.79
661.511	669.69
661.957	657.89
662.404	645.59
662.85	643.69
663.296	620.79
663.743	565.19
664.189	533.59
664.635	531.19
665.082	528.89
665.528	524.59
665.974	517.29
666.42	508.49
666.867	504.69
667.313	492.49
667.759	483.89
668.205	477.99
668.651	483.99
669.097	481.29
669.543	508.89
669.989	461.49
670.435	451.19
670.881	443.19
671.327	442.89
671.773	468.29
672.219	496.69
672.665	541.89
673.11	589.49
673.556	631.29
674.002	651.79
674.448	651.89
674.893	541.59
675.339	475.49
675.785	437.39
676.23	410.99
676.676	381.89
677.122	381.79
677.567	374.29
678.013	359.09
678.458	356.69
678.904	360.39
679.349	352.49
679.794	355.59
680.24	351.99
680.685	350.19
681.131	341.09
681.576	348.39
682.021	354.29
682.466	352.79
682.912	350.19
683.357	354.99
683.802	378.59
684.247	412.49
684.692	454.29
685.137	499.29
685.583	534.49
686.028	554.39
686.473	526.59
686.918	448.79
687.363	416.09
687.807	389.29
688.252	362.69
688.697	349.09
689.142	338.19
689.587	336.29
690.032	327.89
690.477	342.69
690.921	348.79
691.366	376.39
691.811	403.99
692.255	423.19
692.7	464.49
693.145	510.29
693.589	710.59
694.034	1141.79
694.478	1535.99
694.923	1701.39
695.367	2222.49
695.812	1171.09
696.256	496.29
696.701	362.59
697.145	340.39
697.59	330.19
698.034	317.39
698.478	329.29
698.922	325.99
699.367	322.19
699.811	343.39
700.255	355.39
700.699	388.89
701.143	428.59
701.588	478.99
702.032	510.79
702.476	499.39
702.92	483.19
703.364	487.29
703.808	647.19
704.252	1049.49
704.696	1466.39
705.14	1650.49
705.584	2096.79
706.027	1041.19
706.471	518.39
706.915	392.59
707.359	348.69
707.803	322.49
708.246	307.19
708.69	310.79
709.134	311.49
709.577	307.69
710.021	316.59
710.465	301.49
710.908	296.69
711.352	300.29
711.795	315.59
712.239	350.59
712.682	387.19
713.126	416.89
713.569	460.49
714.012	371.29
714.456	321.89
714.899	298.49
715.342	272.09
715.786	263.69
716.229	256.09
716.672	252.29
717.115	254.49
717.558	253.49
718.002	245.39
718.445	252.29
718.888	290.59
719.331	299.59
719.774	313.99
720.217	307.09
720.66	287.69
721.103	267.89
721.546	251.29
721.989	250.39
722.432	227.99
722.874	231.39
723.317	223.69
723.76	239.69
724.203	262.19
724.645	327.49
725.088	459.49
725.531	563.79
725.974	638.69
726.416	550.39
726.859	312.09
727.301	250.59
727.744	238.69
728.187	238.99
728.629	239.59
729.071	246.99
729.514	258.99
729.956	271.89
730.399	283.39
730.841	291.79
731.283	268.09
731.726	270.59
732.168	260.09
732.61	260.89
733.053	290.89
733.495	322.19
733.937	350.29
734.379	393.09
734.821	441.89
735.263	544.69
735.705	861.09
736.148	1603.69
736.59	2582.19
737.032	2977.39
737.474	2434.59
737.916	804.39
738.357	426.69
738.799	320.69
739.241	299.19
739.683	283.99
740.125	287.79
740.567	298.89
741.008	317.59
741.45	312.19
741.892	313.89
742.334	343.19
742.775	352.99
743.217	340.39
743.658	274.59
744.1	255.09
744.542	259.19
744.983	313.99
745.425	331.59
745.866	344.69
746.307	274.99
746.749	281.19
747.19	325.19
747.632	464.89
748.073	908.29
748.514	1893.99
748.956	2821.49
749.397	3577.89
749.838	2931.99
750.279	2896.29
750.72	1475.19
751.162	547.89
751.603	315.49
752.044	256.99
752.485	214.69
752.926	211.69
753.367	200.69
753.808	191.59
754.249	194.39
754.69	186.49
755.131	182.99
755.572	181.49
756.013	178.79
756.453	183.99
756.894	192.89
757.335	184.99
757.776	200.49
758.216	197.29
758.657	193.19
759.098	206.59
759.538	230.59
759.979	270.89
760.42	382.79
760.86	725.39
761.301	1882.59
761.741	4473.79
762.182	6263.09
762.622	4412.69
763.063	1283.09
763.503	540.79
763.943	350.59
764.384	344.39
764.824	409.89
765.264	446.79
765.705	315.09
766.145	220.79
766.585	192.19
767.025	187.59
767.465	188.69
767.906	252.59
768.346	327.59
768.786	344.89
769.226	269.49
769.666	330.09
770.106	640.59
770.546	1607.19
770.986	2606.49
771.426	2303.09
771.866	773.69
772.306	327.89
772.745	206.49
773.185	174.19
773.625	169.29
774.065	169.79
774.505	203.39
774.944	326.09
775.384	705.19
775.824	1236.69
776.263	1176.19
776.703	506.79
777.142	218.79
777.582	168.29
778.021	140.49
778.461	141.59
778.9	143.29
779.34	129.29
779.779	120.59
780.219	116.09
780.658	113.89
781.097	116.39
781.537	107.39
781.976	108.09
782.415	105.59
782.855	101.69
783.294	99.79
783.733	108.19
784.172	107.69
784.611	103.29
785.05	111.09
785.489	117.49
785.928	120.09
786.367	120.79
786.806	116.09
787.245	129.79
787.684	140.59
788.123	144.99
788.562	131.89
789.001	130.69
789.44	126.59
789.879	122.79
790.317	117.99
790.756	131.99
791.195	131.39
791.634	144.69
792.072	205.19
792.511	370.99
792.95	1035.79
793.388	2116.69
793.827	1888.19
794.265	670.79
794.704	284.49
795.142	182.79
795.581	157.89
796.019	137.49
796.458	133.29
796.896	124.99
797.334	131.59
797.773	151.29
798.211	223.39
798.649	454.69
799.087	1024.99
799.526	1584.69
799.964	2013.79
800.402	1960.69
800.84	743.89
801.278	302.79
801.716	181.29
802.154	156.49
802.592	140.49
803.03	135.09
803.468	128.99
803.906	137.99
804.344	147.69
804.782	141.79
805.22	131.39
805.658	124.09
806.096	147.69
806.533	155.09
806.971	177.29
807.409	219.79
807.847	321.29
808.284	679.09
808.722	1901.19
809.16	3240.39
809.597	3138.59
810.035	5383.69
810.472	5582.19
810.91	2035.79
811.347	786.89
811.785	403.99
812.222	249.89
812.66	192.79
813.097	165.39
813.535	138.69
813.972	123.99
814.409	118.79
814.846	108.99
815.284	112.79
815.721	106.09
816.158	101.59
816.595	125.79
817.032	182.79
817.47	193.99
817.907	162.79
818.344	151.79
818.781	119.79
819.218	100.69
819.655	126.59
820.092	177.09
820.529	205.89
820.966	172.49
821.403	129.69
821.839	107.59
822.276	93.89
822.713	119.99
823.15	133.89
823.587	125.79
824.023	156.29
824.46	309.09
824.897	901.09
825.333	1324.59
825.77	568.69
826.206	233.89
826.643	131.39
827.08	101.69
827.516	80.59
827.953	72.79
828.389	83.99
828.825	67.59
829.262	72.19
829.698	62.09
830.135	66.99
830.571	61.79
831.007	62.59
831.443	58.29
831.88	66.89
832.316	68.49
832.752	69.59
833.188	67.19
833.624	68.69
834.06	67.29
834.497	66.09
834.933	68.79
835.369	74.49
835.805	67.29
836.241	70.59
836.677	86.59
837.112	87.89
837.548	105.09
837.984	134.49
838.42	206.29
838.856	497.49
839.292	1526.09
839.727	2256.39
840.163	1042.09
840.599	932.19
841.034	2021.99
841.47	2055.79
841.906	767.89
842.341	334.99
842.777	234.79
843.212	313.09
843.648	307.19
844.083	150.39
844.519	97.69
844.954	75.19
845.39	57.59
845.825	57.49
846.261	60.09
846.696	50.89
847.131	58.99
847.566	61.59
848.002	56.59
848.437	61.09
848.872	61.29
849.307	62.79
849.742	83.89
850.177	184.29
850.613	559.29
851.048	857.09
851.483	371.49
851.918	156.69
852.353	90.99
852.788	63.59
853.223	55.89
853.657	50.89
854.092	49.79
854.527	41.19
854.962	39.39
855.397	39.59
855.832	53.69
856.266	42.69
856.701	44.39
857.136	36.19
857.57	35.99
858.005	44.69
858.44	57.19
858.874	40.99
859.309	52.49
859.743	38.79
860.178	45.39
860.612	39.29
861.047	50.59
861.481	65.59
861.915	70.89
862.35	50.69
862.784	34.29
863.218	42.59
863.653	34.49
864.087	43.29
864.521	52.89
864.955	69.89
865.39	163.69
865.824	174.89
866.258	109.49
866.692	159.79
867.126	172.99
867.56	103.59
867.994	57.29
868.428	39.69
868.862	47.59
869.296	49.09
869.73	56.09
870.164	49.89
870.598	47.29
871.031	38.29
871.465	30.89
871.899	27.99
872.333	27.49
872.766	32.79
873.2	21.69
873.634	31.19
874.067	24.89
874.501	29.09
874.935	31.79
875.368	30.89
875.802	29.19
876.235	27.89
876.669	25.19
877.102	26.69
877.535	22.99
877.969	13.09
878.402	24.89
878.836	20.59
879.269	20.39
879.702	22.99
880.135	25.79
880.569	26.19
881.002	24.49
881.435	25.09
881.868	19.69
882.301	14.69
882.734	16.69
883.167	25.69
883.601	20.79
884.034	22.79
884.467	15.19
884.899	15.99
885.332	17.99
885.765	9.49
886.198	19.29
886.631	11.09
887.064	23.89
887.497	19.99
887.929	22.69
888.362	13.89
888.795	17.79
889.228	21.29
889.66	18.49
890.093	24.99
890.526	17.19
890.958	13.49
891.391	16.69
891.823	23.29
892.256	19.89
892.688	11.29
893.121	16.29
893.553	11.19
893.985	21.79
894.418	21.79
894.85	15.29
895.282	11.99
895.715	17.29
896.147	15.39
896.579	22.29
897.011	15.09
897.444	19.79
897.876	17.89
898.308	19.89
898.74	12.19
899.172	13.29
899.604	20.09
900.036	16.89
900.468	20.89
900.9	14.99
901.332	11.69
901.764	17.49
902.196	17.39
902.628	14.79
903.06	20.49
903.491	26.59
903.923	20.89
904.355	26.39
904.787	23.69
905.218	21.69
905.65	21.99
906.082	12.69
906.513	14.39
906.945	14.69
907.376	12.39
907.808	19.59
908.239	20.59
908.671	17.89
909.102	23.39
909.534	27.69
909.965	51.39
910.397	89.39
910.828	315.29
911.259	467.69
911.691	214.79
912.122	105.69
912.553	49.99
912.984	31.69
913.415	31.19
913.847	23.69
914.278	14.09
914.709	17.19
915.14	20.79
915.571	17.59
916.002	7.49
916.433	15.99
916.864	14.69
917.295	12.79
917.726	20.29
918.157	17.19
918.587	25.99
919.018	25.29
919.449	25.09
919.88	25.99
920.311	31.09
920.741	52.19
921.172	163.69
921.603	144.69
922.033	76.39
922.464	46.79
922.895	21.49
923.325	26.09
923.756	17.39
924.186	16.09
924.617	26.49
925.047	39.79
925.478	53.09
925.908	45.19
926.338	24.89
926.769	20.89
927.199	20.69
927.629	14.39
928.06	16.69
928.49	22.79
928.92	12.29
929.35	5.29
929.78	9.89
930.21	5.89
930.641	10.29
931.071	5.39
931.501	6.29
931.931	8.79
932.361	11.39
932.791	6.89
933.221	8.79
933.651	14.19
934.08	20.79
934.51	31.29
934.94	12.39
935.37	13.79
935.8	8.99
936.229	10.79
936.659	6.09
937.089	2.79
937.519	17.29
937.948	25.69
938.378	17.09
938.807	3.69
939.237	-0.51
939.666	1.89
940.096	-6.41
940.525	3.49
940.955	-3.21
941.384	3.99
941.814	-7.31
942.243	0.29
942.672	3.79
943.102	-0.61
943.531	-6.31
943.96	3.59
944.39	4.09
944.819	0.29
945.248	4.29
945.677	-0.61
946.106	8.19
946.535	4.69
946.964	0.39
947.393	5.19
947.822	7.59
948.251	-0.91
948.68	3.99
949.109	6.29
949.538	4.89
949.967	1.29
950.396	-0.11
950.825	0.99
951.254	2.59
951.682	-4.01
952.111	1.49
952.54	5.19
952.969	-4.31
953.397	-5.21
953.826	3.19
954.254	-13.91
954.683	-1.51
955.112	1.89
955.54	4.79
955.969	0.39
956.397	1.79
956.826	0.89
957.254	1.99
957.682	0.19
958.111	1.99
958.539	-1.41
958.967	1.19
959.396	1.19
959.824	-4.91
960.252	2.39
960.68	0.39
961.109	4.19
961.537	-4.91
961.965	-6.51
962.393	2.39
962.821	-2.31
963.249	1.59
963.677	5.69
964.105	6.59
964.533	45.09
964.961	36.59
965.389	19.69
965.817	8.39
966.245	-2.61
966.672	-0.71
967.1	-0.01
967.528	3.79
967.956	-1.81
968.383	2.79
968.811	1.49
969.239	-0.11
969.666	-2.31
970.094	0.89
970.522	0.39
970.949	-1.21
971.377	-0.51
971.804	1.89
972.232	-6.31
972.659	-6.31
973.087	4.79
973.514	-5.81
973.941	-3.51
974.369	1.99
974.796	4.69
975.223	-3.71
975.651	1.39
976.078	-0.81
976.505	3.39
976.932	3.79
977.359	11.79
977.786	13.69
978.214	-6.51
978.641	-4.71
979.068	-5.11
979.495	-6.71
979.922	-3.41
980.349	-2.91
980.776	-3.01
981.202	3.29
981.629	9.79
982.056	-2.41
982.483	0.89
982.91	7.99
983.337	-8.81
983.763	4.29
984.19	1.29
984.617	0.99
985.043	-8.61
985.47	0.99
985.897	-6.61
986.323	-6.81
986.75	-3.31
987.176	-1.61
987.603	1.09
988.029	-0.31
988.456	2.69
988.882	6.49
989.308	-5.21
989.735	-0.01
990.161	3.59
990.587	-4.81
991.014	-1.41
991.44	7.19
991.866	-3.11
992.292	-4.31
992.719	-0.81
993.145	1.39
993.571	-8.91
993.997	-7.01
994.423	-0.61
994.849	-3.21
995.275	3.59
995.701	-0.81
996.127	1.49
996.553	-3.41
996.979	-0.41
997.405	-3.01
997.83	-9.31
998.256	-7.81
998.682	-3.21
999.108	-7.51
999.534	1.89
999.959	-3.81
1000.385	-6.61
1000.811	2.39
1001.236	-10.21
1001.662	-6.31
1002.087	-12.91
1002.513	-0.31
1002.938	4.59
1003.364	-5.31
1003.789	2.59
1004.215	8.79
1004.64	1.29
1005.066	5.39
1005.491	-1.11
1005.916	-1.51
1006.342	1.59
1006.767	-2.01
1007.192	0.99
1007.617	-2.81
1008.042	-9.51
1008.468	-8.41
1008.893	-5.71
1009.318	-3.51
1009.743	-5.21
1010.168	-2.01
1010.593	2.19
1011.018	-3.01
1011.443	1.49
1011.868	2.19
1012.293	-6.51
1012.718	-10.11
1013.143	-3.21
1013.567	-2.01
1013.992	-3.31
1014.417	-12.11
1014.842	-2.51
1015.267	-8.61
1015.691	1.39
1016.116	3.99
1016.541	-2.41
1016.965	0.49
1017.39	-1.11
1017.814	1.69
1018.239	-4.11
1018.663	-6.31
1019.088	-5.01
1019.512	-4.61
1019.937	-1.91
1020.361	1.19
1020.785	-10.81
1021.21	-1.11
1021.634	-1.01
1022.058	0.19
1022.483	1.09
1022.907	-2.21
1023.331	-3.91
1023.755	-2.01
1024.179	-2.01
1024.604	-9.11
1025.028	-4.41
1025.452	-1.71
1025.876	-5.41
1026.3	-5.81
1026.724	-11.41
1027.148	-5.31
1027.572	-10.21
1027.996	-4.71
1028.42	1.29
1028.843	-1.21
1029.267	-1.31
1029.691	-2.41
1030.115	-8.41
1030.539	-3.51
1030.962	-4.11
1031.386	-12.51
1031.81	-1.81
1032.233	1.39
1032.657	-8.91
1033.08	-2.21
1033.504	3.19
1033.927	-4.91
1034.351	-0.81
1034.774	-5.21
1035.198	-3.31
1035.621	-4.61
1036.045	-9.31
1036.468	-5.31
1036.891	-6.51
1037.315	-7.01
1037.738	-13.41
1038.161	-4.91
1038.584	-3.71
1039.008	-4.31
1039.431	1.09
1039.854	-2.71
1040.277	-10.41
1040.7	-10.31
1041.123	-1.31
1041.546	-5.51
1041.969	-3.91
1042.392	-1.51
1042.815	0.59
1043.238	-5.01
1043.661	1.59
1044.084	-7.01
1044.507	-3.21
1044.93	-9.51
1045.352	-5.51
1045.775	-4.01
1046.198	-1.81
1046.621	-5.41
1047.043	-7.81
1047.466	9.29
1047.889	-0.71
1048.311	-3.51
1048.734	-4.21
1049.156	-2.01
1049.579	-0.91
1050.001	-3.51
1050.424	-2.21
1050.846	-5.81
1051.269	-2.71
1051.691	-8.11
1052.113	-6.81
1052.536	0.99
1052.958	-0.51
1053.38	-7.91
1053.802	-4.71
1054.225	0.89
1054.647	-6.61
1055.069	-6.71
1055.491	0.49
1055.913	-8.71
1056.335	-3.41
1056.757	-3.61
1057.179	-6.11
1057.601	-11.61
1058.023	-2.01
1058.445	-2.61
1058.867	-3.31
1059.289	-8.71
1059.711	-5.31
1060.133	-6.21
1060.555	-9.01
1060.976	-11.61
1061.398	-14.41
1061.82	-3.81
1062.241	-8.71
1062.663	-14.81
1063.085	-6.41
1063.506	-1.21
1063.928	-1.21
1064.35	0.79
1064.771	-6.91
1065.193	0.89
1065.614	-12.51
1066.035	-6.51
1066.457	-1.71
1066.878	-2.11
1067.3	-0.71
1067.721	-6.41
1068.142	-4.41
1068.564	-4.61
1068.985	-0.11
1069.406	-6.91
1069.827	-6.41
1070.248	-1.11
1070.67	-11.11
1071.091	-7.11
1071.512	-3.31
1071.933	-5.41
1072.354	-7.61
1072.775	-5.61
1073.196	-13.31
1073.617	-2.71
1074.038	-6.61
1074.459	-3.71
1074.88	-12.51
1075.3	-6.61
1075.721	-7.41
1076.142	0.99
1076.563	0.79
1076.983	-9.81
1077.404	-7.21
1077.825	-7.61
1078.246	-8.81
1078.666	-5.61
1079.087	-1.61
1079.507	-5.01
1079.928	1.89
1080.348	-2.11
1080.769	-11.01
1081.189	2.19
1081.61	-3.41
1082.03	-10.01
1082.451	-5.21
1082.871	-8.41
1083.291	-1.41
1083.711	-6.91
1084.132	-7.81
1084.552	-10.01
1084.972	-3.41
1085.392	-9.31
1085.813	-12.11
1086.233	-6.21
1086.653	-5.01
1087.073	-1.51
1087.493	-5.41
1087.913	-8.91
1088.333	-5.71
1088.753	-6.41
1089.173	-3.11
1089.593	-7.41
1090.013	-2.51
1090.433	-1.31
1090.852	-5.11
1091.272	-3.71
1091.692	-5.11
1092.112	-2.91
1092.531	-10.41
1092.951	-15.51
1093.371	-4.51
1093.79	-0.51
1094.21	-9.81
1094.63	-7.21
1095.049	-8.71
1095.469	-6.01
1095.888	-1.51
1096.308	0.59
1096.727	7.89
1097.146	-8.71
1097.566	0.99
1097.985	-4.61
1098.405	1.09
1098.824	-8.01
1099.243	-3.91
1099.662	-7.61
1100.082	-3.71
1100.501	-1.61
1100.92	-4.11
1101.339	-6.61
1101.758	-7.11
