Data from 20171114-ORNL-Ar_H_NY_Subt18_08-09-02-395.txt Node
Date: Tue Nov 14 08:09:02 EST 2017
User: Ender
Spectrometer: HR+D1039
Trigger mode: 0
Integration Time (sec): 2.730000E-2
Scans to average: 10
Electric dark correction enabled: true
Nonlinearity correction enabled: false
Boxcar width: 0
XAxis mode: Wavelengths
Number of Pixels in Spectrum: 2048
>>>>>Begin Spectral Data<<<<<
187.836	1.66
188.309	1.66
188.782	1.66
189.255	3.16
189.728	3.56
190.201	2.46
190.674	5.56
191.147	-0.14
191.619	-4.64
192.092	1.56
192.565	4.66
193.038	-0.64
193.511	-2.04
193.984	-1.44
194.456	-4.54
194.929	-4.64
195.402	-2.94
195.874	-1.64
196.347	-0.34
196.82	-6.64
197.292	7.36
197.765	-5.54
198.237	-6.04
198.71	-2.14
199.182	2.06
199.655	1.76
200.127	0.96
200.6	1.36
201.072	0.26
201.544	-2.44
202.017	-6.84
202.489	3.66
202.961	-3.34
203.433	-0.44
203.906	-5.34
204.378	-5.54
204.85	-5.34
205.322	-11.04
205.794	-4.04
206.266	-4.74
206.739	-12.24
207.211	-4.44
207.683	-6.14
208.155	-0.54
208.627	-4.54
209.099	-6.44
209.57	-6.14
210.042	-2.14
210.514	-0.24
210.986	3.56
211.458	-5.54
211.93	-1.14
212.402	-2.44
212.873	0.46
213.345	-14.54
213.817	-15.34
214.288	-4.94
214.76	-14.04
215.232	-3.94
215.703	-2.34
216.175	5.26
216.646	-8.34
217.118	-8.84
217.589	-5.74
218.061	-6.94
218.532	-5.64
219.004	-1.74
219.475	-3.34
219.946	-1.14
220.418	-6.44
220.889	-4.74
221.36	5.96
221.832	-7.74
222.303	-12.64
222.774	-4.64
223.245	-12.54
223.717	-3.04
224.188	-5.54
224.659	-5.54
225.13	-5.84
225.601	-5.04
226.072	-2.64
226.543	2.26
227.014	2.06
227.485	-3.94
227.956	-7.64
228.427	-6.84
228.898	-0.14
229.369	-0.14
229.839	-6.14
230.31	-10.24
230.781	0.76
231.252	0.06
231.722	-6.44
232.193	-9.84
232.664	-5.94
233.135	-1.84
233.605	-3.24
234.076	-10.34
234.546	-0.84
235.017	1.16
235.487	2.06
235.958	-4.34
236.428	-0.34
236.899	-4.34
237.369	-0.14
237.84	-6.24
238.31	3.46
238.78	-0.94
239.251	-10.04
239.721	-0.54
240.191	-4.64
240.662	-3.94
241.132	-6.84
241.602	-1.14
242.072	-3.44
242.542	2.16
243.013	-1.04
243.483	2.46
243.953	-1.84
244.423	-3.24
244.893	-4.24
245.363	-0.14
245.833	-1.24
246.303	-7.04
246.773	0.66
247.243	-6.14
247.712	-0.54
248.182	2.76
248.652	1.06
249.122	-7.94
249.592	-0.74
250.061	8.26
250.531	5.66
251.001	-0.04
251.471	6.96
251.94	6.66
252.41	-1.24
252.879	-4.74
253.349	4.16
253.818	0.36
254.288	1.06
254.757	0.66
255.227	-6.34
255.696	-8.14
256.166	-0.14
256.635	5.26
257.105	4.26
257.574	-3.14
258.043	-2.54
258.513	-1.44
258.982	0.96
259.451	2.66
259.92	0.96
260.389	1.16
260.859	8.46
261.328	5.86
261.797	5.36
262.266	2.46
262.735	5.56
263.204	-3.54
263.673	0.66
264.142	-1.44
264.611	-5.24
265.08	-2.04
265.549	-3.34
266.018	-0.24
266.487	-3.24
266.955	-3.34
267.424	-9.34
267.893	4.56
268.362	-3.34
268.83	-0.64
269.299	6.36
269.768	-2.74
270.236	6.96
270.705	-3.44
271.174	-2.44
271.642	1.36
272.111	6.36
272.579	2.76
273.048	3.06
273.516	2.06
273.985	2.36
274.453	5.06
274.922	3.56
275.39	7.46
275.858	-2.04
276.327	8.36
276.795	4.06
277.263	3.36
277.731	15.16
278.2	10.96
278.668	14.26
279.136	11.06
279.604	2.26
280.072	5.66
280.54	8.76
281.008	2.86
281.477	9.56
281.945	7.16
282.413	9.06
282.881	12.16
283.348	1.46
283.816	6.16
284.284	6.66
284.752	16.86
285.22	3.36
285.688	6.96
286.156	7.16
286.623	18.86
287.091	12.56
287.559	9.26
288.026	11.06
288.494	10.56
288.962	-0.54
289.429	4.26
289.897	10.76
290.364	8.86
290.832	16.26
291.3	7.86
291.767	9.86
292.234	11.96
292.702	5.96
293.169	9.16
293.637	13.26
294.104	14.96
294.571	-2.34
295.039	3.86
295.506	8.86
295.973	7.56
296.44	7.26
296.908	8.06
297.375	11.66
297.842	13.66
298.309	15.26
298.776	8.56
299.243	13.76
299.71	1.16
300.177	10.16
300.644	11.56
301.111	10.26
301.578	14.06
302.045	8.96
302.512	15.16
302.979	14.36
303.446	13.66
303.913	12.66
304.379	11.46
304.846	21.26
305.313	19.16
305.78	9.16
306.246	16.66
306.713	18.16
307.18	20.66
307.646	17.46
308.113	12.66
308.579	16.56
309.046	16.66
309.512	22.06
309.979	13.06
310.445	18.86
310.912	25.56
311.378	24.46
311.845	19.96
312.311	24.96
312.777	17.46
313.244	19.86
313.71	27.66
314.176	18.46
314.642	15.86
315.109	17.16
315.575	24.46
316.041	24.56
316.507	20.76
316.973	22.56
317.439	26.96
317.905	25.66
318.371	28.66
318.837	22.96
319.303	21.76
319.769	23.96
320.235	26.06
320.701	27.46
321.167	22.36
321.633	27.76
322.099	27.36
322.564	29.06
323.03	30.76
323.496	32.06
323.962	31.76
324.427	27.16
324.893	31.46
325.359	26.86
325.824	27.46
326.29	29.56
326.755	31.96
327.221	25.46
327.686	31.36
328.152	37.86
328.617	36.36
329.083	37.96
329.548	37.86
330.014	32.56
330.479	26.96
330.944	36.06
331.41	25.76
331.875	30.76
332.34	33.06
332.805	27.66
333.271	33.86
333.736	31.86
334.201	37.76
334.666	36.76
335.131	41.26
335.596	36.96
336.061	39.06
336.526	31.06
336.991	32.96
337.456	50.56
337.921	38.26
338.386	35.56
338.851	34.86
339.316	43.46
339.781	34.66
340.246	44.16
340.711	34.66
341.175	43.66
341.64	32.96
342.105	37.56
342.569	48.56
343.034	45.36
343.499	42.16
343.963	37.06
344.428	49.36
344.893	41.66
345.357	48.96
345.822	49.66
346.286	49.06
346.751	58.46
347.215	50.16
347.679	57.26
348.144	74.56
348.608	64.26
349.073	48.16
349.537	56.96
350.001	63.16
350.465	70.56
350.93	59.76
351.394	69.36
351.858	55.56
352.322	74.96
352.786	66.86
353.25	77.96
353.715	88.46
354.179	80.86
354.643	88.06
355.107	99.56
355.571	78.96
356.035	81.66
356.498	84.86
356.962	88.26
357.426	100.66
357.89	87.76
358.354	71.86
358.818	64.56
359.281	63.76
359.745	59.46
360.209	63.26
360.673	59.16
361.136	68.86
361.6	67.66
362.064	66.46
362.527	64.76
362.991	76.96
363.454	65.06
363.918	60.86
364.381	69.56
364.845	65.26
365.308	75.76
365.772	70.76
366.235	76.46
366.698	66.96
367.162	71.36
367.625	72.36
368.088	71.76
368.552	73.66
369.015	62.46
369.478	79.76
369.941	83.46
370.404	77.96
370.867	79.56
371.331	83.96
371.794	92.16
372.257	85.86
372.72	91.06
373.183	90.46
373.646	80.16
374.109	80.46
374.572	82.66
375.035	86.76
375.497	92.66
375.96	84.36
376.423	87.16
376.886	93.66
377.349	84.86
377.811	86.86
378.274	90.76
378.737	93.96
379.199	91.26
379.662	97.26
380.125	100.06
380.587	90.06
381.05	101.36
381.512	103.26
381.975	111.26
382.437	106.16
382.9	104.06
383.362	114.06
383.825	116.46
384.287	112.96
384.75	103.06
385.212	111.66
385.674	116.26
386.136	114.16
386.599	102.76
387.061	111.96
387.523	106.66
387.985	109.36
388.447	121.46
388.91	114.16
389.372	128.76
389.834	114.66
390.296	118.16
390.758	121.96
391.22	128.96
391.682	137.36
392.144	153.96
392.606	140.86
393.068	128.56
393.529	137.76
393.991	117.16
394.453	119.56
394.915	115.26
395.377	133.26
395.838	138.86
396.3	128.46
396.762	131.46
397.224	127.06
397.685	119.16
398.147	123.46
398.608	117.36
399.07	117.06
399.531	130.46
399.993	131.76
400.454	144.46
400.916	134.66
401.377	135.26
401.839	138.66
402.3	132.76
402.762	158.46
403.223	169.16
403.684	156.26
404.145	149.56
404.607	150.96
405.068	151.86
405.529	151.96
405.99	168.06
406.451	159.76
406.913	162.36
407.374	153.56
407.835	152.16
408.296	158.86
408.757	160.66
409.218	172.46
409.679	159.16
410.14	161.56
410.601	157.26
411.062	169.76
411.522	173.46
411.983	178.36
412.444	162.66
412.905	172.36
413.366	161.56
413.826	187.76
414.287	210.66
414.748	253.86
415.208	236.36
415.669	197.66
416.13	197.46
416.59	198.06
417.051	207.06
417.511	211.56
417.972	226.86
418.432	239.46
418.893	279.46
419.353	247.26
419.814	187.56
420.274	173.66
420.734	169.56
421.195	184.96
421.655	184.06
422.115	186.26
422.576	192.86
423.036	192.46
423.496	201.26
423.956	206.86
424.416	222.56
424.876	260.56
425.336	251.36
425.797	250.26
426.257	245.76
426.717	228.16
427.177	221.36
427.637	213.66
428.097	217.46
428.556	227.26
429.016	248.86
429.476	249.96
429.936	257.76
430.396	262.26
430.856	270.46
431.315	294.86
431.775	330.06
432.235	354.06
432.694	326.06
433.154	342.96
433.614	363.46
434.073	313.76
434.533	275.26
434.993	255.76
435.452	266.76
435.912	274.76
436.371	270.66
436.83	264.66
437.29	247.16
437.749	235.36
438.209	237.86
438.668	259.86
439.127	274.36
439.587	261.56
440.046	237.96
440.505	253.36
440.964	266.06
441.424	307.46
441.883	298.76
442.342	249.56
442.801	215.66
443.26	220.86
443.719	220.66
444.178	223.06
444.637	205.86
445.096	221.86
445.555	220.96
446.014	221.46
446.473	227.76
446.932	230.26
447.391	223.46
447.849	228.36
448.308	218.56
448.767	212.96
449.226	231.46
449.685	232.56
450.143	246.86
450.602	234.46
451.061	226.46
451.519	233.76
451.978	228.96
452.436	234.76
452.895	235.46
453.353	252.76
453.812	237.56
454.27	233.26
454.729	231.46
455.187	236.46
455.646	243.16
456.104	245.66
456.562	259.06
457.021	264.26
457.479	263.26
457.937	266.06
458.395	258.96
458.854	240.36
459.312	254.56
459.77	263.66
460.228	255.76
460.686	237.86
461.144	243.66
461.602	240.96
462.06	250.36
462.518	258.96
462.976	253.66
463.434	248.96
463.892	252.36
464.35	274.66
464.808	281.86
465.266	260.06
465.724	267.16
466.181	275.96
466.639	270.16
467.097	281.16
467.555	297.56
468.012	305.16
468.47	306.46
468.928	328.56
469.385	339.26
469.843	335.66
470.3	343.46
470.758	358.36
471.215	372.96
471.673	399.46
472.13	396.86
472.588	417.96
473.045	367.96
473.503	379.86
473.96	397.56
474.417	401.26
474.875	434.56
475.332	460.86
475.789	448.16
476.246	455.36
476.704	479.56
477.161	493.76
477.618	511.76
478.075	552.26
478.532	593.56
478.989	662.86
479.446	766.46
479.903	735.56
480.36	762.36
480.817	812.86
481.274	906.16
481.731	983.16
482.188	1065.26
482.645	1176.56
483.102	1267.66
483.558	1387.16
484.015	1419.16
484.472	1384.76
484.929	1353.96
485.385	1317.66
485.842	1284.16
486.299	1234.46
486.755	1192.66
487.212	1020.26
487.668	867.16
488.125	809.26
488.582	747.86
489.038	719.06
489.494	687.66
489.951	658.46
490.407	648.56
490.864	630.56
491.32	628.36
491.776	630.76
492.233	628.96
492.689	598.76
493.145	600.46
493.602	591.06
494.058	605.46
494.514	615.16
494.97	614.96
495.426	642.56
495.882	610.16
496.338	604.46
496.794	606.06
497.251	602.76
497.707	624.66
498.163	628.16
498.618	624.96
499.074	636.86
499.53	658.96
499.986	657.56
500.442	635.36
500.898	622.26
501.354	613.16
501.809	617.76
502.265	620.16
502.721	627.86
503.177	631.76
503.632	631.66
504.088	637.96
504.543	672.86
504.999	676.56
505.455	649.56
505.91	624.76
506.366	630.76
506.821	631.46
507.277	626.96
507.732	629.16
508.187	627.56
508.643	634.76
509.098	640.96
509.553	657.96
510.009	661.66
510.464	673.66
510.919	684.16
511.375	684.26
511.83	707.46
512.285	722.66
512.74	752.16
513.195	770.26
513.65	759.86
514.105	755.96
514.56	755.96
515.015	782.96
515.47	796.86
515.925	768.06
516.38	768.76
516.835	788.16
517.29	777.26
517.745	775.36
518.2	766.26
518.655	749.16
519.109	739.16
519.564	734.56
520.019	723.56
520.474	727.86
520.928	715.96
521.383	710.66
521.838	701.56
522.292	703.96
522.747	698.86
523.201	700.96
523.656	692.26
524.11	700.46
524.565	697.16
525.019	693.16
525.474	693.06
525.928	697.46
526.382	691.66
526.837	696.06
527.291	701.16
527.745	697.96
528.2	702.06
528.654	687.86
529.108	686.26
529.562	683.16
530.016	682.86
530.47	686.36
530.925	688.06
531.379	691.56
531.833	706.86
532.287	705.16
532.741	696.96
533.195	692.76
533.649	704.16
534.103	703.96
534.556	702.16
535.01	702.46
535.464	691.76
535.918	705.76
536.372	716.86
536.826	713.76
537.279	704.46
537.733	707.76
538.187	707.76
538.64	712.46
539.094	731.26
539.548	722.16
540.001	725.36
540.455	723.86
540.908	736.26
541.362	735.26
541.815	749.46
542.269	764.36
542.722	757.06
543.175	773.16
543.629	769.66
544.082	789.86
544.536	804.36
544.989	795.36
545.442	802.66
545.895	787.96
546.349	787.86
546.802	798.76
547.255	804.16
547.708	804.96
548.161	820.46
548.614	819.06
549.067	836.46
549.52	825.76
549.973	814.66
550.426	814.56
550.879	798.06
551.332	814.26
551.785	816.06
552.238	813.36
552.691	824.16
553.144	836.56
553.596	845.06
554.049	870.66
554.502	901.76
554.955	911.16
555.407	914.16
555.86	903.56
556.313	893.86
556.765	893.26
557.218	893.36
557.67	884.56
558.123	880.56
558.576	886.06
559.028	880.26
559.48	897.16
559.933	871.86
560.385	839.86
560.838	816.26
561.29	796.86
561.742	795.76
562.195	774.36
562.647	777.36
563.099	770.76
563.551	785.26
564.004	793.16
564.456	768.46
564.908	768.86
565.36	750.46
565.812	733.96
566.264	729.66
566.716	727.26
567.168	706.76
567.62	712.86
568.072	700.96
568.524	688.36
568.976	692.96
569.428	677.86
569.88	681.06
570.332	682.76
570.784	702.66
571.235	696.36
571.687	698.56
572.139	710.96
572.59	727.56
573.042	719.26
573.494	718.76
573.945	715.26
574.397	692.36
574.849	701.76
575.3	703.96
575.752	691.56
576.203	688.26
576.655	700.96
577.106	673.76
577.557	673.36
578.009	682.96
578.46	673.96
578.912	665.36
579.363	668.36
579.814	676.76
580.265	671.76
580.717	679.76
581.168	675.56
581.619	685.36
582.07	686.26
582.521	677.66
582.972	672.06
583.423	682.86
583.875	691.66
584.326	695.36
584.777	709.06
585.227	739.76
585.678	753.36
586.129	792.96
586.58	811.46
587.031	852.56
587.482	889.56
587.933	954.06
588.384	900.36
588.834	820.76
589.285	794.16
589.736	773.26
590.186	770.56
590.637	777.06
591.088	752.66
591.538	741.16
591.989	731.96
592.439	732.66
592.89	733.26
593.34	707.96
593.791	715.06
594.241	710.06
594.692	701.56
595.142	709.16
595.593	702.76
596.043	709.56
596.493	716.96
596.943	710.26
597.394	726.06
597.844	728.66
598.294	730.76
598.744	763.06
599.195	794.96
599.645	828.56
600.095	876.26
600.545	939.76
600.995	991.16
601.445	1035.16
601.895	1108.16
602.345	1153.96
602.795	1130.36
603.245	1077.76
603.695	1026.46
604.145	976.06
604.594	920.86
605.044	871.16
605.494	803.86
605.944	756.36
606.393	751.46
606.843	741.76
607.293	741.06
607.743	735.16
608.192	760.16
608.642	762.06
609.091	761.86
609.541	779.26
609.99	774.46
610.44	769.66
610.889	723.76
611.339	719.06
611.788	693.06
612.238	704.26
612.687	705.06
613.136	715.36
613.586	719.96
614.035	716.96
614.484	726.66
614.933	720.96
615.383	720.76
615.832	712.86
616.281	727.16
616.73	691.76
617.179	663.46
617.628	656.76
618.077	641.06
618.526	632.36
618.975	626.26
619.424	621.66
619.873	626.66
620.322	631.46
620.771	617.26
621.22	609.66
621.669	600.26
622.118	598.86
622.567	596.36
623.015	576.76
623.464	584.26
623.913	568.96
624.361	569.26
624.81	562.56
625.259	562.26
625.707	572.66
626.156	566.06
626.604	579.66
627.053	567.06
627.501	577.86
627.95	568.36
628.398	597.46
628.847	585.26
629.295	576.36
629.744	579.46
630.192	581.76
630.64	577.06
631.089	561.76
631.537	550.36
631.985	545.46
632.433	552.56
632.881	552.76
633.33	560.56
633.778	549.96
634.226	541.26
634.674	553.96
635.122	549.36
635.57	574.36
636.018	579.16
636.466	573.16
636.914	574.46
637.362	580.26
637.81	578.86
638.258	591.96
638.705	592.66
639.153	623.86
639.601	629.26
640.049	648.66
640.497	690.06
640.944	690.86
641.392	653.96
641.84	630.56
642.287	592.36
642.735	581.86
643.182	572.06
643.63	575.16
644.078	568.76
644.525	587.86
644.973	584.76
645.42	611.76
645.867	624.56
646.315	649.26
646.762	662.46
647.21	687.66
647.657	712.16
648.104	748.36
648.551	765.66
648.999	818.26
649.446	906.26
649.893	984.66
650.34	1125.36
650.787	1342.86
651.234	1661.86
651.682	2151.16
652.129	2942.46
652.576	4181.76
653.023	6044.56
653.47	8171.56
653.917	10086.86
654.363	11521.26
654.81	12660.86
655.257	11990.16
655.704	7954.96
656.151	4786.36
656.598	3138.06
657.044	2247.86
657.491	1757.56
657.938	1427.56
658.385	1191.36
658.831	1031.36
659.278	924.26
659.724	843.06
660.171	779.56
660.618	714.66
661.064	682.66
661.511	663.86
661.957	642.56
662.404	640.36
662.85	657.76
663.296	631.46
663.743	568.26
664.189	550.96
664.635	551.56
665.082	535.56
665.528	536.36
665.974	526.56
666.42	517.26
666.867	516.46
667.313	494.36
667.759	480.96
668.205	467.56
668.651	478.66
669.097	457.46
669.543	460.16
669.989	448.56
670.435	456.46
670.881	457.36
671.327	461.56
671.773	484.96
672.219	498.46
672.665	563.56
673.11	597.86
673.556	653.76
674.002	683.66
674.448	676.66
674.893	554.26
675.339	491.66
675.785	457.06
676.23	430.46
676.676	413.26
677.122	400.76
677.567	387.76
678.013	381.96
678.458	378.26
678.904	364.36
679.349	353.46
679.794	359.46
680.24	357.16
680.685	368.66
681.131	356.36
681.576	362.46
682.021	361.96
682.466	368.26
682.912	352.76
683.357	364.36
683.802	400.06
684.247	438.96
684.692	477.66
685.137	511.46
685.583	556.06
686.028	575.86
686.473	534.46
686.918	469.16
687.363	426.46
687.807	408.56
688.252	382.46
688.697	361.76
689.142	344.06
689.587	343.66
690.032	339.66
690.477	353.16
690.921	364.66
691.366	396.96
691.811	416.16
692.255	448.16
692.7	483.36
693.145	527.96
693.589	755.06
694.034	1211.56
694.478	1623.06
694.923	1796.46
695.367	2330.06
695.812	1238.66
696.256	513.66
696.701	386.56
697.145	357.16
697.59	346.76
698.034	336.36
698.478	347.06
698.922	326.96
699.367	334.56
699.811	348.66
700.255	363.16
700.699	394.76
701.143	435.66
701.588	490.36
702.032	529.46
702.476	531.26
702.92	498.96
703.364	517.26
703.808	685.76
704.252	1114.56
704.696	1526.16
705.14	1726.66
705.584	2178.76
706.027	1098.96
706.471	546.46
706.915	417.86
707.359	361.06
707.803	330.76
708.246	328.56
708.69	327.66
709.134	328.56
709.577	324.36
710.021	324.66
710.465	319.66
710.908	324.36
711.352	312.76
711.795	324.26
712.239	370.86
712.682	399.36
713.126	427.46
713.569	478.26
714.012	375.66
714.456	321.36
714.899	301.46
715.342	285.06
715.786	274.16
716.229	266.26
716.672	265.96
717.115	256.06
717.558	258.76
718.002	260.56
718.445	274.36
718.888	293.66
719.331	302.36
719.774	320.26
720.217	314.16
720.66	294.06
721.103	273.36
721.546	256.66
721.989	261.06
722.432	238.46
722.874	246.06
723.317	237.36
723.76	242.86
724.203	265.56
724.645	333.76
725.088	460.06
725.531	593.96
725.974	659.36
726.416	561.36
726.859	322.66
727.301	255.56
727.744	247.16
728.187	240.56
728.629	250.06
729.071	251.56
729.514	271.36
729.956	282.26
730.399	301.36
730.841	301.56
731.283	280.26
731.726	279.26
732.168	279.56
732.61	272.76
733.053	304.16
733.495	329.16
733.937	367.96
734.379	425.36
734.821	458.76
735.263	575.86
735.705	909.26
736.148	1716.36
736.59	2734.56
737.032	3144.46
737.474	2566.36
737.916	850.86
738.357	452.76
738.799	346.86
739.241	304.86
739.683	287.76
740.125	300.66
740.567	304.36
741.008	323.36
741.45	328.86
741.892	338.26
742.334	374.86
742.775	374.56
743.217	359.56
743.658	281.86
744.1	265.46
744.542	279.26
744.983	326.56
745.425	354.86
745.866	351.46
746.307	292.06
746.749	291.36
747.19	348.46
747.632	499.46
748.073	976.06
748.514	2016.86
748.956	2980.36
749.397	3785.96
749.838	3125.46
750.279	3038.86
750.72	1563.46
751.162	570.86
751.603	332.26
752.044	260.56
752.485	223.66
752.926	212.66
753.367	205.56
753.808	194.66
754.249	193.56
754.69	195.16
755.131	190.96
755.572	190.96
756.013	185.56
756.453	190.16
756.894	193.36
757.335	198.16
757.776	203.16
758.216	207.56
758.657	209.36
759.098	207.66
759.538	237.26
759.979	291.36
760.42	403.86
760.86	790.06
761.301	2046.66
761.741	4786.16
762.182	6606.96
762.622	4645.06
763.063	1379.76
763.503	565.06
763.943	345.06
764.384	292.06
764.824	282.16
765.264	275.76
765.705	225.56
766.145	186.76
766.585	179.46
767.025	180.86
767.465	169.66
767.906	191.76
768.346	221.96
768.786	229.66
769.226	232.76
769.666	332.46
770.106	686.96
770.546	1694.56
770.986	2731.86
771.426	2422.36
771.866	832.16
772.306	344.26
772.745	212.76
773.185	179.36
773.625	167.46
774.065	155.36
774.505	170.96
774.944	231.46
775.384	415.26
775.824	665.56
776.263	640.66
776.703	318.96
777.142	174.46
777.582	140.76
778.021	131.36
778.461	126.66
778.9	131.86
779.34	127.06
779.779	116.96
780.219	114.36
780.658	106.96
781.097	115.76
781.537	117.26
781.976	115.76
782.415	110.76
782.855	110.76
783.294	108.96
783.733	109.96
784.172	108.36
784.611	112.66
785.05	112.06
785.489	107.16
785.928	122.56
786.367	116.86
786.806	129.76
787.245	132.96
787.684	137.76
788.123	153.16
788.562	137.16
789.001	136.06
789.44	129.36
789.879	115.46
790.317	126.66
790.756	139.96
791.195	134.16
791.634	155.66
792.072	218.96
792.511	400.76
792.95	1111.46
793.388	2201.36
793.827	1946.16
794.265	697.06
794.704	292.36
795.142	194.56
795.581	160.96
796.019	145.06
796.458	132.56
796.896	126.26
797.334	137.86
797.773	164.86
798.211	234.76
798.649	484.96
799.087	1099.56
799.526	1708.56
799.964	2135.36
800.402	2055.66
800.84	795.36
801.278	322.66
801.716	194.76
802.154	157.26
802.592	156.86
803.03	145.96
803.468	144.96
803.906	147.06
804.344	157.06
804.782	146.76
805.22	141.46
805.658	140.06
806.096	152.36
806.533	162.16
806.971	181.26
807.409	227.96
807.847	344.36
808.284	740.76
808.722	2042.56
809.16	3432.36
809.597	3388.56
810.035	5763.86
810.472	5888.16
810.91	2172.06
811.347	841.36
811.785	434.26
812.222	270.26
812.66	208.36
813.097	168.06
813.535	146.66
813.972	131.26
814.409	122.86
814.846	113.06
815.284	117.56
815.721	103.26
816.158	108.76
816.595	117.36
817.032	161.46
817.47	185.56
817.907	137.46
818.344	111.76
818.781	96.66
819.218	102.66
819.655	126.06
820.092	202.96
820.529	219.06
820.966	176.46
821.403	130.66
821.839	113.16
822.276	103.66
822.713	132.26
823.15	143.26
823.587	119.06
824.023	158.36
824.46	331.56
824.897	964.06
825.333	1387.46
825.77	607.66
826.206	243.46
826.643	142.76
827.08	107.86
827.516	80.66
827.953	79.06
828.389	86.06
828.825	76.26
829.262	65.56
829.698	66.66
830.135	68.76
830.571	70.46
831.007	66.16
831.443	67.46
831.88	61.66
832.316	62.96
832.752	63.66
833.188	68.86
833.624	65.06
834.06	76.86
834.497	74.16
834.933	77.56
835.369	74.96
835.805	75.26
836.241	75.86
836.677	79.96
837.112	101.06
837.548	106.96
837.984	143.56
838.42	211.86
838.856	550.46
839.292	1639.76
839.727	2356.96
840.163	1130.46
840.599	1014.66
841.034	2160.96
841.47	2170.36
841.906	811.86
842.341	348.06
842.777	215.96
843.212	223.36
843.648	206.56
844.083	122.66
844.519	85.36
844.954	73.26
845.39	60.36
845.825	58.56
846.261	58.26
846.696	55.86
847.131	55.66
847.566	60.06
848.002	59.56
848.437	55.96
848.872	65.56
849.307	64.36
849.742	90.56
850.177	195.76
850.613	597.06
851.048	905.16
851.483	392.16
851.918	162.96
852.353	87.66
852.788	58.86
853.223	53.06
853.657	59.36
854.092	48.76
854.527	45.96
854.962	45.96
855.397	47.26
855.832	48.86
856.266	41.66
856.701	44.76
857.136	37.76
857.57	41.96
858.005	47.86
858.44	66.06
858.874	46.46
859.309	54.26
859.743	45.86
860.178	47.46
860.612	42.76
861.047	54.76
861.481	77.16
861.915	69.46
862.35	51.86
862.784	41.66
863.218	37.66
863.653	30.96
864.087	43.96
864.521	59.36
864.955	70.36
865.39	167.76
865.824	179.96
866.258	116.26
866.692	179.06
867.126	182.36
867.56	113.66
867.994	62.46
868.428	45.46
868.862	48.36
869.296	56.86
869.73	63.36
870.164	57.86
870.598	45.46
871.031	38.26
871.465	31.76
871.899	27.26
872.333	26.16
872.766	24.46
873.2	26.86
873.634	34.86
874.067	24.46
874.501	25.46
874.935	30.76
875.368	30.86
875.802	27.86
876.235	25.26
876.669	30.56
877.102	20.16
877.535	29.36
877.969	32.76
878.402	20.46
878.836	14.36
879.269	24.26
879.702	29.46
880.135	27.46
880.569	31.26
881.002	25.86
881.435	21.76
881.868	19.36
882.301	21.46
882.734	21.16
883.167	21.86
883.601	21.86
884.034	24.86
884.467	14.06
884.899	22.46
885.332	16.36
885.765	20.26
886.198	18.26
886.631	22.16
887.064	18.76
887.497	25.06
887.929	25.96
888.362	9.86
888.795	17.56
889.228	16.56
889.66	18.36
890.093	20.26
890.526	22.36
890.958	12.86
891.391	22.76
891.823	21.66
892.256	14.06
892.688	12.66
893.121	14.86
893.553	16.16
893.985	15.56
894.418	21.26
894.85	16.16
895.282	18.86
895.715	17.76
896.147	23.56
896.579	17.06
897.011	13.66
897.444	20.36
897.876	18.26
898.308	16.96
898.74	17.56
899.172	12.76
899.604	22.16
900.036	19.86
900.468	13.46
900.9	11.06
901.332	18.06
901.764	15.16
902.196	16.16
902.628	17.16
903.06	15.36
903.491	31.36
903.923	22.26
904.355	23.06
904.787	23.06
905.218	22.26
905.65	19.16
906.082	17.96
906.513	15.06
906.945	21.46
907.376	15.96
907.808	20.46
908.239	29.76
908.671	18.16
909.102	25.56
909.534	22.66
909.965	55.86
910.397	102.56
910.828	330.66
911.259	490.16
911.691	230.76
912.122	111.56
912.553	54.16
912.984	36.56
913.415	25.96
913.847	29.06
914.278	14.76
914.709	15.66
915.14	12.96
915.571	20.26
916.002	17.16
916.433	21.16
916.864	22.06
917.295	9.96
917.726	22.46
918.157	17.56
918.587	33.06
919.018	22.16
919.449	26.46
919.88	26.76
920.311	31.86
920.741	56.06
921.172	174.96
921.603	159.06
922.033	71.96
922.464	52.66
922.895	23.76
923.325	23.96
923.756	15.56
924.186	12.06
924.617	15.06
925.047	20.76
925.478	22.56
925.908	22.96
926.338	15.26
926.769	9.56
927.199	18.46
927.629	11.46
928.06	9.86
928.49	15.06
928.92	12.86
929.35	12.76
929.78	12.06
930.21	10.46
930.641	6.36
931.071	11.36
931.501	7.26
931.931	3.76
932.361	11.66
932.791	3.96
933.221	11.46
933.651	0.36
934.08	21.36
934.51	28.16
934.94	12.86
935.37	14.66
935.8	8.16
936.229	8.96
936.659	9.96
937.089	6.36
937.519	11.66
937.948	23.56
938.378	19.46
938.807	13.36
939.237	6.36
939.666	10.06
940.096	2.06
940.525	-1.24
940.955	1.36
941.384	1.26
941.814	-2.54
942.243	4.66
942.672	6.66
943.102	2.06
943.531	-1.74
943.96	2.86
944.39	3.86
944.819	2.56
945.248	5.06
945.677	2.46
946.106	8.06
946.535	6.06
946.964	4.36
947.393	10.66
947.822	-2.74
948.251	-5.44
948.68	5.46
949.109	-0.84
949.538	7.06
949.967	1.66
950.396	4.16
950.825	-1.74
951.254	-4.04
951.682	-7.24
952.111	2.56
952.54	7.06
952.969	-4.24
953.397	-5.04
953.826	0.56
954.254	-3.84
954.683	6.76
955.112	-3.64
955.54	2.36
955.969	-0.34
956.397	-2.74
956.826	-3.84
957.254	9.16
957.682	3.46
958.111	12.56
958.539	5.16
958.967	5.06
959.396	0.26
959.824	4.06
960.252	4.66
960.68	-5.14
961.109	1.76
961.537	-3.64
961.965	5.16
962.393	-4.44
962.821	-3.84
963.249	-0.54
963.677	4.16
964.105	7.16
964.533	45.76
964.961	46.66
965.389	21.86
965.817	10.26
966.245	4.76
966.672	-6.64
967.1	1.16
967.528	0.46
967.956	-1.84
968.383	1.16
968.811	2.06
969.239	0.16
969.666	-5.94
970.094	-1.94
970.522	3.26
970.949	-3.34
971.377	-10.94
971.804	-4.44
972.232	-3.84
972.659	10.46
973.087	-5.04
973.514	-8.14
973.941	-6.74
974.369	2.56
974.796	0.16
975.223	-3.24
975.651	2.96
976.078	4.66
976.505	-2.84
976.932	4.06
977.359	20.56
977.786	13.06
978.214	4.66
978.641	-3.54
979.068	2.16
979.495	-2.54
979.922	-7.94
980.349	-0.04
980.776	-2.34
981.202	-1.64
981.629	3.06
982.056	9.96
982.483	-3.34
982.91	5.06
983.337	-6.14
983.763	-1.64
984.19	-3.54
984.617	-3.34
985.043	-2.14
985.47	-0.24
985.897	-4.34
986.323	-3.34
986.75	-0.94
987.176	1.56
987.603	-5.54
988.029	4.36
988.456	-1.44
988.882	6.26
989.308	-7.04
989.735	4.86
990.161	2.46
990.587	-3.64
991.014	3.66
991.44	-0.04
991.866	-7.04
992.292	-3.44
992.719	-5.34
993.145	4.36
993.571	-4.94
993.997	-6.54
994.423	-6.84
994.849	-0.64
995.275	-2.74
995.701	0.96
996.127	-3.64
996.553	5.66
996.979	0.66
997.405	-0.74
997.83	-3.74
998.256	-0.14
998.682	-4.84
999.108	-6.64
999.534	3.76
999.959	-2.54
1000.385	-4.04
1000.811	-2.54
1001.236	-4.74
1001.662	-9.84
1002.087	-12.54
1002.513	2.06
1002.938	-0.04
1003.364	-3.44
1003.789	-0.74
1004.215	5.36
1004.64	0.76
1005.066	7.96
1005.491	-1.14
1005.916	0.46
1006.342	-8.14
1006.767	-4.54
1007.192	4.06
1007.617	-5.74
1008.042	-3.44
1008.468	-10.54
1008.893	-2.04
1009.318	-6.54
1009.743	-0.54
1010.168	7.86
1010.593	5.76
1011.018	-2.14
1011.443	-4.34
1011.868	3.46
1012.293	-10.94
1012.718	-4.34
1013.143	-1.04
1013.567	3.56
1013.992	-0.64
1014.417	-14.34
1014.842	1.46
1015.267	-3.94
1015.691	-1.64
1016.116	0.66
1016.541	-4.04
1016.965	7.26
1017.39	2.36
1017.814	3.96
1018.239	1.26
1018.663	-2.44
1019.088	-11.64
1019.512	-0.54
1019.937	1.06
1020.361	-4.14
1020.785	-8.04
1021.21	-3.84
1021.634	-1.44
1022.058	-0.94
1022.483	3.56
1022.907	-4.14
1023.331	-3.34
1023.755	-4.34
1024.179	-5.64
1024.604	-1.84
1025.028	-4.54
1025.452	-4.34
1025.876	0.16
1026.3	-1.04
1026.724	-9.74
1027.148	-1.74
1027.572	-10.24
1027.996	-6.74
1028.42	-4.74
1028.843	-9.44
1029.267	-8.54
1029.691	-1.54
1030.115	3.36
1030.539	-6.44
1030.962	-6.54
1031.386	-10.24
1031.81	0.06
1032.233	-0.24
1032.657	-4.54
1033.08	-1.64
1033.504	-4.04
1033.927	-4.14
1034.351	-2.84
1034.774	3.06
1035.198	-2.34
1035.621	-9.74
1036.045	-11.04
1036.468	-1.54
1036.891	-13.54
1037.315	-11.14
1037.738	-11.14
1038.161	0.46
1038.584	-0.74
1039.008	-6.64
1039.431	0.86
1039.854	-3.34
1040.277	-2.64
1040.7	-16.04
1041.123	0.46
1041.546	-5.44
1041.969	-3.64
1042.392	-1.44
1042.815	-3.44
1043.238	4.36
1043.661	-2.54
1044.084	-8.74
1044.507	-10.24
1044.93	-5.94
1045.352	-7.34
1045.775	-4.24
1046.198	-0.74
1046.621	-1.44
1047.043	1.06
1047.466	3.86
1047.889	-5.34
1048.311	-2.94
1048.734	0.16
1049.156	-0.74
1049.579	-2.14
1050.001	2.96
1050.424	-2.74
1050.846	-6.04
1051.269	-0.94
1051.691	-7.04
1052.113	0.36
1052.536	-8.94
1052.958	-3.74
1053.38	-2.04
1053.802	-11.64
1054.225	-4.14
1054.647	-8.24
1055.069	-2.34
1055.491	0.96
1055.913	-4.74
1056.335	-0.54
1056.757	-7.04
1057.179	-10.04
1057.601	-0.64
1058.023	-4.24
1058.445	-3.64
1058.867	-6.14
1059.289	-2.54
1059.711	-10.64
1060.133	0.46
1060.555	-8.74
1060.976	-11.04
1061.398	-4.84
1061.82	-11.04
1062.241	-10.64
1062.663	-9.84
1063.085	-8.04
1063.506	-2.54
1063.928	-2.54
1064.35	0.06
1064.771	-12.64
1065.193	-5.84
1065.614	-10.94
1066.035	-3.64
1066.457	-8.54
1066.878	-1.54
1067.3	-8.44
1067.721	-6.44
1068.142	-5.14
1068.564	-5.34
1068.985	-0.04
1069.406	-8.14
1069.827	-1.24
1070.248	-4.14
1070.67	-1.84
1071.091	-6.04
1071.512	-5.24
1071.933	-0.54
1072.354	-6.04
1072.775	-7.44
1073.196	-10.54
1073.617	-0.24
1074.038	-8.44
1074.459	-3.24
1074.88	-6.84
1075.3	-0.54
1075.721	-1.94
1076.142	-2.74
1076.563	0.16
1076.983	-7.84
1077.404	-4.84
1077.825	-6.04
1078.246	-1.24
1078.666	-11.84
1079.087	-3.74
1079.507	-6.84
1079.928	-3.94
1080.348	-2.94
1080.769	-7.14
1081.189	-1.54
1081.61	-1.34
1082.03	-10.64
1082.451	-7.64
1082.871	-9.44
1083.291	-4.04
1083.711	-12.34
1084.132	-1.04
1084.552	-8.64
1084.972	-1.44
1085.392	-13.44
1085.813	-6.44
1086.233	-11.24
1086.653	-4.14
1087.073	-3.94
1087.493	-9.44
1087.913	-8.34
1088.333	-13.04
1088.753	-0.04
1089.173	0.36
1089.593	-3.24
1090.013	3.26
1090.433	-1.64
1090.852	-3.94
1091.272	-0.34
1091.692	-3.84
1092.112	-4.54
1092.531	-7.14
1092.951	-10.64
1093.371	0.76
1093.79	0.86
1094.21	-8.04
1094.63	-0.24
1095.049	-1.34
1095.469	0.16
1095.888	-1.74
1096.308	2.66
1096.727	0.26
1097.146	-7.14
1097.566	-2.04
1097.985	-6.44
1098.405	-3.14
1098.824	-11.34
1099.243	-12.44
1099.662	-13.04
1100.082	-1.94
1100.501	-2.64
1100.92	-4.94
1101.339	-7.44
1101.758	-15.74
