Data from 20171114-ORNL-Ar_H_NY_Subt18_08-09-08-400.txt Node
Date: Tue Nov 14 08:09:08 EST 2017
User: Ender
Spectrometer: HR+D1039
Trigger mode: 0
Integration Time (sec): 2.730000E-2
Scans to average: 10
Electric dark correction enabled: true
Nonlinearity correction enabled: false
Boxcar width: 0
XAxis mode: Wavelengths
Number of Pixels in Spectrum: 2048
>>>>>Begin Spectral Data<<<<<
187.836	-6.78
188.309	-6.78
188.782	-6.78
189.255	4.12
189.728	-1.18
190.201	7.72
190.674	1.72
191.147	-2.28
191.619	-6.78
192.092	3.72
192.565	7.42
193.038	-2.28
193.511	-3.18
193.984	2.22
194.456	-3.18
194.929	-4.18
195.402	0.62
195.874	2.32
196.347	3.02
196.82	-5.28
197.292	1.72
197.765	-3.28
198.237	-10.28
198.71	-0.18
199.182	-3.18
199.655	1.02
200.127	0.22
200.6	1.52
201.072	-0.58
201.544	-8.68
202.017	1.62
202.489	7.52
202.961	-2.08
203.433	-7.08
203.906	-2.38
204.378	-2.28
204.85	-5.98
205.322	-7.88
205.794	-0.68
206.266	-5.68
206.739	-11.98
207.211	-0.78
207.683	-8.78
208.155	-6.58
208.627	-6.98
209.099	-4.78
209.57	-7.08
210.042	-4.48
210.514	-2.48
210.986	2.42
211.458	-11.78
211.93	-9.08
212.402	4.92
212.873	-12.98
213.345	-10.28
213.817	-8.38
214.288	-7.38
214.76	-6.28
215.232	-3.78
215.703	-2.18
216.175	-4.68
216.646	-8.78
217.118	-4.28
217.589	-6.88
218.061	-4.78
218.532	-5.48
219.004	-6.98
219.475	-4.88
219.946	-2.48
220.418	-3.98
220.889	4.22
221.36	-6.58
221.832	-7.18
222.303	-11.48
222.774	-4.08
223.245	-10.78
223.717	-4.48
224.188	-5.78
224.659	-9.48
225.13	-4.58
225.601	-3.68
226.072	0.22
226.543	-1.28
227.014	-2.78
227.485	-5.58
227.956	-2.88
228.427	-0.58
228.898	-0.68
229.369	1.62
229.839	-4.38
230.31	-8.28
230.781	2.62
231.252	-4.28
231.722	-4.18
232.193	-7.48
232.664	-5.88
233.135	-5.98
233.605	-3.78
234.076	-10.78
234.546	-3.68
235.017	1.92
235.487	0.02
235.958	-1.18
236.428	-3.28
236.899	-2.18
237.369	1.12
237.84	-7.78
238.31	4.52
238.78	-1.38
239.251	-6.28
239.721	-6.58
240.191	-9.88
240.662	-8.38
241.132	-5.68
241.602	-7.38
242.072	-4.78
242.542	0.72
243.013	-7.18
243.483	-0.08
243.953	-1.08
244.423	-4.48
244.893	-4.68
245.363	-3.98
245.833	-6.28
246.303	-10.78
246.773	0.32
247.243	-2.58
247.712	2.02
248.182	-2.18
248.652	-0.48
249.122	-16.18
249.592	-4.98
250.061	7.02
250.531	8.82
251.001	2.62
251.471	4.52
251.94	8.12
252.41	-0.28
252.879	-2.98
253.349	0.72
253.818	1.42
254.288	-1.68
254.757	-0.38
255.227	-7.68
255.696	-0.08
256.166	0.62
256.635	3.22
257.105	0.42
257.574	0.32
258.043	0.32
258.513	-0.98
258.982	2.22
259.451	-4.88
259.92	-0.98
260.389	-0.58
260.859	11.42
261.328	4.12
261.797	-2.48
262.266	-3.38
262.735	-2.78
263.204	-1.18
263.673	-8.58
264.142	0.62
264.611	-7.18
265.08	0.22
265.549	-1.18
266.018	-2.68
266.487	-5.38
266.955	-0.58
267.424	-0.08
267.893	0.62
268.362	-3.48
268.83	-0.88
269.299	5.72
269.768	-1.08
270.236	-1.98
270.705	-1.48
271.174	-0.08
271.642	0.92
272.111	-2.68
272.579	2.52
273.048	4.92
273.516	2.62
273.985	-5.88
274.453	3.82
274.922	8.22
275.39	1.82
275.858	-9.78
276.327	6.02
276.795	4.72
277.263	0.52
277.731	8.62
278.2	5.22
278.668	6.32
279.136	7.62
279.604	3.42
280.072	8.82
280.54	6.42
281.008	0.22
281.477	3.22
281.945	13.32
282.413	4.82
282.881	11.72
283.348	4.02
283.816	9.52
284.284	9.92
284.752	19.62
285.22	7.02
285.688	12.02
286.156	5.02
286.623	16.22
287.091	16.82
287.559	8.52
288.026	4.12
288.494	8.62
288.962	-8.18
289.429	-3.58
289.897	10.22
290.364	11.12
290.832	10.32
291.3	7.32
291.767	7.52
292.234	5.62
292.702	2.12
293.169	8.62
293.637	12.02
294.104	9.82
294.571	0.52
295.039	8.42
295.506	7.72
295.973	8.72
296.44	11.02
296.908	8.72
297.375	13.72
297.842	8.82
298.309	6.92
298.776	8.72
299.243	10.52
299.71	3.62
300.177	7.42
300.644	14.12
301.111	15.02
301.578	13.82
302.045	6.32
302.512	14.52
302.979	21.62
303.446	10.52
303.913	8.12
304.379	7.92
304.846	19.02
305.313	18.42
305.78	15.92
306.246	6.52
306.713	15.62
307.18	14.62
307.646	12.42
308.113	14.22
308.579	12.12
309.046	9.52
309.512	15.72
309.979	10.42
310.445	17.82
310.912	19.12
311.378	19.02
311.845	17.12
312.311	20.12
312.777	25.42
313.244	21.02
313.71	28.22
314.176	17.22
314.642	18.52
315.109	17.22
315.575	25.12
316.041	30.32
316.507	15.62
316.973	27.02
317.439	22.12
317.905	24.12
318.371	25.62
318.837	22.22
319.303	23.42
319.769	20.52
320.235	19.62
320.701	23.82
321.167	23.22
321.633	20.22
322.099	24.92
322.564	31.22
323.03	25.02
323.496	19.62
323.962	25.12
324.427	28.32
324.893	30.02
325.359	26.22
325.824	22.72
326.29	23.02
326.755	27.32
327.221	25.72
327.686	24.42
328.152	27.62
328.617	26.02
329.083	37.12
329.548	36.12
330.014	31.22
330.479	30.12
330.944	32.42
331.41	31.92
331.875	35.62
332.34	34.22
332.805	29.82
333.271	33.92
333.736	26.92
334.201	37.72
334.666	35.12
335.131	44.42
335.596	36.52
336.061	35.02
336.526	24.52
336.991	33.32
337.456	36.22
337.921	36.12
338.386	27.62
338.851	40.22
339.316	37.12
339.781	30.72
340.246	37.42
340.711	37.92
341.175	37.12
341.64	31.02
342.105	36.02
342.569	44.32
343.034	50.22
343.499	44.92
343.963	36.12
344.428	49.22
344.893	46.22
345.357	46.92
345.822	44.72
346.286	52.42
346.751	54.42
347.215	53.62
347.679	54.82
348.144	73.82
348.608	57.92
349.073	56.02
349.537	56.62
350.001	57.02
350.465	64.42
350.93	65.82
351.394	63.92
351.858	58.12
352.322	75.02
352.786	65.62
353.25	69.02
353.715	82.42
354.179	73.22
354.643	91.42
355.107	88.32
355.571	80.42
356.035	71.12
356.498	86.12
356.962	87.32
357.426	94.22
357.89	85.62
358.354	66.02
358.818	65.42
359.281	50.22
359.745	57.62
360.209	57.82
360.673	53.02
361.136	58.92
361.6	67.12
362.064	67.02
362.527	70.12
362.991	74.62
363.454	64.72
363.918	57.32
364.381	58.22
364.845	64.42
365.308	68.22
365.772	70.82
366.235	66.52
366.698	65.72
367.162	65.62
367.625	78.72
368.088	70.52
368.552	73.02
369.015	74.52
369.478	76.82
369.941	82.72
370.404	74.52
370.867	82.12
371.331	84.42
371.794	84.72
372.257	80.32
372.72	90.82
373.183	90.12
373.646	82.32
374.109	81.02
374.572	82.32
375.035	85.02
375.497	82.92
375.96	87.92
376.423	83.82
376.886	91.02
377.349	86.22
377.811	83.12
378.274	82.52
378.737	84.72
379.199	92.52
379.662	91.62
380.125	100.72
380.587	91.62
381.05	91.02
381.512	100.32
381.975	108.02
382.437	95.22
382.9	103.62
383.362	102.82
383.825	111.92
384.287	107.82
384.75	104.62
385.212	114.82
385.674	116.82
386.136	108.72
386.599	105.82
387.061	101.62
387.523	111.12
387.985	108.12
388.447	115.52
388.91	113.82
389.372	119.92
389.834	117.52
390.296	113.52
390.758	118.12
391.22	125.72
391.682	143.92
392.144	168.52
392.606	143.22
393.068	136.62
393.529	132.62
393.991	128.82
394.453	120.22
394.915	119.62
395.377	121.22
395.838	131.82
396.3	126.02
396.762	126.42
397.224	122.42
397.685	109.22
398.147	109.92
398.608	117.72
399.07	124.02
399.531	121.32
399.993	127.72
400.454	131.82
400.916	132.72
401.377	135.12
401.839	137.02
402.3	137.12
402.762	137.82
403.223	156.42
403.684	148.92
404.145	142.62
404.607	142.92
405.068	149.22
405.529	152.52
405.99	162.22
406.451	152.42
406.913	159.32
407.374	148.62
407.835	145.32
408.296	149.82
408.757	156.42
409.218	171.02
409.679	163.72
410.14	154.62
410.601	153.92
411.062	165.22
411.522	163.32
411.983	166.82
412.444	156.62
412.905	163.32
413.366	167.32
413.826	183.02
414.287	200.32
414.748	250.42
415.208	225.12
415.669	194.42
416.13	187.52
416.59	188.12
417.051	194.02
417.511	199.92
417.972	227.72
418.432	225.42
418.893	273.22
419.353	231.92
419.814	180.82
420.274	175.32
420.734	171.72
421.195	176.12
421.655	183.92
422.115	176.72
422.576	182.62
423.036	189.52
423.496	197.52
423.956	202.12
424.416	211.02
424.876	242.82
425.336	240.92
425.797	242.22
426.257	235.52
426.717	221.62
427.177	217.62
427.637	203.02
428.097	209.92
428.556	227.82
429.016	248.42
429.476	243.42
429.936	245.22
430.396	261.72
430.856	269.92
431.315	291.72
431.775	322.22
432.235	348.82
432.694	321.62
433.154	328.92
433.614	354.52
434.073	305.52
434.533	260.52
434.993	248.92
435.452	262.72
435.912	267.62
436.371	258.22
436.83	258.92
437.29	247.32
437.749	232.92
438.209	226.12
438.668	248.82
439.127	258.92
439.587	238.32
440.046	233.82
440.505	241.22
440.964	257.02
441.424	296.02
441.883	281.82
442.342	242.12
442.801	210.22
443.26	210.52
443.719	212.12
444.178	210.72
444.637	196.22
445.096	211.02
445.555	211.72
446.014	212.72
446.473	223.52
446.932	226.82
447.391	217.52
447.849	224.82
448.308	213.12
448.767	216.12
449.226	225.82
449.685	230.42
450.143	238.32
450.602	227.92
451.061	217.22
451.519	215.52
451.978	227.72
452.436	218.92
452.895	227.82
453.353	241.42
453.812	228.92
454.27	232.12
454.729	231.22
455.187	229.42
455.646	237.32
456.104	234.52
456.562	263.02
457.021	249.02
457.479	248.92
457.937	259.72
458.395	254.82
458.854	242.12
459.312	242.92
459.77	270.62
460.228	248.22
460.686	234.92
461.144	239.42
461.602	236.92
462.06	236.12
462.518	249.22
462.976	252.72
463.434	248.42
463.892	246.42
464.35	268.12
464.808	275.82
465.266	257.02
465.724	261.52
466.181	266.42
466.639	261.12
467.097	279.42
467.555	291.92
468.012	290.12
468.47	299.22
468.928	314.42
469.385	323.32
469.843	325.12
470.3	341.62
470.758	346.62
471.215	362.72
471.673	389.62
472.13	380.42
472.588	407.62
473.045	355.92
473.503	369.52
473.96	379.52
474.417	383.42
474.875	414.02
475.332	458.62
475.789	446.42
476.246	454.92
476.704	454.02
477.161	497.52
477.618	496.02
478.075	540.42
478.532	589.12
478.989	658.22
479.446	756.12
479.903	721.92
480.36	748.92
480.817	797.12
481.274	888.42
481.731	971.02
482.188	1051.22
482.645	1158.02
483.102	1238.82
483.558	1379.02
484.015	1411.32
484.472	1381.82
484.929	1338.12
485.385	1301.02
485.842	1263.92
486.299	1223.12
486.755	1181.82
487.212	1002.72
487.668	854.82
488.125	791.62
488.582	733.72
489.038	698.52
489.494	670.42
489.951	649.72
490.407	631.12
490.864	617.12
491.32	607.12
491.776	615.32
492.233	618.62
492.689	596.12
493.145	583.62
493.602	573.22
494.058	597.82
494.514	592.92
494.97	611.12
495.426	612.62
495.882	594.02
496.338	596.92
496.794	604.42
497.251	595.02
497.707	612.62
498.163	611.12
498.618	613.02
499.074	624.02
499.53	641.62
499.986	644.12
500.442	626.92
500.898	607.22
501.354	593.82
501.809	605.32
502.265	613.32
502.721	615.02
503.177	620.32
503.632	628.32
504.088	626.82
504.543	655.52
504.999	680.72
505.455	628.72
505.91	620.82
506.366	618.42
506.821	611.02
507.277	602.22
507.732	609.02
508.187	617.62
508.643	614.02
509.098	621.22
509.553	642.52
510.009	648.42
510.464	652.72
510.919	684.22
511.375	670.02
511.83	680.02
512.285	703.82
512.74	738.42
513.195	753.02
513.65	759.82
514.105	747.42
514.56	739.82
515.015	763.22
515.47	772.62
515.925	759.72
516.38	758.02
516.835	754.32
517.29	761.52
517.745	754.12
518.2	746.22
518.655	724.62
519.109	728.52
519.564	723.72
520.019	713.42
520.474	709.22
520.928	704.62
521.383	698.22
521.838	691.62
522.292	706.62
522.747	692.42
523.201	689.62
523.656	672.12
524.11	690.42
524.565	686.22
525.019	672.82
525.474	692.12
525.928	676.22
526.382	681.52
526.837	682.02
527.291	691.52
527.745	677.92
528.2	685.12
528.654	683.52
529.108	676.62
529.562	672.72
530.016	667.02
530.47	679.32
530.925	680.52
531.379	676.62
531.833	681.42
532.287	689.12
532.741	682.12
533.195	686.42
533.649	697.52
534.103	699.72
534.556	695.22
535.01	698.22
535.464	688.62
535.918	688.42
536.372	704.92
536.826	700.32
537.279	681.12
537.733	697.12
538.187	692.42
538.64	693.12
539.094	716.12
539.548	707.72
540.001	703.22
540.455	711.82
540.908	712.52
541.362	717.42
541.815	735.32
542.269	745.92
542.722	743.12
543.175	754.72
543.629	754.02
544.082	780.02
544.536	770.02
544.989	770.82
545.442	780.62
545.895	783.22
546.349	774.42
546.802	772.02
547.255	788.22
547.708	790.72
548.161	801.82
548.614	806.42
549.067	808.62
549.52	816.72
549.973	800.92
550.426	792.42
550.879	782.72
551.332	797.52
551.785	797.52
552.238	793.22
552.691	812.12
553.144	829.52
553.596	831.02
554.049	844.32
554.502	880.82
554.955	897.52
555.407	900.22
555.86	890.82
556.313	879.72
556.765	877.82
557.218	866.12
557.67	871.42
558.123	852.62
558.576	857.82
559.028	866.72
559.48	868.12
559.933	866.52
560.385	820.92
560.838	795.92
561.29	777.92
561.742	772.22
562.195	755.12
562.647	765.22
563.099	762.52
563.551	760.22
564.004	771.92
564.456	765.42
564.908	753.22
565.36	732.52
565.812	725.02
566.264	713.12
566.716	715.82
567.168	687.42
567.62	709.72
568.072	693.62
568.524	695.62
568.976	686.92
569.428	668.42
569.88	680.42
570.332	682.42
570.784	675.72
571.235	676.22
571.687	695.52
572.139	703.82
572.59	711.72
573.042	702.52
573.494	702.22
573.945	697.52
574.397	680.02
574.849	678.62
575.3	687.02
575.752	678.72
576.203	671.22
576.655	675.92
577.106	665.32
577.557	658.12
578.009	665.92
578.46	659.52
578.912	656.12
579.363	665.42
579.814	655.62
580.265	658.02
580.717	649.32
581.168	673.42
581.619	666.72
582.07	677.42
582.521	674.22
582.972	665.62
583.423	672.42
583.875	666.62
584.326	680.92
584.777	706.42
585.227	730.22
585.678	768.32
586.129	802.42
586.58	823.82
587.031	869.62
587.482	914.12
587.933	980.72
588.384	925.12
588.834	824.72
589.285	777.52
589.736	777.52
590.186	764.52
590.637	763.12
591.088	744.02
591.538	734.42
591.989	728.12
592.439	719.62
592.89	723.52
593.34	707.92
593.791	706.62
594.241	693.92
594.692	695.82
595.142	698.22
595.593	691.62
596.043	704.12
596.493	704.92
596.943	712.52
597.394	714.82
597.844	713.92
598.294	727.72
598.744	753.42
599.195	787.92
599.645	821.02
600.095	866.02
600.545	922.32
600.995	977.62
601.445	1032.92
601.895	1079.62
602.345	1133.82
602.795	1104.92
603.245	1064.02
603.695	1008.02
604.145	955.92
604.594	916.72
605.044	856.42
605.494	796.62
605.944	753.92
606.393	744.52
606.843	723.22
607.293	727.72
607.743	729.72
608.192	743.52
608.642	749.12
609.091	763.22
609.541	768.32
609.99	765.32
610.44	753.02
610.889	713.42
611.339	700.92
611.788	676.52
612.238	695.72
612.687	710.22
613.136	705.22
613.586	714.12
614.035	707.52
614.484	714.72
614.933	717.72
615.383	716.32
615.832	709.82
616.281	709.82
616.73	673.62
617.179	648.32
617.628	641.92
618.077	627.72
618.526	624.52
618.975	615.82
619.424	605.82
619.873	607.12
620.322	616.02
620.771	603.82
621.22	599.42
621.669	593.92
622.118	582.32
622.567	578.42
623.015	569.72
623.464	576.62
623.913	558.82
624.361	541.82
624.81	544.72
625.259	559.82
625.707	561.62
626.156	547.12
626.604	563.52
627.053	559.02
627.501	569.12
627.95	560.32
628.398	576.42
628.847	571.82
629.295	579.32
629.744	578.22
630.192	570.62
630.64	563.22
631.089	559.52
631.537	547.62
631.985	545.62
632.433	546.82
632.881	543.02
633.33	557.22
633.778	550.82
634.226	520.62
634.674	537.92
635.122	549.02
635.57	563.72
636.018	579.82
636.466	568.62
636.914	553.32
637.362	557.32
637.81	574.62
638.258	573.32
638.705	577.72
639.153	603.62
639.601	624.62
640.049	657.32
640.497	677.82
640.944	696.22
641.392	639.92
641.84	615.22
642.287	583.52
642.735	564.12
643.182	560.42
643.63	566.92
644.078	565.92
644.525	574.62
644.973	583.32
645.42	594.82
645.867	609.42
646.315	628.12
646.762	649.52
647.21	687.82
647.657	708.62
648.104	739.22
648.551	753.12
648.999	823.22
649.446	887.52
649.893	976.22
650.34	1120.22
650.787	1323.92
651.234	1638.42
651.682	2139.02
652.129	2898.92
652.576	4151.52
653.023	6081.72
653.47	8178.72
653.917	10123.52
654.363	11545.72
654.81	12680.62
655.257	11999.02
655.704	7930.52
656.151	4759.12
656.598	3118.92
657.044	2243.52
657.491	1743.02
657.938	1401.32
658.385	1176.32
658.831	1032.52
659.278	924.52
659.724	822.32
660.171	768.32
660.618	711.42
661.064	679.42
661.511	665.82
661.957	646.52
662.404	633.42
662.85	641.42
663.296	614.82
663.743	562.92
664.189	535.72
664.635	538.22
665.082	531.32
665.528	523.72
665.974	513.12
666.42	517.62
666.867	508.02
667.313	487.32
667.759	463.32
668.205	454.32
668.651	469.42
669.097	449.92
669.543	450.62
669.989	450.42
670.435	445.52
670.881	448.92
671.327	450.72
671.773	484.22
672.219	490.72
672.665	557.32
673.11	593.52
673.556	644.72
674.002	683.92
674.448	674.22
674.893	564.82
675.339	486.72
675.785	445.62
676.23	425.62
676.676	402.02
677.122	388.82
677.567	380.82
678.013	371.72
678.458	362.82
678.904	357.52
679.349	353.12
679.794	358.02
680.24	353.72
680.685	355.52
681.131	347.62
681.576	359.12
682.021	373.32
682.466	355.62
682.912	355.82
683.357	362.12
683.802	391.42
684.247	425.12
684.692	474.92
685.137	509.72
685.583	549.62
686.028	580.02
686.473	524.52
686.918	457.52
687.363	418.62
687.807	401.12
688.252	377.72
688.697	360.92
689.142	345.72
689.587	339.52
690.032	334.92
690.477	347.12
690.921	361.52
691.366	396.62
691.811	416.72
692.255	442.72
692.7	476.12
693.145	516.72
693.589	747.02
694.034	1204.22
694.478	1586.12
694.923	1766.42
695.367	2288.82
695.812	1209.72
696.256	501.92
696.701	377.32
697.145	343.02
697.59	337.22
698.034	321.02
698.478	335.82
698.922	326.62
699.367	326.02
699.811	342.12
700.255	365.22
700.699	400.92
701.143	436.22
701.588	484.92
702.032	519.32
702.476	516.72
702.92	501.02
703.364	515.32
703.808	677.52
704.252	1091.12
704.696	1511.02
705.14	1698.72
705.584	2157.22
706.027	1091.22
706.471	544.52
706.915	403.42
707.359	363.92
707.803	328.62
708.246	321.72
708.69	317.92
709.134	320.82
709.577	321.52
710.021	326.72
710.465	310.92
710.908	306.12
711.352	304.92
711.795	316.52
712.239	365.32
712.682	395.22
713.126	411.72
713.569	467.22
714.012	366.42
714.456	310.92
714.899	299.72
715.342	279.62
715.786	267.52
716.229	252.62
716.672	265.92
717.115	260.02
717.558	253.32
718.002	250.92
718.445	269.52
718.888	285.62
719.331	300.62
719.774	312.62
720.217	310.92
720.66	290.52
721.103	265.92
721.546	258.62
721.989	254.72
722.432	243.42
722.874	241.02
723.317	233.12
723.76	244.12
724.203	259.62
724.645	329.42
725.088	459.92
725.531	593.72
725.974	655.12
726.416	561.22
726.859	310.42
727.301	252.42
727.744	241.82
728.187	234.72
728.629	247.12
729.071	251.22
729.514	268.02
729.956	280.92
730.399	290.22
730.841	293.72
731.283	274.82
731.726	273.52
732.168	262.42
732.61	280.42
733.053	300.42
733.495	320.12
733.937	361.82
734.379	415.72
734.821	457.12
735.263	569.42
735.705	898.92
736.148	1703.72
736.59	2718.82
737.032	3099.02
737.474	2527.82
737.916	841.22
738.357	437.02
738.799	335.22
739.241	305.02
739.683	287.62
740.125	292.62
740.567	300.72
741.008	325.62
741.45	322.52
741.892	324.82
742.334	361.42
742.775	373.02
743.217	356.52
743.658	285.32
744.1	262.62
744.542	268.82
744.983	323.82
745.425	355.02
745.866	359.52
746.307	285.82
746.749	282.72
747.19	331.32
747.632	490.92
748.073	959.42
748.514	2001.72
748.956	2960.22
749.397	3724.22
749.838	3075.42
750.279	2994.42
750.72	1546.22
751.162	566.92
751.603	336.62
752.044	261.72
752.485	219.02
752.926	215.82
753.367	203.52
753.808	197.92
754.249	193.12
754.69	185.52
755.131	189.02
755.572	180.22
756.013	181.02
756.453	188.22
756.894	198.12
757.335	197.62
757.776	200.22
758.216	203.72
758.657	201.42
759.098	213.52
759.538	229.92
759.979	277.52
760.42	396.52
760.86	771.42
761.301	2023.42
761.741	4710.02
762.182	6534.02
762.622	4610.12
763.063	1353.62
763.503	554.72
763.943	344.62
764.384	292.22
764.824	286.42
765.264	278.42
765.705	230.82
766.145	192.92
766.585	182.02
767.025	183.32
767.465	171.62
767.906	196.52
768.346	228.82
768.786	243.32
769.226	236.62
769.666	327.02
770.106	679.22
770.546	1685.32
770.986	2711.82
771.426	2396.32
771.866	816.72
772.306	341.12
772.745	218.02
773.185	171.52
773.625	161.52
774.065	152.92
774.505	183.22
774.944	240.62
775.384	444.92
775.824	711.92
776.263	682.72
776.703	325.42
777.142	178.32
777.582	147.92
778.021	134.12
778.461	133.52
778.9	134.42
779.34	131.32
779.779	114.12
780.219	116.22
780.658	111.42
781.097	110.82
781.537	114.72
781.976	112.92
782.415	112.52
782.855	105.62
783.294	94.82
783.733	106.02
784.172	107.12
784.611	106.52
785.05	107.12
785.489	114.42
785.928	120.32
786.367	119.02
786.806	123.62
787.245	128.62
787.684	138.22
788.123	147.82
788.562	131.42
789.001	124.32
789.44	122.92
789.879	116.92
790.317	125.32
790.756	130.62
791.195	132.52
791.634	152.22
792.072	208.82
792.511	393.02
792.95	1099.12
793.388	2188.12
793.827	1930.72
794.265	699.72
794.704	296.62
795.142	189.82
795.581	157.92
796.019	145.62
796.458	126.82
796.896	131.02
797.334	141.52
797.773	161.32
798.211	232.42
798.649	477.42
799.087	1083.32
799.526	1675.92
799.964	2108.32
800.402	2031.32
800.84	779.72
801.278	313.92
801.716	193.62
802.154	157.12
802.592	151.12
803.03	150.02
803.468	141.22
803.906	143.72
804.344	152.62
804.782	142.62
805.22	138.12
805.658	138.52
806.096	161.02
806.533	164.02
806.971	187.22
807.409	228.82
807.847	335.62
808.284	730.02
808.722	2031.52
809.16	3399.42
809.597	3351.52
810.035	5714.62
810.472	5832.42
810.91	2160.32
811.347	832.82
811.785	427.42
812.222	264.22
812.66	199.12
813.097	163.82
813.535	149.92
813.972	138.12
814.409	120.82
814.846	110.92
815.284	104.72
815.721	104.72
816.158	109.12
816.595	115.02
817.032	163.22
817.47	182.52
817.907	121.22
818.344	108.52
818.781	103.82
819.218	102.22
819.655	122.72
820.092	200.42
820.529	217.42
820.966	174.22
821.403	128.42
821.839	107.12
822.276	102.12
822.713	129.52
823.15	139.82
823.587	122.12
824.023	150.82
824.46	336.62
824.897	971.32
825.333	1374.22
825.77	593.42
826.206	240.02
826.643	140.82
827.08	108.92
827.516	89.12
827.953	88.92
828.389	81.62
828.825	76.42
829.262	77.22
829.698	66.42
830.135	64.22
830.571	55.72
831.007	62.62
831.443	71.52
831.88	62.22
832.316	67.22
832.752	62.12
833.188	69.22
833.624	65.92
834.06	72.42
834.497	65.72
834.933	71.22
835.369	70.22
835.805	65.62
836.241	78.82
836.677	80.52
837.112	94.82
837.548	108.92
837.984	139.82
838.42	219.52
838.856	540.32
839.292	1615.62
839.727	2339.22
840.163	1111.62
840.599	998.72
841.034	2121.72
841.47	2133.02
841.906	804.82
842.341	338.72
842.777	213.62
843.212	227.02
843.648	211.62
844.083	123.62
844.519	86.52
844.954	78.72
845.39	63.42
845.825	64.52
846.261	55.12
846.696	64.52
847.131	59.22
847.566	56.22
848.002	49.52
848.437	51.42
848.872	64.92
849.307	58.32
849.742	96.92
850.177	203.32
850.613	586.22
851.048	894.92
851.483	396.52
851.918	166.02
852.353	87.12
852.788	57.32
853.223	51.12
853.657	53.52
854.092	50.12
854.527	43.22
854.962	47.12
855.397	43.82
855.832	53.52
856.266	45.12
856.701	39.42
857.136	39.62
857.57	45.62
858.005	47.52
858.44	58.62
858.874	45.32
859.309	50.22
859.743	46.02
860.178	45.92
860.612	41.22
861.047	50.02
861.481	65.82
861.915	75.92
862.35	55.72
862.784	37.22
863.218	38.82
863.653	36.72
864.087	46.82
864.521	56.22
864.955	63.92
865.39	155.02
865.824	183.02
866.258	123.92
866.692	177.42
867.126	186.32
867.56	107.52
867.994	56.02
868.428	43.22
868.862	50.42
869.296	53.32
869.73	55.52
870.164	57.02
870.598	48.92
871.031	36.52
871.465	31.82
871.899	34.92
872.333	24.72
872.766	24.32
873.2	19.52
873.634	25.42
874.067	26.52
874.501	25.52
874.935	33.92
875.368	32.22
875.802	30.22
876.235	23.92
876.669	26.02
877.102	20.72
877.535	21.92
877.969	22.42
878.402	22.92
878.836	15.82
879.269	26.42
879.702	20.42
880.135	21.02
880.569	16.72
881.002	29.12
881.435	19.92
881.868	15.22
882.301	24.62
882.734	21.52
883.167	24.02
883.601	19.32
884.034	25.52
884.467	15.92
884.899	23.12
885.332	17.52
885.765	12.12
886.198	23.12
886.631	18.12
887.064	20.52
887.497	20.92
887.929	26.12
888.362	18.82
888.795	12.12
889.228	11.22
889.66	14.72
890.093	15.72
890.526	19.62
890.958	9.82
891.391	13.32
891.823	25.32
892.256	13.12
892.688	10.52
893.121	15.52
893.553	11.82
893.985	22.72
894.418	17.32
894.85	9.82
895.282	15.42
895.715	13.32
896.147	18.32
896.579	18.72
897.011	12.02
897.444	14.62
897.876	15.32
898.308	14.32
898.74	19.42
899.172	13.12
899.604	24.22
900.036	21.62
900.468	16.92
900.9	18.22
901.332	17.32
901.764	13.62
902.196	22.42
902.628	13.82
903.06	17.92
903.491	32.22
903.923	27.52
904.355	22.42
904.787	24.82
905.218	21.22
905.65	15.22
906.082	14.52
906.513	11.52
906.945	15.82
907.376	12.92
907.808	14.02
908.239	21.62
908.671	21.52
909.102	21.62
909.534	22.02
909.965	44.32
910.397	97.92
910.828	328.42
911.259	482.02
911.691	217.22
912.122	112.82
912.553	50.02
912.984	35.42
913.415	22.82
913.847	24.92
914.278	12.12
914.709	14.32
915.14	19.32
915.571	16.02
916.002	15.72
916.433	14.12
916.864	15.32
917.295	13.62
917.726	22.22
918.157	15.22
918.587	29.92
919.018	23.52
919.449	17.72
919.88	28.32
920.311	33.72
920.741	53.32
921.172	172.22
921.603	146.22
922.033	69.52
922.464	48.72
922.895	17.82
923.325	17.12
923.756	10.82
924.186	11.02
924.617	20.52
925.047	28.12
925.478	33.12
925.908	33.02
926.338	16.72
926.769	15.02
927.199	16.72
927.629	10.52
928.06	20.62
928.49	15.62
928.92	12.42
929.35	13.42
929.78	9.02
930.21	5.32
930.641	7.62
931.071	2.92
931.501	2.82
931.931	9.32
932.361	6.12
932.791	5.22
933.221	4.42
933.651	1.72
934.08	15.22
934.51	32.72
934.94	9.82
935.37	8.12
935.8	7.32
936.229	7.92
936.659	9.22
937.089	4.42
937.519	12.62
937.948	31.02
938.378	12.52
938.807	4.82
939.237	0.92
939.666	7.22
940.096	-0.38
940.525	2.72
940.955	-0.68
941.384	3.62
941.814	-2.28
942.243	3.02
942.672	3.92
943.102	3.22
943.531	-0.78
943.96	-0.18
944.39	4.12
944.819	-0.48
945.248	-3.58
945.677	-1.38
946.106	6.42
946.535	0.32
946.964	3.32
947.393	-2.28
947.822	-1.28
948.251	-6.68
948.68	9.32
949.109	1.12
949.538	4.32
949.967	5.02
950.396	-0.38
950.825	1.02
951.254	5.52
951.682	-0.98
952.111	4.42
952.54	2.42
952.969	-3.08
953.397	-7.18
953.826	0.62
954.254	-6.38
954.683	0.42
955.112	-0.18
955.54	-1.38
955.969	-1.98
956.397	-5.58
956.826	-2.38
957.254	5.62
957.682	-0.38
958.111	-1.98
958.539	-2.58
958.967	5.12
959.396	-0.48
959.824	0.82
960.252	-2.88
960.68	-5.68
961.109	-1.38
961.537	-1.18
961.965	-4.18
962.393	1.62
962.821	-8.08
963.249	5.42
963.677	7.22
964.105	4.72
964.533	46.42
964.961	42.22
965.389	27.02
965.817	7.52
966.245	3.02
966.672	-5.28
967.1	-3.08
967.528	-3.98
967.956	0.92
968.383	2.42
968.811	-2.28
969.239	-3.78
969.666	-4.18
970.094	2.82
970.522	-4.18
970.949	4.22
971.377	-3.98
971.804	-2.38
972.232	-3.78
972.659	-1.58
973.087	-3.48
973.514	-4.68
973.941	-5.78
974.369	-1.28
974.796	1.12
975.223	-1.18
975.651	-8.08
976.078	4.52
976.505	5.82
976.932	5.22
977.359	17.22
977.786	13.12
978.214	3.22
978.641	-3.38
979.068	-3.68
979.495	-7.38
979.922	-0.18
980.349	-3.08
980.776	4.42
981.202	0.22
981.629	3.42
982.056	4.22
982.483	-7.98
982.91	3.22
983.337	-11.88
983.763	2.52
984.19	-5.88
984.617	-6.78
985.043	-6.88
985.47	2.82
985.897	-3.98
986.323	-5.58
986.75	3.72
987.176	-4.48
987.603	-1.98
988.029	0.02
988.456	-2.58
988.882	1.12
989.308	-0.18
989.735	-2.88
990.161	5.52
990.587	-4.68
991.014	4.52
991.44	9.52
991.866	-0.78
992.292	-6.18
992.719	-4.78
993.145	2.32
993.571	-13.78
993.997	-2.08
994.423	3.72
994.849	-3.48
995.275	0.52
995.701	-2.28
996.127	-1.98
996.553	-4.08
996.979	-0.98
997.405	-5.58
997.83	-11.18
998.256	-5.58
998.682	-7.28
999.108	-9.38
999.534	-0.98
999.959	-6.98
1000.385	-9.38
1000.811	2.92
1001.236	-13.68
1001.662	-11.28
1002.087	-11.58
1002.513	-1.38
1002.938	-3.88
1003.364	1.32
1003.789	4.32
1004.215	8.52
1004.64	-1.58
1005.066	4.12
1005.491	2.32
1005.916	-7.08
1006.342	-0.18
1006.767	-8.08
1007.192	8.92
1007.617	-9.68
1008.042	-7.68
1008.468	-3.28
1008.893	-4.78
1009.318	3.02
1009.743	-1.98
1010.168	1.52
1010.593	-0.98
1011.018	-3.98
1011.443	-2.38
1011.868	1.02
1012.293	-5.98
1012.718	-4.38
1013.143	2.82
1013.567	-1.98
1013.992	-4.48
1014.417	-14.58
1014.842	0.92
1015.267	-11.08
1015.691	-4.08
1016.116	7.22
1016.541	-2.68
1016.965	5.32
1017.39	-2.58
1017.814	2.62
1018.239	6.02
1018.663	-6.88
1019.088	-13.08
1019.512	-2.18
1019.937	0.42
1020.361	-2.38
1020.785	-7.08
1021.21	-4.48
1021.634	-0.78
1022.058	-0.58
1022.483	0.02
1022.907	-10.18
1023.331	-2.48
1023.755	-2.18
1024.179	-4.48
1024.604	-3.88
1025.028	-8.08
1025.452	-9.58
1025.876	-2.38
1026.3	-0.98
1026.724	-12.18
1027.148	-6.08
1027.572	-6.28
1027.996	-3.48
1028.42	-0.28
1028.843	-6.18
1029.267	-3.38
1029.691	-3.88
1030.115	-11.68
1030.539	-7.48
1030.962	-6.78
1031.386	-9.08
1031.81	-3.88
1032.233	0.22
1032.657	1.52
1033.08	-0.48
1033.504	-4.08
1033.927	-3.88
1034.351	-2.78
1034.774	-5.18
1035.198	-4.48
1035.621	-5.78
1036.045	-3.98
1036.468	0.02
1036.891	-10.58
1037.315	-14.48
1037.738	-9.78
1038.161	-1.48
1038.584	-6.38
1039.008	-1.58
1039.431	-5.08
1039.854	0.72
1040.277	-8.38
1040.7	-9.78
1041.123	-2.28
1041.546	-6.78
1041.969	-9.08
1042.392	-10.18
1042.815	1.82
1043.238	-3.38
1043.661	2.42
1044.084	-10.38
1044.507	4.32
1044.93	-6.48
1045.352	-1.68
1045.775	4.72
1046.198	-8.98
1046.621	0.82
1047.043	2.12
1047.466	10.32
1047.889	-5.88
1048.311	-5.88
1048.734	0.02
1049.156	-7.68
1049.579	-2.78
1050.001	-2.18
1050.424	2.12
1050.846	-0.58
1051.269	0.42
1051.691	-11.78
1052.113	-10.38
1052.536	1.42
1052.958	3.42
1053.38	-5.18
1053.802	-8.18
1054.225	-4.78
1054.647	-9.18
1055.069	-2.48
1055.491	-2.48
1055.913	-10.98
1056.335	-3.48
1056.757	-6.28
1057.179	-9.18
1057.601	-13.68
1058.023	-1.98
1058.445	-3.08
1058.867	-5.88
1059.289	-5.68
1059.711	-4.98
1060.133	-1.18
1060.555	-3.78
1060.976	-7.48
1061.398	-9.68
1061.82	-12.58
1062.241	-2.18
1062.663	-5.18
1063.085	-5.28
1063.506	-4.08
1063.928	-3.88
1064.35	-4.28
1064.771	-15.48
1065.193	-6.08
1065.614	-9.38
1066.035	-7.98
1066.457	1.82
1066.878	1.42
1067.3	-3.98
1067.721	-8.68
1068.142	-5.08
1068.564	-6.68
1068.985	-4.98
1069.406	-0.98
1069.827	-4.58
1070.248	-3.88
1070.67	-6.58
1071.091	-7.08
1071.512	-1.48
1071.933	-9.18
1072.354	-10.08
1072.775	-4.28
1073.196	-13.38
1073.617	-7.28
1074.038	-5.98
1074.459	-4.28
1074.88	-9.38
1075.3	-0.18
1075.721	-6.38
1076.142	4.02
1076.563	0.12
1076.983	-10.08
1077.404	-6.78
1077.825	-5.18
1078.246	-8.68
1078.666	-9.28
1079.087	-10.08
1079.507	-5.18
1079.928	-0.28
1080.348	-1.38
1080.769	-4.28
1081.189	-0.18
1081.61	-1.68
1082.03	-12.18
1082.451	-9.38
1082.871	-4.88
1083.291	-7.18
1083.711	-4.18
1084.132	-2.88
1084.552	-1.68
1084.972	-2.08
1085.392	-7.98
1085.813	-9.58
1086.233	-2.98
1086.653	-5.18
1087.073	0.02
1087.493	-4.28
1087.913	-6.78
1088.333	-13.48
1088.753	-5.98
1089.173	7.92
1089.593	-1.48
1090.013	-0.98
1090.433	0.42
1090.852	-5.48
1091.272	-4.48
1091.692	-2.18
1092.112	-8.38
1092.531	-8.78
1092.951	-11.08
1093.371	-4.28
1093.79	-3.68
1094.21	-6.78
1094.63	2.02
1095.049	-7.48
1095.469	-3.38
1095.888	-2.98
1096.308	-2.68
1096.727	1.22
1097.146	-8.58
1097.566	-3.58
1097.985	-9.48
1098.405	-1.78
1098.824	-8.08
1099.243	-4.68
1099.662	-11.18
1100.082	-6.88
1100.501	-2.28
1100.92	-6.38
1101.339	-2.08
1101.758	-12.68
