Data from 20171114-ORNL-Ar_H_NY_Subt18_08-07-52-727.txt Node
Date: Tue Nov 14 08:07:52 EST 2017
User: Ender
Spectrometer: HR+D1039
Trigger mode: 0
Integration Time (sec): 2.730000E-2
Scans to average: 10
Electric dark correction enabled: true
Nonlinearity correction enabled: false
Boxcar width: 0
XAxis mode: Wavelengths
Number of Pixels in Spectrum: 2048
>>>>>Begin Spectral Data<<<<<
187.836	-2.62
188.309	-2.62
188.782	-2.62
189.255	-1.62
189.728	-1.52
190.201	1.98
190.674	3.58
191.147	1.18
191.619	-6.52
192.092	2.98
192.565	2.68
193.038	2.58
193.511	-3.02
193.984	4.68
194.456	0.18
194.929	-0.52
195.402	-4.92
195.874	0.88
196.347	2.88
196.82	-2.82
197.292	4.18
197.765	-0.82
198.237	-2.62
198.71	0.58
199.182	-3.82
199.655	5.18
200.127	4.88
200.6	-1.32
201.072	-3.22
201.544	-2.42
202.017	-1.82
202.489	3.48
202.961	-4.12
203.433	-2.12
203.906	-7.52
204.378	-3.02
204.85	-2.72
205.322	-5.72
205.794	-0.02
206.266	-4.82
206.739	-3.02
207.211	-2.12
207.683	-3.82
208.155	-5.22
208.627	-4.72
209.099	-1.32
209.57	-10.32
210.042	-1.02
210.514	-5.92
210.986	1.28
211.458	-7.22
211.93	-4.92
212.402	0.68
212.873	-6.52
213.345	-7.52
213.817	-12.92
214.288	-5.42
214.76	-12.12
215.232	-1.92
215.703	-1.82
216.175	1.58
216.646	-7.82
217.118	-10.82
217.589	-5.32
218.061	-1.82
218.532	-1.12
219.004	-3.52
219.475	-4.92
219.946	-0.82
220.418	1.48
220.889	-3.82
221.36	4.88
221.832	0.08
222.303	-10.82
222.774	6.98
223.245	-9.52
223.717	1.38
224.188	-4.12
224.659	-3.82
225.13	-8.42
225.601	-0.92
226.072	4.08
226.543	-5.42
227.014	2.98
227.485	0.08
227.956	-4.22
228.427	-1.02
228.898	3.18
229.369	7.08
229.839	-3.22
230.31	-8.32
230.781	1.58
231.252	0.88
231.722	-6.72
232.193	-2.52
232.664	5.18
233.135	3.88
233.605	1.38
234.076	-6.22
234.546	2.88
235.017	5.48
235.487	3.98
235.958	-1.12
236.428	-3.22
236.899	4.08
237.369	5.48
237.84	-6.02
238.31	6.48
238.78	-3.72
239.251	-3.62
239.721	4.28
240.191	1.58
240.662	1.88
241.132	2.38
241.602	2.38
242.072	-4.82
242.542	10.88
243.013	-0.52
243.483	2.98
243.953	2.38
244.423	-4.22
244.893	-2.32
245.363	1.58
245.833	5.98
246.303	-2.12
246.773	2.48
247.243	4.18
247.712	-2.52
248.182	7.08
248.652	7.98
249.122	4.98
249.592	12.98
250.061	20.18
250.531	24.68
251.001	15.88
251.471	15.28
251.94	11.58
252.41	12.08
252.879	-2.62
253.349	15.98
253.818	5.38
254.288	4.68
254.757	3.28
255.227	5.38
255.696	3.48
256.166	3.88
256.635	12.48
257.105	6.88
257.574	6.88
258.043	5.68
258.513	10.78
258.982	13.58
259.451	11.88
259.92	4.28
260.389	10.88
260.859	19.98
261.328	4.58
261.797	15.58
262.266	1.88
262.735	12.68
263.204	4.98
263.673	2.28
264.142	3.08
264.611	-1.42
265.08	0.58
265.549	-1.52
266.018	2.18
266.487	-0.72
266.955	0.58
267.424	0.28
267.893	6.08
268.362	6.28
268.83	4.08
269.299	14.48
269.768	4.08
270.236	8.38
270.705	4.28
271.174	4.78
271.642	8.58
272.111	11.18
272.579	10.08
273.048	21.58
273.516	23.58
273.985	20.38
274.453	27.48
274.922	12.18
275.39	18.38
275.858	-1.02
276.327	8.68
276.795	15.08
277.263	5.38
277.731	34.48
278.2	52.78
278.668	52.78
279.136	49.18
279.604	16.38
280.072	11.48
280.54	16.58
281.008	14.38
281.477	16.08
281.945	9.08
282.413	10.78
282.881	20.28
283.348	5.78
283.816	19.58
284.284	13.68
284.752	23.78
285.22	8.88
285.688	17.08
286.156	24.38
286.623	44.38
287.091	54.58
287.559	21.98
288.026	16.18
288.494	13.08
288.962	6.58
289.429	13.08
289.897	17.38
290.364	14.48
290.832	15.18
291.3	15.38
291.767	16.68
292.234	17.98
292.702	11.88
293.169	17.78
293.637	16.28
294.104	17.28
294.571	6.68
295.039	9.38
295.506	11.58
295.973	16.98
296.44	15.18
296.908	15.08
297.375	15.08
297.842	14.48
298.309	8.58
298.776	15.78
299.243	18.68
299.71	10.28
300.177	14.88
300.644	24.68
301.111	12.28
301.578	22.18
302.045	17.08
302.512	21.38
302.979	19.68
303.446	22.68
303.913	22.88
304.379	13.78
304.846	27.48
305.313	27.18
305.78	25.28
306.246	22.58
306.713	23.08
307.18	23.28
307.646	20.38
308.113	25.88
308.579	23.28
309.046	26.88
309.512	23.28
309.979	17.18
310.445	26.98
310.912	29.38
311.378	31.88
311.845	28.88
312.311	29.78
312.777	24.78
313.244	31.08
313.71	31.38
314.176	31.48
314.642	32.18
315.109	30.08
315.575	37.18
316.041	34.98
316.507	31.88
316.973	40.88
317.439	34.98
317.905	33.48
318.371	32.48
318.837	31.58
319.303	31.78
319.769	28.78
320.235	33.68
320.701	35.98
321.167	38.28
321.633	30.58
322.099	42.18
322.564	43.48
323.03	36.68
323.496	32.28
323.962	35.38
324.427	34.68
324.893	42.98
325.359	32.78
325.824	37.58
326.29	32.88
326.755	38.18
327.221	40.48
327.686	40.38
328.152	46.98
328.617	45.78
329.083	46.78
329.548	43.08
330.014	45.68
330.479	38.48
330.944	40.78
331.41	41.08
331.875	42.18
332.34	39.08
332.805	41.08
333.271	41.98
333.736	40.98
334.201	51.58
334.666	44.08
335.131	54.48
335.596	46.58
336.061	51.78
336.526	37.68
336.991	50.18
337.456	47.48
337.921	47.68
338.386	42.08
338.851	42.88
339.316	44.98
339.781	43.48
340.246	51.18
340.711	42.18
341.175	45.88
341.64	42.68
342.105	48.78
342.569	58.38
343.034	59.98
343.499	51.28
343.963	48.58
344.428	60.98
344.893	56.48
345.357	60.58
345.822	59.38
346.286	63.88
346.751	74.08
347.215	63.78
347.679	67.08
348.144	95.48
348.608	81.98
349.073	60.08
349.537	67.88
350.001	73.38
350.465	85.78
350.93	78.68
351.394	78.28
351.858	71.08
352.322	85.28
352.786	78.48
353.25	101.18
353.715	106.78
354.179	95.48
354.643	117.88
355.107	124.98
355.571	102.48
356.035	100.08
356.498	109.38
356.962	118.68
357.426	120.98
357.89	113.48
358.354	85.28
358.818	80.58
359.281	77.88
359.745	73.88
360.209	71.98
360.673	72.48
361.136	73.48
361.6	79.78
362.064	75.88
362.527	73.98
362.991	80.48
363.454	77.08
363.918	73.68
364.381	72.88
364.845	78.78
365.308	78.98
365.772	75.88
366.235	79.98
366.698	80.28
367.162	81.98
367.625	84.78
368.088	83.48
368.552	86.58
369.015	83.78
369.478	92.28
369.941	95.58
370.404	96.48
370.867	101.08
371.331	98.48
371.794	109.78
372.257	107.48
372.72	122.58
373.183	96.78
373.646	99.48
374.109	89.18
374.572	101.88
375.035	105.48
375.497	102.98
375.96	101.88
376.423	99.08
376.886	110.18
377.349	104.78
377.811	101.98
378.274	93.88
378.737	104.88
379.199	109.78
379.662	108.38
380.125	111.68
380.587	113.48
381.05	122.18
381.512	122.98
381.975	133.58
382.437	125.68
382.9	124.68
383.362	121.28
383.825	128.78
384.287	140.88
384.75	132.58
385.212	135.18
385.674	131.78
386.136	129.28
386.599	122.48
387.061	127.38
387.523	124.38
387.985	130.38
388.447	141.58
388.91	145.18
389.372	159.78
389.834	145.88
390.296	138.28
390.758	152.08
391.22	162.08
391.682	204.88
392.144	296.68
392.606	226.38
393.068	154.68
393.529	165.18
393.991	143.68
394.453	144.28
394.915	145.38
395.377	187.78
395.838	213.38
396.3	145.08
396.762	128.88
397.224	130.28
397.685	124.48
398.147	128.38
398.608	123.48
399.07	123.78
399.531	127.78
399.993	131.58
400.454	148.38
400.916	140.78
401.377	133.68
401.839	142.18
402.3	140.98
402.762	163.68
403.223	167.48
403.684	157.68
404.145	145.18
404.607	154.28
405.068	158.68
405.529	170.78
405.99	182.58
406.451	162.98
406.913	163.78
407.374	160.78
407.835	151.48
408.296	163.78
408.757	168.58
409.218	180.28
409.679	174.08
410.14	174.08
410.601	176.18
411.062	180.58
411.522	182.18
411.983	180.28
412.444	171.68
412.905	171.38
413.366	172.08
413.826	178.78
414.287	205.88
414.748	245.58
415.208	229.38
415.669	197.58
416.13	205.98
416.59	192.48
417.051	204.68
417.511	209.38
417.972	231.88
418.432	236.18
418.893	277.68
419.353	240.78
419.814	188.58
420.274	179.58
420.734	175.48
421.195	194.88
421.655	186.38
422.115	190.78
422.576	186.28
423.036	193.58
423.496	205.08
423.956	203.88
424.416	220.18
424.876	255.08
425.336	248.08
425.797	252.58
426.257	253.68
426.717	227.28
427.177	227.38
427.637	212.48
428.097	221.98
428.556	229.38
429.016	254.58
429.476	253.98
429.936	262.88
430.396	266.48
430.856	279.88
431.315	307.68
431.775	337.08
432.235	361.88
432.694	344.48
433.154	354.38
433.614	385.68
434.073	327.88
434.533	277.58
434.993	249.48
435.452	271.38
435.912	287.68
436.371	278.58
436.83	274.38
437.29	254.38
437.749	235.68
438.209	235.98
438.668	269.08
439.127	279.58
439.587	251.68
440.046	241.38
440.505	250.38
440.964	270.18
441.424	315.68
441.883	301.48
442.342	243.58
442.801	224.28
443.26	214.18
443.719	210.78
444.178	212.38
444.637	201.88
445.096	216.98
445.555	213.18
446.014	216.98
446.473	218.68
446.932	226.28
447.391	215.68
447.849	217.08
448.308	212.98
448.767	207.78
449.226	226.68
449.685	222.28
450.143	235.58
450.602	222.88
451.061	216.48
451.519	217.38
451.978	222.58
452.436	224.58
452.895	229.38
453.353	245.78
453.812	233.98
454.27	231.88
454.729	228.68
455.187	228.88
455.646	234.68
456.104	239.38
456.562	243.68
457.021	263.68
457.479	257.18
457.937	261.68
458.395	254.98
458.854	233.08
459.312	242.88
459.77	271.08
460.228	243.88
460.686	235.28
461.144	236.48
461.602	238.78
462.06	233.58
462.518	245.38
462.976	247.38
463.434	248.88
463.892	243.88
464.35	265.88
464.808	271.78
465.266	257.08
465.724	253.08
466.181	259.98
466.639	259.48
467.097	278.48
467.555	293.78
468.012	295.38
468.47	292.88
468.928	316.38
469.385	334.48
469.843	332.98
470.3	326.38
470.758	345.58
471.215	375.68
471.673	400.28
472.13	391.78
472.588	406.98
473.045	358.88
473.503	360.38
473.96	382.98
474.417	389.18
474.875	413.08
475.332	463.38
475.789	434.08
476.246	448.98
476.704	468.28
477.161	485.78
477.618	505.08
478.075	545.18
478.532	595.18
478.989	666.38
479.446	793.98
479.903	750.08
480.36	782.18
480.817	828.28
481.274	920.08
481.731	1027.08
482.188	1122.18
482.645	1245.98
483.102	1343.88
483.558	1473.78
484.015	1537.58
484.472	1513.98
484.929	1469.28
485.385	1422.38
485.842	1381.08
486.299	1306.48
486.755	1262.18
487.212	1063.68
487.668	882.78
488.125	811.28
488.582	743.08
489.038	713.58
489.494	686.78
489.951	664.48
490.407	638.98
490.864	621.28
491.32	620.28
491.776	606.18
492.233	627.68
492.689	580.98
493.145	578.48
493.602	582.78
494.058	594.68
494.514	594.88
494.97	618.88
495.426	624.88
495.882	590.78
496.338	583.18
496.794	595.98
497.251	588.38
497.707	603.98
498.163	612.18
498.618	625.28
499.074	620.88
499.53	648.38
499.986	650.58
500.442	632.38
500.898	604.78
501.354	601.58
501.809	607.58
502.265	616.18
502.721	641.18
503.177	653.58
503.632	650.28
504.088	654.18
504.543	685.88
504.999	676.08
505.455	628.88
505.91	609.58
506.366	615.08
506.821	600.88
507.277	592.28
507.732	595.28
508.187	601.38
508.643	606.18
509.098	604.18
509.553	634.78
510.009	633.38
510.464	635.38
510.919	659.38
511.375	670.08
511.83	670.28
512.285	687.38
512.74	721.48
513.195	758.88
513.65	751.28
514.105	735.08
514.56	740.38
515.015	755.78
515.47	778.48
515.925	754.48
516.38	746.18
516.835	764.78
517.29	742.28
517.745	745.18
518.2	724.78
518.655	723.28
519.109	703.98
519.564	710.38
520.019	694.28
520.474	698.58
520.928	699.18
521.383	685.08
521.838	687.48
522.292	683.18
522.747	681.58
523.201	678.48
523.656	670.58
524.11	665.08
524.565	673.78
525.019	671.08
525.474	662.58
525.928	679.28
526.382	670.38
526.837	665.88
527.291	670.18
527.745	676.88
528.2	671.18
528.654	670.68
529.108	660.48
529.562	667.08
530.016	667.18
530.47	662.88
530.925	664.68
531.379	668.58
531.833	674.58
532.287	673.68
532.741	670.38
533.195	684.48
533.649	685.48
534.103	684.48
534.556	671.48
535.01	690.28
535.464	677.38
535.918	684.28
536.372	692.58
536.826	685.78
537.279	681.68
537.733	686.78
538.187	694.08
538.64	682.98
539.094	704.98
539.548	704.48
540.001	698.68
540.455	698.28
540.908	710.78
541.362	701.08
541.815	715.18
542.269	724.38
542.722	737.38
543.175	753.08
543.629	740.18
544.082	760.68
544.536	763.28
544.989	766.78
545.442	762.08
545.895	762.28
546.349	756.98
546.802	758.08
547.255	763.78
547.708	775.48
548.161	785.08
548.614	790.08
549.067	800.08
549.52	794.78
549.973	776.28
550.426	780.08
550.879	772.28
551.332	772.58
551.785	782.08
552.238	783.38
552.691	787.48
553.144	803.18
553.596	817.38
554.049	824.08
554.502	857.38
554.955	874.08
555.407	874.78
555.86	871.38
556.313	864.88
556.765	843.78
557.218	853.08
557.67	864.48
558.123	827.78
558.576	838.38
559.028	842.88
559.48	851.98
559.933	845.08
560.385	818.28
560.838	774.28
561.29	747.88
561.742	753.28
562.195	743.48
562.647	736.48
563.099	748.48
563.551	747.88
564.004	750.88
564.456	753.98
564.908	734.78
565.36	723.28
565.812	705.68
566.264	704.58
566.716	699.78
567.168	699.88
567.62	706.88
568.072	684.68
568.524	679.58
568.976	674.98
569.428	653.48
569.88	641.08
570.332	663.28
570.784	658.78
571.235	654.38
571.687	677.48
572.139	678.38
572.59	690.38
573.042	685.88
573.494	683.48
573.945	686.18
574.397	666.28
574.849	672.98
575.3	669.38
575.752	654.78
576.203	652.18
576.655	666.68
577.106	648.18
577.557	648.98
578.009	641.38
578.46	647.38
578.912	644.68
579.363	645.48
579.814	649.08
580.265	646.58
580.717	648.18
581.168	638.78
581.619	657.18
582.07	667.48
582.521	658.98
582.972	652.48
583.423	658.68
583.875	664.68
584.326	683.58
584.777	741.58
585.227	804.78
585.678	902.88
586.129	983.78
586.58	1072.28
587.031	1150.08
587.482	1302.18
587.933	1470.98
588.384	1284.28
588.834	961.88
589.285	788.88
589.736	764.28
590.186	749.58
590.637	749.78
591.088	712.18
591.538	719.68
591.989	707.88
592.439	712.88
592.89	693.88
593.34	689.58
593.791	690.68
594.241	676.38
594.692	696.98
595.142	683.78
595.593	679.38
596.043	687.88
596.493	686.08
596.943	695.08
597.394	699.08
597.844	692.98
598.294	710.08
598.744	744.78
599.195	755.58
599.645	785.38
600.095	842.58
600.545	899.58
600.995	936.28
601.445	994.68
601.895	1051.18
602.345	1095.98
602.795	1080.78
603.245	1029.78
603.695	983.08
604.145	931.78
604.594	879.28
605.044	833.48
605.494	777.18
605.944	735.88
606.393	723.18
606.843	711.18
607.293	719.58
607.743	717.98
608.192	724.98
608.642	736.28
609.091	754.88
609.541	751.88
609.99	750.98
610.44	750.08
610.889	709.38
611.339	686.58
611.788	666.28
612.238	691.88
612.687	702.18
613.136	712.58
613.586	727.28
614.035	722.48
614.484	732.28
614.933	732.48
615.383	724.08
615.832	721.58
616.281	711.38
616.73	672.98
617.179	655.88
617.628	638.68
618.077	612.58
618.526	602.68
618.975	596.48
619.424	607.08
619.873	606.68
620.322	606.18
620.771	591.28
621.22	590.98
621.669	582.78
622.118	577.88
622.567	570.78
623.015	556.48
623.464	560.88
623.913	544.68
624.361	535.98
624.81	537.18
625.259	542.98
625.707	544.68
626.156	542.48
626.604	551.08
627.053	554.98
627.501	544.68
627.95	557.28
628.398	560.18
628.847	563.78
629.295	563.28
629.744	564.28
630.192	555.68
630.64	556.38
631.089	557.18
631.537	569.18
631.985	574.68
632.433	591.48
632.881	604.48
633.33	665.48
633.778	634.48
634.226	562.38
634.674	562.88
635.122	567.18
635.57	577.48
636.018	625.48
636.466	568.18
636.914	545.08
637.362	553.68
637.81	555.38
638.258	570.68
638.705	560.18
639.153	601.58
639.601	585.68
640.049	627.48
640.497	653.18
640.944	673.68
641.392	622.18
641.84	600.08
642.287	569.38
642.735	551.38
643.182	565.78
643.63	563.98
644.078	564.48
644.525	586.28
644.973	587.08
645.42	590.58
645.867	608.98
646.315	634.48
646.762	652.48
647.21	682.28
647.657	701.38
648.104	730.98
648.551	754.28
648.999	829.38
649.446	906.68
649.893	990.48
650.34	1141.58
650.787	1373.28
651.234	1710.78
651.682	2249.08
652.129	3080.98
652.576	4446.38
653.023	6552.28
653.47	8935.68
653.917	11118.78
654.363	12836.98
654.81	14095.78
655.257	13435.58
655.704	8758.38
656.151	5163.38
656.598	3354.08
657.044	2358.18
657.491	1830.58
657.938	1459.28
658.385	1218.38
658.831	1051.78
659.278	954.68
659.724	832.58
660.171	775.18
660.618	713.58
661.064	672.98
661.511	646.08
661.957	648.28
662.404	631.98
662.85	633.48
663.296	618.18
663.743	552.88
664.189	525.88
664.635	516.38
665.082	519.18
665.528	519.98
665.974	504.48
666.42	487.18
666.867	489.68
667.313	483.18
667.759	475.68
668.205	479.38
668.651	480.98
669.097	479.08
669.543	502.78
669.989	471.78
670.435	444.88
670.881	437.18
671.327	443.58
671.773	456.98
672.219	484.38
672.665	531.28
673.11	567.68
673.556	620.28
674.002	660.38
674.448	633.68
674.893	540.78
675.339	458.58
675.785	427.18
676.23	410.18
676.676	386.78
677.122	379.68
677.567	362.38
678.013	352.78
678.458	351.88
678.904	362.88
679.349	344.48
679.794	346.68
680.24	351.68
680.685	343.48
681.131	341.38
681.576	339.18
682.021	345.38
682.466	343.48
682.912	337.58
683.357	348.78
683.802	369.68
684.247	411.88
684.692	444.08
685.137	480.48
685.583	512.98
686.028	542.18
686.473	503.88
686.918	428.28
687.363	404.28
687.807	383.98
688.252	354.08
688.697	350.68
689.142	326.08
689.587	317.38
690.032	319.38
690.477	334.28
690.921	346.68
691.366	376.58
691.811	389.18
692.255	420.48
692.7	453.68
693.145	492.88
693.589	688.08
694.034	1111.18
694.478	1501.18
694.923	1681.08
695.367	2176.58
695.812	1159.38
696.256	482.98
696.701	363.08
697.145	328.58
697.59	322.58
698.034	312.18
698.478	326.38
698.922	322.68
699.367	317.88
699.811	334.48
700.255	352.58
700.699	375.08
701.143	414.18
701.588	468.38
702.032	502.88
702.476	498.48
702.92	485.78
703.364	482.58
703.808	632.88
704.252	1025.18
704.696	1425.78
705.14	1625.98
705.584	2052.68
706.027	1027.28
706.471	509.18
706.915	384.88
707.359	346.88
707.803	309.98
708.246	301.28
708.69	308.68
709.134	313.38
709.577	298.78
710.021	314.68
710.465	303.48
710.908	292.98
711.352	293.28
711.795	305.68
712.239	349.98
712.682	372.78
713.126	410.98
713.569	453.48
714.012	363.78
714.456	316.18
714.899	291.28
715.342	269.98
715.786	248.88
716.229	253.88
716.672	248.48
717.115	242.78
717.558	243.58
718.002	248.38
718.445	254.58
718.888	280.38
719.331	293.48
719.774	302.78
720.217	303.58
720.66	280.78
721.103	260.18
721.546	247.68
721.989	240.38
722.432	224.58
722.874	232.48
723.317	229.08
723.76	230.38
724.203	252.88
724.645	318.68
725.088	443.28
725.531	560.18
725.974	627.78
726.416	530.68
726.859	301.58
727.301	241.48
727.744	232.48
728.187	232.68
728.629	233.98
729.071	236.38
729.514	255.88
729.956	272.38
730.399	279.08
730.841	285.18
731.283	268.48
731.726	262.28
732.168	256.88
732.61	256.68
733.053	276.48
733.495	311.78
733.937	352.88
734.379	386.88
734.821	431.58
735.263	534.08
735.705	827.18
736.148	1567.88
736.59	2525.18
737.032	2934.18
737.474	2377.38
737.916	784.38
738.357	413.68
738.799	318.68
739.241	297.88
739.683	275.08
740.125	292.78
740.567	294.68
741.008	316.28
741.45	308.68
741.892	317.98
742.334	336.18
742.775	348.28
743.217	328.38
743.658	263.38
744.1	249.68
744.542	251.78
744.983	308.18
745.425	332.28
745.866	333.18
746.307	280.58
746.749	285.08
747.19	324.78
747.632	455.08
748.073	882.68
748.514	1824.18
748.956	2771.88
749.397	3476.18
749.838	2864.38
750.279	2819.48
750.72	1431.28
751.162	534.18
751.603	313.38
752.044	245.28
752.485	206.88
752.926	209.18
753.367	193.58
753.808	194.18
754.249	176.58
754.69	185.68
755.131	180.18
755.572	179.28
756.013	169.78
756.453	173.18
756.894	184.88
757.335	186.48
757.776	193.08
758.216	193.98
758.657	200.58
759.098	199.48
759.538	223.68
759.979	261.28
760.42	377.38
760.86	712.68
761.301	1828.08
761.741	4353.18
762.182	6142.58
762.622	4313.58
763.063	1262.08
763.503	523.88
763.943	342.08
764.384	342.68
764.824	399.78
765.264	434.88
765.705	307.88
766.145	203.98
766.585	187.98
767.025	181.58
767.465	184.08
767.906	249.48
768.346	324.58
768.786	340.78
769.226	264.88
769.666	317.78
770.106	623.78
770.546	1541.88
770.986	2565.08
771.426	2265.08
771.866	770.58
772.306	319.28
772.745	209.48
773.185	167.38
773.625	174.98
774.065	165.38
774.505	200.28
774.944	311.28
775.384	703.48
775.824	1228.88
776.263	1181.08
776.703	504.68
777.142	223.38
777.582	162.68
778.021	139.98
778.461	146.28
778.9	138.08
779.34	130.28
779.779	116.58
780.219	109.98
780.658	99.88
781.097	110.08
781.537	116.98
781.976	110.38
782.415	112.38
782.855	99.68
783.294	96.68
783.733	101.98
784.172	111.18
784.611	109.98
785.05	102.08
785.489	114.08
785.928	118.58
786.367	122.58
786.806	121.48
787.245	139.98
787.684	132.18
788.123	147.38
788.562	134.18
789.001	126.38
789.44	124.88
789.879	111.28
790.317	125.58
790.756	129.08
791.195	121.48
791.634	137.38
792.072	201.08
792.511	363.88
792.95	1000.08
793.388	2076.18
793.827	1836.68
794.265	654.08
794.704	270.28
795.142	180.98
795.581	148.48
796.019	134.88
796.458	135.28
796.896	116.08
797.334	127.08
797.773	148.08
798.211	215.88
798.649	445.98
799.087	1011.38
799.526	1565.48
799.964	1948.08
800.402	1915.18
800.84	731.08
801.278	299.38
801.716	178.98
802.154	153.48
802.592	147.48
803.03	139.38
803.468	130.38
803.906	143.48
804.344	146.68
804.782	138.88
805.22	136.78
805.658	125.98
806.096	146.58
806.533	152.38
806.971	172.38
807.409	214.18
807.847	321.88
808.284	669.68
808.722	1841.08
809.16	3176.88
809.597	3072.08
810.035	5277.98
810.472	5473.28
810.91	2005.28
811.347	763.28
811.785	386.68
812.222	251.88
812.66	186.18
813.097	157.68
813.535	132.98
813.972	129.38
814.409	111.48
814.846	108.78
815.284	106.78
815.721	100.28
816.158	107.68
816.595	126.18
817.032	187.88
817.47	198.98
817.907	167.78
818.344	155.18
818.781	119.88
819.218	100.18
819.655	120.18
820.092	178.68
820.529	213.98
820.966	177.78
821.403	132.48
821.839	109.48
822.276	100.78
822.713	120.28
823.15	134.78
823.587	112.78
824.023	147.78
824.46	305.88
824.897	877.48
825.333	1293.78
825.77	552.28
826.206	216.38
826.643	139.28
827.08	100.08
827.516	84.18
827.953	74.78
828.389	82.38
828.825	74.68
829.262	72.08
829.698	61.68
830.135	70.48
830.571	59.18
831.007	62.98
831.443	60.08
831.88	64.38
832.316	61.78
832.752	70.18
833.188	62.18
833.624	64.88
834.06	62.08
834.497	70.48
834.933	68.98
835.369	76.48
835.805	70.38
836.241	78.18
836.677	78.08
837.112	90.28
837.548	105.98
837.984	133.88
838.42	205.18
838.856	495.88
839.292	1493.98
839.727	2200.98
840.163	1025.78
840.599	914.38
841.034	1982.38
841.47	2022.58
841.906	748.18
842.341	332.48
842.777	226.48
843.212	317.98
843.648	305.08
844.083	152.38
844.519	99.68
844.954	74.58
845.39	53.28
845.825	55.58
846.261	55.28
846.696	50.68
847.131	56.88
847.566	60.08
848.002	58.28
848.437	53.68
848.872	61.38
849.307	68.98
849.742	84.08
850.177	183.08
850.613	551.48
851.048	847.78
851.483	363.18
851.918	154.58
852.353	85.78
852.788	59.08
853.223	59.78
853.657	54.28
854.092	50.88
854.527	46.98
854.962	41.38
855.397	41.48
855.832	46.48
856.266	41.48
856.701	42.88
857.136	37.48
857.57	35.18
858.005	54.18
858.44	58.68
858.874	47.08
859.309	54.48
859.743	45.38
860.178	45.98
860.612	40.18
861.047	56.78
861.481	71.48
861.915	70.18
862.35	43.28
862.784	38.38
863.218	35.28
863.653	31.58
864.087	44.18
864.521	58.88
864.955	68.28
865.39	156.58
865.824	172.38
866.258	107.98
866.692	158.08
867.126	164.28
867.56	102.78
867.994	52.48
868.428	42.78
868.862	44.78
869.296	55.28
869.73	57.98
870.164	52.28
870.598	55.38
871.031	35.88
871.465	31.38
871.899	34.68
872.333	25.88
872.766	27.98
873.2	23.58
873.634	32.48
874.067	19.08
874.501	19.08
874.935	38.58
875.368	32.78
875.802	28.38
876.235	24.18
876.669	27.88
877.102	21.48
877.535	29.08
877.969	23.68
878.402	22.48
878.836	23.38
879.269	25.18
879.702	30.28
880.135	20.58
880.569	24.48
881.002	25.38
881.435	23.78
881.868	16.08
882.301	23.28
882.734	24.48
883.167	26.88
883.601	23.88
884.034	25.28
884.467	17.08
884.899	17.28
885.332	16.68
885.765	15.68
886.198	16.48
886.631	16.88
887.064	22.98
887.497	24.38
887.929	29.98
888.362	15.58
888.795	12.18
889.228	19.98
889.66	22.78
890.093	22.48
890.526	23.38
890.958	17.18
891.391	18.88
891.823	23.08
892.256	16.18
892.688	13.38
893.121	18.08
893.553	13.28
893.985	28.98
894.418	16.08
894.85	16.68
895.282	15.58
895.715	16.88
896.147	21.28
896.579	19.78
897.011	22.68
897.444	15.98
897.876	16.88
898.308	15.28
898.74	14.48
899.172	9.28
899.604	20.78
900.036	23.78
900.468	15.58
900.9	19.78
901.332	17.78
901.764	10.18
902.196	17.38
902.628	24.18
903.06	11.68
903.491	27.28
903.923	25.88
904.355	21.38
904.787	28.58
905.218	21.28
905.65	21.28
906.082	12.28
906.513	12.28
906.945	15.88
907.376	13.08
907.808	12.88
908.239	20.28
908.671	24.28
909.102	18.38
909.534	31.98
909.965	48.18
910.397	92.98
910.828	305.38
911.259	458.48
911.691	215.98
912.122	101.88
912.553	54.48
912.984	32.28
913.415	27.98
913.847	21.48
914.278	18.48
914.709	13.28
915.14	20.48
915.571	17.58
916.002	10.88
916.433	24.28
916.864	16.38
917.295	13.28
917.726	21.38
918.157	14.58
918.587	21.98
919.018	23.58
919.449	25.08
919.88	27.88
920.311	30.68
920.741	48.58
921.172	173.78
921.603	139.78
922.033	74.18
922.464	44.98
922.895	30.08
923.325	21.38
923.756	18.38
924.186	21.78
924.617	26.78
925.047	45.38
925.478	56.08
925.908	49.88
926.338	23.08
926.769	22.18
927.199	20.18
927.629	6.98
928.06	17.48
928.49	15.28
928.92	10.28
929.35	11.48
929.78	12.68
930.21	11.28
930.641	13.08
931.071	6.48
931.501	4.88
931.931	9.38
932.361	6.68
932.791	0.48
933.221	12.58
933.651	8.48
934.08	13.98
934.51	33.08
934.94	7.68
935.37	7.88
935.8	10.68
936.229	5.08
936.659	12.98
937.089	2.68
937.519	13.78
937.948	22.78
938.378	17.18
938.807	6.38
939.237	8.78
939.666	8.18
940.096	-0.92
940.525	4.98
940.955	2.88
941.384	5.08
941.814	-8.02
942.243	-1.32
942.672	0.18
943.102	-1.12
943.531	-0.42
943.96	7.48
944.39	3.18
944.819	3.78
945.248	7.78
945.677	-2.52
946.106	-2.32
946.535	5.78
946.964	3.18
947.393	6.38
947.822	5.98
948.251	-2.82
948.68	6.18
949.109	6.28
949.538	5.18
949.967	1.08
950.396	-0.72
950.825	0.88
951.254	-0.22
951.682	-6.22
952.111	-1.32
952.54	0.58
952.969	-0.02
953.397	-2.22
953.826	-2.52
954.254	-2.62
954.683	7.08
955.112	-2.92
955.54	6.38
955.969	5.48
956.397	0.28
956.826	4.78
957.254	1.18
957.682	7.28
958.111	1.28
958.539	0.18
958.967	0.48
959.396	-7.32
959.824	2.18
960.252	-0.52
960.68	-6.62
961.109	-1.92
961.537	2.08
961.965	-2.62
962.393	0.68
962.821	-3.62
963.249	-0.62
963.677	5.68
964.105	10.58
964.533	46.48
964.961	40.98
965.389	17.68
965.817	8.18
966.245	-0.32
966.672	-3.52
967.1	-6.62
967.528	2.48
967.956	-5.22
968.383	-3.02
968.811	-0.52
969.239	1.48
969.666	-2.52
970.094	2.98
970.522	-0.12
970.949	-1.82
971.377	-6.02
971.804	-6.72
972.232	1.48
972.659	-5.02
973.087	-4.32
973.514	-5.62
973.941	-1.02
974.369	6.88
974.796	3.08
975.223	0.48
975.651	0.48
976.078	3.38
976.505	-1.32
976.932	1.58
977.359	13.28
977.786	17.58
978.214	0.88
978.641	-5.42
979.068	-0.82
979.495	-6.62
979.922	3.08
980.349	5.28
980.776	5.18
981.202	0.28
981.629	3.98
982.056	3.58
982.483	-5.42
982.91	0.88
983.337	-5.72
983.763	4.58
984.19	-5.72
984.617	-2.02
985.043	-6.62
985.47	5.08
985.897	-3.02
986.323	-1.02
986.75	-1.72
987.176	-4.62
987.603	1.88
988.029	0.18
988.456	0.98
988.882	0.68
989.308	-6.92
989.735	-1.42
990.161	3.78
990.587	-7.22
991.014	-4.02
991.44	4.28
991.866	-2.42
992.292	-3.32
992.719	-10.42
993.145	4.48
993.571	-6.32
993.997	-1.82
994.423	0.58
994.849	-1.52
995.275	-5.12
995.701	1.38
996.127	-9.42
996.553	-3.12
996.979	0.08
997.405	5.88
997.83	-9.02
998.256	-2.72
998.682	-6.12
999.108	-12.22
999.534	-3.62
999.959	-3.32
1000.385	1.38
1000.811	6.78
1001.236	-9.92
1001.662	-2.82
1002.087	-7.62
1002.513	-1.32
1002.938	5.48
1003.364	-0.32
1003.789	-1.62
1004.215	2.38
1004.64	0.88
1005.066	0.08
1005.491	0.98
1005.916	-0.62
1006.342	-3.22
1006.767	-5.02
1007.192	1.58
1007.617	-2.82
1008.042	-1.82
1008.468	-7.12
1008.893	-5.82
1009.318	2.48
1009.743	-2.32
1010.168	6.78
1010.593	-0.82
1011.018	-6.02
1011.443	0.88
1011.868	-6.62
1012.293	-1.62
1012.718	-4.32
1013.143	0.68
1013.567	-0.22
1013.992	2.38
1014.417	-11.52
1014.842	1.08
1015.267	2.08
1015.691	-1.72
1016.116	12.28
1016.541	-1.12
1016.965	1.98
1017.39	-2.52
1017.814	-4.62
1018.239	1.08
1018.663	-3.42
1019.088	-10.02
1019.512	-3.02
1019.937	-3.02
1020.361	-5.62
1020.785	-6.52
1021.21	-4.92
1021.634	-2.72
1022.058	-4.42
1022.483	0.38
1022.907	3.68
1023.331	-3.12
1023.755	1.98
1024.179	-5.22
1024.604	-2.82
1025.028	-8.22
1025.452	-5.52
1025.876	3.18
1026.3	-0.52
1026.724	-8.12
1027.148	-2.32
1027.572	-7.72
1027.996	-4.32
1028.42	-5.92
1028.843	-4.32
1029.267	-4.52
1029.691	-11.42
1030.115	-5.82
1030.539	-1.22
1030.962	-5.02
1031.386	-10.62
1031.81	3.88
1032.233	3.08
1032.657	-1.12
1033.08	0.08
1033.504	-3.32
1033.927	-1.12
1034.351	1.58
1034.774	-1.52
1035.198	1.58
1035.621	-4.82
1036.045	-6.12
1036.468	-1.62
1036.891	-7.62
1037.315	-4.62
1037.738	-4.32
1038.161	0.88
1038.584	-5.92
1039.008	-6.92
1039.431	-4.12
1039.854	-3.92
1040.277	-11.22
1040.7	-9.52
1041.123	0.88
1041.546	-4.42
1041.969	-6.22
1042.392	-11.62
1042.815	0.28
1043.238	-1.42
1043.661	2.38
1044.084	-2.32
1044.507	-5.02
1044.93	-3.82
1045.352	-4.92
1045.775	1.08
1046.198	1.18
1046.621	-0.42
1047.043	-2.82
1047.466	7.18
1047.889	-3.92
1048.311	-1.22
1048.734	0.18
1049.156	-1.42
1049.579	-7.02
1050.001	-0.42
1050.424	5.18
1050.846	-4.52
1051.269	-2.62
1051.691	-7.92
1052.113	-3.52
1052.536	-2.42
1052.958	-3.42
1053.38	-6.22
1053.802	-12.42
1054.225	-0.12
1054.647	-6.92
1055.069	-3.92
1055.491	3.48
1055.913	-2.32
1056.335	-2.82
1056.757	-5.32
1057.179	-6.12
1057.601	-6.82
1058.023	-2.82
1058.445	-0.12
1058.867	-3.52
1059.289	-6.82
1059.711	-1.92
1060.133	-2.42
1060.555	-2.62
1060.976	-8.82
1061.398	-7.42
1061.82	-7.12
1062.241	-4.62
1062.663	-7.82
1063.085	-4.12
1063.506	2.48
1063.928	-5.22
1064.35	6.78
1064.771	-12.42
1065.193	-2.52
1065.614	-7.92
1066.035	-1.12
1066.457	2.18
1066.878	1.68
1067.3	-3.52
1067.721	-1.42
1068.142	-6.12
1068.564	-4.52
1068.985	-6.82
1069.406	-3.82
1069.827	-1.22
1070.248	-0.22
1070.67	-8.52
1071.091	-1.52
1071.512	-5.22
1071.933	-5.72
1072.354	-8.92
1072.775	2.38
1073.196	-7.62
1073.617	1.28
1074.038	-2.02
1074.459	-0.82
1074.88	-4.22
1075.3	-4.52
1075.721	-5.22
1076.142	-1.22
1076.563	3.78
1076.983	-6.42
1077.404	-5.82
1077.825	-6.12
1078.246	-5.82
1078.666	-5.62
1079.087	0.88
1079.507	-0.22
1079.928	0.38
1080.348	5.08
1080.769	-3.72
1081.189	2.88
1081.61	-3.42
1082.03	-9.62
1082.451	-4.22
1082.871	-7.12
1083.291	-3.72
1083.711	-11.02
1084.132	-2.82
1084.552	-4.72
1084.972	3.98
1085.392	-8.32
1085.813	-16.32
1086.233	-4.42
1086.653	-9.72
1087.073	0.68
1087.493	-4.92
1087.913	-5.32
1088.333	-11.02
1088.753	-1.92
1089.173	2.88
1089.593	-1.02
1090.013	0.38
1090.433	-3.72
1090.852	-3.32
1091.272	0.68
1091.692	1.18
1092.112	-5.22
1092.531	-8.02
1092.951	-14.02
1093.371	-0.82
1093.79	1.78
1094.21	-8.92
1094.63	-0.22
1095.049	-6.12
1095.469	2.98
1095.888	-5.32
1096.308	0.08
1096.727	1.78
1097.146	-6.62
1097.566	-2.32
1097.985	-10.12
1098.405	1.28
1098.824	-3.22
1099.243	-3.12
1099.662	-5.52
1100.082	0.48
1100.501	-3.82
1100.92	-4.52
1101.339	-1.02
1101.758	-5.42
