Data from 20171114-ORNL-Ar_H_NY_Subt18_08-09-23-687.txt Node
Date: Tue Nov 14 08:09:23 EST 2017
User: Ender
Spectrometer: HR+D1039
Trigger mode: 0
Integration Time (sec): 2.730000E-2
Scans to average: 10
Electric dark correction enabled: true
Nonlinearity correction enabled: false
Boxcar width: 0
XAxis mode: Wavelengths
Number of Pixels in Spectrum: 2048
>>>>>Begin Spectral Data<<<<<
187.836	-4.64
188.309	-4.64
188.782	-4.64
189.255	-1.94
189.728	1.26
190.201	6.16
190.674	3.26
191.147	3.26
191.619	-9.44
192.092	3.46
192.565	6.26
193.038	-1.84
193.511	-1.54
193.984	-2.64
194.456	-3.64
194.929	2.06
195.402	0.86
195.874	-0.84
196.347	-0.54
196.82	-4.64
197.292	0.36
197.765	-0.04
198.237	-11.64
198.71	-0.34
199.182	-1.34
199.655	0.46
200.127	-3.54
200.6	-3.44
201.072	-4.34
201.544	-5.84
202.017	2.96
202.489	0.06
202.961	0.86
203.433	-2.84
203.906	-7.54
204.378	-8.04
204.85	-10.84
205.322	-8.34
205.794	-4.14
206.266	-5.94
206.739	-12.94
207.211	-5.94
207.683	-11.94
208.155	-10.94
208.627	-3.74
209.099	-5.44
209.57	-6.74
210.042	-1.14
210.514	0.56
210.986	-7.44
211.458	-13.94
211.93	-3.24
212.402	0.66
212.873	-6.34
213.345	-10.64
213.817	-12.24
214.288	-5.64
214.76	-11.64
215.232	-4.14
215.703	-7.54
216.175	-6.94
216.646	-8.54
217.118	-8.54
217.589	-6.74
218.061	-2.24
218.532	-6.14
219.004	-5.04
219.475	-1.84
219.946	-5.14
220.418	-12.94
220.889	-3.34
221.36	-4.44
221.832	-6.54
222.303	-7.24
222.774	-4.84
223.245	-10.94
223.717	-6.14
224.188	-5.74
224.659	-4.64
225.13	-12.54
225.601	-1.24
226.072	5.76
226.543	-4.34
227.014	-2.84
227.485	-0.14
227.956	-7.14
228.427	-3.54
228.898	-3.54
229.369	6.56
229.839	-9.34
230.31	-7.54
230.781	0.86
231.252	-2.04
231.722	-9.84
232.193	-7.54
232.664	-1.94
233.135	1.86
233.605	-6.24
234.076	-12.24
234.546	-8.94
235.017	-0.74
235.487	-4.94
235.958	-10.34
236.428	-7.44
236.899	-2.84
237.369	0.06
237.84	-7.44
238.31	-6.34
238.78	-5.74
239.251	-8.74
239.721	-3.44
240.191	-2.54
240.662	-5.14
241.132	1.16
241.602	-6.44
242.072	-5.44
242.542	4.76
243.013	-3.14
243.483	-3.04
243.953	-0.64
244.423	0.16
244.893	-11.44
245.363	-7.04
245.833	0.56
246.303	-4.24
246.773	-1.04
247.243	-3.94
247.712	-4.94
248.182	1.46
248.652	-3.34
249.122	-12.14
249.592	-0.04
250.061	6.86
250.531	2.86
251.001	-8.04
251.471	8.26
251.94	4.56
252.41	-8.54
252.879	-11.64
253.349	3.46
253.818	0.26
254.288	-0.94
254.757	-3.94
255.227	-3.84
255.696	-2.94
256.166	2.86
256.635	4.86
257.105	1.46
257.574	-3.54
258.043	-6.44
258.513	-8.54
258.982	-0.74
259.451	-9.84
259.92	-3.94
260.389	-2.04
260.859	6.36
261.328	-1.04
261.797	-2.04
262.266	-0.04
262.735	7.46
263.204	1.26
263.673	-0.94
264.142	5.26
264.611	-14.64
265.08	-6.34
265.549	-4.84
266.018	3.86
266.487	-7.54
266.955	-10.54
267.424	-7.44
267.893	1.26
268.362	-2.64
268.83	-5.64
269.299	3.56
269.768	-0.24
270.236	1.26
270.705	-2.34
271.174	0.86
271.642	-6.54
272.111	-1.94
272.579	-4.04
273.048	-0.94
273.516	-2.34
273.985	4.46
274.453	-3.44
274.922	-1.74
275.39	3.66
275.858	-5.04
276.327	1.46
276.795	10.26
277.263	-0.74
277.731	7.56
278.2	-0.34
278.668	1.26
279.136	3.66
279.604	-4.44
280.072	-1.14
280.54	5.36
281.008	4.86
281.477	3.56
281.945	2.96
282.413	7.66
282.881	5.86
283.348	-0.54
283.816	6.06
284.284	4.56
284.752	7.26
285.22	4.86
285.688	13.36
286.156	7.26
286.623	8.56
287.091	5.36
287.559	8.56
288.026	6.76
288.494	7.66
288.962	0.06
289.429	2.56
289.897	10.46
290.364	12.06
290.832	10.06
291.3	4.36
291.767	9.46
292.234	15.06
292.702	3.16
293.169	1.06
293.637	11.76
294.104	9.76
294.571	2.96
295.039	7.16
295.506	5.46
295.973	6.56
296.44	6.86
296.908	4.56
297.375	8.36
297.842	11.36
298.309	6.66
298.776	5.06
299.243	10.76
299.71	9.36
300.177	12.56
300.644	9.36
301.111	10.86
301.578	8.16
302.045	4.26
302.512	11.66
302.979	11.66
303.446	6.16
303.913	0.66
304.379	6.66
304.846	11.46
305.313	10.66
305.78	8.66
306.246	14.86
306.713	13.66
307.18	16.26
307.646	11.86
308.113	13.36
308.579	14.66
309.046	15.66
309.512	18.96
309.979	13.16
310.445	18.66
310.912	18.26
311.378	21.26
311.845	16.06
312.311	15.56
312.777	19.66
313.244	20.76
313.71	26.06
314.176	20.46
314.642	21.76
315.109	18.56
315.575	18.66
316.041	22.86
316.507	15.66
316.973	23.86
317.439	16.36
317.905	22.86
318.371	18.06
318.837	19.66
319.303	19.36
319.769	23.46
320.235	18.06
320.701	30.26
321.167	21.26
321.633	22.26
322.099	26.26
322.564	24.56
323.03	27.96
323.496	30.86
323.962	25.76
324.427	26.46
324.893	22.96
325.359	28.36
325.824	25.06
326.29	25.86
326.755	28.16
327.221	33.66
327.686	27.96
328.152	31.66
328.617	24.96
329.083	31.36
329.548	34.76
330.014	35.26
330.479	30.36
330.944	30.76
331.41	30.06
331.875	29.66
332.34	27.56
332.805	28.76
333.271	32.76
333.736	29.86
334.201	35.36
334.666	37.86
335.131	38.76
335.596	37.06
336.061	36.06
336.526	24.06
336.991	28.46
337.456	41.16
337.921	31.76
338.386	31.16
338.851	38.86
339.316	34.16
339.781	31.36
340.246	42.76
340.711	30.26
341.175	36.26
341.64	32.56
342.105	40.96
342.569	37.76
343.034	39.96
343.499	40.26
343.963	38.96
344.428	50.86
344.893	41.86
345.357	45.06
345.822	47.16
346.286	45.86
346.751	52.36
347.215	49.66
347.679	49.76
348.144	70.06
348.608	62.46
349.073	53.86
349.537	53.96
350.001	57.76
350.465	65.86
350.93	58.76
351.394	59.86
351.858	50.86
352.322	66.76
352.786	61.26
353.25	70.56
353.715	82.96
354.179	66.76
354.643	88.66
355.107	91.76
355.571	81.76
356.035	69.66
356.498	84.36
356.962	79.16
357.426	96.76
357.89	87.26
358.354	68.86
358.818	64.66
359.281	64.06
359.745	62.66
360.209	60.76
360.673	56.16
361.136	60.86
361.6	60.66
362.064	66.56
362.527	68.76
362.991	78.16
363.454	61.36
363.918	55.16
364.381	58.96
364.845	66.96
365.308	72.46
365.772	68.96
366.235	65.96
366.698	69.46
367.162	64.56
367.625	65.36
368.088	70.36
368.552	75.56
369.015	72.96
369.478	74.36
369.941	81.66
370.404	70.76
370.867	77.66
371.331	79.36
371.794	85.86
372.257	80.36
372.72	80.76
373.183	82.06
373.646	74.76
374.109	75.46
374.572	88.36
375.035	83.26
375.497	83.26
375.96	85.36
376.423	83.86
376.886	92.46
377.349	91.86
377.811	81.86
378.274	83.86
378.737	88.06
379.199	87.26
379.662	90.76
380.125	91.06
380.587	92.86
381.05	93.36
381.512	96.56
381.975	100.66
382.437	100.86
382.9	95.06
383.362	101.76
383.825	107.26
384.287	103.46
384.75	98.46
385.212	105.16
385.674	118.06
386.136	108.66
386.599	98.76
387.061	109.36
387.523	103.36
387.985	110.56
388.447	113.06
388.91	110.66
389.372	107.86
389.834	108.56
390.296	110.36
390.758	113.76
391.22	115.66
391.682	124.26
392.144	136.66
392.606	128.36
393.068	126.16
393.529	130.46
393.991	123.76
394.453	115.96
394.915	109.16
395.377	114.06
395.838	115.36
396.3	121.46
396.762	123.26
397.224	121.26
397.685	120.26
398.147	121.66
398.608	118.26
399.07	121.36
399.531	123.86
399.993	128.46
400.454	141.06
400.916	130.26
401.377	132.76
401.839	137.96
402.3	130.16
402.762	144.56
403.223	166.06
403.684	152.96
404.145	141.86
404.607	142.46
405.068	146.36
405.529	151.86
405.99	161.46
406.451	154.26
406.913	152.16
407.374	149.96
407.835	143.66
408.296	154.56
408.757	154.36
409.218	166.26
409.679	163.16
410.14	160.66
410.601	154.56
411.062	161.46
411.522	167.16
411.983	161.56
412.444	157.96
412.905	172.76
413.366	173.96
413.826	185.86
414.287	202.36
414.748	247.96
415.208	228.56
415.669	198.86
416.13	203.06
416.59	192.96
417.051	204.96
417.511	210.86
417.972	230.76
418.432	231.76
418.893	272.86
419.353	244.76
419.814	187.26
420.274	165.26
420.734	172.76
421.195	184.56
421.655	179.06
422.115	181.66
422.576	185.16
423.036	184.66
423.496	196.06
423.956	203.06
424.416	214.16
424.876	244.76
425.336	248.86
425.797	250.76
426.257	234.46
426.717	215.96
427.177	223.76
427.637	203.46
428.097	219.66
428.556	230.96
429.016	250.76
429.476	242.76
429.936	250.46
430.396	254.06
430.856	268.36
431.315	287.86
431.775	318.86
432.235	358.16
432.694	322.16
433.154	329.46
433.614	351.66
434.073	298.86
434.533	267.86
434.993	250.26
435.452	269.26
435.912	273.26
436.371	264.86
436.83	264.26
437.29	245.06
437.749	230.56
438.209	234.46
438.668	256.66
439.127	267.66
439.587	250.56
440.046	236.06
440.505	247.46
440.964	255.76
441.424	298.96
441.883	291.86
442.342	242.56
442.801	219.86
443.26	213.66
443.719	218.66
444.178	216.46
444.637	202.66
445.096	212.36
445.555	206.16
446.014	219.26
446.473	223.56
446.932	231.06
447.391	218.76
447.849	221.56
448.308	213.96
448.767	214.06
449.226	232.36
449.685	233.66
450.143	241.96
450.602	227.06
451.061	220.66
451.519	224.36
451.978	223.96
452.436	225.76
452.895	229.56
453.353	233.36
453.812	230.56
454.27	234.96
454.729	232.66
455.187	236.96
455.646	236.86
456.104	249.86
456.562	258.56
457.021	259.36
457.479	247.96
457.937	268.36
458.395	252.36
458.854	246.16
459.312	251.56
459.77	268.66
460.228	252.56
460.686	239.36
461.144	245.66
461.602	243.96
462.06	240.26
462.518	250.86
462.976	247.26
463.434	251.66
463.892	261.06
464.35	269.96
464.808	285.66
465.266	255.96
465.724	260.26
466.181	276.56
466.639	269.56
467.097	290.26
467.555	292.56
468.012	294.36
468.47	305.36
468.928	317.36
469.385	342.36
469.843	337.76
470.3	343.16
470.758	354.66
471.215	373.76
471.673	402.56
472.13	400.96
472.588	411.26
473.045	371.76
473.503	384.76
473.96	383.86
474.417	407.16
474.875	420.56
475.332	463.66
475.789	452.46
476.246	458.76
476.704	480.66
477.161	498.36
477.618	504.36
478.075	533.36
478.532	593.56
478.989	652.46
479.446	757.56
479.903	737.56
480.36	761.96
480.817	801.06
481.274	890.86
481.731	963.66
482.188	1048.96
482.645	1165.66
483.102	1249.36
483.558	1345.46
484.015	1400.96
484.472	1369.46
484.929	1334.06
485.385	1305.46
485.842	1269.26
486.299	1220.56
486.755	1177.36
487.212	1009.76
487.668	865.16
488.125	805.66
488.582	740.66
489.038	713.06
489.494	680.66
489.951	660.46
490.407	646.96
490.864	618.36
491.32	616.16
491.776	624.46
492.233	628.16
492.689	604.36
493.145	588.66
493.602	582.96
494.058	599.36
494.514	600.46
494.97	625.36
495.426	629.46
495.882	604.96
496.338	600.16
496.794	606.76
497.251	601.66
497.707	609.96
498.163	618.16
498.618	622.46
499.074	631.46
499.53	653.86
499.986	655.36
500.442	627.96
500.898	613.46
501.354	608.86
501.809	607.56
502.265	607.66
502.721	611.96
503.177	635.46
503.632	627.66
504.088	634.96
504.543	648.36
504.999	674.86
505.455	643.86
505.91	624.26
506.366	625.46
506.821	630.86
507.277	627.26
507.732	623.56
508.187	633.96
508.643	635.56
509.098	633.06
509.553	657.06
510.009	664.96
510.464	669.76
510.919	686.36
511.375	693.36
511.83	708.96
512.285	716.26
512.74	747.66
513.195	767.26
513.65	747.56
514.105	748.16
514.56	757.66
515.015	776.66
515.47	788.86
515.925	766.66
516.38	768.06
516.835	786.56
517.29	764.86
517.745	765.06
518.2	760.36
518.655	750.96
519.109	739.26
519.564	746.66
520.019	719.86
520.474	721.86
520.928	720.76
521.383	711.86
521.838	709.66
522.292	713.46
522.747	710.96
523.201	714.36
523.656	692.96
524.11	698.06
524.565	687.46
525.019	689.96
525.474	700.26
525.928	696.26
526.382	688.96
526.837	695.86
527.291	710.76
527.745	706.56
528.2	699.66
528.654	686.16
529.108	686.16
529.562	686.86
530.016	687.86
530.47	681.66
530.925	686.46
531.379	695.46
531.833	705.06
532.287	703.46
532.741	699.66
533.195	703.16
533.649	710.26
534.103	705.56
534.556	705.06
535.01	687.46
535.464	691.46
535.918	710.16
536.372	719.26
536.826	715.36
537.279	707.76
537.733	712.06
538.187	707.46
538.64	707.96
539.094	721.86
539.548	730.16
540.001	723.86
540.455	725.86
540.908	729.16
541.362	735.86
541.815	755.26
542.269	759.76
542.722	761.56
543.175	765.36
543.629	773.86
544.082	781.26
544.536	784.56
544.989	776.96
545.442	792.66
545.895	786.86
546.349	797.26
546.802	795.76
547.255	799.26
547.708	809.96
548.161	815.36
548.614	825.56
549.067	825.16
549.52	822.06
549.973	818.26
550.426	814.76
550.879	802.06
551.332	802.76
551.785	819.76
552.238	806.26
552.691	819.76
553.144	842.66
553.596	856.26
554.049	869.36
554.502	900.06
554.955	913.76
555.407	922.26
555.86	913.66
556.313	896.36
556.765	891.86
557.218	887.36
557.67	891.66
558.123	874.36
558.576	878.96
559.028	880.26
559.48	895.66
559.933	885.36
560.385	834.36
560.838	810.66
561.29	794.76
561.742	792.66
562.195	774.46
562.647	778.46
563.099	769.46
563.551	781.36
564.004	785.66
564.456	764.76
564.908	764.66
565.36	741.96
565.812	743.56
566.264	735.86
566.716	718.76
567.168	715.06
567.62	714.26
568.072	703.96
568.524	708.66
568.976	690.46
569.428	687.36
569.88	679.26
570.332	685.76
570.784	695.36
571.235	696.76
571.687	698.16
572.139	704.16
572.59	721.16
573.042	722.36
573.494	716.66
573.945	716.16
574.397	694.26
574.849	693.36
575.3	702.96
575.752	683.06
576.203	684.06
576.655	689.96
577.106	673.26
577.557	671.76
578.009	674.46
578.46	674.96
578.912	669.56
579.363	680.76
579.814	674.96
580.265	668.16
580.717	676.76
581.168	667.06
581.619	679.26
582.07	692.96
582.521	677.76
582.972	677.86
583.423	679.56
583.875	679.46
584.326	692.26
584.777	699.46
585.227	719.56
585.678	725.56
586.129	745.36
586.58	762.56
587.031	776.86
587.482	797.66
587.933	813.46
588.384	801.76
588.834	780.26
589.285	777.16
589.736	782.16
590.186	784.16
590.637	768.76
591.088	757.66
591.538	745.26
591.989	742.66
592.439	732.66
592.89	737.36
593.34	713.26
593.791	703.96
594.241	691.96
594.692	691.06
595.142	707.86
595.593	707.36
596.043	713.66
596.493	706.06
596.943	713.76
597.394	731.36
597.844	721.66
598.294	747.06
598.744	769.46
599.195	796.96
599.645	840.66
600.095	880.76
600.545	930.56
600.995	991.46
601.445	1048.16
601.895	1100.06
602.345	1164.96
602.795	1135.76
603.245	1087.86
603.695	1029.16
604.145	974.36
604.594	925.36
605.044	877.36
605.494	806.96
605.944	770.66
606.393	747.96
606.843	737.76
607.293	747.96
607.743	747.16
608.192	755.86
608.642	762.36
609.091	763.56
609.541	773.86
609.99	772.96
610.44	770.96
610.889	727.96
611.339	705.66
611.788	678.86
612.238	699.06
612.687	715.46
613.136	711.26
613.586	716.06
614.035	712.76
614.484	719.96
614.933	717.96
615.383	720.06
615.832	704.36
616.281	709.46
616.73	677.06
617.179	662.16
617.628	654.66
618.077	635.06
618.526	628.86
618.975	626.76
619.424	625.96
619.873	615.16
620.322	634.16
620.771	608.06
621.22	604.16
621.669	594.06
622.118	593.76
622.567	584.56
623.015	571.26
623.464	585.76
623.913	566.26
624.361	558.46
624.81	553.36
625.259	557.26
625.707	563.46
626.156	575.16
626.604	580.96
627.053	577.66
627.501	565.66
627.95	584.36
628.398	582.46
628.847	580.36
629.295	570.86
629.744	584.46
630.192	565.06
630.64	563.76
631.089	557.36
631.537	541.56
631.985	542.36
632.433	540.76
632.881	528.36
633.33	537.56
633.778	531.46
634.226	536.76
634.674	547.26
635.122	552.86
635.57	550.86
636.018	568.66
636.466	568.96
636.914	567.96
637.362	575.56
637.81	587.16
638.258	593.46
638.705	594.46
639.153	631.86
639.601	632.76
640.049	656.16
640.497	696.76
640.944	713.66
641.392	660.76
641.84	624.16
642.287	597.26
642.735	573.46
643.182	570.06
643.63	575.36
644.078	571.56
644.525	586.16
644.973	582.16
645.42	611.46
645.867	630.76
646.315	635.76
646.762	663.46
647.21	690.46
647.657	709.96
648.104	747.56
648.551	764.26
648.999	814.86
649.446	891.06
649.893	972.76
650.34	1134.46
650.787	1345.46
651.234	1640.86
651.682	2143.16
652.129	2893.66
652.576	4090.76
653.023	5998.36
653.47	8076.56
653.917	9948.26
654.363	11313.16
654.81	12418.36
655.257	11776.36
655.704	7819.16
656.151	4705.86
656.598	3078.76
657.044	2222.16
657.491	1722.96
657.938	1397.56
658.385	1167.76
658.831	1031.66
659.278	928.36
659.724	833.16
660.171	760.86
660.618	718.06
661.064	683.26
661.511	667.26
661.957	650.96
662.404	637.86
662.85	659.76
663.296	623.26
663.743	570.86
664.189	546.96
664.635	547.36
665.082	534.86
665.528	532.36
665.974	528.16
666.42	521.16
666.867	506.26
667.313	485.26
667.759	474.36
668.205	463.36
668.651	457.66
669.097	459.26
669.543	443.86
669.989	449.76
670.435	461.06
670.881	457.46
671.327	467.46
671.773	490.36
672.219	509.46
672.665	566.76
673.11	606.16
673.556	651.96
674.002	683.46
674.448	675.56
674.893	558.56
675.339	490.46
675.785	457.46
676.23	427.26
676.676	402.46
677.122	392.46
677.567	389.56
678.013	370.76
678.458	375.86
678.904	377.26
679.349	362.46
679.794	361.66
680.24	358.66
680.685	363.66
681.131	356.56
681.576	357.46
682.021	371.96
682.466	361.16
682.912	357.06
683.357	369.36
683.802	401.96
684.247	426.86
684.692	467.96
685.137	509.86
685.583	560.76
686.028	582.36
686.473	535.56
686.918	460.86
687.363	429.66
687.807	406.66
688.252	380.66
688.697	368.56
689.142	348.46
689.587	345.26
690.032	338.46
690.477	357.16
690.921	373.76
691.366	398.36
691.811	406.86
692.255	448.96
692.7	476.96
693.145	534.26
693.589	748.16
694.034	1223.86
694.478	1627.76
694.923	1782.26
695.367	2322.06
695.812	1240.26
696.256	521.96
696.701	384.76
697.145	352.76
697.59	345.76
698.034	330.56
698.478	332.66
698.922	331.36
699.367	329.66
699.811	347.46
700.255	360.26
700.699	394.96
701.143	439.46
701.588	485.96
702.032	529.06
702.476	531.66
702.92	510.06
703.364	520.16
703.808	684.26
704.252	1131.36
704.696	1554.96
705.14	1747.46
705.584	2195.96
706.027	1112.56
706.471	547.46
706.915	417.46
707.359	367.06
707.803	333.56
708.246	324.96
708.69	321.36
709.134	324.16
709.577	321.06
710.021	328.56
710.465	319.36
710.908	307.06
711.352	305.66
711.795	322.86
712.239	365.36
712.682	400.96
713.126	422.56
713.569	463.36
714.012	371.16
714.456	313.46
714.899	301.66
715.342	283.86
715.786	276.86
716.229	266.26
716.672	265.16
717.115	258.66
717.558	259.96
718.002	257.26
718.445	270.86
718.888	294.86
719.331	305.76
719.774	322.96
720.217	316.26
720.66	296.16
721.103	268.96
721.546	270.36
721.989	251.76
722.432	245.16
722.874	249.26
723.317	240.16
723.76	245.26
724.203	266.66
724.645	340.96
725.088	468.26
725.531	593.96
725.974	666.26
726.416	573.06
726.859	321.46
727.301	251.86
727.744	245.66
728.187	245.86
728.629	243.56
729.071	257.16
729.514	271.46
729.956	279.66
730.399	297.46
730.841	294.16
731.283	282.16
731.726	282.36
732.168	267.06
732.61	292.36
733.053	300.96
733.495	338.36
733.937	376.56
734.379	415.66
734.821	468.16
735.263	591.16
735.705	926.06
736.148	1752.46
736.59	2759.16
737.032	3162.36
737.474	2574.96
737.916	854.96
738.357	443.26
738.799	341.36
739.241	309.66
739.683	297.86
740.125	300.16
740.567	308.26
741.008	334.76
741.45	329.16
741.892	333.76
742.334	368.96
742.775	371.36
743.217	353.86
743.658	286.96
744.1	264.46
744.542	273.66
744.983	328.26
745.425	363.26
745.866	357.46
746.307	289.96
746.749	291.06
747.19	356.36
747.632	506.56
748.073	987.36
748.514	2054.46
748.956	3004.86
749.397	3824.26
749.838	3123.86
750.279	3038.86
750.72	1576.86
751.162	579.96
751.603	337.86
752.044	262.06
752.485	225.16
752.926	225.96
753.367	205.86
753.808	201.36
754.249	199.06
754.69	196.66
755.131	194.16
755.572	185.16
756.013	190.96
756.453	191.66
756.894	194.96
757.335	198.16
757.776	201.36
758.216	210.76
758.657	205.36
759.098	211.76
759.538	233.26
759.979	279.26
760.42	408.96
760.86	799.96
761.301	2069.56
761.741	4836.66
762.182	6620.66
762.622	4685.36
763.063	1389.46
763.503	558.26
763.943	339.46
764.384	278.16
764.824	240.76
765.264	226.96
765.705	207.46
766.145	185.86
766.585	186.86
767.025	168.86
767.465	167.66
767.906	179.56
768.346	186.86
768.786	198.16
769.226	217.56
769.666	337.66
770.106	685.56
770.546	1723.66
770.986	2751.76
771.426	2417.66
771.866	831.46
772.306	344.26
772.745	215.76
773.185	178.46
773.625	166.16
774.065	154.06
774.505	172.36
774.944	214.56
775.384	368.16
775.824	585.86
776.263	560.86
776.703	279.26
777.142	159.66
777.582	139.46
778.021	124.66
778.461	128.46
778.9	129.36
779.34	123.96
779.779	121.16
780.219	116.36
780.658	110.46
781.097	118.86
781.537	110.46
781.976	108.66
782.415	108.66
782.855	105.26
783.294	109.36
783.733	108.16
784.172	112.46
784.611	108.46
785.05	110.26
785.489	108.76
785.928	125.96
786.367	118.76
786.806	124.66
787.245	140.96
787.684	141.86
788.123	155.06
788.562	144.86
789.001	140.76
789.44	127.76
789.879	121.16
790.317	131.36
790.756	133.16
791.195	130.96
791.634	153.66
792.072	222.06
792.511	408.96
792.95	1116.16
793.388	2224.86
793.827	1957.86
794.265	703.66
794.704	292.66
795.142	194.56
795.581	156.76
796.019	136.06
796.458	130.96
796.896	127.86
797.334	139.36
797.773	158.16
798.211	230.16
798.649	496.86
799.087	1107.16
799.526	1703.76
799.964	2142.76
800.402	2059.86
800.84	802.56
801.278	321.36
801.716	196.36
802.154	164.86
802.592	153.06
803.03	143.76
803.468	139.76
803.906	152.66
804.344	160.66
804.782	148.16
805.22	141.76
805.658	135.36
806.096	151.36
806.533	164.06
806.971	185.96
807.409	230.66
807.847	346.36
808.284	751.46
808.722	2062.56
809.16	3473.06
809.597	3442.66
810.035	5829.86
810.472	5931.26
810.91	2199.96
811.347	854.66
811.785	426.56
812.222	273.36
812.66	209.56
813.097	166.76
813.535	156.16
813.972	127.56
814.409	122.76
814.846	104.46
815.284	113.76
815.721	98.36
816.158	102.96
816.595	115.36
817.032	157.56
817.47	186.66
817.907	125.86
818.344	106.06
818.781	110.56
819.218	104.06
819.655	124.96
820.092	204.86
820.529	216.86
820.966	180.16
821.403	131.06
821.839	101.66
822.276	105.46
822.713	135.96
823.15	144.66
823.587	123.26
824.023	160.06
824.46	337.36
824.897	968.46
825.333	1397.16
825.77	612.56
826.206	245.16
826.643	138.06
827.08	102.96
827.516	85.96
827.953	75.76
828.389	87.46
828.825	75.16
829.262	71.76
829.698	57.76
830.135	65.76
830.571	66.86
831.007	68.66
831.443	65.46
831.88	64.86
832.316	59.06
832.752	70.66
833.188	70.26
833.624	64.56
834.06	74.56
834.497	68.26
834.933	70.16
835.369	79.96
835.805	72.66
836.241	82.36
836.677	83.96
837.112	90.66
837.548	112.36
837.984	136.36
838.42	215.36
838.856	556.26
839.292	1649.46
839.727	2385.86
840.163	1138.16
840.599	1036.56
841.034	2176.76
841.47	2173.06
841.906	813.76
842.341	346.06
842.777	211.96
843.212	209.26
843.648	187.26
844.083	113.66
844.519	90.76
844.954	75.86
845.39	60.66
845.825	61.86
846.261	63.26
846.696	55.26
847.131	49.36
847.566	57.36
848.002	51.06
848.437	63.06
848.872	61.06
849.307	63.86
849.742	91.56
850.177	203.76
850.613	604.46
851.048	904.46
851.483	389.76
851.918	166.16
852.353	93.76
852.788	53.46
853.223	54.56
853.657	58.56
854.092	52.16
854.527	44.56
854.962	41.86
855.397	44.16
855.832	53.26
856.266	44.46
856.701	38.86
857.136	34.76
857.57	44.36
858.005	52.26
858.44	61.16
858.874	48.86
859.309	53.96
859.743	43.06
860.178	52.06
860.612	46.16
861.047	58.26
861.481	73.16
861.915	73.06
862.35	52.06
862.784	33.46
863.218	36.96
863.653	35.76
864.087	49.56
864.521	53.96
864.955	64.66
865.39	165.56
865.824	184.66
866.258	123.36
866.692	176.66
867.126	191.16
867.56	114.56
867.994	61.76
868.428	38.16
868.862	50.86
869.296	61.36
869.73	55.26
870.164	60.06
870.598	52.56
871.031	38.16
871.465	32.16
871.899	31.06
872.333	28.26
872.766	29.16
873.2	29.76
873.634	31.16
874.067	29.16
874.501	26.26
874.935	31.36
875.368	27.86
875.802	29.26
876.235	32.16
876.669	27.36
877.102	24.46
877.535	25.06
877.969	20.56
878.402	22.96
878.836	17.26
879.269	25.46
879.702	25.56
880.135	19.36
880.569	18.26
881.002	27.96
881.435	19.86
881.868	20.06
882.301	18.76
882.734	20.86
883.167	23.46
883.601	20.76
884.034	22.86
884.467	12.26
884.899	17.86
885.332	13.36
885.765	18.16
886.198	21.56
886.631	13.76
887.064	15.26
887.497	19.46
887.929	21.56
888.362	16.46
888.795	12.76
889.228	19.46
889.66	24.96
890.093	18.76
890.526	12.16
890.958	10.66
891.391	16.46
891.823	19.66
892.256	15.36
892.688	15.16
893.121	18.36
893.553	18.96
893.985	29.46
894.418	23.16
894.85	14.96
895.282	17.66
895.715	14.86
896.147	11.86
896.579	21.16
897.011	11.96
897.444	18.26
897.876	17.06
898.308	19.96
898.74	21.56
899.172	18.26
899.604	23.46
900.036	24.96
900.468	8.86
900.9	12.76
901.332	16.56
901.764	13.96
902.196	19.96
902.628	16.16
903.06	17.96
903.491	29.36
903.923	27.66
904.355	22.16
904.787	25.86
905.218	22.06
905.65	17.26
906.082	13.26
906.513	15.06
906.945	17.16
907.376	13.66
907.808	18.96
908.239	19.36
908.671	18.26
909.102	19.36
909.534	26.46
909.965	50.76
910.397	98.06
910.828	341.46
911.259	483.56
911.691	223.86
912.122	119.06
912.553	52.16
912.984	33.26
913.415	23.66
913.847	29.56
914.278	16.16
914.709	15.26
915.14	17.16
915.571	18.26
916.002	10.96
916.433	16.16
916.864	17.26
917.295	10.36
917.726	18.56
918.157	13.36
918.587	31.76
919.018	27.76
919.449	16.86
919.88	19.86
920.311	31.86
920.741	55.66
921.172	183.56
921.603	158.26
922.033	75.86
922.464	48.56
922.895	19.66
923.325	17.06
923.756	14.96
924.186	12.96
924.617	15.76
925.047	13.56
925.478	24.16
925.908	19.76
926.338	12.86
926.769	10.96
927.199	11.06
927.629	13.26
928.06	14.26
928.49	9.46
928.92	15.76
929.35	9.66
929.78	6.76
930.21	8.46
930.641	1.66
931.071	11.26
931.501	2.46
931.931	4.86
932.361	8.26
932.791	-1.14
933.221	4.76
933.651	3.86
934.08	24.46
934.51	32.96
934.94	6.26
935.37	10.66
935.8	9.96
936.229	5.56
936.659	10.36
937.089	2.46
937.519	17.36
937.948	20.96
938.378	18.96
938.807	9.96
939.237	0.46
939.666	6.36
940.096	2.26
940.525	2.96
940.955	2.16
941.384	3.96
941.814	-5.34
942.243	1.06
942.672	1.96
943.102	0.36
943.531	2.66
943.96	4.96
944.39	5.46
944.819	-7.34
945.248	1.16
945.677	1.96
946.106	2.66
946.535	5.56
946.964	-1.34
947.393	6.96
947.822	1.46
948.251	-7.64
948.68	5.56
949.109	5.16
949.538	5.96
949.967	4.56
950.396	-0.34
950.825	0.36
951.254	2.66
951.682	-4.44
952.111	-2.44
952.54	8.56
952.969	-1.84
953.397	-6.54
953.826	6.36
954.254	-10.34
954.683	-0.94
955.112	-1.84
955.54	-2.14
955.969	4.06
956.397	2.76
956.826	-3.44
957.254	5.06
957.682	1.66
958.111	8.96
958.539	0.26
958.967	1.96
959.396	-2.64
959.824	2.76
960.252	1.76
960.68	-5.04
961.109	-4.44
961.537	-10.84
961.965	-7.24
962.393	0.06
962.821	-3.34
963.249	-4.24
963.677	9.66
964.105	3.06
964.533	42.36
964.961	40.86
965.389	21.86
965.817	8.26
966.245	-0.74
966.672	-3.54
967.1	-5.84
967.528	-3.84
967.956	-0.74
968.383	3.06
968.811	-2.64
969.239	6.06
969.666	-5.34
970.094	-2.34
970.522	0.96
970.949	-3.14
971.377	-5.44
971.804	-1.14
972.232	-0.34
972.659	-0.94
973.087	-0.94
973.514	-6.84
973.941	-8.94
974.369	1.06
974.796	4.36
975.223	-3.84
975.651	-2.64
976.078	3.96
976.505	-0.04
976.932	5.46
977.359	13.56
977.786	17.16
978.214	-4.94
978.641	-2.74
979.068	-7.04
979.495	-12.24
979.922	5.96
980.349	-0.04
980.776	1.26
981.202	-5.14
981.629	5.06
982.056	1.36
982.483	-2.54
982.91	-1.74
983.337	-5.54
983.763	4.96
984.19	-6.14
984.617	-8.04
985.043	-7.64
985.47	-3.34
985.897	-5.34
986.323	-3.74
986.75	2.66
987.176	-1.44
987.603	-0.14
988.029	-1.44
988.456	-1.74
988.882	-1.24
989.308	-0.34
989.735	2.96
990.161	-1.94
990.587	-6.54
991.014	-2.24
991.44	5.16
991.866	-5.34
992.292	0.66
992.719	-1.14
993.145	-0.14
993.571	-8.64
993.997	-6.24
994.423	-5.64
994.849	-8.34
995.275	-1.14
995.701	3.46
996.127	-5.14
996.553	-2.04
996.979	-3.24
997.405	0.06
997.83	-3.64
998.256	-10.44
998.682	-6.74
999.108	-10.74
999.534	-2.34
999.959	-1.74
1000.385	-6.84
1000.811	-5.94
1001.236	-9.74
1001.662	-11.44
1002.087	-6.34
1002.513	-2.44
1002.938	-3.74
1003.364	0.76
1003.789	-2.64
1004.215	-1.14
1004.64	-2.64
1005.066	4.36
1005.491	3.46
1005.916	1.26
1006.342	-1.14
1006.767	-7.54
1007.192	4.06
1007.617	-6.44
1008.042	-5.54
1008.468	-4.54
1008.893	-8.64
1009.318	-0.94
1009.743	-1.64
1010.168	1.36
1010.593	4.16
1011.018	-10.44
1011.443	-4.04
1011.868	-7.34
1012.293	-7.74
1012.718	-5.54
1013.143	-3.54
1013.567	-4.24
1013.992	-9.54
1014.417	-14.34
1014.842	-1.24
1015.267	-6.14
1015.691	-1.54
1016.116	4.56
1016.541	-1.24
1016.965	1.56
1017.39	4.56
1017.814	-2.24
1018.239	-1.74
1018.663	-5.54
1019.088	-8.64
1019.512	-7.94
1019.937	-2.14
1020.361	-7.24
1020.785	-9.34
1021.21	-4.14
1021.634	-4.64
1022.058	1.46
1022.483	5.96
1022.907	0.86
1023.331	-0.04
1023.755	-2.64
1024.179	-8.24
1024.604	-7.54
1025.028	-5.14
1025.452	-0.04
1025.876	-2.84
1026.3	-0.34
1026.724	-11.04
1027.148	-3.04
1027.572	-5.84
1027.996	-6.54
1028.42	1.36
1028.843	-2.84
1029.267	-7.14
1029.691	-3.44
1030.115	-4.94
1030.539	-0.94
1030.962	-6.94
1031.386	-10.24
1031.81	-4.74
1032.233	-6.94
1032.657	-5.54
1033.08	1.46
1033.504	-3.64
1033.927	-4.54
1034.351	0.46
1034.774	-3.44
1035.198	-2.34
1035.621	-6.64
1036.045	-14.84
1036.468	-2.44
1036.891	-12.04
1037.315	-6.04
1037.738	-6.44
1038.161	1.66
1038.584	-6.14
1039.008	-9.54
1039.431	-9.34
1039.854	-2.74
1040.277	-5.84
1040.7	-9.04
1041.123	-0.24
1041.546	-12.64
1041.969	-8.94
1042.392	-13.44
1042.815	4.36
1043.238	-1.34
1043.661	2.86
1044.084	-12.24
1044.507	-4.14
1044.93	-8.74
1045.352	-4.34
1045.775	-6.14
1046.198	-2.94
1046.621	4.46
1047.043	1.06
1047.466	3.26
1047.889	-2.34
1048.311	-1.04
1048.734	-5.14
1049.156	-5.14
1049.579	-3.04
1050.001	-2.44
1050.424	2.16
1050.846	-4.14
1051.269	-1.94
1051.691	-6.54
1052.113	-7.44
1052.536	-4.04
1052.958	-0.34
1053.38	-4.14
1053.802	-13.14
1054.225	1.56
1054.647	-8.24
1055.069	-3.74
1055.491	-0.94
1055.913	-7.84
1056.335	2.66
1056.757	-4.04
1057.179	-2.64
1057.601	-4.84
1058.023	-8.34
1058.445	-10.54
1058.867	-1.34
1059.289	-4.34
1059.711	-5.34
1060.133	-9.94
1060.555	-6.84
1060.976	-2.74
1061.398	-2.54
1061.82	-8.54
1062.241	-11.04
1062.663	-6.84
1063.085	-0.14
1063.506	-1.54
1063.928	-4.14
1064.35	-2.44
1064.771	-18.24
1065.193	-2.84
1065.614	-9.74
1066.035	-2.24
1066.457	-6.64
1066.878	-4.94
1067.3	-5.04
1067.721	-6.14
1068.142	-6.04
1068.564	-4.24
1068.985	-8.94
1069.406	-8.64
1069.827	-5.64
1070.248	0.06
1070.67	-1.74
1071.091	-6.14
1071.512	-4.54
1071.933	-4.84
1072.354	-6.74
1072.775	-7.04
1073.196	-9.94
1073.617	-3.44
1074.038	-4.54
1074.459	-0.54
1074.88	-5.64
1075.3	-5.54
1075.721	-7.64
1076.142	-0.84
1076.563	-2.14
1076.983	-12.14
1077.404	-9.14
1077.825	-12.54
1078.246	-8.34
1078.666	-6.34
1079.087	-7.54
1079.507	-7.34
1079.928	3.96
1080.348	-2.74
1080.769	-6.14
1081.189	-2.94
1081.61	-1.74
1082.03	-9.74
1082.451	-4.54
1082.871	-2.84
1083.291	-6.54
1083.711	-8.94
1084.132	-10.64
1084.552	-9.54
1084.972	0.26
1085.392	-11.94
1085.813	-12.04
1086.233	-8.64
1086.653	-4.84
1087.073	-1.94
1087.493	-4.84
1087.913	-7.04
1088.333	-10.14
1088.753	-7.14
1089.173	4.36
1089.593	-5.94
1090.013	1.96
1090.433	-1.24
1090.852	-5.64
1091.272	0.26
1091.692	-5.44
1092.112	-5.64
1092.531	-16.84
1092.951	-13.24
1093.371	-1.34
1093.79	2.36
1094.21	-3.74
1094.63	-6.54
1095.049	-6.74
1095.469	-5.94
1095.888	-6.44
1096.308	1.06
1096.727	1.16
1097.146	-9.54
1097.566	-4.84
1097.985	-5.74
1098.405	-6.84
1098.824	-11.04
1099.243	-1.14
1099.662	-10.64
1100.082	-1.34
1100.501	3.26
1100.92	-4.84
1101.339	-5.24
1101.758	-10.14
