Data from 20171114-ORNL-Ar_H_NY_Subt18_08-08-46-804.txt Node
Date: Tue Nov 14 08:08:46 EST 2017
User: Ender
Spectrometer: HR+D1039
Trigger mode: 0
Integration Time (sec): 2.730000E-2
Scans to average: 10
Electric dark correction enabled: true
Nonlinearity correction enabled: false
Boxcar width: 0
XAxis mode: Wavelengths
Number of Pixels in Spectrum: 2048
>>>>>Begin Spectral Data<<<<<
187.836	-8.07
188.309	-8.07
188.782	-8.07
189.255	-0.27
189.728	-0.87
190.201	5.83
190.674	-4.07
191.147	4.43
191.619	-1.27
192.092	2.93
192.565	7.03
193.038	-3.87
193.511	-2.47
193.984	1.93
194.456	-0.37
194.929	1.93
195.402	-1.77
195.874	-1.07
196.347	0.33
196.82	-2.47
197.292	4.33
197.765	-1.67
198.237	-1.47
198.71	-1.57
199.182	-1.27
199.655	2.23
200.127	4.73
200.6	-2.77
201.072	-2.57
201.544	-1.07
202.017	-1.07
202.489	9.03
202.961	0.43
203.433	-3.57
203.906	-5.87
204.378	-5.37
204.85	-3.37
205.322	-7.57
205.794	-2.37
206.266	-4.87
206.739	-3.07
207.211	6.93
207.683	-3.77
208.155	-7.77
208.627	-4.87
209.099	-5.57
209.57	-5.57
210.042	-2.97
210.514	-2.47
210.986	-1.37
211.458	-10.87
211.93	0.03
212.402	2.03
212.873	-5.27
213.345	-10.77
213.817	-12.97
214.288	-2.67
214.76	-13.77
215.232	-5.07
215.703	-0.07
216.175	-4.07
216.646	-4.37
217.118	-3.57
217.589	-0.77
218.061	0.83
218.532	-3.97
219.004	-4.57
219.475	-3.37
219.946	-0.47
220.418	-3.37
220.889	3.33
221.36	-0.27
221.832	-1.57
222.303	-5.17
222.774	2.23
223.245	-7.37
223.717	-6.97
224.188	-5.77
224.659	-4.27
225.13	-5.67
225.601	-0.97
226.072	1.83
226.543	5.23
227.014	6.03
227.485	6.03
227.956	-2.47
228.427	-5.77
228.898	-2.87
229.369	4.23
229.839	1.03
230.31	-7.57
230.781	0.43
231.252	-2.67
231.722	-4.57
232.193	-1.27
232.664	-3.27
233.135	2.53
233.605	-0.07
234.076	-3.87
234.546	3.93
235.017	3.13
235.487	-8.67
235.958	-1.07
236.428	-2.37
236.899	-1.67
237.369	-6.67
237.84	-4.57
238.31	5.53
238.78	-2.67
239.251	-3.97
239.721	-5.67
240.191	-2.37
240.662	-3.87
241.132	-0.77
241.602	-5.37
242.072	-1.17
242.542	7.33
243.013	-5.37
243.483	3.13
243.953	6.33
244.423	0.73
244.893	-3.17
245.363	-3.27
245.833	-1.17
246.303	-4.27
246.773	8.73
247.243	1.53
247.712	-1.07
248.182	5.03
248.652	7.23
249.122	-8.47
249.592	-0.87
250.061	7.43
250.531	8.33
251.001	-3.17
251.471	5.03
251.94	11.33
252.41	4.03
252.879	0.53
253.349	3.13
253.818	5.93
254.288	7.53
254.757	-4.97
255.227	-5.57
255.696	-0.47
256.166	4.13
256.635	1.63
257.105	3.63
257.574	3.73
258.043	5.03
258.513	-2.97
258.982	-2.47
259.451	-3.17
259.92	-0.47
260.389	6.93
260.859	5.83
261.328	4.43
261.797	5.13
262.266	-3.77
262.735	17.83
263.204	-2.37
263.673	-2.97
264.142	6.53
264.611	-7.37
265.08	-2.87
265.549	-4.07
266.018	4.43
266.487	-5.07
266.955	-0.37
267.424	-0.97
267.893	4.73
268.362	-1.17
268.83	1.13
269.299	6.33
269.768	6.23
270.236	-0.57
270.705	2.23
271.174	1.53
271.642	5.43
272.111	4.83
272.579	5.93
273.048	3.03
273.516	4.83
273.985	10.03
274.453	7.83
274.922	12.13
275.39	7.63
275.858	1.93
276.327	3.23
276.795	15.53
277.263	7.23
277.731	7.73
278.2	11.13
278.668	9.63
279.136	13.73
279.604	6.03
280.072	12.93
280.54	4.23
281.008	4.83
281.477	11.23
281.945	7.83
282.413	13.23
282.881	6.43
283.348	5.13
283.816	11.63
284.284	10.33
284.752	17.93
285.22	10.73
285.688	13.43
286.156	11.63
286.623	16.53
287.091	12.83
287.559	8.93
288.026	7.73
288.494	12.43
288.962	-1.17
289.429	3.73
289.897	12.93
290.364	9.23
290.832	12.23
291.3	10.43
291.767	13.13
292.234	9.03
292.702	11.63
293.169	10.83
293.637	14.13
294.104	18.33
294.571	3.23
295.039	6.53
295.506	8.93
295.973	15.43
296.44	5.63
296.908	12.73
297.375	7.23
297.842	11.63
298.309	9.63
298.776	9.03
299.243	14.63
299.71	9.73
300.177	16.53
300.644	14.83
301.111	16.13
301.578	13.53
302.045	17.33
302.512	21.73
302.979	20.53
303.446	17.53
303.913	3.93
304.379	18.73
304.846	19.93
305.313	21.03
305.78	16.63
306.246	21.63
306.713	16.93
307.18	20.53
307.646	16.63
308.113	20.03
308.579	12.43
309.046	16.13
309.512	19.43
309.979	7.03
310.445	20.63
310.912	15.83
311.378	25.63
311.845	19.63
312.311	25.83
312.777	28.33
313.244	22.23
313.71	31.73
314.176	30.03
314.642	20.23
315.109	22.23
315.575	28.23
316.041	29.03
316.507	22.93
316.973	25.03
317.439	23.73
317.905	29.43
318.371	26.93
318.837	20.63
319.303	23.63
319.769	24.63
320.235	27.43
320.701	31.23
321.167	27.63
321.633	25.03
322.099	30.23
322.564	38.43
323.03	30.13
323.496	28.93
323.962	27.93
324.427	28.13
324.893	32.63
325.359	32.33
325.824	31.43
326.29	31.53
326.755	31.03
327.221	32.83
327.686	35.13
328.152	37.83
328.617	36.13
329.083	41.63
329.548	39.13
330.014	37.63
330.479	35.43
330.944	35.53
331.41	41.03
331.875	35.33
332.34	39.63
332.805	35.63
333.271	38.63
333.736	33.03
334.201	43.13
334.666	39.63
335.131	38.43
335.596	39.33
336.061	38.33
336.526	30.03
336.991	40.03
337.456	44.33
337.921	38.53
338.386	36.23
338.851	36.63
339.316	37.83
339.781	42.03
340.246	44.13
340.711	42.63
341.175	42.13
341.64	33.83
342.105	47.23
342.569	46.03
343.034	47.53
343.499	40.33
343.963	43.73
344.428	51.23
344.893	47.83
345.357	48.63
345.822	51.53
346.286	57.53
346.751	59.33
347.215	54.23
347.679	61.43
348.144	76.13
348.608	67.23
349.073	60.53
349.537	67.73
350.001	64.93
350.465	75.83
350.93	68.13
351.394	72.03
351.858	64.33
352.322	71.43
352.786	80.73
353.25	87.73
353.715	94.53
354.179	83.73
354.643	102.73
355.107	102.73
355.571	93.73
356.035	85.33
356.498	95.53
356.962	98.63
357.426	102.43
357.89	99.63
358.354	67.23
358.818	66.93
359.281	65.23
359.745	64.03
360.209	66.13
360.673	65.93
361.136	74.53
361.6	75.13
362.064	77.43
362.527	73.13
362.991	80.13
363.454	71.23
363.918	62.93
364.381	67.73
364.845	76.93
365.308	71.83
365.772	73.63
366.235	77.13
366.698	68.23
367.162	78.23
367.625	77.53
368.088	77.63
368.552	79.63
369.015	76.43
369.478	83.53
369.941	83.83
370.404	83.63
370.867	89.13
371.331	89.03
371.794	98.23
372.257	88.83
372.72	98.13
373.183	90.43
373.646	88.33
374.109	90.63
374.572	89.73
375.035	88.03
375.497	99.93
375.96	91.53
376.423	91.03
376.886	105.03
377.349	100.13
377.811	89.73
378.274	95.23
378.737	92.43
379.199	101.53
379.662	101.53
380.125	98.43
380.587	97.43
381.05	96.03
381.512	100.83
381.975	114.83
382.437	106.33
382.9	110.13
383.362	112.63
383.825	119.33
384.287	120.53
384.75	105.33
385.212	111.63
385.674	122.43
386.136	123.93
386.599	110.13
387.061	112.73
387.523	113.33
387.985	116.93
388.447	119.93
388.91	124.33
389.372	122.53
389.834	124.33
390.296	121.63
390.758	119.73
391.22	132.43
391.682	143.13
392.144	163.73
392.606	147.23
393.068	133.73
393.529	136.93
393.991	131.63
394.453	123.83
394.915	126.13
395.377	141.13
395.838	136.13
396.3	140.73
396.762	130.03
397.224	129.93
397.685	120.23
398.147	123.13
398.608	124.13
399.07	123.33
399.531	127.63
399.993	140.33
400.454	148.03
400.916	145.33
401.377	138.83
401.839	140.63
402.3	138.53
402.762	156.03
403.223	168.03
403.684	168.83
404.145	152.63
404.607	155.83
405.068	153.53
405.529	157.43
405.99	177.33
406.451	163.03
406.913	168.53
407.374	151.03
407.835	151.33
408.296	155.43
408.757	161.53
409.218	174.13
409.679	166.03
410.14	168.03
410.601	166.03
411.062	168.43
411.522	179.43
411.983	172.23
412.444	163.53
412.905	181.13
413.366	177.93
413.826	187.33
414.287	213.23
414.748	261.13
415.208	238.63
415.669	211.33
416.13	204.23
416.59	200.43
417.051	211.23
417.511	210.53
417.972	232.83
418.432	246.13
418.893	283.33
419.353	242.23
419.814	195.53
420.274	182.73
420.734	178.13
421.195	191.23
421.655	180.33
422.115	189.03
422.576	187.33
423.036	194.73
423.496	197.43
423.956	211.33
424.416	224.43
424.876	265.93
425.336	252.53
425.797	257.13
426.257	245.93
426.717	238.63
427.177	225.23
427.637	217.43
428.097	228.63
428.556	229.73
429.016	263.63
429.476	243.43
429.936	263.53
430.396	266.63
430.856	273.53
431.315	296.93
431.775	336.83
432.235	365.63
432.694	340.23
433.154	343.53
433.614	376.63
434.073	315.83
434.533	269.13
434.993	261.43
435.452	268.93
435.912	288.53
436.371	276.23
436.83	268.23
437.29	256.73
437.749	243.53
438.209	243.63
438.668	262.13
439.127	279.43
439.587	253.13
440.046	236.83
440.505	250.63
440.964	271.43
441.424	317.23
441.883	296.03
442.342	251.63
442.801	226.53
443.26	218.63
443.719	221.63
444.178	221.83
444.637	209.73
445.096	219.43
445.555	220.33
446.014	225.03
446.473	225.83
446.932	224.73
447.391	226.63
447.849	234.43
448.308	221.73
448.767	222.73
449.226	236.63
449.685	238.73
450.143	254.53
450.602	242.23
451.061	227.63
451.519	238.23
451.978	238.13
452.436	232.23
452.895	240.33
453.353	252.33
453.812	247.53
454.27	233.83
454.729	245.83
455.187	234.63
455.646	242.93
456.104	250.83
456.562	257.13
457.021	265.43
457.479	262.23
457.937	274.63
458.395	267.63
458.854	250.43
459.312	257.63
459.77	272.93
460.228	261.43
460.686	245.43
461.144	245.43
461.602	242.43
462.06	246.93
462.518	252.73
462.976	256.33
463.434	262.23
463.892	268.23
464.35	273.13
464.808	289.73
465.266	273.03
465.724	274.23
466.181	277.63
466.639	277.13
467.097	290.43
467.555	291.13
468.012	307.03
468.47	309.13
468.928	329.33
469.385	343.43
469.843	337.73
470.3	352.03
470.758	365.03
471.215	381.23
471.673	407.63
472.13	405.33
472.588	417.13
473.045	381.43
473.503	380.43
473.96	395.53
474.417	397.13
474.875	431.33
475.332	464.03
475.789	460.13
476.246	462.53
476.704	484.23
477.161	503.33
477.618	517.13
478.075	559.73
478.532	601.93
478.989	671.63
479.446	782.03
479.903	747.83
480.36	765.53
480.817	826.33
481.274	909.63
481.731	986.73
482.188	1068.43
482.645	1185.83
483.102	1272.33
483.558	1396.93
484.015	1430.73
484.472	1398.33
484.929	1365.93
485.385	1336.93
485.842	1300.63
486.299	1246.73
486.755	1211.13
487.212	1040.93
487.668	895.23
488.125	814.43
488.582	748.33
489.038	724.23
489.494	684.03
489.951	656.73
490.407	656.03
490.864	633.53
491.32	643.73
491.776	633.63
492.233	642.33
492.689	610.43
493.145	608.13
493.602	587.83
494.058	603.73
494.514	605.53
494.97	637.23
495.426	644.63
495.882	618.43
496.338	603.33
496.794	619.13
497.251	611.93
497.707	624.13
498.163	631.53
498.618	630.13
499.074	630.53
499.53	664.73
499.986	659.63
500.442	636.33
500.898	618.73
501.354	616.13
501.809	613.03
502.265	622.43
502.721	627.93
503.177	634.63
503.632	644.53
504.088	649.13
504.543	675.93
504.999	685.53
505.455	654.63
505.91	638.03
506.366	628.03
506.821	624.93
507.277	636.83
507.732	634.93
508.187	628.63
508.643	642.73
509.098	655.83
509.553	660.43
510.009	661.43
510.464	671.13
510.919	691.83
511.375	698.33
511.83	705.53
512.285	717.63
512.74	755.53
513.195	772.53
513.65	768.53
514.105	760.83
514.56	767.63
515.015	781.83
515.47	797.33
515.925	780.33
516.38	783.63
516.835	786.23
517.29	774.33
517.745	772.43
518.2	756.43
518.655	751.13
519.109	738.33
519.564	747.93
520.019	728.23
520.474	723.93
520.928	724.73
521.383	719.03
521.838	707.63
522.292	709.43
522.747	715.13
523.201	713.03
523.656	703.53
524.11	704.53
524.565	701.93
525.019	691.73
525.474	696.03
525.928	698.03
526.382	693.63
526.837	696.93
527.291	699.23
527.745	688.03
528.2	696.93
528.654	702.03
529.108	693.33
529.562	693.03
530.016	690.93
530.47	680.53
530.925	698.33
531.379	691.83
531.833	697.93
532.287	697.63
532.741	692.33
533.195	701.83
533.649	708.33
534.103	719.63
534.556	700.73
535.01	710.23
535.464	703.03
535.918	716.93
536.372	724.73
536.826	724.73
537.279	703.93
537.733	703.63
538.187	718.13
538.64	713.43
539.094	723.63
539.548	730.83
540.001	719.63
540.455	727.73
540.908	737.43
541.362	736.23
541.815	755.93
542.269	768.73
542.722	760.53
543.175	777.83
543.629	780.23
544.082	793.03
544.536	781.43
544.989	789.43
545.442	795.23
545.895	792.93
546.349	796.63
546.802	791.63
547.255	801.33
547.708	813.33
548.161	826.03
548.614	825.43
549.067	841.73
549.52	828.13
549.973	829.13
550.426	811.53
550.879	803.93
551.332	811.83
551.785	810.93
552.238	812.63
552.691	829.93
553.144	840.03
553.596	850.03
554.049	873.53
554.502	890.53
554.955	920.13
555.407	907.73
555.86	905.43
556.313	891.83
556.765	895.43
557.218	888.93
557.67	895.53
558.123	880.93
558.576	873.03
559.028	878.23
559.48	885.33
559.933	888.63
560.385	840.13
560.838	816.63
561.29	805.53
561.742	788.03
562.195	775.13
562.647	769.63
563.099	787.83
563.551	786.53
564.004	801.03
564.456	780.63
564.908	770.43
565.36	760.53
565.812	730.13
566.264	728.73
566.716	715.93
567.168	706.93
567.62	711.33
568.072	709.13
568.524	697.03
568.976	693.63
569.428	681.53
569.88	682.23
570.332	691.73
570.784	694.73
571.235	688.03
571.687	709.03
572.139	713.33
572.59	723.33
573.042	729.43
573.494	722.93
573.945	715.73
574.397	695.93
574.849	699.93
575.3	699.33
575.752	693.83
576.203	686.03
576.655	689.63
577.106	674.53
577.557	680.43
578.009	680.23
578.46	677.43
578.912	664.83
579.363	674.13
579.814	681.43
580.265	669.03
580.717	667.93
581.168	681.23
581.619	683.83
582.07	690.93
582.521	687.83
582.972	684.13
583.423	678.13
583.875	683.03
584.326	695.83
584.777	705.03
585.227	743.43
585.678	761.13
586.129	798.93
586.58	808.53
587.031	845.63
587.482	900.83
587.933	947.23
588.384	909.43
588.834	826.33
589.285	778.23
589.736	788.13
590.186	790.03
590.637	775.53
591.088	751.13
591.538	741.83
591.989	738.73
592.439	736.53
592.89	724.83
593.34	728.63
593.791	713.73
594.241	709.53
594.692	720.43
595.142	712.93
595.593	699.23
596.043	720.33
596.493	719.13
596.943	722.63
597.394	728.33
597.844	731.73
598.294	744.93
598.744	773.33
599.195	790.33
599.645	837.63
600.095	886.93
600.545	939.13
600.995	985.03
601.445	1045.73
601.895	1105.73
602.345	1160.63
602.795	1135.93
603.245	1084.93
603.695	1039.33
604.145	973.43
604.594	925.23
605.044	876.53
605.494	819.23
605.944	760.43
606.393	762.43
606.843	732.43
607.293	748.93
607.743	738.73
608.192	751.43
608.642	765.43
609.091	768.23
609.541	771.93
609.99	773.23
610.44	774.13
610.889	725.43
611.339	725.63
611.788	701.43
612.238	710.03
612.687	712.73
613.136	706.83
613.586	723.33
614.035	705.53
614.484	726.53
614.933	728.63
615.383	720.43
615.832	723.93
616.281	716.03
616.73	686.53
617.179	669.03
617.628	654.23
618.077	629.73
618.526	632.43
618.975	625.53
619.424	626.63
619.873	616.83
620.322	624.63
620.771	604.93
621.22	604.33
621.669	605.33
622.118	603.33
622.567	592.03
623.015	576.53
623.464	576.03
623.913	573.03
624.361	565.23
624.81	562.93
625.259	565.23
625.707	560.33
626.156	561.13
626.604	571.03
627.053	573.63
627.501	576.23
627.95	581.43
628.398	591.93
628.847	577.93
629.295	584.73
629.744	577.63
630.192	573.23
630.64	576.23
631.089	557.33
631.537	560.63
631.985	550.83
632.433	548.83
632.881	540.13
633.33	558.43
633.778	550.53
634.226	533.63
634.674	548.03
635.122	552.53
635.57	567.93
636.018	589.93
636.466	583.03
636.914	566.33
637.362	578.23
637.81	584.93
638.258	586.13
638.705	597.03
639.153	624.33
639.601	634.13
640.049	660.83
640.497	682.43
640.944	705.33
641.392	651.43
641.84	614.63
642.287	593.23
642.735	563.63
643.182	574.03
643.63	574.63
644.078	569.53
644.525	585.63
644.973	595.83
645.42	603.63
645.867	632.03
646.315	637.43
646.762	663.63
647.21	702.13
647.657	718.43
648.104	746.63
648.551	773.23
648.999	828.23
649.446	898.53
649.893	989.13
650.34	1118.33
650.787	1346.23
651.234	1655.33
651.682	2141.53
652.129	2910.23
652.576	4154.43
653.023	6044.03
653.47	8141.53
653.917	10052.03
654.363	11521.03
654.81	12598.43
655.257	11995.33
655.704	7918.93
656.151	4789.53
656.598	3132.23
657.044	2241.03
657.491	1747.63
657.938	1416.63
658.385	1190.73
658.831	1045.63
659.278	941.63
659.724	839.03
660.171	776.43
660.618	715.63
661.064	685.03
661.511	663.93
661.957	659.33
662.404	650.73
662.85	663.53
663.296	636.93
663.743	565.83
664.189	549.53
664.635	541.03
665.082	544.13
665.528	538.33
665.974	520.73
666.42	519.03
666.867	510.53
667.313	494.03
667.759	480.43
668.205	470.53
668.651	460.83
669.097	466.93
669.543	455.03
669.989	449.73
670.435	457.13
670.881	456.13
671.327	463.33
671.773	483.83
672.219	510.83
672.665	554.43
673.11	609.23
673.556	647.23
674.002	684.53
674.448	670.93
674.893	561.53
675.339	487.43
675.785	455.93
676.23	435.43
676.676	402.83
677.122	399.23
677.567	382.03
678.013	378.13
678.458	371.53
678.904	376.53
679.349	364.03
679.794	362.73
680.24	370.13
680.685	366.53
681.131	357.33
681.576	354.53
682.021	364.63
682.466	357.03
682.912	360.33
683.357	364.23
683.802	390.53
684.247	431.43
684.692	471.13
685.137	521.33
685.583	559.83
686.028	577.13
686.473	534.33
686.918	455.13
687.363	440.13
687.807	407.43
688.252	378.63
688.697	368.53
689.142	348.63
689.587	345.03
690.032	338.13
690.477	360.23
690.921	368.53
691.366	398.73
691.811	418.83
692.255	444.23
692.7	477.93
693.145	521.83
693.589	740.53
694.034	1198.53
694.478	1601.83
694.923	1780.23
695.367	2306.33
695.812	1240.63
696.256	521.83
696.701	383.83
697.145	354.73
697.59	341.73
698.034	328.63
698.478	340.73
698.922	327.93
699.367	328.53
699.811	338.93
700.255	364.03
700.699	406.13
701.143	441.33
701.588	493.13
702.032	544.43
702.476	525.33
702.92	511.33
703.364	513.63
703.808	677.63
704.252	1111.33
704.696	1526.43
705.14	1719.73
705.584	2180.03
706.027	1100.73
706.471	547.73
706.915	408.73
707.359	365.23
707.803	328.83
708.246	325.33
708.69	326.23
709.134	327.83
709.577	322.33
710.021	319.43
710.465	321.93
710.908	315.43
711.352	311.23
711.795	323.63
712.239	369.83
712.682	406.23
713.126	424.13
713.569	470.13
714.012	370.93
714.456	320.23
714.899	301.03
715.342	286.53
715.786	272.33
716.229	268.83
716.672	270.13
717.115	254.03
717.558	258.53
718.002	258.23
718.445	276.53
718.888	293.63
719.331	306.93
719.774	319.43
720.217	314.43
720.66	287.83
721.103	278.33
721.546	264.23
721.989	260.63
722.432	237.73
722.874	243.73
723.317	234.83
723.76	245.63
724.203	268.83
724.645	332.03
725.088	473.13
725.531	596.03
725.974	659.53
726.416	559.73
726.859	317.03
727.301	257.03
727.744	253.03
728.187	240.43
728.629	245.83
729.071	255.13
729.514	263.13
729.956	274.03
730.399	298.33
730.841	298.23
731.283	284.43
731.726	276.53
732.168	269.13
732.61	278.93
733.053	295.43
733.495	333.73
733.937	366.33
734.379	417.53
734.821	462.83
735.263	579.33
735.705	896.43
736.148	1695.83
736.59	2725.13
737.032	3140.03
737.474	2541.83
737.916	848.83
738.357	455.03
738.799	342.93
739.241	317.43
739.683	293.93
740.125	306.43
740.567	312.43
741.008	334.93
741.45	330.83
741.892	329.43
742.334	364.63
742.775	381.33
743.217	360.53
743.658	287.03
744.1	261.73
744.542	273.73
744.983	331.13
745.425	362.03
745.866	359.73
746.307	291.73
746.749	287.13
747.19	343.03
747.632	491.83
748.073	966.23
748.514	2001.13
748.956	2964.23
749.397	3749.43
749.838	3091.03
750.279	3031.23
750.72	1555.73
751.162	572.23
751.603	343.53
752.044	269.83
752.485	232.63
752.926	224.43
753.367	205.83
753.808	205.03
754.249	199.53
754.69	193.23
755.131	191.03
755.572	184.93
756.013	191.03
756.453	193.83
756.894	200.03
757.335	200.43
757.776	199.53
758.216	204.23
758.657	204.83
759.098	212.33
759.538	232.03
759.979	286.13
760.42	401.53
760.86	776.43
761.301	2017.03
761.741	4703.93
762.182	6542.73
762.622	4635.33
763.063	1369.23
763.503	559.53
763.943	350.13
764.384	294.23
764.824	291.13
765.264	276.13
765.705	238.23
766.145	199.03
766.585	179.93
767.025	184.03
767.465	175.83
767.906	194.83
768.346	227.63
768.786	239.73
769.226	232.93
769.666	330.23
770.106	672.33
770.546	1682.13
770.986	2723.33
771.426	2420.93
771.866	818.93
772.306	335.53
772.745	212.33
773.185	171.73
773.625	175.03
774.065	158.53
774.505	167.63
774.944	226.03
775.384	418.33
775.824	672.23
776.263	629.53
776.703	302.93
777.142	169.83
777.582	146.13
778.021	125.73
778.461	126.83
778.9	132.43
779.34	135.13
779.779	122.23
780.219	116.53
780.658	111.23
781.097	111.23
781.537	112.83
781.976	110.83
782.415	107.43
782.855	107.63
783.294	110.23
783.733	108.63
784.172	115.63
784.611	108.23
785.05	114.53
785.489	116.53
785.928	120.73
786.367	125.13
786.806	123.43
787.245	135.43
787.684	138.23
788.123	149.53
788.562	140.43
789.001	129.63
789.44	132.03
789.879	124.83
790.317	120.73
790.756	142.03
791.195	139.73
791.634	157.63
792.072	219.43
792.511	394.93
792.95	1108.43
793.388	2194.43
793.827	1941.63
794.265	691.93
794.704	297.53
795.142	190.43
795.581	162.13
796.019	147.03
796.458	136.53
796.896	125.93
797.334	142.63
797.773	162.03
798.211	233.43
798.649	477.53
799.087	1089.53
799.526	1675.33
799.964	2111.93
800.402	2058.43
800.84	789.13
801.278	318.43
801.716	191.93
802.154	162.43
802.592	156.63
803.03	148.83
803.468	141.83
803.906	157.23
804.344	161.93
804.782	155.03
805.22	142.03
805.658	139.63
806.096	153.83
806.533	169.53
806.971	190.23
807.409	230.93
807.847	343.03
808.284	736.23
808.722	2007.73
809.16	3418.93
809.597	3360.73
810.035	5706.53
810.472	5864.63
810.91	2168.63
811.347	842.33
811.785	429.13
812.222	272.23
812.66	204.33
813.097	168.03
813.535	149.63
813.972	136.93
814.409	127.43
814.846	112.93
815.284	107.93
815.721	105.93
816.158	108.53
816.595	113.53
817.032	159.93
817.47	187.93
817.907	126.83
818.344	108.13
818.781	105.33
819.218	100.63
819.655	132.03
820.092	197.43
820.529	226.33
820.966	176.63
821.403	128.83
821.839	106.03
822.276	108.53
822.713	133.43
823.15	143.63
823.587	126.13
824.023	166.43
824.46	339.83
824.897	954.83
825.333	1385.93
825.77	608.23
826.206	250.43
826.643	146.53
827.08	104.13
827.516	86.43
827.953	80.53
828.389	86.33
828.825	77.33
829.262	72.53
829.698	67.03
830.135	72.33
830.571	66.73
831.007	67.83
831.443	64.23
831.88	70.13
832.316	68.53
832.752	65.73
833.188	70.53
833.624	66.53
834.06	71.93
834.497	70.63
834.933	74.73
835.369	77.93
835.805	67.83
836.241	85.43
836.677	90.73
837.112	96.93
837.548	112.83
837.984	142.63
838.42	217.73
838.856	547.43
839.292	1614.93
839.727	2360.73
840.163	1123.83
840.599	1004.63
841.034	2138.83
841.47	2167.23
841.906	805.03
842.341	344.43
842.777	213.73
843.212	219.13
843.648	205.93
844.083	120.83
844.519	89.03
844.954	74.03
845.39	56.73
845.825	54.43
846.261	62.23
846.696	58.13
847.131	58.63
847.566	65.23
848.002	47.63
848.437	51.63
848.872	60.23
849.307	68.93
849.742	88.53
850.177	198.43
850.613	599.83
851.048	903.13
851.483	401.93
851.918	159.63
852.353	90.93
852.788	56.73
853.223	49.13
853.657	49.43
854.092	53.43
854.527	51.33
854.962	48.23
855.397	46.23
855.832	54.03
856.266	47.13
856.701	43.33
857.136	41.13
857.57	46.53
858.005	55.83
858.44	62.53
858.874	50.13
859.309	52.03
859.743	44.73
860.178	52.23
860.612	46.53
861.047	58.13
861.481	75.33
861.915	73.53
862.35	53.53
862.784	34.33
863.218	39.63
863.653	44.23
864.087	49.13
864.521	51.03
864.955	74.83
865.39	165.33
865.824	179.23
866.258	123.83
866.692	182.13
867.126	190.03
867.56	119.63
867.994	62.23
868.428	42.03
868.862	46.93
869.296	58.93
869.73	57.63
870.164	57.03
870.598	48.93
871.031	35.73
871.465	36.03
871.899	33.13
872.333	23.53
872.766	31.13
873.2	27.13
873.634	34.33
874.067	31.23
874.501	31.33
874.935	40.23
875.368	34.03
875.802	31.43
876.235	26.33
876.669	28.43
877.102	22.63
877.535	33.03
877.969	27.53
878.402	29.33
878.836	22.83
879.269	28.63
879.702	24.63
880.135	22.03
880.569	30.53
881.002	32.43
881.435	25.43
881.868	22.93
882.301	26.93
882.734	17.73
883.167	23.63
883.601	17.73
884.034	15.93
884.467	16.23
884.899	22.33
885.332	16.23
885.765	16.13
886.198	15.63
886.631	25.23
887.064	19.63
887.497	23.13
887.929	24.13
888.362	14.53
888.795	14.83
889.228	15.43
889.66	22.63
890.093	17.03
890.526	15.43
890.958	13.63
891.391	17.43
891.823	18.23
892.256	18.53
892.688	18.13
893.121	16.13
893.553	17.23
893.985	25.63
894.418	21.03
894.85	13.23
895.282	22.63
895.715	16.43
896.147	21.33
896.579	15.23
897.011	14.33
897.444	23.43
897.876	16.73
898.308	15.23
898.74	11.03
899.172	19.63
899.604	23.53
900.036	14.13
900.468	13.43
900.9	20.33
901.332	19.13
901.764	16.23
902.196	22.53
902.628	18.03
903.06	14.93
903.491	29.53
903.923	24.93
904.355	24.63
904.787	22.73
905.218	17.83
905.65	19.13
906.082	16.13
906.513	14.63
906.945	16.83
907.376	16.93
907.808	20.03
908.239	24.33
908.671	20.93
909.102	24.93
909.534	29.43
909.965	49.13
910.397	98.63
910.828	333.23
911.259	486.73
911.691	223.23
912.122	110.43
912.553	63.43
912.984	36.03
913.415	28.03
913.847	25.43
914.278	16.23
914.709	18.63
915.14	23.63
915.571	25.23
916.002	16.13
916.433	17.43
916.864	25.23
917.295	12.73
917.726	13.63
918.157	12.13
918.587	25.83
919.018	23.83
919.449	25.53
919.88	27.23
920.311	37.93
920.741	54.33
921.172	176.43
921.603	151.23
922.033	74.13
922.464	51.03
922.895	23.93
923.325	21.23
923.756	16.53
924.186	15.13
924.617	20.13
925.047	23.43
925.478	31.83
925.908	28.33
926.338	19.23
926.769	15.03
927.199	23.23
927.629	7.53
928.06	15.93
928.49	10.43
928.92	19.63
929.35	12.43
929.78	13.53
930.21	10.83
930.641	12.03
931.071	12.83
931.501	3.93
931.931	12.03
932.361	4.63
932.791	4.13
933.221	7.93
933.651	5.33
934.08	16.93
934.51	35.53
934.94	14.53
935.37	11.53
935.8	16.33
936.229	4.33
936.659	5.23
937.089	1.53
937.519	21.63
937.948	24.13
938.378	19.73
938.807	4.73
939.237	3.53
939.666	13.23
940.096	-6.17
940.525	9.63
940.955	7.53
941.384	8.63
941.814	-0.27
942.243	1.73
942.672	1.93
943.102	-3.57
943.531	-1.27
943.96	5.73
944.39	0.63
944.819	-1.67
945.248	4.43
945.677	6.13
946.106	-0.17
946.535	3.93
946.964	1.43
947.393	2.83
947.822	2.43
948.251	-7.27
948.68	1.83
949.109	8.53
949.538	10.03
949.967	2.23
950.396	6.93
950.825	-4.07
951.254	4.43
951.682	-5.07
952.111	11.23
952.54	5.43
952.969	-2.77
953.397	-6.17
953.826	3.73
954.254	-4.87
954.683	4.03
955.112	1.03
955.54	-1.47
955.969	2.53
956.397	2.93
956.826	-3.97
957.254	4.93
957.682	-0.77
958.111	7.63
958.539	3.63
958.967	1.63
959.396	-2.77
959.824	-0.47
960.252	2.13
960.68	-10.67
961.109	0.63
961.537	3.13
961.965	0.63
962.393	4.33
962.821	-1.37
963.249	-1.47
963.677	1.63
964.105	10.13
964.533	48.43
964.961	46.73
965.389	17.43
965.817	13.83
966.245	1.03
966.672	-1.97
967.1	-8.87
967.528	2.23
967.956	-7.97
968.383	-2.87
968.811	-4.77
969.239	3.23
969.666	-0.77
970.094	5.63
970.522	1.13
970.949	-0.37
971.377	-1.37
971.804	1.13
972.232	-1.67
972.659	-2.87
973.087	4.73
973.514	3.93
973.941	-2.67
974.369	3.43
974.796	5.93
975.223	1.33
975.651	-2.07
976.078	2.93
976.505	3.13
976.932	1.03
977.359	17.43
977.786	13.63
978.214	3.23
978.641	-0.27
979.068	3.13
979.495	-5.27
979.922	3.43
980.349	1.43
980.776	3.73
981.202	1.73
981.629	6.83
982.056	8.03
982.483	-4.47
982.91	6.73
983.337	-0.17
983.763	1.33
984.19	-6.47
984.617	-1.67
985.043	-8.47
985.47	0.03
985.897	-3.67
986.323	-7.77
986.75	0.93
987.176	-2.17
987.603	-0.47
988.029	4.03
988.456	-2.97
988.882	-5.47
989.308	3.83
989.735	-6.57
990.161	1.43
990.587	-4.47
991.014	-2.17
991.44	11.43
991.866	0.63
992.292	-2.47
992.719	2.23
993.145	0.73
993.571	-9.67
993.997	-4.07
994.423	0.43
994.849	-0.77
995.275	-2.57
995.701	4.43
996.127	-1.17
996.553	1.33
996.979	6.63
997.405	-1.27
997.83	-2.77
998.256	-4.57
998.682	0.03
999.108	-3.27
999.534	0.63
999.959	1.63
1000.385	-1.17
1000.811	3.93
1001.236	-4.67
1001.662	-7.07
1002.087	-8.57
1002.513	-0.97
1002.938	5.53
1003.364	-3.47
1003.789	0.73
1004.215	1.03
1004.64	0.53
1005.066	7.13
1005.491	5.23
1005.916	-6.97
1006.342	-3.27
1006.767	-6.47
1007.192	1.83
1007.617	-10.47
1008.042	-2.87
1008.468	-12.37
1008.893	1.23
1009.318	2.53
1009.743	-3.57
1010.168	1.83
1010.593	3.63
1011.018	-4.77
1011.443	-9.67
1011.868	5.63
1012.293	0.03
1012.718	-2.27
1013.143	0.43
1013.567	2.83
1013.992	0.63
1014.417	-7.57
1014.842	1.73
1015.267	-1.37
1015.691	-2.57
1016.116	4.23
1016.541	0.43
1016.965	2.13
1017.39	-0.07
1017.814	1.33
1018.239	-0.47
1018.663	-4.67
1019.088	-5.17
1019.512	1.63
1019.937	-1.17
1020.361	-6.57
1020.785	-5.87
1021.21	-0.57
1021.634	-3.37
1022.058	5.73
1022.483	5.53
1022.907	-5.77
1023.331	-5.77
1023.755	-6.47
1024.179	-2.77
1024.604	-3.07
1025.028	-3.17
1025.452	3.83
1025.876	-3.67
1026.3	1.73
1026.724	-16.87
1027.148	-7.37
1027.572	-8.77
1027.996	-6.87
1028.42	-3.67
1028.843	-7.97
1029.267	-6.07
1029.691	-0.27
1030.115	-2.97
1030.539	-0.47
1030.962	-4.67
1031.386	-8.97
1031.81	-2.47
1032.233	1.13
1032.657	-1.77
1033.08	-5.37
1033.504	-2.17
1033.927	-0.67
1034.351	1.73
1034.774	-5.97
1035.198	-6.17
1035.621	-6.57
1036.045	-5.77
1036.468	8.43
1036.891	-6.57
1037.315	-9.67
1037.738	-13.47
1038.161	-4.67
1038.584	-6.07
1039.008	-2.37
1039.431	0.23
1039.854	-3.27
1040.277	-3.87
1040.7	-5.87
1041.123	-1.67
1041.546	-2.67
1041.969	-3.57
1042.392	-7.27
1042.815	-2.97
1043.238	-2.07
1043.661	-2.47
1044.084	-3.17
1044.507	-5.47
1044.93	-2.27
1045.352	-1.67
1045.775	1.13
1046.198	3.13
1046.621	-1.27
1047.043	-0.77
1047.466	7.33
1047.889	3.73
1048.311	-7.97
1048.734	-5.37
1049.156	1.93
1049.579	-0.37
1050.001	-6.87
1050.424	-0.47
1050.846	-7.47
1051.269	2.33
1051.691	-11.37
1052.113	-4.47
1052.536	-2.07
1052.958	-3.77
1053.38	-4.57
1053.802	-14.17
1054.225	0.23
1054.647	-8.37
1055.069	-8.17
1055.491	2.33
1055.913	-6.17
1056.335	-1.37
1056.757	0.23
1057.179	-1.37
1057.601	-9.57
1058.023	3.73
1058.445	-5.67
1058.867	-3.47
1059.289	-2.97
1059.711	-6.37
1060.133	3.13
1060.555	-5.47
1060.976	-2.27
1061.398	-6.67
1061.82	-4.77
1062.241	-3.47
1062.663	-8.07
1063.085	-4.67
1063.506	-0.27
1063.928	2.83
1064.35	-3.67
1064.771	-13.67
1065.193	-5.27
1065.614	-10.27
1066.035	-6.47
1066.457	-2.27
1066.878	4.23
1067.3	-2.17
1067.721	-3.17
1068.142	-4.77
1068.564	-4.37
1068.985	-9.47
1069.406	-7.17
1069.827	-5.27
1070.248	-0.97
1070.67	-5.47
1071.091	-5.87
1071.512	-2.27
1071.933	-12.27
1072.354	-4.87
1072.775	-4.77
1073.196	-9.07
1073.617	-6.47
1074.038	-10.87
1074.459	0.73
1074.88	-7.97
1075.3	0.93
1075.721	-8.97
1076.142	5.73
1076.563	-3.07
1076.983	-11.27
1077.404	-8.07
1077.825	-9.37
1078.246	-3.57
1078.666	-9.77
1079.087	-3.47
1079.507	-2.07
1079.928	-0.17
1080.348	-1.07
1080.769	-7.87
1081.189	-4.47
1081.61	-1.47
1082.03	-6.87
1082.451	-3.57
1082.871	0.73
1083.291	-6.97
1083.711	-11.37
1084.132	-6.17
1084.552	-6.97
1084.972	-2.67
1085.392	-11.77
1085.813	-10.57
1086.233	-13.97
1086.653	-8.37
1087.073	3.03
1087.493	-10.27
1087.913	-7.37
1088.333	-1.47
1088.753	-3.37
1089.173	0.33
1089.593	-4.97
1090.013	-0.47
1090.433	-0.67
1090.852	-3.67
1091.272	-4.17
1091.692	-5.37
1092.112	-2.47
1092.531	-4.37
1092.951	-6.97
1093.371	1.83
1093.79	3.43
1094.21	-3.47
1094.63	-2.87
1095.049	-4.57
1095.469	-2.27
1095.888	-5.37
1096.308	-0.97
1096.727	5.53
1097.146	-3.77
1097.566	0.13
1097.985	-1.07
1098.405	-1.07
1098.824	-2.17
1099.243	-9.27
1099.662	-8.67
1100.082	-3.27
1100.501	5.03
1100.92	-3.27
1101.339	-7.57
1101.758	-2.87
