Data from 20171114-ORNL-Ar_H_NY_Subt18_08-06-09-815.txt Node
Date: Tue Nov 14 08:06:09 EST 2017
User: Ender
Spectrometer: HR+D1039
Trigger mode: 0
Integration Time (sec): 2.730000E-2
Scans to average: 10
Electric dark correction enabled: true
Nonlinearity correction enabled: false
Boxcar width: 0
XAxis mode: Wavelengths
Number of Pixels in Spectrum: 2048
>>>>>Begin Spectral Data<<<<<
187.836	-3.61
188.309	-3.61
188.782	-3.61
189.255	1.79
189.728	1.79
190.201	6.99
190.674	-0.41
191.147	3.09
191.619	-8.31
192.092	-0.11
192.565	4.89
193.038	1.39
193.511	-0.51
193.984	0.59
194.456	-2.51
194.929	-2.61
195.402	-1.21
195.874	-1.21
196.347	-6.11
196.82	-3.41
197.292	9.39
197.765	6.89
198.237	-7.11
198.71	0.09
199.182	-4.61
199.655	-0.51
200.127	1.89
200.6	-2.21
201.072	-6.21
201.544	0.59
202.017	-4.41
202.489	0.19
202.961	-2.01
203.433	-1.81
203.906	-8.31
204.378	-8.11
204.85	-7.11
205.322	-7.31
205.794	-0.81
206.266	-2.51
206.739	-9.21
207.211	1.39
207.683	-5.71
208.155	-6.11
208.627	-8.81
209.099	-9.31
209.57	-11.31
210.042	-4.91
210.514	-8.21
210.986	-4.71
211.458	-7.81
211.93	-0.61
212.402	-1.81
212.873	-8.81
213.345	-3.21
213.817	-4.21
214.288	-5.21
214.76	-12.61
215.232	-10.41
215.703	-0.41
216.175	-0.31
216.646	-5.31
217.118	-4.41
217.589	-7.41
218.061	1.59
218.532	-7.71
219.004	0.39
219.475	-4.51
219.946	-5.51
220.418	-6.81
220.889	3.39
221.36	-0.61
221.832	-6.91
222.303	-14.11
222.774	-3.81
223.245	-13.11
223.717	-8.91
224.188	-3.91
224.659	-6.21
225.13	-2.81
225.601	-2.11
226.072	-1.11
226.543	-1.81
227.014	-4.81
227.485	-1.51
227.956	-10.21
228.427	-0.91
228.898	-1.21
229.369	11.09
229.839	-1.71
230.31	-8.11
230.781	3.39
231.252	1.19
231.722	-3.31
232.193	-2.41
232.664	-2.21
233.135	-0.11
233.605	-2.21
234.076	-7.41
234.546	0.49
235.017	5.99
235.487	5.99
235.958	-8.81
236.428	-4.11
236.899	6.59
237.369	-0.51
237.84	0.79
238.31	1.69
238.78	1.49
239.251	-0.11
239.721	0.99
240.191	-2.71
240.662	-2.91
241.132	-3.81
241.602	-1.51
242.072	-3.31
242.542	5.19
243.013	0.19
243.483	0.29
243.953	4.89
244.423	3.59
244.893	-1.81
245.363	-2.01
245.833	-2.61
246.303	1.29
246.773	10.59
247.243	4.99
247.712	1.29
248.182	10.09
248.652	5.59
249.122	-1.11
249.592	8.79
250.061	16.19
250.531	34.89
251.001	16.59
251.471	23.49
251.94	15.09
252.41	1.59
252.879	-0.21
253.349	12.09
253.818	11.89
254.288	-0.21
254.757	7.89
255.227	1.29
255.696	10.79
256.166	4.39
256.635	8.09
257.105	9.59
257.574	5.49
258.043	11.09
258.513	12.89
258.982	12.39
259.451	10.59
259.92	13.39
260.389	4.89
260.859	16.69
261.328	4.19
261.797	21.19
262.266	13.09
262.735	8.79
263.204	8.29
263.673	2.89
264.142	12.09
264.611	-0.11
265.08	4.79
265.549	2.09
266.018	6.89
266.487	-3.11
266.955	-8.21
267.424	1.19
267.893	7.09
268.362	2.09
268.83	5.89
269.299	12.19
269.768	6.89
270.236	8.79
270.705	2.29
271.174	0.49
271.642	7.29
272.111	8.69
272.579	19.89
273.048	20.89
273.516	30.49
273.985	28.89
274.453	27.39
274.922	22.29
275.39	4.59
275.858	1.09
276.327	6.89
276.795	21.19
277.263	12.09
277.731	28.19
278.2	53.59
278.668	60.19
279.136	40.69
279.604	24.39
280.072	18.19
280.54	13.99
281.008	9.99
281.477	14.99
281.945	11.49
282.413	13.49
282.881	16.19
283.348	8.99
283.816	14.49
284.284	11.79
284.752	17.29
285.22	8.89
285.688	16.99
286.156	18.49
286.623	51.49
287.091	58.59
287.559	34.59
288.026	17.29
288.494	17.19
288.962	7.09
289.429	8.69
289.897	22.19
290.364	14.79
290.832	15.99
291.3	13.69
291.767	18.39
292.234	23.59
292.702	14.79
293.169	19.69
293.637	22.69
294.104	15.89
294.571	4.99
295.039	15.69
295.506	12.29
295.973	16.89
296.44	15.99
296.908	18.49
297.375	16.89
297.842	25.29
298.309	10.29
298.776	11.89
299.243	19.59
299.71	13.49
300.177	20.09
300.644	25.89
301.111	23.79
301.578	28.19
302.045	15.39
302.512	19.89
302.979	27.39
303.446	24.39
303.913	17.09
304.379	20.79
304.846	24.89
305.313	24.39
305.78	18.39
306.246	27.79
306.713	24.69
307.18	29.89
307.646	26.59
308.113	28.49
308.579	27.49
309.046	24.59
309.512	23.69
309.979	15.19
310.445	25.49
310.912	25.29
311.378	25.99
311.845	29.09
312.311	30.29
312.777	24.39
313.244	28.99
313.71	36.19
314.176	33.89
314.642	35.59
315.109	31.09
315.575	32.09
316.041	33.89
316.507	33.29
316.973	41.79
317.439	34.59
317.905	33.49
318.371	39.89
318.837	36.59
319.303	32.89
319.769	39.99
320.235	33.39
320.701	38.19
321.167	33.49
321.633	32.99
322.099	37.69
322.564	50.09
323.03	46.39
323.496	39.99
323.962	42.19
324.427	38.29
324.893	38.99
325.359	37.89
325.824	38.59
326.29	38.89
326.755	39.29
327.221	40.19
327.686	35.69
328.152	49.29
328.617	42.19
329.083	48.99
329.548	49.29
330.014	53.19
330.479	41.49
330.944	44.69
331.41	43.29
331.875	39.99
332.34	41.39
332.805	49.29
333.271	48.79
333.736	48.09
334.201	57.89
334.666	53.49
335.131	51.89
335.596	43.39
336.061	49.39
336.526	41.49
336.991	44.29
337.456	58.69
337.921	47.99
338.386	44.19
338.851	49.19
339.316	46.69
339.781	48.89
340.246	53.19
340.711	51.99
341.175	53.99
341.64	47.39
342.105	54.39
342.569	57.39
343.034	52.89
343.499	57.29
343.963	55.19
344.428	69.39
344.893	59.09
345.357	60.29
345.822	64.49
346.286	69.89
346.751	75.59
347.215	71.39
347.679	77.89
348.144	106.29
348.608	83.79
349.073	66.89
349.537	71.09
350.001	75.09
350.465	83.59
350.93	85.49
351.394	76.79
351.858	78.09
352.322	87.09
352.786	77.89
353.25	99.39
353.715	108.59
354.179	101.89
354.643	124.79
355.107	126.49
355.571	107.39
356.035	101.79
356.498	117.89
356.962	124.59
357.426	128.79
357.89	120.09
358.354	93.59
358.818	89.09
359.281	85.59
359.745	78.19
360.209	76.49
360.673	77.99
361.136	79.29
361.6	85.19
362.064	84.59
362.527	82.19
362.991	93.19
363.454	84.09
363.918	78.79
364.381	79.99
364.845	82.49
365.308	79.79
365.772	83.29
366.235	85.89
366.698	83.19
367.162	90.09
367.625	85.39
368.088	84.99
368.552	89.29
369.015	87.99
369.478	95.59
369.941	98.59
370.404	95.89
370.867	99.39
371.331	102.89
371.794	120.49
372.257	112.79
372.72	120.89
373.183	110.19
373.646	106.09
374.109	103.29
374.572	109.89
375.035	114.59
375.497	109.39
375.96	106.69
376.423	107.29
376.886	117.99
377.349	106.89
377.811	102.59
378.274	107.29
378.737	109.69
379.199	107.99
379.662	116.29
380.125	120.49
380.587	120.09
381.05	117.59
381.512	128.19
381.975	137.19
382.437	130.19
382.9	133.69
383.362	136.29
383.825	146.49
384.287	148.69
384.75	140.39
385.212	143.69
385.674	135.59
386.136	140.69
386.599	130.59
387.061	136.19
387.523	135.79
387.985	134.09
388.447	148.39
388.91	148.39
389.372	159.99
389.834	155.79
390.296	147.49
390.758	159.79
391.22	164.79
391.682	214.69
392.144	300.29
392.606	232.09
393.068	164.99
393.529	169.49
393.991	153.39
394.453	148.49
394.915	159.79
395.377	189.89
395.838	214.09
396.3	162.19
396.762	138.59
397.224	126.39
397.685	128.69
398.147	136.29
398.608	130.69
399.07	129.79
399.531	132.39
399.993	143.69
400.454	151.49
400.916	149.19
401.377	146.09
401.839	155.29
402.3	154.89
402.762	167.49
403.223	176.39
403.684	173.09
404.145	162.79
404.607	160.49
405.068	163.59
405.529	172.89
405.99	188.79
406.451	181.49
406.913	169.19
407.374	164.79
407.835	162.79
408.296	171.19
408.757	180.19
409.218	193.69
409.679	176.49
410.14	178.69
410.601	179.59
411.062	185.89
411.522	196.99
411.983	193.69
412.444	177.99
412.905	174.29
413.366	179.69
413.826	188.39
414.287	219.59
414.748	259.79
415.208	244.69
415.669	209.99
416.13	213.69
416.59	201.59
417.051	210.79
417.511	219.99
417.972	230.19
418.432	244.89
418.893	283.29
419.353	249.29
419.814	201.29
420.274	187.39
420.734	185.69
421.195	194.89
421.655	197.99
422.115	193.69
422.576	186.29
423.036	196.69
423.496	208.19
423.956	217.79
424.416	232.49
424.876	267.69
425.336	258.89
425.797	266.29
426.257	255.49
426.717	248.79
427.177	234.89
427.637	226.29
428.097	237.09
428.556	250.09
429.016	269.19
429.476	264.59
429.936	281.49
430.396	271.69
430.856	290.39
431.315	322.19
431.775	354.09
432.235	387.09
432.694	350.99
433.154	365.59
433.614	395.89
434.073	339.09
434.533	286.89
434.993	272.79
435.452	280.79
435.912	296.59
436.371	294.09
436.83	295.19
437.29	275.69
437.749	253.89
438.209	246.39
438.668	269.59
439.127	285.99
439.587	268.39
440.046	249.29
440.505	261.79
440.964	286.99
441.424	327.39
441.883	315.09
442.342	254.29
442.801	221.79
443.26	220.89
443.719	225.69
444.178	225.29
444.637	210.69
445.096	222.99
445.555	225.89
446.014	221.59
446.473	224.39
446.932	234.79
447.391	230.59
447.849	230.19
448.308	221.89
448.767	224.59
449.226	233.39
449.685	236.69
450.143	247.49
450.602	236.89
451.061	226.29
451.519	232.69
451.978	233.29
452.436	236.59
452.895	237.59
453.353	259.09
453.812	240.79
454.27	236.69
454.729	241.59
455.187	233.69
455.646	244.59
456.104	242.19
456.562	255.99
457.021	271.19
457.479	260.39
457.937	269.89
458.395	259.29
458.854	239.09
459.312	261.09
459.77	275.99
460.228	247.09
460.686	241.79
461.144	253.29
461.602	236.09
462.06	243.39
462.518	253.19
462.976	251.59
463.434	257.89
463.892	263.19
464.35	275.19
464.808	290.49
465.266	261.79
465.724	265.69
466.181	276.09
466.639	268.79
467.097	291.09
467.555	297.19
468.012	308.09
468.47	314.79
468.928	332.99
469.385	340.09
469.843	352.79
470.3	348.49
470.758	363.99
471.215	389.59
471.673	413.49
472.13	402.49
472.588	411.49
473.045	375.09
473.503	375.39
473.96	388.49
474.417	405.59
474.875	432.69
475.332	467.69
475.789	464.19
476.246	469.79
476.704	489.59
477.161	512.09
477.618	525.09
478.075	559.29
478.532	626.89
478.989	700.69
479.446	815.09
479.903	782.39
480.36	815.49
480.817	872.99
481.274	975.09
481.731	1090.49
482.188	1184.29
482.645	1310.99
483.102	1429.19
483.558	1573.79
484.015	1634.89
484.472	1614.79
484.929	1544.89
485.385	1488.69
485.842	1443.49
486.299	1385.99
486.755	1321.89
487.212	1117.99
487.668	935.29
488.125	849.49
488.582	793.99
489.038	753.69
489.494	717.39
489.951	688.29
490.407	674.89
490.864	645.49
491.32	638.29
491.776	634.99
492.233	643.99
492.689	616.19
493.145	610.69
493.602	605.29
494.058	607.69
494.514	619.49
494.97	640.99
495.426	654.59
495.882	621.29
496.338	614.79
496.794	628.89
497.251	626.19
497.707	636.29
498.163	647.09
498.618	649.99
499.074	650.49
499.53	681.59
499.986	677.29
500.442	654.49
500.898	643.19
501.354	626.29
501.809	636.99
502.265	644.79
502.721	665.19
503.177	670.19
503.632	672.59
504.088	667.79
504.543	717.29
504.999	712.69
505.455	656.69
505.91	630.69
506.366	631.69
506.821	633.79
507.277	630.49
507.732	627.79
508.187	615.39
508.643	629.19
509.098	629.09
509.553	648.09
510.009	661.99
510.464	675.79
510.919	676.49
511.375	691.99
511.83	716.19
512.285	720.39
512.74	754.09
513.195	788.79
513.65	767.29
514.105	768.59
514.56	773.79
515.015	794.49
515.47	809.89
515.925	789.59
516.38	795.99
516.835	802.69
517.29	792.19
517.745	771.89
518.2	766.79
518.655	750.79
519.109	743.69
519.564	746.49
520.019	737.49
520.474	727.89
520.928	724.59
521.383	722.29
521.838	712.69
522.292	703.89
522.747	705.19
523.201	703.09
523.656	699.09
524.11	690.19
524.565	684.29
525.019	688.19
525.474	706.99
525.928	707.99
526.382	700.59
526.837	694.39
527.291	696.59
527.745	695.69
528.2	697.79
528.654	682.19
529.108	685.29
529.562	677.09
530.016	680.79
530.47	673.69
530.925	683.09
531.379	691.89
531.833	703.29
532.287	700.39
532.741	699.89
533.195	697.49
533.649	710.09
534.103	715.89
534.556	715.09
535.01	713.19
535.464	704.39
535.918	720.49
536.372	714.09
536.826	717.49
537.279	707.99
537.733	710.59
538.187	707.59
538.64	705.19
539.094	730.89
539.548	731.19
540.001	718.39
540.455	718.39
540.908	728.19
541.362	731.69
541.815	746.29
542.269	752.09
542.722	755.99
543.175	766.49
543.629	769.59
544.082	771.79
544.536	786.39
544.989	788.09
545.442	792.29
545.895	781.09
546.349	784.49
546.802	787.39
547.255	796.19
547.708	803.39
548.161	810.09
548.614	812.49
549.067	819.19
549.52	811.79
549.973	804.89
550.426	807.89
550.879	781.79
551.332	793.19
551.785	797.39
552.238	792.19
552.691	810.49
553.144	820.09
553.596	841.69
554.049	857.89
554.502	897.79
554.955	896.89
555.407	902.69
555.86	903.89
556.313	885.59
556.765	873.89
557.218	876.09
557.67	888.89
558.123	879.99
558.576	865.29
559.028	878.99
559.48	885.69
559.933	866.59
560.385	840.19
560.838	794.59
561.29	778.49
561.742	777.09
562.195	754.69
562.647	753.69
563.099	777.19
563.551	766.49
564.004	777.29
564.456	764.29
564.908	759.39
565.36	749.39
565.812	736.69
566.264	714.99
566.716	725.09
567.168	723.19
567.62	709.89
568.072	702.19
568.524	693.39
568.976	693.39
569.428	664.09
569.88	669.29
570.332	669.69
570.784	688.59
571.235	682.19
571.687	687.19
572.139	702.39
572.59	703.79
573.042	712.79
573.494	702.09
573.945	700.09
574.397	676.79
574.849	687.99
575.3	690.49
575.752	682.29
576.203	672.59
576.655	685.09
577.106	669.59
577.557	658.69
578.009	663.89
578.46	660.19
578.912	654.09
579.363	659.89
579.814	667.59
580.265	653.49
580.717	675.49
581.168	671.29
581.619	674.79
582.07	674.09
582.521	665.79
582.972	662.69
583.423	670.59
583.875	675.69
584.326	699.39
584.777	745.09
585.227	819.09
585.678	911.69
586.129	1013.89
586.58	1083.59
587.031	1167.29
587.482	1324.79
587.933	1522.99
588.384	1309.69
588.834	977.49
589.285	796.79
589.736	789.09
590.186	766.49
590.637	758.59
591.088	730.39
591.538	734.89
591.989	732.89
592.439	719.49
592.89	719.99
593.34	698.99
593.791	712.19
594.241	698.49
594.692	705.89
595.142	704.99
595.593	695.39
596.043	698.59
596.493	704.79
596.943	706.19
597.394	702.49
597.844	708.39
598.294	717.09
598.744	737.69
599.195	773.09
599.645	804.09
600.095	845.99
600.545	909.99
600.995	949.89
601.445	1010.89
601.895	1076.09
602.345	1119.09
602.795	1097.09
603.245	1056.89
603.695	1000.09
604.145	945.69
604.594	891.29
605.044	847.79
605.494	792.39
605.944	741.99
606.393	730.59
606.843	714.79
607.293	724.89
607.743	719.29
608.192	739.09
608.642	747.79
609.091	773.69
609.541	775.69
609.99	768.99
610.44	761.09
610.889	710.69
611.339	689.79
611.788	678.19
612.238	686.69
612.687	715.99
613.136	714.19
613.586	730.29
614.035	736.59
614.484	754.59
614.933	759.09
615.383	752.19
615.832	729.89
616.281	711.19
616.73	683.69
617.179	663.19
617.628	639.49
618.077	627.89
618.526	613.89
618.975	613.69
619.424	597.79
619.873	603.09
620.322	612.79
620.771	597.29
621.22	603.59
621.669	590.39
622.118	579.89
622.567	572.39
623.015	561.19
623.464	561.89
623.913	560.39
624.361	539.69
624.81	548.29
625.259	546.19
625.707	546.49
626.156	556.09
626.604	564.19
627.053	550.89
627.501	554.69
627.95	554.19
628.398	565.59
628.847	562.69
629.295	555.29
629.744	566.39
630.192	563.89
630.64	568.19
631.089	560.39
631.537	571.99
631.985	585.09
632.433	595.09
632.881	598.69
633.33	650.29
633.778	638.19
634.226	557.29
634.674	561.49
635.122	576.89
635.57	596.29
636.018	617.59
636.466	572.39
636.914	551.49
637.362	561.09
637.81	569.99
638.258	576.09
638.705	557.99
639.153	601.39
639.601	610.89
640.049	632.99
640.497	662.19
640.944	690.29
641.392	626.19
641.84	604.59
642.287	580.89
642.735	557.79
643.182	564.99
643.63	572.99
644.078	564.59
644.525	588.09
644.973	588.29
645.42	600.69
645.867	618.19
646.315	638.39
646.762	648.99
647.21	681.19
647.657	698.39
648.104	741.99
648.551	754.79
648.999	826.89
649.446	910.39
649.893	1006.79
650.34	1153.89
650.787	1386.79
651.234	1710.99
651.682	2227.99
652.129	3088.79
652.576	4452.79
653.023	6581.99
653.47	9038.59
653.917	11316.89
654.363	13084.09
654.81	14518.29
655.257	13815.89
655.704	9010.19
656.151	5304.49
656.598	3431.99
657.044	2424.59
657.491	1861.69
657.938	1482.39
658.385	1243.39
658.831	1086.59
659.278	954.49
659.724	839.19
660.171	773.89
660.618	706.09
661.064	674.39
661.511	661.49
661.957	649.39
662.404	636.79
662.85	635.59
663.296	613.89
663.743	555.19
664.189	532.39
664.635	525.09
665.082	514.09
665.528	514.79
665.974	510.19
666.42	502.39
666.867	493.69
667.313	485.79
667.759	478.49
668.205	473.09
668.651	478.89
669.097	478.29
669.543	493.09
669.989	460.59
670.435	436.59
670.881	429.49
671.327	434.99
671.773	456.49
672.219	479.39
672.665	527.69
673.11	564.99
673.556	609.89
674.002	653.99
674.448	639.59
674.893	537.29
675.339	469.29
675.785	429.99
676.23	407.19
676.676	379.69
677.122	374.29
677.567	366.39
678.013	359.09
678.458	348.99
678.904	350.59
679.349	340.29
679.794	344.09
680.24	344.29
680.685	341.39
681.131	331.89
681.576	341.59
682.021	338.59
682.466	338.29
682.912	339.59
683.357	344.59
683.802	372.79
684.247	400.69
684.692	442.59
685.137	481.09
685.583	523.59
686.028	546.09
686.473	507.69
686.918	432.39
687.363	403.99
687.807	375.99
688.252	350.19
688.697	349.39
689.142	329.39
689.587	331.19
690.032	316.29
690.477	333.19
690.921	342.79
691.366	365.29
691.811	388.49
692.255	415.39
692.7	448.29
693.145	481.79
693.589	664.69
694.034	1090.29
694.478	1488.49
694.923	1686.09
695.367	2204.09
695.812	1152.09
696.256	483.99
696.701	355.69
697.145	335.09
697.59	325.39
698.034	310.29
698.478	325.89
698.922	323.39
699.367	317.59
699.811	328.19
700.255	344.99
700.699	373.19
701.143	420.89
701.588	460.89
702.032	495.29
702.476	494.69
702.92	467.69
703.364	475.19
703.808	617.99
704.252	996.49
704.696	1399.29
705.14	1619.99
705.584	2071.59
706.027	1030.29
706.471	500.79
706.915	377.09
707.359	340.09
707.803	306.89
708.246	300.49
708.69	304.29
709.134	302.59
709.577	305.69
710.021	307.89
710.465	300.49
710.908	292.89
711.352	287.69
711.795	300.69
712.239	339.09
712.682	367.69
713.126	401.69
713.569	452.39
714.012	368.29
714.456	315.79
714.899	294.29
715.342	273.19
715.786	257.79
716.229	253.09
716.672	252.09
717.115	246.49
717.558	235.19
718.002	236.89
718.445	259.09
718.888	280.69
719.331	280.39
719.774	299.39
720.217	297.19
720.66	273.09
721.103	258.89
721.546	241.49
721.989	239.79
722.432	222.99
722.874	230.39
723.317	220.39
723.76	228.69
724.203	252.79
724.645	299.19
725.088	430.29
725.531	553.89
725.974	624.69
726.416	523.99
726.859	295.09
727.301	240.19
727.744	233.79
728.187	229.29
728.629	226.39
729.071	233.19
729.514	251.79
729.956	263.19
730.399	275.19
730.841	281.59
731.283	266.19
731.726	260.09
732.168	249.19
732.61	256.39
733.053	285.59
733.495	310.49
733.937	342.29
734.379	374.49
734.821	410.99
735.263	520.89
735.705	810.59
736.148	1508.99
736.59	2488.39
737.032	2962.39
737.474	2408.99
737.916	776.99
738.357	415.99
738.799	314.49
739.241	292.49
739.683	278.59
740.125	274.99
740.567	302.99
741.008	307.79
741.45	298.19
741.892	303.69
742.334	331.79
742.775	341.19
743.217	326.49
743.658	262.19
744.1	245.39
744.542	253.79
744.983	298.79
745.425	327.39
745.866	336.39
746.307	272.99
746.749	279.89
747.19	313.29
747.632	433.59
748.073	829.59
748.514	1781.19
748.956	2752.39
749.397	3443.89
749.838	2852.39
750.279	2864.89
750.72	1439.89
751.162	525.39
751.603	304.39
752.044	244.39
752.485	213.49
752.926	204.19
753.367	194.09
753.808	182.09
754.249	183.69
754.69	175.89
755.131	172.19
755.572	177.39
756.013	178.89
756.453	178.59
756.894	177.59
757.335	184.79
757.776	197.29
758.216	186.69
758.657	193.99
759.098	192.09
759.538	217.29
759.979	256.09
760.42	363.09
760.86	674.09
761.301	1728.19
761.741	4232.19
762.182	6219.79
762.622	4387.99
763.063	1262.19
763.503	521.99
763.943	340.49
764.384	332.39
764.824	406.99
765.264	432.69
765.705	304.19
766.145	204.19
766.585	182.29
767.025	180.69
767.465	179.19
767.906	233.19
768.346	312.89
768.786	341.49
769.226	258.99
769.666	307.39
770.106	588.89
770.546	1492.19
770.986	2555.89
771.426	2296.09
771.866	759.19
772.306	313.79
772.745	203.99
773.185	170.09
773.625	174.99
774.065	159.39
774.505	197.19
774.944	294.79
775.384	677.49
775.824	1261.39
776.263	1232.99
776.703	524.49
777.142	219.09
777.582	156.29
778.021	133.09
778.461	132.69
778.9	137.39
779.34	135.59
779.779	111.79
780.219	102.89
780.658	102.59
781.097	104.89
781.537	114.29
781.976	106.49
782.415	101.59
782.855	102.19
783.294	109.29
783.733	102.19
784.172	112.39
784.611	101.79
785.05	107.39
785.489	104.99
785.928	117.69
786.367	115.59
786.806	115.49
787.245	130.89
787.684	129.49
788.123	141.99
788.562	132.29
789.001	123.39
789.44	119.09
789.879	112.59
790.317	114.79
790.756	123.69
791.195	129.09
791.634	136.29
792.072	200.49
792.511	344.89
792.95	962.49
793.388	2057.29
793.827	1872.59
794.265	658.79
794.704	270.09
795.142	180.79
795.581	149.69
796.019	136.09
796.458	124.29
796.896	116.79
797.334	132.39
797.773	152.29
798.211	210.49
798.649	422.19
799.087	973.69
799.526	1534.99
799.964	1937.59
800.402	1952.89
800.84	728.49
801.278	283.09
801.716	176.49
802.154	156.19
802.592	137.79
803.03	134.09
803.468	119.59
803.906	138.29
804.344	143.49
804.782	132.09
805.22	133.59
805.658	122.79
806.096	144.49
806.533	150.79
806.971	170.59
807.409	210.19
807.847	298.59
808.284	631.19
808.722	1781.89
809.16	3157.19
809.597	2980.49
810.035	5203.49
810.472	5599.49
810.91	1997.19
811.347	760.19
811.785	385.59
812.222	241.19
812.66	189.89
813.097	156.09
813.535	139.29
813.972	122.59
814.409	112.49
814.846	111.39
815.284	103.19
815.721	93.49
816.158	109.29
816.595	118.79
817.032	179.79
817.47	191.09
817.907	169.19
818.344	150.89
818.781	115.79
819.218	95.29
819.655	120.59
820.092	175.19
820.529	210.29
820.966	175.79
821.403	128.39
821.839	102.09
822.276	104.29
822.713	119.79
823.15	127.99
823.587	113.29
824.023	136.09
824.46	286.29
824.897	861.09
825.333	1325.39
825.77	554.19
826.206	218.19
826.643	131.09
827.08	101.59
827.516	86.19
827.953	74.99
828.389	73.29
828.825	64.99
829.262	66.69
829.698	61.29
830.135	62.29
830.571	61.19
831.007	63.79
831.443	57.69
831.88	60.59
832.316	60.29
832.752	60.59
833.188	67.69
833.624	61.59
834.06	63.99
834.497	70.69
834.933	66.09
835.369	69.39
835.805	66.99
836.241	72.49
836.677	72.09
837.112	87.89
837.548	102.19
837.984	128.79
838.42	195.59
838.856	464.99
839.292	1449.09
839.727	2231.19
840.163	1027.19
840.599	883.09
841.034	1941.69
841.47	2042.99
841.906	756.29
842.341	328.39
842.777	224.09
843.212	310.29
843.648	316.89
844.083	154.99
844.519	95.19
844.954	76.29
845.39	54.69
845.825	57.09
846.261	56.59
846.696	54.39
847.131	53.79
847.566	54.09
848.002	50.09
848.437	54.49
848.872	54.79
849.307	58.99
849.742	83.39
850.177	167.89
850.613	531.99
851.048	844.09
851.483	366.29
851.918	149.79
852.353	81.79
852.788	55.69
853.223	55.29
853.657	59.99
854.092	49.29
854.527	39.09
854.962	42.89
855.397	38.59
855.832	42.29
856.266	37.29
856.701	47.09
857.136	37.19
857.57	41.09
858.005	47.29
858.44	60.39
858.874	35.99
859.309	55.19
859.743	36.49
860.178	43.79
860.612	40.69
861.047	45.99
861.481	71.59
861.915	68.69
862.35	43.99
862.784	29.29
863.218	41.09
863.653	39.99
864.087	47.49
864.521	54.49
864.955	64.29
865.39	148.49
865.824	176.69
866.258	109.59
866.692	159.69
867.126	168.89
867.56	96.09
867.994	55.39
868.428	36.09
868.862	44.79
869.296	54.19
869.73	53.19
870.164	46.89
870.598	43.69
871.031	32.79
871.465	30.89
871.899	30.49
872.333	29.29
872.766	23.49
873.2	12.69
873.634	22.49
874.067	21.29
874.501	20.39
874.935	32.19
875.368	31.89
875.802	29.59
876.235	23.69
876.669	27.99
877.102	21.99
877.535	26.89
877.969	23.39
878.402	23.79
878.836	17.99
879.269	24.89
879.702	23.39
880.135	20.99
880.569	19.99
881.002	28.19
881.435	23.49
881.868	16.69
882.301	24.49
882.734	14.99
883.167	20.79
883.601	14.29
884.034	28.29
884.467	13.59
884.899	17.59
885.332	9.89
885.765	12.69
886.198	15.49
886.631	16.29
887.064	15.39
887.497	20.79
887.929	27.39
888.362	6.39
888.795	11.59
889.228	13.39
889.66	16.79
890.093	17.29
890.526	16.89
890.958	13.29
891.391	19.89
891.823	22.79
892.256	14.19
892.688	11.59
893.121	15.79
893.553	6.79
893.985	22.29
894.418	16.49
894.85	16.49
895.282	17.29
895.715	13.69
896.147	19.59
896.579	14.39
897.011	15.99
897.444	20.49
897.876	16.59
898.308	15.99
898.74	12.29
899.172	16.29
899.604	19.09
900.036	19.49
900.468	24.49
900.9	18.39
901.332	15.09
901.764	7.99
902.196	21.19
902.628	15.29
903.06	15.69
903.491	29.89
903.923	19.29
904.355	23.29
904.787	22.49
905.218	19.69
905.65	19.19
906.082	10.39
906.513	13.89
906.945	12.59
907.376	13.09
907.808	24.99
908.239	20.29
908.671	12.79
909.102	19.09
909.534	18.49
909.965	42.79
910.397	90.29
910.828	304.59
911.259	461.89
911.691	215.79
912.122	100.39
912.553	50.29
912.984	34.99
913.415	24.59
913.847	31.09
914.278	16.39
914.709	7.29
915.14	19.39
915.571	13.99
916.002	12.79
916.433	22.69
916.864	17.79
917.295	12.39
917.726	22.99
918.157	16.59
918.587	25.99
919.018	20.79
919.449	21.39
919.88	22.59
920.311	28.69
920.741	46.09
921.172	152.49
921.603	143.89
922.033	65.09
922.464	41.39
922.895	21.59
923.325	17.49
923.756	13.79
924.186	11.69
924.617	33.09
925.047	44.09
925.478	54.89
925.908	45.59
926.338	30.79
926.769	20.39
927.199	17.09
927.629	14.89
928.06	21.99
928.49	14.79
928.92	12.69
929.35	14.79
929.78	11.09
930.21	9.39
930.641	3.59
931.071	5.29
931.501	9.59
931.931	9.69
932.361	10.69
932.791	1.29
933.221	6.59
933.651	2.39
934.08	12.69
934.51	27.29
934.94	9.39
935.37	9.99
935.8	10.49
936.229	8.19
936.659	2.89
937.089	5.49
937.519	15.19
937.948	20.49
938.378	13.59
938.807	0.39
939.237	3.89
939.666	8.69
940.096	-1.11
940.525	0.89
940.955	2.59
941.384	3.69
941.814	0.29
942.243	-0.91
942.672	2.39
943.102	-4.01
943.531	-0.71
943.96	5.29
944.39	0.89
944.819	1.39
945.248	1.89
945.677	3.99
946.106	4.09
946.535	6.99
946.964	2.49
947.393	4.29
947.822	2.69
948.251	-0.81
948.68	8.39
949.109	-0.81
949.538	5.29
949.967	0.19
950.396	0.69
950.825	-1.61
951.254	-1.21
951.682	-7.31
952.111	4.69
952.54	3.89
952.969	-2.41
953.397	-8.41
953.826	-1.91
954.254	-5.61
954.683	2.19
955.112	3.49
955.54	-0.71
955.969	5.59
956.397	-0.31
956.826	-5.41
957.254	4.39
957.682	-0.11
958.111	8.39
958.539	-0.61
958.967	5.79
959.396	-6.21
959.824	0.59
960.252	3.69
960.68	-7.31
961.109	-5.21
961.537	-2.81
961.965	3.69
962.393	2.59
962.821	-4.51
963.249	-0.71
963.677	4.99
964.105	9.89
964.533	41.39
964.961	41.49
965.389	23.19
965.817	6.79
966.245	2.99
966.672	-1.21
967.1	-9.81
967.528	0.79
967.956	-6.61
968.383	2.49
968.811	0.09
969.239	-3.11
969.666	-1.11
970.094	-2.21
970.522	1.59
970.949	1.59
971.377	1.19
971.804	-5.01
972.232	-1.91
972.659	-2.81
973.087	-4.01
973.514	-3.81
973.941	-3.11
974.369	3.39
974.796	2.39
975.223	-6.11
975.651	-0.71
976.078	5.69
976.505	1.79
976.932	-1.81
977.359	16.99
977.786	10.39
978.214	0.69
978.641	-5.51
979.068	-0.91
979.495	-2.61
979.922	-0.81
980.349	-3.21
980.776	3.89
981.202	0.79
981.629	1.19
982.056	4.69
982.483	2.29
982.91	5.59
983.337	-4.01
983.763	1.59
984.19	-5.41
984.617	-7.21
985.043	-3.71
985.47	-4.81
985.897	-0.41
986.323	-12.01
986.75	0.89
987.176	-1.51
987.603	-3.11
988.029	-2.61
988.456	-2.61
988.882	-2.11
989.308	-4.41
989.735	-5.41
990.161	-3.41
990.587	-10.01
991.014	-1.01
991.44	4.09
991.866	0.49
992.292	-4.11
992.719	-3.31
993.145	4.89
993.571	-7.21
993.997	-1.01
994.423	-4.61
994.849	-7.31
995.275	-0.41
995.701	4.59
996.127	-3.71
996.553	1.99
996.979	-7.81
997.405	2.19
997.83	-6.01
998.256	0.29
998.682	-8.11
999.108	-9.41
999.534	-2.61
999.959	0.29
1000.385	-3.01
1000.811	-0.31
1001.236	-5.91
1001.662	-8.31
1002.087	-10.91
1002.513	-4.41
1002.938	-0.41
1003.364	-2.11
1003.789	2.89
1004.215	4.39
1004.64	-4.91
1005.066	1.99
1005.491	-1.21
1005.916	-2.31
1006.342	-1.21
1006.767	-7.51
1007.192	6.69
1007.617	-5.81
1008.042	-0.91
1008.468	-2.11
1008.893	1.59
1009.318	-4.51
1009.743	-1.01
1010.168	3.79
1010.593	-0.41
1011.018	-12.51
1011.443	-8.61
1011.868	-0.61
1012.293	-8.51
1012.718	-10.51
1013.143	-6.61
1013.567	2.09
1013.992	-0.11
1014.417	-14.51
1014.842	1.49
1015.267	-8.41
1015.691	-3.81
1016.116	-4.61
1016.541	-6.41
1016.965	3.19
1017.39	2.89
1017.814	-2.41
1018.239	-8.11
1018.663	-8.21
1019.088	-8.11
1019.512	-6.21
1019.937	-4.71
1020.361	-1.51
1020.785	-14.61
1021.21	-2.41
1021.634	-4.31
1022.058	6.89
1022.483	-0.01
1022.907	2.69
1023.331	-0.81
1023.755	-7.21
1024.179	1.39
1024.604	-4.61
1025.028	-2.41
1025.452	-0.21
1025.876	-7.21
1026.3	4.79
1026.724	-12.11
1027.148	-1.91
1027.572	-6.01
1027.996	-6.31
1028.42	-6.71
1028.843	-4.11
1029.267	-13.11
1029.691	-6.11
1030.115	-6.51
1030.539	-6.91
1030.962	-13.51
1031.386	-4.81
1031.81	2.19
1032.233	-0.91
1032.657	-3.71
1033.08	-3.31
1033.504	1.99
1033.927	-7.41
1034.351	-2.71
1034.774	-8.61
1035.198	-6.61
1035.621	-7.11
1036.045	-6.81
1036.468	-0.21
1036.891	-4.21
1037.315	-14.61
1037.738	-10.61
1038.161	-3.81
1038.584	-5.41
1039.008	-8.71
1039.431	-11.91
1039.854	-10.61
1040.277	-7.91
1040.7	-9.21
1041.123	2.09
1041.546	-8.21
1041.969	-5.51
1042.392	-4.51
1042.815	-3.11
1043.238	-3.91
1043.661	1.59
1044.084	-9.21
1044.507	-5.61
1044.93	-5.61
1045.352	-7.71
1045.775	1.69
1046.198	-1.81
1046.621	-6.21
1047.043	-0.61
1047.466	4.59
1047.889	-2.51
1048.311	-4.91
1048.734	0.09
1049.156	-7.21
1049.579	-1.51
1050.001	1.19
1050.424	2.89
1050.846	-3.31
1051.269	-6.91
1051.691	-5.21
1052.113	-10.31
1052.536	-2.81
1052.958	-6.61
1053.38	-5.11
1053.802	-8.61
1054.225	0.69
1054.647	-9.41
1055.069	-5.91
1055.491	11.09
1055.913	-8.61
1056.335	-2.91
1056.757	-9.01
1057.179	-9.11
1057.601	-12.01
1058.023	-8.81
1058.445	-6.01
1058.867	-1.61
1059.289	-1.71
1059.711	-8.31
1060.133	-2.21
1060.555	-2.51
1060.976	-1.81
1061.398	-6.61
1061.82	-7.71
1062.241	-5.81
1062.663	-6.91
1063.085	-2.81
1063.506	-2.81
1063.928	1.69
1064.35	-2.21
1064.771	-10.31
1065.193	-6.61
1065.614	-9.11
1066.035	-5.11
1066.457	-4.11
1066.878	-1.41
1067.3	-12.81
1067.721	-3.01
1068.142	-6.61
1068.564	-2.41
1068.985	-2.81
1069.406	-5.61
1069.827	0.89
1070.248	0.09
1070.67	-8.21
1071.091	-9.11
1071.512	-2.01
1071.933	-10.41
1072.354	-7.71
1072.775	-8.61
1073.196	-9.41
1073.617	-6.91
1074.038	-8.31
1074.459	-7.51
1074.88	-8.71
1075.3	1.09
1075.721	-7.51
1076.142	-3.01
1076.563	-0.41
1076.983	-7.91
1077.404	-5.11
1077.825	-5.91
1078.246	-6.31
1078.666	-10.51
1079.087	-13.51
1079.507	-10.11
1079.928	-5.21
1080.348	0.69
1080.769	-8.51
1081.189	-2.11
1081.61	-1.41
1082.03	-2.01
1082.451	-8.41
1082.871	-6.91
1083.291	-11.91
1083.711	-9.71
1084.132	-7.51
1084.552	-9.51
1084.972	-4.21
1085.392	-9.41
1085.813	-13.11
1086.233	-9.61
1086.653	-0.11
1087.073	-10.51
1087.493	-9.91
1087.913	-8.71
1088.333	-5.51
1088.753	-1.51
1089.173	-0.21
1089.593	-5.31
1090.013	3.29
1090.433	-1.81
1090.852	-11.51
1091.272	-4.91
1091.692	-1.51
1092.112	-0.91
1092.531	-8.61
1092.951	-10.91
1093.371	2.69
1093.79	0.99
1094.21	-6.61
1094.63	-5.31
1095.049	-3.91
1095.469	-0.81
1095.888	-4.41
1096.308	1.09
1096.727	9.09
1097.146	-7.61
1097.566	4.09
1097.985	-5.31
1098.405	-5.11
1098.824	-8.51
1099.243	-13.11
1099.662	-15.51
1100.082	-1.31
1100.501	-0.01
1100.92	-10.61
1101.339	-4.91
1101.758	-2.71
