Data from 20171114-ORNL-Ar_H_NY_Subt18_08-06-40-661.txt Node
Date: Tue Nov 14 08:06:40 EST 2017
User: Ender
Spectrometer: HR+D1039
Trigger mode: 0
Integration Time (sec): 2.730000E-2
Scans to average: 10
Electric dark correction enabled: true
Nonlinearity correction enabled: false
Boxcar width: 0
XAxis mode: Wavelengths
Number of Pixels in Spectrum: 2048
>>>>>Begin Spectral Data<<<<<
187.836	-2.92
188.309	-2.92
188.782	-2.92
189.255	0.58
189.728	1.08
190.201	7.08
190.674	-2.12
191.147	4.98
191.619	-7.22
192.092	-4.42
192.565	2.58
193.038	1.48
193.511	2.48
193.984	-2.12
194.456	1.48
194.929	3.48
195.402	0.38
195.874	-6.82
196.347	1.28
196.82	3.28
197.292	5.58
197.765	-1.12
198.237	-9.12
198.71	-2.02
199.182	-4.02
199.655	-1.42
200.127	-1.32
200.6	-0.62
201.072	-0.32
201.544	-6.92
202.017	-9.32
202.489	-1.52
202.961	0.38
203.433	-4.62
203.906	-3.42
204.378	0.18
204.85	0.48
205.322	-9.02
205.794	-4.52
206.266	-0.02
206.739	-8.12
207.211	3.28
207.683	-3.02
208.155	-3.42
208.627	-6.12
209.099	-1.52
209.57	-13.12
210.042	-1.82
210.514	-3.02
210.986	-6.22
211.458	-12.12
211.93	-6.42
212.402	-0.62
212.873	0.98
213.345	-6.92
213.817	-10.72
214.288	-3.82
214.76	-4.72
215.232	0.28
215.703	2.78
216.175	-1.32
216.646	-2.92
217.118	-8.32
217.589	-5.22
218.061	-0.72
218.532	-9.62
219.004	-2.02
219.475	-5.02
219.946	-4.92
220.418	-6.42
220.889	2.78
221.36	-2.62
221.832	1.58
222.303	-8.22
222.774	-3.92
223.245	-6.82
223.717	-7.42
224.188	-7.32
224.659	-7.92
225.13	-3.12
225.601	-5.92
226.072	-1.12
226.543	1.08
227.014	-1.32
227.485	-1.32
227.956	-4.82
228.427	-0.32
228.898	-4.42
229.369	2.78
229.839	-2.12
230.31	-5.22
230.781	3.08
231.252	-0.82
231.722	-1.62
232.193	-5.72
232.664	-0.42
233.135	-2.12
233.605	-5.52
234.076	-7.12
234.546	6.48
235.017	9.58
235.487	-1.12
235.958	-0.02
236.428	-5.02
236.899	-0.82
237.369	2.28
237.84	-4.92
238.31	5.18
238.78	-0.92
239.251	-6.42
239.721	-0.92
240.191	-4.82
240.662	-4.42
241.132	4.48
241.602	-4.72
242.072	0.98
242.542	5.38
243.013	-1.52
243.483	4.28
243.953	0.48
244.423	4.28
244.893	-3.92
245.363	-0.52
245.833	-2.52
246.303	-6.32
246.773	6.08
247.243	0.48
247.712	-4.52
248.182	0.18
248.652	7.38
249.122	-6.72
249.592	-0.22
250.061	4.18
250.531	9.88
251.001	4.48
251.471	4.48
251.94	9.68
252.41	0.08
252.879	-3.12
253.349	10.18
253.818	7.98
254.288	-1.12
254.757	2.18
255.227	-0.42
255.696	-2.12
256.166	-0.82
256.635	0.28
257.105	6.48
257.574	-0.82
258.043	3.18
258.513	-3.92
258.982	8.28
259.451	0.18
259.92	9.18
260.389	2.58
260.859	12.18
261.328	0.88
261.797	1.68
262.266	7.28
262.735	8.98
263.204	10.48
263.673	-1.82
264.142	7.48
264.611	-2.92
265.08	3.38
265.549	4.68
266.018	-1.42
266.487	-4.62
266.955	-3.02
267.424	6.68
267.893	2.48
268.362	-3.32
268.83	1.88
269.299	6.98
269.768	7.88
270.236	2.68
270.705	-0.72
271.174	1.48
271.642	8.08
272.111	4.08
272.579	5.68
273.048	5.88
273.516	3.68
273.985	3.68
274.453	9.48
274.922	11.58
275.39	9.68
275.858	7.28
276.327	5.78
276.795	13.78
277.263	-0.32
277.731	19.88
278.2	10.68
278.668	10.08
279.136	15.38
279.604	4.18
280.072	9.18
280.54	8.88
281.008	10.68
281.477	15.78
281.945	16.78
282.413	15.68
282.881	17.48
283.348	10.58
283.816	13.28
284.284	13.78
284.752	19.58
285.22	13.78
285.688	13.18
286.156	8.28
286.623	16.58
287.091	21.78
287.559	13.58
288.026	14.28
288.494	12.18
288.962	11.08
289.429	7.98
289.897	16.38
290.364	10.98
290.832	18.18
291.3	16.78
291.767	22.18
292.234	16.88
292.702	13.48
293.169	19.48
293.637	21.08
294.104	21.08
294.571	10.88
295.039	13.28
295.506	15.18
295.973	15.38
296.44	12.48
296.908	18.48
297.375	17.78
297.842	20.78
298.309	17.68
298.776	5.88
299.243	19.98
299.71	13.78
300.177	21.18
300.644	26.38
301.111	18.48
301.578	20.98
302.045	19.18
302.512	19.88
302.979	22.48
303.446	23.88
303.913	18.48
304.379	15.08
304.846	25.48
305.313	31.08
305.78	20.58
306.246	27.88
306.713	24.68
307.18	22.48
307.646	20.68
308.113	23.58
308.579	21.78
309.046	24.58
309.512	30.58
309.979	21.28
310.445	28.18
310.912	28.38
311.378	33.18
311.845	29.38
312.311	30.68
312.777	28.58
313.244	34.18
313.71	40.48
314.176	28.78
314.642	31.18
315.109	26.88
315.575	36.38
316.041	40.28
316.507	29.38
316.973	33.18
317.439	28.68
317.905	39.18
318.371	29.68
318.837	33.78
319.303	31.38
319.769	31.68
320.235	34.98
320.701	33.68
321.167	35.58
321.633	32.58
322.099	32.98
322.564	45.18
323.03	40.78
323.496	31.08
323.962	37.68
324.427	39.58
324.893	48.38
325.359	43.18
325.824	43.38
326.29	34.18
326.755	42.88
327.221	42.38
327.686	39.38
328.152	48.98
328.617	43.48
329.083	47.18
329.548	53.88
330.014	46.88
330.479	43.68
330.944	44.08
331.41	47.58
331.875	48.18
332.34	44.78
332.805	40.68
333.271	46.28
333.736	47.98
334.201	49.98
334.666	56.08
335.131	54.88
335.596	45.18
336.061	43.68
336.526	42.98
336.991	40.98
337.456	48.58
337.921	52.88
338.386	43.48
338.851	47.58
339.316	50.68
339.781	46.08
340.246	49.08
340.711	49.98
341.175	56.38
341.64	48.28
342.105	53.68
342.569	53.28
343.034	59.98
343.499	52.98
343.963	53.78
344.428	64.18
344.893	59.48
345.357	64.88
345.822	61.88
346.286	66.48
346.751	75.08
347.215	70.78
347.679	75.28
348.144	98.08
348.608	82.48
349.073	73.18
349.537	79.18
350.001	77.58
350.465	88.58
350.93	84.08
351.394	85.88
351.858	77.68
352.322	95.58
352.786	88.68
353.25	100.68
353.715	109.08
354.179	98.28
354.643	121.18
355.107	123.38
355.571	103.18
356.035	100.38
356.498	112.58
356.962	110.88
357.426	127.68
357.89	113.68
358.354	87.28
358.818	85.38
359.281	85.38
359.745	79.38
360.209	72.78
360.673	76.68
361.136	84.58
361.6	81.58
362.064	80.38
362.527	89.28
362.991	91.08
363.454	82.28
363.918	79.98
364.381	81.78
364.845	93.28
365.308	91.18
365.772	95.68
366.235	90.48
366.698	89.58
367.162	86.18
367.625	83.58
368.088	94.08
368.552	91.98
369.015	94.88
369.478	96.38
369.941	101.98
370.404	95.58
370.867	103.68
371.331	106.38
371.794	115.68
372.257	96.28
372.72	112.18
373.183	104.08
373.646	97.48
374.109	98.98
374.572	107.18
375.035	105.18
375.497	106.08
375.96	110.28
376.423	108.28
376.886	118.58
377.349	115.38
377.811	105.18
378.274	108.48
378.737	106.98
379.199	114.08
379.662	105.28
380.125	111.28
380.587	114.58
381.05	113.38
381.512	117.58
381.975	122.88
382.437	124.08
382.9	120.08
383.362	125.18
383.825	138.68
384.287	132.68
384.75	124.28
385.212	131.78
385.674	140.58
386.136	138.98
386.599	130.78
387.061	132.38
387.523	123.18
387.985	126.88
388.447	138.08
388.91	127.18
389.372	131.58
389.834	140.28
390.296	133.08
390.758	134.48
391.22	146.08
391.682	151.68
392.144	171.48
392.606	160.98
393.068	154.68
393.529	162.28
393.991	145.28
394.453	139.18
394.915	142.48
395.377	146.98
395.838	148.08
396.3	146.58
396.762	147.98
397.224	140.78
397.685	135.78
398.147	141.88
398.608	143.78
399.07	128.48
399.531	149.78
399.993	154.58
400.454	163.58
400.916	156.78
401.377	153.78
401.839	165.28
402.3	154.78
402.762	169.78
403.223	189.08
403.684	175.38
404.145	175.98
404.607	173.88
405.068	176.28
405.529	175.98
405.99	187.98
406.451	186.88
406.913	186.58
407.374	177.88
407.835	165.08
408.296	178.18
408.757	180.58
409.218	193.98
409.679	184.58
410.14	187.78
410.601	191.28
411.062	184.88
411.522	185.98
411.983	187.58
412.444	180.68
412.905	194.58
413.366	199.98
413.826	214.78
414.287	231.58
414.748	278.18
415.208	262.68
415.669	231.58
416.13	224.28
416.59	218.48
417.051	229.28
417.511	240.08
417.972	255.18
418.432	261.68
418.893	305.78
419.353	269.58
419.814	216.98
420.274	193.48
420.734	200.48
421.195	211.48
421.655	206.08
422.115	208.18
422.576	211.88
423.036	216.38
423.496	216.18
423.956	235.88
424.416	251.18
424.876	284.58
425.336	280.18
425.797	280.08
426.257	266.38
426.717	258.78
427.177	248.48
427.637	240.58
428.097	250.58
428.556	258.78
429.016	285.58
429.476	275.28
429.936	286.58
430.396	281.48
430.856	302.78
431.315	326.88
431.775	363.98
432.235	396.78
432.694	363.18
433.154	379.38
433.614	417.28
434.073	350.78
434.533	288.08
434.993	286.58
435.452	303.58
435.912	314.18
436.371	301.08
436.83	294.68
437.29	275.48
437.749	259.38
438.209	259.28
438.668	297.78
439.127	305.38
439.587	280.38
440.046	268.48
440.505	280.68
440.964	297.78
441.424	343.48
441.883	334.78
442.342	277.98
442.801	239.58
443.26	239.68
443.719	238.78
444.178	242.18
444.637	230.58
445.096	245.68
445.555	243.78
446.014	241.28
446.473	247.58
446.932	245.58
447.391	242.78
447.849	242.18
448.308	240.98
448.767	243.28
449.226	254.88
449.685	254.58
450.143	272.18
450.602	257.68
451.061	247.18
451.519	250.58
451.978	247.18
452.436	251.68
452.895	255.18
453.353	271.28
453.812	264.68
454.27	263.88
454.729	260.78
455.187	263.78
455.646	262.08
456.104	270.08
456.562	283.08
457.021	294.78
457.479	281.68
457.937	289.58
458.395	287.18
458.854	275.78
459.312	276.08
459.77	308.78
460.228	280.08
460.686	268.98
461.144	276.78
461.602	271.08
462.06	265.78
462.518	270.38
462.976	275.28
463.434	277.18
463.892	283.48
464.35	298.68
464.808	311.88
465.266	290.28
465.724	290.48
466.181	294.38
466.639	300.78
467.097	323.48
467.555	328.08
468.012	330.78
468.47	332.38
468.928	352.88
469.385	376.48
469.843	383.88
470.3	378.78
470.758	395.08
471.215	415.58
471.673	439.28
472.13	441.38
472.588	448.58
473.045	413.18
473.503	417.38
473.96	425.68
474.417	431.58
474.875	467.48
475.332	495.78
475.789	480.18
476.246	501.98
476.704	520.18
477.161	539.38
477.618	563.88
478.075	595.18
478.532	655.48
478.989	721.08
479.446	840.08
479.903	806.08
480.36	826.28
480.817	875.48
481.274	974.38
481.731	1069.78
482.188	1154.18
482.645	1287.58
483.102	1385.98
483.558	1493.88
484.015	1534.08
484.472	1502.58
484.929	1465.08
485.385	1425.38
485.842	1407.88
486.299	1343.18
486.755	1293.98
487.212	1112.98
487.668	949.28
488.125	885.48
488.582	810.78
489.038	777.38
489.494	744.88
489.951	722.68
490.407	709.18
490.864	685.88
491.32	683.88
491.776	679.98
492.233	690.88
492.689	661.48
493.145	652.78
493.602	636.48
494.058	663.58
494.514	662.08
494.97	675.28
495.426	688.88
495.882	661.78
496.338	660.38
496.794	667.28
497.251	661.08
497.707	674.48
498.163	676.48
498.618	687.08
499.074	690.68
499.53	716.68
499.986	712.08
500.442	679.18
500.898	666.48
501.354	664.68
501.809	659.38
502.265	662.08
502.721	677.08
503.177	674.38
503.632	692.48
504.088	692.38
504.543	719.88
504.999	743.98
505.455	707.88
505.91	686.48
506.366	676.08
506.821	677.18
507.277	673.78
507.732	674.58
508.187	677.38
508.643	684.98
509.098	691.78
509.553	704.48
510.009	716.28
510.464	728.58
510.919	742.68
511.375	753.28
511.83	761.18
512.285	768.58
512.74	809.48
513.195	838.88
513.65	825.18
514.105	822.98
514.56	825.48
515.015	843.98
515.47	853.28
515.925	833.68
516.38	841.38
516.835	841.48
517.29	840.28
517.745	824.28
518.2	820.28
518.655	802.48
519.109	794.78
519.564	794.78
520.019	784.28
520.474	773.08
520.928	778.88
521.383	766.18
521.838	763.28
522.292	757.18
522.747	768.68
523.201	757.28
523.656	740.28
524.11	748.98
524.565	742.68
525.019	738.28
525.474	734.18
525.928	740.78
526.382	744.28
526.837	742.28
527.291	751.78
527.745	759.88
528.2	750.18
528.654	734.98
529.108	731.48
529.562	738.38
530.016	736.08
530.47	734.78
530.925	741.38
531.379	747.48
531.833	750.38
532.287	743.28
532.741	751.68
533.195	753.38
533.649	755.68
534.103	763.58
534.556	751.58
535.01	750.48
535.464	754.08
535.918	761.48
536.372	759.18
536.826	760.08
537.279	754.88
537.733	767.48
538.187	757.78
538.64	763.18
539.094	772.28
539.548	778.08
540.001	774.48
540.455	777.88
540.908	781.88
541.362	788.18
541.815	797.58
542.269	815.18
542.722	822.98
543.175	825.08
543.629	820.28
544.082	844.28
544.536	840.28
544.989	845.78
545.442	848.88
545.895	847.88
546.349	848.38
546.802	847.88
547.255	851.48
547.708	858.78
548.161	861.38
548.614	875.08
549.067	871.38
549.52	874.28
549.973	861.48
550.426	867.68
550.879	846.08
551.332	858.28
551.785	861.18
552.238	860.38
552.691	879.38
553.144	882.88
553.596	905.18
554.049	930.28
554.502	953.68
554.955	968.18
555.407	968.68
555.86	963.58
556.313	952.08
556.765	942.08
557.218	942.48
557.67	941.68
558.123	934.78
558.576	939.38
559.028	941.18
559.48	947.48
559.933	937.78
560.385	905.28
560.838	862.38
561.29	845.78
561.742	835.98
562.195	828.08
562.647	814.68
563.099	830.58
563.551	827.38
564.004	841.08
564.456	827.88
564.908	813.38
565.36	785.68
565.812	772.98
566.264	767.18
566.716	767.08
567.168	746.58
567.62	758.28
568.072	740.78
568.524	741.68
568.976	720.98
569.428	719.48
569.88	720.78
570.332	726.28
570.784	726.58
571.235	732.38
571.687	744.28
572.139	753.78
572.59	767.38
573.042	757.68
573.494	759.28
573.945	750.08
574.397	731.08
574.849	733.08
575.3	740.48
575.752	728.78
576.203	717.68
576.655	727.38
577.106	715.28
577.557	710.68
578.009	707.38
578.46	705.58
578.912	701.88
579.363	711.68
579.814	711.08
580.265	702.38
580.717	704.88
581.168	714.28
581.619	718.38
582.07	724.48
582.521	714.78
582.972	711.48
583.423	720.18
583.875	720.38
584.326	720.98
584.777	742.98
585.227	768.28
585.678	793.48
586.129	812.68
586.58	847.08
587.031	874.28
587.482	926.08
587.933	954.28
588.384	916.98
588.834	845.28
589.285	821.18
589.736	817.68
590.186	822.48
590.637	814.58
591.088	786.38
591.538	773.38
591.989	784.88
592.439	768.68
592.89	758.88
593.34	743.48
593.791	742.48
594.241	734.08
594.692	735.88
595.142	741.98
595.593	731.88
596.043	746.18
596.493	755.78
596.943	749.28
597.394	767.18
597.844	753.88
598.294	783.88
598.744	806.88
599.195	814.68
599.645	868.78
600.095	908.48
600.545	975.68
600.995	1022.68
601.445	1078.88
601.895	1134.98
602.345	1195.68
602.795	1177.08
603.245	1123.28
603.695	1067.18
604.145	1022.48
604.594	969.58
605.044	911.38
605.494	846.38
605.944	796.08
606.393	789.88
606.843	763.98
607.293	769.28
607.743	775.08
608.192	786.28
608.642	794.48
609.091	804.68
609.541	794.08
609.99	802.58
610.44	804.78
610.889	757.58
611.339	727.18
611.788	715.88
612.238	727.38
612.687	731.88
613.136	722.58
613.586	755.68
614.035	736.78
614.484	748.68
614.933	749.68
615.383	751.48
615.832	741.98
616.281	740.08
616.73	700.98
617.179	688.78
617.628	683.98
618.077	662.68
618.526	654.78
618.975	648.38
619.424	641.38
619.873	634.28
620.322	651.08
620.771	648.68
621.22	642.08
621.669	632.08
622.118	619.68
622.567	610.98
623.015	603.68
623.464	599.38
623.913	590.58
624.361	571.88
624.81	579.88
625.259	584.98
625.707	582.48
626.156	595.48
626.604	607.78
627.053	589.98
627.501	600.28
627.95	594.08
628.398	611.48
628.847	602.18
629.295	601.48
629.744	594.48
630.192	601.78
630.64	591.18
631.089	570.18
631.537	560.58
631.985	559.48
632.433	557.58
632.881	554.08
633.33	562.58
633.778	554.58
634.226	547.08
634.674	562.18
635.122	564.28
635.57	586.58
636.018	576.28
636.466	583.08
636.914	569.78
637.362	600.88
637.81	602.38
638.258	611.98
638.705	610.78
639.153	634.28
639.601	639.38
640.049	670.38
640.497	692.58
640.944	726.18
641.392	677.18
641.84	653.48
642.287	599.28
642.735	588.18
643.182	579.38
643.63	590.48
644.078	590.18
644.525	603.38
644.973	609.98
645.42	622.88
645.867	641.98
646.315	655.78
646.762	675.48
647.21	712.38
647.657	729.88
648.104	766.18
648.551	781.08
648.999	846.48
649.446	919.08
649.893	1000.18
650.34	1145.28
650.787	1359.08
651.234	1675.68
651.682	2157.28
652.129	2926.78
652.576	4147.68
653.023	6039.38
653.47	8188.98
653.917	10183.58
654.363	11742.18
654.81	12943.48
655.257	12269.98
655.704	8136.48
656.151	4907.48
656.598	3234.98
657.044	2313.88
657.491	1805.58
657.938	1445.58
658.385	1219.78
658.831	1072.68
659.278	969.68
659.724	858.18
660.171	787.38
660.618	738.98
661.064	697.18
661.511	678.18
661.957	666.98
662.404	650.68
662.85	667.08
663.296	637.28
663.743	583.88
664.189	558.28
664.635	551.98
665.082	552.08
665.528	552.88
665.974	540.38
666.42	531.08
666.867	513.38
667.313	505.08
667.759	487.78
668.205	474.08
668.651	479.68
669.097	472.68
669.543	457.98
669.989	456.18
670.435	469.48
670.881	454.68
671.327	466.58
671.773	486.58
672.219	508.48
672.665	570.98
673.11	614.98
673.556	655.28
674.002	699.08
674.448	691.18
674.893	574.68
675.339	501.08
675.785	464.98
676.23	439.78
676.676	411.98
677.122	397.48
677.567	389.68
678.013	380.58
678.458	377.98
678.904	376.78
679.349	364.88
679.794	371.78
680.24	371.58
680.685	357.48
681.131	359.88
681.576	369.28
682.021	369.08
682.466	370.98
682.912	373.68
683.357	367.68
683.802	398.58
684.247	424.38
684.692	473.68
685.137	517.18
685.583	566.18
686.028	583.88
686.473	547.78
686.918	470.48
687.363	432.78
687.807	411.28
688.252	385.58
688.697	367.78
689.142	354.98
689.587	359.08
690.032	350.18
690.477	355.68
690.921	369.18
691.366	407.98
691.811	420.78
692.255	448.48
692.7	475.58
693.145	524.88
693.589	724.78
694.034	1185.68
694.478	1606.38
694.923	1821.78
695.367	2375.08
695.812	1255.18
696.256	529.68
696.701	387.78
697.145	356.08
697.59	343.78
698.034	335.48
698.478	347.38
698.922	337.18
699.367	346.38
699.811	349.18
700.255	363.48
700.699	392.58
701.143	442.88
701.588	497.28
702.032	537.78
702.476	535.38
702.92	517.98
703.364	523.58
703.808	678.48
704.252	1086.48
704.696	1527.98
705.14	1761.28
705.584	2236.88
706.027	1128.08
706.471	548.58
706.915	410.68
707.359	374.18
707.803	338.88
708.246	334.48
708.69	320.18
709.134	323.28
709.577	320.88
710.021	321.18
710.465	320.58
710.908	311.88
711.352	307.78
711.795	324.98
712.239	365.58
712.682	404.78
713.126	435.08
713.569	477.38
714.012	374.68
714.456	318.78
714.899	299.08
715.342	287.08
715.786	278.38
716.229	277.98
716.672	264.98
717.115	257.38
717.558	253.68
718.002	266.28
718.445	271.38
718.888	294.48
719.331	309.08
719.774	317.28
720.217	315.38
720.66	298.38
721.103	274.38
721.546	266.48
721.989	262.68
722.432	242.78
722.874	244.08
723.317	244.28
723.76	241.98
724.203	273.88
724.645	329.68
725.088	466.18
725.531	597.98
725.974	678.68
726.416	567.68
726.859	320.88
727.301	260.78
727.744	249.48
728.187	242.88
728.629	244.98
729.071	252.98
729.514	265.08
729.956	274.88
730.399	296.98
730.841	293.78
731.283	289.48
731.726	268.08
732.168	270.28
732.61	280.58
733.053	309.68
733.495	334.48
733.937	373.08
734.379	422.88
734.821	450.68
735.263	565.28
735.705	874.88
736.148	1653.68
736.59	2715.28
737.032	3225.18
737.474	2612.98
737.916	850.28
738.357	454.68
738.799	340.28
739.241	307.68
739.683	302.68
740.125	310.48
740.567	313.98
741.008	336.78
741.45	329.68
741.892	326.08
742.334	363.88
742.775	377.78
743.217	359.48
743.658	283.18
744.1	271.98
744.542	274.88
744.983	335.68
745.425	359.98
745.866	362.08
746.307	287.18
746.749	291.88
747.19	338.38
747.632	471.38
748.073	921.98
748.514	1958.68
748.956	2997.08
749.397	3753.88
749.838	3121.28
750.279	3103.48
750.72	1580.98
751.162	576.18
751.603	341.88
752.044	264.18
752.485	235.48
752.926	219.88
753.367	211.88
753.808	206.98
754.249	197.08
754.69	202.58
755.131	188.38
755.572	194.38
756.013	196.58
756.453	200.28
756.894	197.78
757.335	197.28
757.776	207.68
758.216	202.48
758.657	201.88
759.098	216.18
759.538	236.08
759.979	286.78
760.42	394.38
760.86	736.68
761.301	1916.88
761.741	4636.98
762.182	6748.68
762.622	4746.88
763.063	1376.08
763.503	559.38
763.943	351.68
764.384	296.48
764.824	286.08
765.264	272.48
765.705	229.98
766.145	192.98
766.585	188.18
767.025	176.28
767.465	177.08
767.906	208.38
768.346	223.38
768.786	232.78
769.226	226.88
769.666	322.98
770.106	654.38
770.546	1617.58
770.986	2764.88
771.426	2481.38
771.866	823.28
772.306	339.58
772.745	213.08
773.185	171.28
773.625	170.78
774.065	154.88
774.505	167.48
774.944	220.68
775.384	400.38
775.824	658.88
776.263	632.38
776.703	303.78
777.142	168.88
777.582	140.08
778.021	131.58
778.461	131.48
778.9	131.48
779.34	126.38
779.779	121.28
780.219	114.88
780.658	115.38
781.097	113.58
781.537	116.58
781.976	107.78
782.415	104.18
782.855	107.88
783.294	109.18
783.733	114.28
784.172	107.78
784.611	107.68
785.05	108.08
785.489	118.98
785.928	120.78
786.367	133.18
786.806	124.28
787.245	127.88
787.684	142.38
788.123	152.08
788.562	139.58
789.001	132.08
789.44	123.18
789.879	121.98
790.317	121.58
790.756	130.28
791.195	130.78
791.634	152.98
792.072	211.28
792.511	384.58
792.95	1049.58
793.388	2205.48
793.827	1998.88
794.265	691.58
794.704	282.58
795.142	189.78
795.581	163.78
796.019	141.48
796.458	135.38
796.896	125.48
797.334	138.18
797.773	156.18
798.211	226.08
798.649	462.58
799.087	1064.18
799.526	1658.88
799.964	2110.48
800.402	2110.78
800.84	787.68
801.278	322.08
801.716	197.18
802.154	159.58
802.592	151.48
803.03	144.28
803.468	143.38
803.906	151.18
804.344	156.88
804.782	140.88
805.22	134.48
805.658	133.28
806.096	155.28
806.533	165.58
806.971	182.48
807.409	223.08
807.847	339.08
808.284	691.58
808.722	1959.98
809.16	3452.38
809.597	3262.88
810.035	5672.78
810.472	6047.68
810.91	2210.88
811.347	851.18
811.785	430.18
812.222	278.58
812.66	209.08
813.097	181.88
813.535	149.68
813.972	134.58
814.409	127.88
814.846	113.78
815.284	116.78
815.721	107.58
816.158	111.08
816.595	116.38
817.032	168.38
817.47	191.88
817.907	146.58
818.344	110.08
818.781	99.68
819.218	97.88
819.655	126.88
820.092	200.68
820.529	230.98
820.966	184.28
821.403	133.48
821.839	106.78
822.276	102.38
822.713	128.28
823.15	144.88
823.587	129.68
824.023	151.38
824.46	319.78
824.897	936.98
825.333	1405.18
825.77	606.98
826.206	242.28
826.643	138.68
827.08	105.78
827.516	87.68
827.953	74.78
828.389	85.98
828.825	72.88
829.262	72.18
829.698	66.28
830.135	68.18
830.571	63.28
831.007	65.68
831.443	65.08
831.88	57.48
832.316	64.98
832.752	65.18
833.188	67.28
833.624	69.08
834.06	65.48
834.497	71.78
834.933	69.98
835.369	74.58
835.805	68.08
836.241	81.48
836.677	88.88
837.112	88.08
837.548	113.78
837.984	138.18
838.42	212.98
838.856	513.68
839.292	1580.38
839.727	2381.48
840.163	1127.08
840.599	970.58
841.034	2115.58
841.47	2223.08
841.906	808.18
842.341	341.38
842.777	203.18
843.212	217.48
843.648	206.58
844.083	120.08
844.519	86.18
844.954	76.38
845.39	59.78
845.825	54.48
846.261	54.48
846.696	54.28
847.131	59.38
847.566	66.78
848.002	55.08
848.437	52.38
848.872	64.48
849.307	61.78
849.742	91.28
850.177	181.88
850.613	586.18
851.048	924.18
851.483	397.68
851.918	163.88
852.353	89.28
852.788	57.38
853.223	56.98
853.657	60.18
854.092	45.98
854.527	47.28
854.962	44.08
855.397	43.18
855.832	51.08
856.266	41.38
856.701	45.08
857.136	38.58
857.57	43.98
858.005	56.98
858.44	64.18
858.874	48.78
859.309	58.08
859.743	49.28
860.178	47.38
860.612	36.48
861.047	54.68
861.481	68.28
861.915	73.38
862.35	51.38
862.784	43.78
863.218	37.38
863.653	35.18
864.087	48.28
864.521	56.68
864.955	73.48
865.39	162.68
865.824	181.38
866.258	119.18
866.692	184.48
867.126	194.08
867.56	115.18
867.994	60.78
868.428	38.78
868.862	48.28
869.296	56.28
869.73	63.68
870.164	66.98
870.598	55.08
871.031	47.08
871.465	37.48
871.899	33.18
872.333	21.88
872.766	27.58
873.2	26.28
873.634	32.88
874.067	22.98
874.501	27.98
874.935	36.18
875.368	30.78
875.802	27.68
876.235	27.58
876.669	29.58
877.102	19.08
877.535	29.18
877.969	23.48
878.402	25.98
878.836	19.68
879.269	25.28
879.702	29.98
880.135	27.18
880.569	25.08
881.002	21.08
881.435	21.58
881.868	13.48
882.301	19.58
882.734	13.18
883.167	22.98
883.601	14.38
884.034	21.08
884.467	17.18
884.899	20.48
885.332	17.28
885.765	18.38
886.198	18.98
886.631	20.98
887.064	21.78
887.497	21.28
887.929	22.88
888.362	20.98
888.795	9.78
889.228	16.18
889.66	22.08
890.093	17.58
890.526	21.28
890.958	18.38
891.391	13.08
891.823	23.68
892.256	19.88
892.688	13.88
893.121	11.18
893.553	15.08
893.985	19.88
894.418	22.58
894.85	14.48
895.282	16.88
895.715	14.28
896.147	20.38
896.579	12.28
897.011	11.28
897.444	19.28
897.876	13.68
898.308	14.88
898.74	17.98
899.172	15.78
899.604	25.58
900.036	21.48
900.468	21.18
900.9	12.68
901.332	21.88
901.764	18.78
902.196	20.98
902.628	24.58
903.06	20.08
903.491	32.58
903.923	27.48
904.355	26.58
904.787	26.28
905.218	22.48
905.65	20.68
906.082	13.98
906.513	11.38
906.945	18.88
907.376	17.18
907.808	26.98
908.239	15.18
908.671	19.18
909.102	19.68
909.534	20.28
909.965	55.38
910.397	94.08
910.828	332.28
911.259	488.48
911.691	224.58
912.122	109.38
912.553	52.48
912.984	38.18
913.415	21.48
913.847	27.18
914.278	15.98
914.709	18.08
915.14	17.38
915.571	15.78
916.002	16.18
916.433	21.58
916.864	14.68
917.295	11.68
917.726	20.28
918.157	16.78
918.587	35.48
919.018	23.38
919.449	22.18
919.88	24.18
920.311	28.38
920.741	46.28
921.172	176.08
921.603	157.78
922.033	77.28
922.464	49.08
922.895	25.38
923.325	11.98
923.756	13.78
924.186	12.18
924.617	21.98
925.047	22.18
925.478	25.08
925.908	23.78
926.338	9.28
926.769	11.78
927.199	16.58
927.629	6.08
928.06	12.68
928.49	16.28
928.92	19.58
929.35	10.08
929.78	14.88
930.21	7.68
930.641	8.08
931.071	10.98
931.501	2.58
931.931	11.38
932.361	12.98
932.791	6.38
933.221	10.18
933.651	8.18
934.08	20.58
934.51	34.88
934.94	14.18
935.37	9.38
935.8	3.78
936.229	12.08
936.659	6.68
937.089	9.28
937.519	14.48
937.948	24.08
938.378	15.38
938.807	7.48
939.237	4.58
939.666	6.38
940.096	-7.32
940.525	5.28
940.955	7.28
941.384	3.78
941.814	-8.92
942.243	2.88
942.672	7.28
943.102	-4.22
943.531	1.88
943.96	5.98
944.39	8.68
944.819	2.08
945.248	6.98
945.677	6.48
946.106	3.88
946.535	7.78
946.964	0.78
947.393	3.78
947.822	5.78
948.251	1.98
948.68	4.98
949.109	9.38
949.538	5.38
949.967	2.48
950.396	0.88
950.825	-2.82
951.254	1.78
951.682	-3.62
952.111	6.28
952.54	5.88
952.969	-0.92
953.397	-7.02
953.826	4.68
954.254	-6.22
954.683	-0.02
955.112	1.88
955.54	2.88
955.969	5.18
956.397	3.28
956.826	-0.62
957.254	0.68
957.682	0.78
958.111	1.68
958.539	0.38
958.967	-1.32
959.396	-3.22
959.824	0.28
960.252	3.48
960.68	-7.02
961.109	-2.62
961.537	0.58
961.965	-3.22
962.393	4.08
962.821	-7.02
963.249	6.48
963.677	8.88
964.105	10.58
964.533	49.18
964.961	44.88
965.389	17.38
965.817	11.78
966.245	1.18
966.672	1.28
967.1	-3.32
967.528	2.08
967.956	-1.82
968.383	3.58
968.811	-0.12
969.239	-5.62
969.666	0.38
970.094	-0.02
970.522	0.48
970.949	-0.92
971.377	-4.12
971.804	3.28
972.232	6.48
972.659	5.38
973.087	-1.72
973.514	-7.92
973.941	-4.12
974.369	2.78
974.796	4.48
975.223	2.68
975.651	1.68
976.078	1.68
976.505	0.88
976.932	-0.42
977.359	11.98
977.786	17.58
978.214	0.38
978.641	1.88
979.068	-0.62
979.495	-6.62
979.922	1.88
980.349	-3.12
980.776	8.38
981.202	0.98
981.629	2.38
982.056	4.88
982.483	-5.22
982.91	3.38
983.337	-7.82
983.763	5.58
984.19	-0.82
984.617	1.18
985.043	0.58
985.47	-2.92
985.897	-3.12
986.323	-4.22
986.75	2.08
987.176	-0.12
987.603	-0.02
988.029	-0.72
988.456	-3.62
988.882	5.68
989.308	-10.42
989.735	-4.82
990.161	1.18
990.587	-5.02
991.014	0.58
991.44	10.58
991.866	-1.52
992.292	-6.02
992.719	0.08
993.145	1.58
993.571	-9.12
993.997	-6.52
994.423	-6.62
994.849	-3.22
995.275	2.48
995.701	3.18
996.127	-2.42
996.553	3.38
996.979	-7.42
997.405	-3.42
997.83	0.58
998.256	-5.12
998.682	-4.52
999.108	-7.82
999.534	-1.02
999.959	-0.92
1000.385	-1.02
1000.811	4.68
1001.236	-6.92
1001.662	-10.02
1002.087	-7.72
1002.513	4.18
1002.938	5.18
1003.364	-7.02
1003.789	-3.22
1004.215	1.58
1004.64	-4.02
1005.066	-4.32
1005.491	5.38
1005.916	-1.52
1006.342	-4.12
1006.767	-5.22
1007.192	4.18
1007.617	-5.02
1008.042	-7.32
1008.468	-6.02
1008.893	-1.42
1009.318	-0.92
1009.743	-4.82
1010.168	5.28
1010.593	6.18
1011.018	0.68
1011.443	-2.92
1011.868	-2.02
1012.293	-6.72
1012.718	-9.72
1013.143	2.18
1013.567	0.68
1013.992	-9.62
1014.417	-14.62
1014.842	4.28
1015.267	-3.72
1015.691	-6.62
1016.116	5.78
1016.541	-1.02
1016.965	0.48
1017.39	-1.72
1017.814	-2.32
1018.239	-1.02
1018.663	-2.72
1019.088	-9.42
1019.512	-1.22
1019.937	-4.52
1020.361	-1.42
1020.785	-5.32
1021.21	-1.62
1021.634	-0.12
1022.058	-2.22
1022.483	7.38
1022.907	-5.62
1023.331	-2.92
1023.755	-0.52
1024.179	-3.82
1024.604	-3.42
1025.028	-8.02
1025.452	-5.92
1025.876	-2.22
1026.3	-1.72
1026.724	-17.12
1027.148	-5.52
1027.572	-8.02
1027.996	-4.02
1028.42	-1.42
1028.843	-6.62
1029.267	-3.32
1029.691	-4.62
1030.115	-1.52
1030.539	-7.22
1030.962	-10.52
1031.386	-11.42
1031.81	-0.12
1032.233	-1.02
1032.657	-3.42
1033.08	1.28
1033.504	-1.72
1033.927	-3.12
1034.351	-2.82
1034.774	-2.42
1035.198	-6.52
1035.621	-4.42
1036.045	-10.92
1036.468	-4.02
1036.891	-13.12
1037.315	-14.82
1037.738	-6.92
1038.161	-1.32
1038.584	-4.22
1039.008	-5.32
1039.431	1.08
1039.854	-1.92
1040.277	-2.42
1040.7	-6.12
1041.123	2.78
1041.546	-8.42
1041.969	-5.82
1042.392	-3.22
1042.815	-1.62
1043.238	-1.02
1043.661	5.28
1044.084	-6.72
1044.507	-3.52
1044.93	-8.72
1045.352	-4.52
1045.775	-9.92
1046.198	-6.72
1046.621	-4.82
1047.043	-1.32
1047.466	6.18
1047.889	-2.82
1048.311	-3.22
1048.734	-3.92
1049.156	-0.22
1049.579	-6.82
1050.001	-5.32
1050.424	2.38
1050.846	-3.12
1051.269	-3.42
1051.691	-4.52
1052.113	-6.22
1052.536	-4.02
1052.958	-2.72
1053.38	-6.62
1053.802	-9.82
1054.225	4.28
1054.647	-9.22
1055.069	-3.92
1055.491	3.88
1055.913	-6.72
1056.335	4.28
1056.757	-6.82
1057.179	-4.62
1057.601	-8.12
1058.023	-3.62
1058.445	-7.72
1058.867	-3.72
1059.289	-6.32
1059.711	-8.52
1060.133	-2.32
1060.555	2.38
1060.976	-12.12
1061.398	-6.62
1061.82	-9.32
1062.241	-4.32
1062.663	-12.42
1063.085	-2.22
1063.506	0.58
1063.928	-6.32
1064.35	0.28
1064.771	-16.22
1065.193	-1.02
1065.614	-9.52
1066.035	-2.92
1066.457	-1.52
1066.878	-2.32
1067.3	-3.02
1067.721	-0.32
1068.142	-2.92
1068.564	-1.12
1068.985	-4.72
1069.406	-5.92
1069.827	-0.22
1070.248	-0.62
1070.67	-9.72
1071.091	-10.82
1071.512	-4.82
1071.933	-5.22
1072.354	-9.32
1072.775	-4.82
1073.196	-7.12
1073.617	-1.12
1074.038	-7.62
1074.459	-4.12
1074.88	-8.12
1075.3	-1.32
1075.721	-7.82
1076.142	-0.12
1076.563	-0.92
1076.983	-8.02
1077.404	-8.12
1077.825	-8.02
1078.246	-3.52
1078.666	-6.82
1079.087	-7.32
1079.507	-4.92
1079.928	-2.32
1080.348	2.48
1080.769	-3.42
1081.189	-2.92
1081.61	-8.02
1082.03	-3.92
1082.451	-6.12
1082.871	-4.62
1083.291	-7.92
1083.711	-9.82
1084.132	-3.42
1084.552	-5.82
1084.972	-5.92
1085.392	-8.72
1085.813	-9.22
1086.233	-10.42
1086.653	-10.62
1087.073	1.88
1087.493	-8.52
1087.913	-5.32
1088.333	-7.32
1088.753	-3.52
1089.173	-2.62
1089.593	-2.42
1090.013	0.98
1090.433	0.58
1090.852	-3.52
1091.272	-0.22
1091.692	-5.82
1092.112	-1.82
1092.531	-11.62
1092.951	-14.22
1093.371	-3.42
1093.79	0.28
1094.21	-1.22
1094.63	-7.92
1095.049	-1.42
1095.469	-4.42
1095.888	-6.22
1096.308	1.18
1096.727	-1.22
1097.146	-3.52
1097.566	1.78
1097.985	-2.42
1098.405	-3.02
1098.824	-9.12
1099.243	-6.92
1099.662	-8.22
1100.082	-2.82
1100.501	-0.12
1100.92	-8.12
1101.339	-1.42
1101.758	-4.42
