Data from 20171114-ORNL-Ar_H_NY_Subt18_08-07-23-791.txt Node
Date: Tue Nov 14 08:07:23 EST 2017
User: Ender
Spectrometer: HR+D1039
Trigger mode: 0
Integration Time (sec): 2.730000E-2
Scans to average: 10
Electric dark correction enabled: true
Nonlinearity correction enabled: false
Boxcar width: 0
XAxis mode: Wavelengths
Number of Pixels in Spectrum: 2048
>>>>>Begin Spectral Data<<<<<
187.836	-9.68
188.309	-9.68
188.782	-9.68
189.255	-0.58
189.728	-1.48
190.201	5.92
190.674	3.72
191.147	7.62
191.619	-7.28
192.092	2.32
192.565	8.02
193.038	0.82
193.511	-1.58
193.984	-3.08
194.456	-3.98
194.929	0.02
195.402	-1.28
195.874	0.52
196.347	2.52
196.82	-8.68
197.292	7.02
197.765	-1.98
198.237	-3.98
198.71	0.52
199.182	-1.28
199.655	2.62
200.127	2.82
200.6	-3.18
201.072	-5.28
201.544	-0.58
202.017	-4.08
202.489	-0.18
202.961	-4.68
203.433	-2.78
203.906	-8.38
204.378	-8.38
204.85	-3.68
205.322	-13.18
205.794	0.02
206.266	-3.48
206.739	-14.78
207.211	3.82
207.683	-1.08
208.155	-5.68
208.627	-7.88
209.099	-2.88
209.57	-4.78
210.042	-3.68
210.514	-3.98
210.986	0.12
211.458	-10.18
211.93	-2.18
212.402	0.92
212.873	-9.48
213.345	-9.98
213.817	-12.98
214.288	-5.58
214.76	-8.78
215.232	-2.68
215.703	-6.38
216.175	-2.48
216.646	-2.88
217.118	-7.58
217.589	-9.78
218.061	-7.08
218.532	-0.48
219.004	-6.18
219.475	-7.98
219.946	-1.58
220.418	0.22
220.889	5.42
221.36	-0.28
221.832	-4.48
222.303	-7.08
222.774	-1.48
223.245	-14.28
223.717	-4.28
224.188	-5.98
224.659	-2.18
225.13	-4.68
225.601	-6.38
226.072	-0.68
226.543	-9.38
227.014	3.12
227.485	-4.18
227.956	-7.68
228.427	-2.28
228.898	-1.88
229.369	-0.58
229.839	-3.98
230.31	-4.28
230.781	2.12
231.252	-3.18
231.722	-4.08
232.193	-8.18
232.664	2.32
233.135	-1.88
233.605	-0.28
234.076	-8.38
234.546	-3.78
235.017	5.72
235.487	4.92
235.958	-6.68
236.428	-8.88
236.899	0.72
237.369	3.42
237.84	-5.58
238.31	8.62
238.78	-0.78
239.251	0.62
239.721	-0.48
240.191	-0.98
240.662	0.92
241.132	-2.78
241.602	-4.78
242.072	2.72
242.542	4.02
243.013	3.72
243.483	-0.48
243.953	1.52
244.423	0.62
244.893	-5.38
245.363	-2.88
245.833	-3.58
246.303	-5.98
246.773	1.42
247.243	-0.18
247.712	-1.08
248.182	8.72
248.652	4.32
249.122	-2.88
249.592	4.72
250.061	10.92
250.531	22.12
251.001	7.12
251.471	14.52
251.94	15.62
252.41	3.52
252.879	-1.58
253.349	13.52
253.818	7.22
254.288	8.52
254.757	-5.18
255.227	3.12
255.696	1.62
256.166	5.42
256.635	-1.98
257.105	8.02
257.574	3.72
258.043	2.32
258.513	10.32
258.982	4.62
259.451	4.22
259.92	7.52
260.389	0.42
260.859	17.82
261.328	3.82
261.797	8.02
262.266	4.82
262.735	6.92
263.204	3.22
263.673	-4.88
264.142	1.92
264.611	-8.28
265.08	-5.18
265.549	-5.38
266.018	-3.98
266.487	-10.38
266.955	-2.28
267.424	-4.18
267.893	1.72
268.362	-4.98
268.83	1.92
269.299	7.42
269.768	-4.58
270.236	4.32
270.705	-3.28
271.174	0.92
271.642	-2.38
272.111	3.12
272.579	8.22
273.048	18.82
273.516	15.32
273.985	19.92
274.453	16.32
274.922	12.52
275.39	9.82
275.858	-2.78
276.327	10.72
276.795	6.02
277.263	1.72
277.731	19.52
278.2	36.42
278.668	42.82
279.136	31.72
279.604	14.52
280.072	11.82
280.54	5.12
281.008	6.12
281.477	8.62
281.945	5.12
282.413	13.32
282.881	9.22
283.348	-2.08
283.816	9.92
284.284	9.32
284.752	19.52
285.22	9.02
285.688	7.82
286.156	11.12
286.623	35.32
287.091	35.22
287.559	18.42
288.026	11.52
288.494	4.82
288.962	1.82
289.429	7.42
289.897	18.02
290.364	3.72
290.832	10.02
291.3	13.22
291.767	8.72
292.234	14.62
292.702	5.82
293.169	11.52
293.637	15.22
294.104	10.42
294.571	-2.58
295.039	11.82
295.506	5.62
295.973	10.62
296.44	10.42
296.908	11.62
297.375	8.82
297.842	11.12
298.309	12.42
298.776	3.82
299.243	17.62
299.71	5.82
300.177	15.62
300.644	13.92
301.111	8.82
301.578	13.12
302.045	5.32
302.512	16.32
302.979	15.42
303.446	20.22
303.913	9.02
304.379	8.52
304.846	15.22
305.313	18.82
305.78	14.52
306.246	13.12
306.713	18.22
307.18	14.72
307.646	23.82
308.113	20.92
308.579	16.02
309.046	16.12
309.512	18.42
309.979	11.32
310.445	15.72
310.912	19.52
311.378	25.72
311.845	24.92
312.311	19.12
312.777	21.02
313.244	21.02
313.71	29.32
314.176	20.72
314.642	19.32
315.109	19.12
315.575	16.52
316.041	26.92
316.507	19.52
316.973	31.92
317.439	22.72
317.905	30.22
318.371	32.92
318.837	22.92
319.303	24.62
319.769	23.02
320.235	23.42
320.701	25.72
321.167	22.42
321.633	23.42
322.099	24.92
322.564	40.12
323.03	25.12
323.496	29.02
323.962	26.02
324.427	25.02
324.893	27.32
325.359	28.52
325.824	27.42
326.29	28.62
326.755	27.22
327.221	28.12
327.686	25.52
328.152	34.22
328.617	29.62
329.083	35.72
329.548	40.92
330.014	33.92
330.479	29.02
330.944	31.22
331.41	33.32
331.875	34.92
332.34	30.72
332.805	32.52
333.271	38.32
333.736	30.92
334.201	39.92
334.666	43.72
335.131	38.02
335.596	34.92
336.061	40.02
336.526	31.82
336.991	38.72
337.456	45.72
337.921	36.12
338.386	27.22
338.851	35.62
339.316	37.52
339.781	38.22
340.246	31.72
340.711	36.52
341.175	34.62
341.64	33.02
342.105	42.02
342.569	42.82
343.034	49.92
343.499	42.52
343.963	35.72
344.428	50.42
344.893	46.02
345.357	47.22
345.822	42.62
346.286	51.02
346.751	54.52
347.215	47.32
347.679	53.82
348.144	69.82
348.608	55.82
349.073	52.12
349.537	57.12
350.001	59.32
350.465	69.32
350.93	56.72
351.394	61.62
351.858	58.32
352.322	65.22
352.786	63.82
353.25	80.42
353.715	82.92
354.179	72.42
354.643	91.92
355.107	93.82
355.571	87.22
356.035	81.22
356.498	87.02
356.962	96.02
357.426	98.62
357.89	88.82
358.354	76.62
358.818	60.62
359.281	69.52
359.745	63.02
360.209	60.12
360.673	62.02
361.136	65.62
361.6	73.72
362.064	67.92
362.527	66.32
362.991	75.12
363.454	61.12
363.918	63.72
364.381	62.62
364.845	59.72
365.308	70.82
365.772	67.22
366.235	74.82
366.698	65.52
367.162	68.92
367.625	67.22
368.088	68.82
368.552	77.72
369.015	76.32
369.478	79.62
369.941	86.82
370.404	80.32
370.867	88.62
371.331	86.22
371.794	95.72
372.257	93.12
372.72	97.62
373.183	88.62
373.646	89.62
374.109	87.52
374.572	85.72
375.035	88.92
375.497	88.42
375.96	86.42
376.423	89.12
376.886	93.62
377.349	92.12
377.811	93.22
378.274	92.22
378.737	89.62
379.199	95.22
379.662	96.82
380.125	100.32
380.587	102.82
381.05	107.72
381.512	105.32
381.975	117.92
382.437	112.72
382.9	107.52
383.362	111.32
383.825	115.32
384.287	125.12
384.75	124.32
385.212	123.12
385.674	124.42
386.136	116.92
386.599	115.82
387.061	112.92
387.523	118.32
387.985	118.52
388.447	125.82
388.91	125.42
389.372	140.82
389.834	129.52
390.296	127.12
390.758	136.52
391.22	144.62
391.682	180.02
392.144	260.52
392.606	195.82
393.068	146.12
393.529	145.32
393.991	138.52
394.453	131.12
394.915	139.12
395.377	164.32
395.838	191.32
396.3	133.02
396.762	128.02
397.224	117.02
397.685	114.02
398.147	110.42
398.608	113.32
399.07	116.32
399.531	124.62
399.993	123.02
400.454	136.32
400.916	129.02
401.377	127.32
401.839	134.42
402.3	135.32
402.762	146.72
403.223	158.52
403.684	151.12
404.145	137.72
404.607	146.32
405.068	144.92
405.529	153.92
405.99	169.12
406.451	148.42
406.913	156.72
407.374	151.52
407.835	146.32
408.296	151.12
408.757	148.92
409.218	164.62
409.679	163.22
410.14	155.32
410.601	157.92
411.062	163.32
411.522	169.32
411.983	172.62
412.444	157.42
412.905	168.72
413.366	166.22
413.826	178.32
414.287	191.02
414.748	235.72
415.208	227.32
415.669	193.72
416.13	188.22
416.59	182.72
417.051	198.02
417.511	200.22
417.972	216.02
418.432	221.42
418.893	268.12
419.353	229.92
419.814	178.52
420.274	164.02
420.734	170.92
421.195	181.12
421.655	179.52
422.115	174.62
422.576	177.52
423.036	188.22
423.496	195.32
423.956	208.22
424.416	212.62
424.876	248.52
425.336	235.12
425.797	239.72
426.257	232.92
426.717	220.22
427.177	214.52
427.637	209.72
428.097	214.52
428.556	233.02
429.016	245.92
429.476	248.12
429.936	256.72
430.396	257.42
430.856	269.42
431.315	293.72
431.775	323.12
432.235	355.62
432.694	320.72
433.154	334.52
433.614	357.42
434.073	310.32
434.533	264.12
434.993	246.62
435.452	262.92
435.912	272.82
436.371	262.12
436.83	257.72
437.29	248.42
437.749	231.62
438.209	232.62
438.668	253.92
439.127	260.72
439.587	244.12
440.046	229.72
440.505	243.22
440.964	256.72
441.424	296.22
441.883	279.92
442.342	243.42
442.801	210.72
443.26	200.12
443.719	212.12
444.178	205.92
444.637	198.62
445.096	205.72
445.555	209.22
446.014	208.92
446.473	214.22
446.932	221.32
447.391	204.22
447.849	210.62
448.308	206.22
448.767	203.72
449.226	224.42
449.685	223.82
450.143	234.62
450.602	229.32
451.061	211.52
451.519	217.72
451.978	214.22
452.436	213.82
452.895	223.42
453.353	227.22
453.812	225.72
454.27	226.82
454.729	225.32
455.187	231.12
455.646	225.42
456.104	235.02
456.562	244.72
457.021	245.22
457.479	247.52
457.937	250.72
458.395	236.62
458.854	235.02
459.312	248.12
459.77	260.82
460.228	233.52
460.686	226.12
461.144	236.12
461.602	233.22
462.06	230.72
462.518	238.42
462.976	239.02
463.434	241.42
463.892	246.22
464.35	255.52
464.808	272.82
465.266	246.02
465.724	253.62
466.181	257.22
466.639	256.12
467.097	273.22
467.555	275.72
468.012	282.92
468.47	296.62
468.928	306.22
469.385	324.32
469.843	319.12
470.3	327.22
470.758	341.02
471.215	360.52
471.673	379.52
472.13	381.02
472.588	393.42
473.045	356.92
473.503	361.92
473.96	376.72
474.417	384.42
474.875	410.22
475.332	453.82
475.789	441.52
476.246	446.52
476.704	460.62
477.161	478.82
477.618	490.92
478.075	533.22
478.532	583.42
478.989	643.22
479.446	755.52
479.903	728.12
480.36	768.92
480.817	826.12
481.274	927.02
481.731	1030.32
482.188	1108.42
482.645	1244.52
483.102	1328.52
483.558	1480.32
484.015	1528.12
484.472	1501.02
484.929	1450.72
485.385	1387.72
485.842	1352.52
486.299	1304.42
486.755	1230.42
487.212	1031.12
487.668	875.82
488.125	791.92
488.582	744.82
489.038	704.72
489.494	670.42
489.951	649.32
490.407	626.02
490.864	618.82
491.32	609.72
491.776	604.52
492.233	611.12
492.689	571.62
493.145	571.42
493.602	565.82
494.058	588.82
494.514	588.12
494.97	600.92
495.426	615.62
495.882	588.42
496.338	582.12
496.794	586.22
497.251	578.22
497.707	604.82
498.163	602.82
498.618	611.32
499.074	610.62
499.53	629.62
499.986	636.12
500.442	614.82
500.898	603.72
501.354	584.02
501.809	604.72
502.265	612.72
502.721	620.52
503.177	638.72
503.632	633.72
504.088	637.52
504.543	669.72
504.999	674.62
505.455	624.12
505.91	599.62
506.366	606.12
506.821	596.42
507.277	598.12
507.732	593.72
508.187	595.32
508.643	614.72
509.098	599.82
509.553	626.02
510.009	640.52
510.464	630.22
510.919	654.92
511.375	667.72
511.83	673.72
512.285	692.42
512.74	734.72
513.195	743.42
513.65	734.72
514.105	738.22
514.56	732.42
515.015	757.52
515.47	767.62
515.925	751.02
516.38	752.42
516.835	750.52
517.29	736.72
517.745	742.12
518.2	731.72
518.655	716.52
519.109	706.62
519.564	705.02
520.019	691.22
520.474	689.92
520.928	690.72
521.383	680.72
521.838	680.02
522.292	672.72
522.747	680.82
523.201	675.22
523.656	667.62
524.11	661.22
524.565	666.22
525.019	654.02
525.474	672.82
525.928	677.62
526.382	670.62
526.837	661.22
527.291	672.42
527.745	667.82
528.2	666.62
528.654	654.02
529.108	656.92
529.562	667.22
530.016	661.82
530.47	659.62
530.925	661.42
531.379	661.82
531.833	675.82
532.287	673.82
532.741	667.82
533.195	679.02
533.649	681.82
534.103	686.82
534.556	674.12
535.01	677.22
535.464	676.82
535.918	688.52
536.372	681.72
536.826	689.22
537.279	673.52
537.733	688.12
538.187	688.82
538.64	694.42
539.094	694.52
539.548	694.42
540.001	693.72
540.455	695.72
540.908	698.52
541.362	706.42
541.815	718.32
542.269	735.72
542.722	734.02
543.175	740.62
543.629	741.42
544.082	753.42
544.536	750.62
544.989	752.22
545.442	749.52
545.895	769.62
546.349	763.42
546.802	748.42
547.255	765.02
547.708	777.12
548.161	786.82
548.614	798.02
549.067	787.42
549.52	783.72
549.973	776.12
550.426	776.62
550.879	761.12
551.332	768.52
551.785	767.72
552.238	776.42
552.691	796.72
553.144	793.32
553.596	817.02
554.049	822.02
554.502	855.82
554.955	875.12
555.407	867.92
555.86	862.12
556.313	859.02
556.765	845.12
557.218	847.82
557.67	848.52
558.123	840.52
558.576	832.12
559.028	843.72
559.48	845.32
559.933	834.72
560.385	802.42
560.838	776.92
561.29	751.12
561.742	753.12
562.195	735.12
562.647	734.62
563.099	736.52
563.551	748.02
564.004	751.62
564.456	743.22
564.908	732.72
565.36	714.72
565.812	703.72
566.264	684.92
566.716	700.52
567.168	691.12
567.62	694.62
568.072	684.12
568.524	672.42
568.976	666.12
569.428	658.62
569.88	650.12
570.332	649.62
570.784	654.32
571.235	654.52
571.687	666.92
572.139	668.22
572.59	680.92
573.042	677.12
573.494	675.52
573.945	673.02
574.397	661.12
574.849	662.12
575.3	673.22
575.752	650.52
576.203	651.82
576.655	652.12
577.106	636.12
577.557	634.52
578.009	638.52
578.46	637.12
578.912	639.12
579.363	640.82
579.814	644.22
580.265	636.62
580.717	639.72
581.168	644.12
581.619	650.12
582.07	649.92
582.521	646.32
582.972	652.62
583.423	653.12
583.875	646.72
584.326	680.82
584.777	723.62
585.227	795.82
585.678	890.12
586.129	964.82
586.58	1026.62
587.031	1114.52
587.482	1245.22
587.933	1441.62
588.384	1240.82
588.834	932.82
589.285	774.52
589.736	754.52
590.186	740.82
590.637	734.72
591.088	722.12
591.538	714.72
591.989	704.32
592.439	695.02
592.89	693.32
593.34	690.52
593.791	683.12
594.241	666.32
594.692	685.82
595.142	673.72
595.593	677.32
596.043	672.72
596.493	685.52
596.943	704.12
597.394	687.12
597.844	688.32
598.294	700.32
598.744	723.62
599.195	748.52
599.645	783.12
600.095	822.82
600.545	884.02
600.995	933.42
601.445	1001.42
601.895	1043.62
602.345	1099.72
602.795	1064.52
603.245	1033.42
603.695	976.32
604.145	922.12
604.594	879.02
605.044	826.92
605.494	762.72
605.944	729.42
606.393	710.62
606.843	705.62
607.293	704.82
607.743	705.02
608.192	713.02
608.642	735.62
609.091	740.52
609.541	754.92
609.99	744.62
610.44	742.82
610.889	693.32
611.339	672.52
611.788	668.72
612.238	684.02
612.687	689.32
613.136	701.62
613.586	709.42
614.035	707.62
614.484	728.52
614.933	743.02
615.383	723.02
615.832	712.02
616.281	706.02
616.73	667.42
617.179	635.52
617.628	625.52
618.077	605.32
618.526	597.22
618.975	603.62
619.424	582.92
619.873	587.02
620.322	606.52
620.771	588.82
621.22	573.92
621.669	574.72
622.118	563.02
622.567	554.12
623.015	558.62
623.464	542.52
623.913	535.52
624.361	531.02
624.81	523.32
625.259	530.32
625.707	533.82
626.156	541.22
626.604	543.12
627.053	536.52
627.501	536.52
627.95	548.72
628.398	559.52
628.847	553.52
629.295	554.92
629.744	554.52
630.192	545.62
630.64	541.32
631.089	542.92
631.537	555.02
631.985	567.32
632.433	575.62
632.881	582.22
633.33	621.02
633.778	609.62
634.226	544.82
634.674	546.52
635.122	553.62
635.57	561.02
636.018	587.12
636.466	553.82
636.914	538.82
637.362	547.92
637.81	558.22
638.258	557.92
638.705	558.42
639.153	584.42
639.601	600.72
640.049	616.92
640.497	654.62
640.944	661.82
641.392	618.62
641.84	577.02
642.287	560.42
642.735	541.22
643.182	544.22
643.63	555.42
644.078	563.12
644.525	569.32
644.973	578.12
645.42	576.02
645.867	592.62
646.315	614.82
646.762	625.82
647.21	667.52
647.657	693.22
648.104	726.02
648.551	744.22
648.999	811.12
649.446	890.62
649.893	982.22
650.34	1117.82
650.787	1344.92
651.234	1681.62
651.682	2171.42
652.129	3021.12
652.576	4356.72
653.023	6479.12
653.47	8853.62
653.917	11047.72
654.363	12731.02
654.81	14032.72
655.257	13348.92
655.704	8671.52
656.151	5094.72
656.598	3278.82
657.044	2332.42
657.491	1797.82
657.938	1439.62
658.385	1197.72
658.831	1043.42
659.278	936.12
659.724	818.52
660.171	761.42
660.618	696.22
661.064	664.62
661.511	639.82
661.957	626.12
662.404	622.92
662.85	635.52
663.296	597.92
663.743	542.22
664.189	515.22
664.635	501.52
665.082	513.82
665.528	516.82
665.974	497.82
666.42	491.42
666.867	485.42
667.313	466.52
667.759	454.62
668.205	461.52
668.651	464.72
669.097	463.42
669.543	483.42
669.989	451.12
670.435	434.02
670.881	433.92
671.327	433.82
671.773	450.02
672.219	476.62
672.665	524.12
673.11	559.02
673.556	615.82
674.002	645.52
674.448	636.22
674.893	535.02
675.339	455.02
675.785	424.62
676.23	403.82
676.676	383.72
677.122	360.82
677.567	355.52
678.013	351.92
678.458	353.62
678.904	347.82
679.349	335.72
679.794	336.12
680.24	332.52
680.685	337.92
681.131	336.02
681.576	336.52
682.021	341.32
682.466	337.52
682.912	333.92
683.357	332.32
683.802	363.82
684.247	394.42
684.692	441.32
685.137	477.92
685.583	515.02
686.028	542.22
686.473	501.82
686.918	428.42
687.363	405.22
687.807	380.62
688.252	353.32
688.697	342.02
689.142	325.02
689.587	317.72
690.032	313.62
690.477	322.92
690.921	338.22
691.366	367.32
691.811	384.02
692.255	413.72
692.7	454.62
693.145	495.42
693.589	679.82
694.034	1114.02
694.478	1492.02
694.923	1668.52
695.367	2193.02
695.812	1146.52
696.256	485.62
696.701	355.32
697.145	329.22
697.59	309.02
698.034	307.62
698.478	321.62
698.922	315.52
699.367	316.72
699.811	322.62
700.255	339.52
700.699	366.12
701.143	410.62
701.588	463.82
702.032	502.62
702.476	495.62
702.92	467.02
703.364	468.22
703.808	619.12
704.252	1008.12
704.696	1419.22
705.14	1620.72
705.584	2043.82
706.027	1032.32
706.471	506.12
706.915	388.62
707.359	343.52
707.803	308.62
708.246	300.82
708.69	300.62
709.134	297.72
709.577	299.92
710.021	309.02
710.465	295.32
710.908	283.12
711.352	282.22
711.795	297.72
712.239	337.02
712.682	373.52
713.126	398.02
713.569	445.12
714.012	364.22
714.456	306.82
714.899	283.32
715.342	263.62
715.786	256.32
716.229	251.42
716.672	238.52
717.115	239.82
717.558	241.52
718.002	246.82
718.445	254.72
718.888	271.42
719.331	273.12
719.774	301.32
720.217	299.22
720.66	267.82
721.103	263.12
721.546	253.32
721.989	234.02
722.432	223.02
722.874	231.62
723.317	223.12
723.76	228.72
724.203	250.82
724.645	313.52
725.088	435.72
725.531	550.52
725.974	616.62
726.416	518.72
726.859	297.22
727.301	238.22
727.744	229.12
728.187	220.92
728.629	225.92
729.071	232.22
729.514	252.42
729.956	262.52
730.399	275.52
730.841	277.32
731.283	259.42
731.726	256.92
732.168	250.02
732.61	255.02
733.053	282.22
733.495	307.62
733.937	341.62
734.379	382.92
734.821	425.92
735.263	529.52
735.705	809.32
736.148	1555.82
736.59	2519.42
737.032	2926.02
737.474	2378.72
737.916	776.82
738.357	413.32
738.799	315.92
739.241	291.32
739.683	277.52
740.125	285.92
740.567	286.62
741.008	297.12
741.45	308.52
741.892	306.12
742.334	332.42
742.775	343.52
743.217	326.32
743.658	259.52
744.1	240.82
744.542	251.02
744.983	295.52
745.425	333.82
745.866	339.22
746.307	271.12
746.749	277.22
747.19	318.42
747.632	446.22
748.073	863.02
748.514	1844.92
748.956	2768.42
749.397	3477.32
749.838	2884.62
750.279	2855.12
750.72	1438.92
751.162	519.72
751.603	310.02
752.044	239.52
752.485	206.92
752.926	200.12
753.367	194.32
753.808	185.72
754.249	184.62
754.69	181.42
755.131	173.82
755.572	172.52
756.013	177.52
756.453	178.32
756.894	186.12
757.335	186.82
757.776	188.22
758.216	185.12
758.657	187.52
759.098	191.12
759.538	224.02
759.979	261.82
760.42	370.12
760.86	692.72
761.301	1819.72
761.741	4353.62
762.182	6215.62
762.622	4348.22
763.063	1265.42
763.503	517.22
763.943	337.92
764.384	325.52
764.824	385.92
765.264	406.72
765.705	284.02
766.145	201.92
766.585	177.62
767.025	168.32
767.465	172.62
767.906	221.92
768.346	294.52
768.786	319.12
769.226	256.92
769.666	316.52
770.106	618.82
770.546	1527.12
770.986	2553.42
771.426	2266.82
771.866	760.22
772.306	321.22
772.745	202.82
773.185	169.92
773.625	169.72
774.065	158.42
774.505	194.52
774.944	307.02
775.384	667.92
775.824	1183.62
776.263	1153.52
776.703	495.12
777.142	220.12
777.582	151.62
778.021	133.12
778.461	127.72
778.9	137.42
779.34	126.32
779.779	116.62
780.219	106.22
780.658	101.12
781.097	109.12
781.537	107.92
781.976	106.02
782.415	105.02
782.855	102.92
783.294	96.92
783.733	101.32
784.172	103.82
784.611	106.32
785.05	109.02
785.489	109.82
785.928	111.02
786.367	114.32
786.806	111.52
787.245	123.42
787.684	129.92
788.123	138.32
788.562	127.32
789.001	117.72
789.44	112.82
789.879	113.42
790.317	113.02
790.756	122.22
791.195	125.62
791.634	142.72
792.072	202.22
792.511	363.52
792.95	989.82
793.388	2084.92
793.827	1863.32
794.265	658.72
794.704	271.32
795.142	180.62
795.581	149.82
796.019	132.92
796.458	122.22
796.896	115.92
797.334	130.62
797.773	155.52
798.211	216.22
798.649	426.52
799.087	989.52
799.526	1545.62
799.964	1979.12
800.402	1938.52
800.84	731.82
801.278	293.22
801.716	177.02
802.154	147.82
802.592	143.42
803.03	134.02
803.468	129.52
803.906	139.92
804.344	141.42
804.782	139.72
805.22	129.22
805.658	131.62
806.096	142.22
806.533	154.92
806.971	166.42
807.409	205.42
807.847	313.62
808.284	647.92
808.722	1855.22
809.16	3195.92
809.597	3075.32
810.035	5305.62
810.472	5558.12
810.91	2009.22
811.347	771.82
811.785	388.62
812.222	244.32
812.66	191.22
813.097	158.52
813.535	141.72
813.972	124.32
814.409	116.52
814.846	104.92
815.284	97.72
815.721	93.92
816.158	107.22
816.595	111.72
817.032	169.32
817.47	190.52
817.907	150.62
818.344	148.22
818.781	115.02
819.218	95.12
819.655	116.52
820.092	177.02
820.529	197.92
820.966	166.42
821.403	135.02
821.839	107.92
822.276	100.12
822.713	118.22
823.15	129.92
823.587	107.52
824.023	142.02
824.46	294.52
824.897	877.92
825.333	1307.52
825.77	553.12
826.206	224.72
826.643	129.22
827.08	95.02
827.516	88.82
827.953	73.02
828.389	72.22
828.825	59.02
829.262	69.92
829.698	62.22
830.135	63.32
830.571	64.02
831.007	60.82
831.443	60.92
831.88	56.52
832.316	64.62
832.752	63.92
833.188	63.82
833.624	63.32
834.06	63.62
834.497	68.72
834.933	64.82
835.369	76.72
835.805	60.02
836.241	71.92
836.677	78.72
837.112	90.42
837.548	104.62
837.984	132.42
838.42	195.82
838.856	494.12
839.292	1500.52
839.727	2225.62
840.163	1039.42
840.599	907.92
841.034	1972.12
841.47	2050.02
841.906	749.12
842.341	327.92
842.777	225.22
843.212	317.02
843.648	303.62
844.083	143.32
844.519	88.82
844.954	73.42
845.39	60.92
845.825	61.52
846.261	54.52
846.696	54.52
847.131	58.42
847.566	52.52
848.002	45.02
848.437	51.82
848.872	62.02
849.307	56.12
849.742	83.42
850.177	183.02
850.613	548.72
851.048	851.32
851.483	371.02
851.918	150.72
852.353	82.92
852.788	59.22
853.223	56.62
853.657	56.82
854.092	46.62
854.527	38.52
854.962	42.12
855.397	38.32
855.832	47.22
856.266	38.82
856.701	33.82
857.136	30.12
857.57	38.12
858.005	42.92
858.44	56.52
858.874	41.92
859.309	53.02
859.743	36.32
860.178	43.02
860.612	43.92
861.047	50.32
861.481	66.62
861.915	71.42
862.35	47.22
862.784	33.12
863.218	39.32
863.653	35.62
864.087	46.02
864.521	56.42
864.955	64.92
865.39	150.42
865.824	167.52
866.258	106.82
866.692	151.22
867.126	167.92
867.56	102.12
867.994	47.72
868.428	34.62
868.862	42.62
869.296	50.52
869.73	51.52
870.164	44.72
870.598	49.42
871.031	35.42
871.465	33.82
871.899	29.92
872.333	21.32
872.766	21.82
873.2	27.92
873.634	33.32
874.067	28.42
874.501	24.02
874.935	26.72
875.368	26.22
875.802	22.42
876.235	29.72
876.669	22.52
877.102	23.32
877.535	24.82
877.969	22.92
878.402	26.12
878.836	21.22
879.269	20.62
879.702	23.42
880.135	22.32
880.569	22.32
881.002	26.42
881.435	23.32
881.868	15.62
882.301	21.72
882.734	15.22
883.167	24.42
883.601	12.92
884.034	23.12
884.467	13.12
884.899	17.32
885.332	15.92
885.765	14.72
886.198	19.82
886.631	16.72
887.064	14.62
887.497	17.82
887.929	19.82
888.362	8.72
888.795	13.62
889.228	12.72
889.66	21.52
890.093	14.42
890.526	11.72
890.958	17.22
891.391	17.32
891.823	26.52
892.256	15.22
892.688	20.02
893.121	19.02
893.553	12.42
893.985	15.92
894.418	17.52
894.85	15.62
895.282	14.42
895.715	15.72
896.147	13.22
896.579	20.72
897.011	12.52
897.444	14.02
897.876	9.82
898.308	15.62
898.74	16.42
899.172	13.02
899.604	26.52
900.036	18.62
900.468	11.72
900.9	16.62
901.332	17.12
901.764	12.52
902.196	16.82
902.628	21.02
903.06	18.72
903.491	28.52
903.923	20.92
904.355	21.22
904.787	25.12
905.218	19.92
905.65	13.82
906.082	8.12
906.513	5.82
906.945	13.82
907.376	16.32
907.808	22.52
908.239	23.92
908.671	20.52
909.102	20.52
909.534	24.62
909.965	42.62
910.397	91.42
910.828	309.22
911.259	460.92
911.691	216.72
912.122	103.72
912.553	50.72
912.984	33.32
913.415	30.02
913.847	26.62
914.278	16.22
914.709	16.52
915.14	16.82
915.571	19.42
916.002	13.52
916.433	13.32
916.864	17.22
917.295	13.22
917.726	19.42
918.157	15.42
918.587	21.72
919.018	20.72
919.449	18.12
919.88	16.22
920.311	31.12
920.741	45.22
921.172	159.32
921.603	142.72
922.033	74.52
922.464	39.02
922.895	17.22
923.325	15.82
923.756	14.12
924.186	10.72
924.617	26.62
925.047	41.52
925.478	49.62
925.908	40.92
926.338	25.32
926.769	19.62
927.199	21.62
927.629	8.72
928.06	17.22
928.49	9.82
928.92	8.22
929.35	8.82
929.78	13.72
930.21	8.42
930.641	6.42
931.071	9.22
931.501	3.12
931.931	6.82
932.361	5.72
932.791	0.12
933.221	-0.78
933.651	3.32
934.08	17.42
934.51	32.82
934.94	10.42
935.37	10.32
935.8	8.92
936.229	3.72
936.659	7.62
937.089	-0.78
937.519	11.42
937.948	19.92
938.378	8.12
938.807	8.02
939.237	7.02
939.666	10.42
940.096	-2.78
940.525	-1.08
940.955	-1.98
941.384	-0.28
941.814	-4.28
942.243	-6.88
942.672	5.52
943.102	-2.68
943.531	-0.48
943.96	6.02
944.39	-0.98
944.819	-5.98
945.248	2.72
945.677	7.52
946.106	5.02
946.535	1.72
946.964	2.12
947.393	4.02
947.822	4.82
948.251	-5.88
948.68	4.82
949.109	1.72
949.538	7.92
949.967	2.62
950.396	-3.68
950.825	1.92
951.254	0.02
951.682	-2.58
952.111	3.72
952.54	7.52
952.969	-0.78
953.397	-2.78
953.826	0.32
954.254	-4.68
954.683	3.32
955.112	1.12
955.54	-0.58
955.969	-1.48
956.397	2.32
956.826	-8.38
957.254	-0.08
957.682	1.12
958.111	9.12
958.539	-0.68
958.967	0.92
959.396	-4.98
959.824	0.52
960.252	3.12
960.68	-1.48
961.109	-2.98
961.537	-4.78
961.965	-3.08
962.393	4.32
962.821	-0.68
963.249	-0.78
963.677	5.12
964.105	5.92
964.533	43.22
964.961	41.02
965.389	21.92
965.817	7.72
966.245	2.62
966.672	0.12
967.1	-7.28
967.528	-3.68
967.956	-0.38
968.383	-1.18
968.811	0.32
969.239	-6.08
969.666	-3.08
970.094	4.32
970.522	4.52
970.949	2.92
971.377	-3.38
971.804	-2.38
972.232	-1.68
972.659	-2.98
973.087	-3.38
973.514	-0.48
973.941	-6.78
974.369	4.72
974.796	-3.18
975.223	-0.98
975.651	3.02
976.078	3.92
976.505	-1.78
976.932	-0.18
977.359	13.02
977.786	9.72
978.214	-0.88
978.641	-1.28
979.068	3.12
979.495	-2.48
979.922	-7.18
980.349	-5.28
980.776	3.72
981.202	-4.38
981.629	0.72
982.056	6.22
982.483	0.72
982.91	2.52
983.337	-0.48
983.763	1.12
984.19	-6.18
984.617	-5.78
985.043	-6.58
985.47	0.12
985.897	-4.68
986.323	-10.58
986.75	-2.28
987.176	3.02
987.603	2.02
988.029	-0.08
988.456	-3.08
988.882	2.32
989.308	-8.28
989.735	-5.98
990.161	-1.18
990.587	-9.28
991.014	5.52
991.44	3.82
991.866	2.52
992.292	-6.88
992.719	-5.48
993.145	2.92
993.571	-11.18
993.997	-7.38
994.423	-3.08
994.849	2.22
995.275	-1.98
995.701	0.12
996.127	-2.78
996.553	4.92
996.979	0.92
997.405	-6.38
997.83	1.22
998.256	-4.58
998.682	-0.58
999.108	-7.78
999.534	3.72
999.959	-6.28
1000.385	-3.18
1000.811	-2.38
1001.236	-6.38
1001.662	-13.08
1002.087	-9.18
1002.513	3.72
1002.938	1.42
1003.364	-2.18
1003.789	0.22
1004.215	1.82
1004.64	-3.78
1005.066	2.32
1005.491	2.72
1005.916	-0.58
1006.342	0.52
1006.767	-6.78
1007.192	3.82
1007.617	-4.28
1008.042	-6.98
1008.468	-7.58
1008.893	-3.58
1009.318	-7.38
1009.743	-4.48
1010.168	0.72
1010.593	-3.78
1011.018	-9.28
1011.443	-5.78
1011.868	-3.68
1012.293	-4.68
1012.718	-6.18
1013.143	-5.18
1013.567	0.52
1013.992	0.22
1014.417	-14.78
1014.842	2.62
1015.267	-5.48
1015.691	-0.38
1016.116	3.72
1016.541	1.62
1016.965	6.72
1017.39	4.12
1017.814	0.82
1018.239	1.42
1018.663	-4.58
1019.088	-10.48
1019.512	-1.68
1019.937	-4.58
1020.361	-3.78
1020.785	-10.38
1021.21	-5.28
1021.634	-0.98
1022.058	-2.68
1022.483	0.02
1022.907	-7.78
1023.331	-2.28
1023.755	-4.48
1024.179	-2.78
1024.604	-1.58
1025.028	-6.88
1025.452	-3.58
1025.876	-5.18
1026.3	-0.58
1026.724	-10.38
1027.148	-5.28
1027.572	-11.28
1027.996	-6.48
1028.42	-0.08
1028.843	-12.18
1029.267	-2.98
1029.691	-2.98
1030.115	-6.38
1030.539	-8.98
1030.962	-3.58
1031.386	-9.88
1031.81	-1.38
1032.233	-2.08
1032.657	-0.78
1033.08	-2.08
1033.504	-8.28
1033.927	-3.78
1034.351	-1.48
1034.774	-0.08
1035.198	-7.38
1035.621	-7.78
1036.045	-7.18
1036.468	-4.28
1036.891	-9.18
1037.315	-11.58
1037.738	-10.48
1038.161	1.52
1038.584	-7.48
1039.008	-4.48
1039.431	-0.88
1039.854	-5.98
1040.277	-13.78
1040.7	-10.58
1041.123	-3.68
1041.546	-7.78
1041.969	-4.28
1042.392	-8.28
1042.815	0.32
1043.238	-0.58
1043.661	0.32
1044.084	-5.78
1044.507	-7.18
1044.93	-7.98
1045.352	-3.88
1045.775	-0.78
1046.198	-2.18
1046.621	1.92
1047.043	-3.28
1047.466	4.02
1047.889	-1.48
1048.311	-5.98
1048.734	-10.08
1049.156	-5.68
1049.579	-1.98
1050.001	-1.28
1050.424	-0.18
1050.846	-0.98
1051.269	-3.98
1051.691	-6.58
1052.113	-3.58
1052.536	-2.58
1052.958	-3.98
1053.38	-5.78
1053.802	-6.78
1054.225	-0.18
1054.647	-11.48
1055.069	-8.88
1055.491	-1.98
1055.913	-5.38
1056.335	2.72
1056.757	2.52
1057.179	-8.08
1057.601	-8.38
1058.023	-4.68
1058.445	-2.28
1058.867	-11.48
1059.289	-1.68
1059.711	-3.88
1060.133	-4.28
1060.555	-4.58
1060.976	-5.28
1061.398	-1.38
1061.82	-2.58
1062.241	-6.48
1062.663	-5.58
1063.085	-2.98
1063.506	2.12
1063.928	-3.58
1064.35	1.02
1064.771	-11.98
1065.193	-6.28
1065.614	-8.38
1066.035	0.42
1066.457	-6.58
1066.878	-1.18
1067.3	-5.68
1067.721	-8.68
1068.142	-10.28
1068.564	-6.98
1068.985	-5.98
1069.406	-3.68
1069.827	-2.98
1070.248	-2.48
1070.67	-7.88
1071.091	-8.38
1071.512	1.52
1071.933	-6.48
1072.354	-4.08
1072.775	-8.68
1073.196	-9.78
1073.617	0.32
1074.038	-4.38
1074.459	-2.18
1074.88	-2.98
1075.3	5.92
1075.721	-11.08
1076.142	0.32
1076.563	-4.38
1076.983	-9.18
1077.404	-4.18
1077.825	-11.28
1078.246	-4.58
1078.666	-7.88
1079.087	-6.18
1079.507	-9.18
1079.928	-2.58
1080.348	1.22
1080.769	-8.18
1081.189	3.22
1081.61	-2.88
1082.03	-1.18
1082.451	-9.28
1082.871	-2.58
1083.291	-10.08
1083.711	-12.58
1084.132	-7.98
1084.552	-4.28
1084.972	-0.78
1085.392	-15.98
1085.813	-7.48
1086.233	-8.68
1086.653	-4.78
1087.073	1.42
1087.493	-4.78
1087.913	-7.98
1088.333	-5.08
1088.753	-4.38
1089.173	0.22
1089.593	-2.98
1090.013	0.32
1090.433	8.22
1090.852	-9.38
1091.272	-8.18
1091.692	-2.68
1092.112	-3.48
1092.531	-7.48
1092.951	-16.78
1093.371	-10.18
1093.79	5.02
1094.21	-5.48
1094.63	-1.08
1095.049	-4.08
1095.469	1.22
1095.888	-4.38
1096.308	-1.18
1096.727	1.82
1097.146	-6.58
1097.566	-0.98
1097.985	-1.88
1098.405	-4.78
1098.824	-7.08
1099.243	-7.68
1099.662	-13.28
1100.082	-1.88
1100.501	-1.98
1100.92	-7.08
1101.339	-5.98
1101.758	0.72
