Data from 20171114-ORNL-Ar_H_NY_Subt18_08-08-55-266.txt Node
Date: Tue Nov 14 08:08:55 EST 2017
User: Ender
Spectrometer: HR+D1039
Trigger mode: 0
Integration Time (sec): 2.730000E-2
Scans to average: 10
Electric dark correction enabled: true
Nonlinearity correction enabled: false
Boxcar width: 0
XAxis mode: Wavelengths
Number of Pixels in Spectrum: 2048
>>>>>Begin Spectral Data<<<<<
187.836	-8.19
188.309	-8.19
188.782	-8.19
189.255	2.51
189.728	3.51
190.201	2.41
190.674	2.21
191.147	-0.39
191.619	-9.09
192.092	-0.89
192.565	1.61
193.038	-1.69
193.511	4.41
193.984	1.21
194.456	0.81
194.929	5.21
195.402	-1.59
195.874	-1.99
196.347	-4.89
196.82	-4.99
197.292	4.21
197.765	-1.19
198.237	-4.79
198.71	-0.99
199.182	-1.19
199.655	7.61
200.127	1.01
200.6	0.61
201.072	2.81
201.544	-2.49
202.017	-2.99
202.489	3.11
202.961	-6.29
203.433	-6.69
203.906	-3.69
204.378	-8.39
204.85	-7.69
205.322	-15.19
205.794	-5.29
206.266	-0.99
206.739	-8.59
207.211	1.61
207.683	-7.09
208.155	-7.59
208.627	-10.19
209.099	-9.19
209.57	-2.99
210.042	-5.09
210.514	1.71
210.986	3.01
211.458	-11.99
211.93	-6.89
212.402	-5.19
212.873	-10.49
213.345	-8.89
213.817	-12.89
214.288	-3.99
214.76	-7.19
215.232	-6.69
215.703	-7.39
216.175	-8.09
216.646	-1.89
217.118	-9.19
217.589	-3.99
218.061	-1.09
218.532	-7.19
219.004	-0.89
219.475	-2.29
219.946	-4.59
220.418	-4.79
220.889	2.11
221.36	0.31
221.832	-6.89
222.303	-4.19
222.774	-2.89
223.245	-8.19
223.717	-8.19
224.188	-5.09
224.659	-10.39
225.13	-7.59
225.601	-4.49
226.072	0.81
226.543	-0.29
227.014	-1.49
227.485	-7.29
227.956	-3.99
228.427	-2.19
228.898	-0.29
229.369	4.01
229.839	-6.79
230.31	-4.69
230.781	-2.39
231.252	-2.89
231.722	-0.19
232.193	-1.39
232.664	-1.19
233.135	-3.69
233.605	-7.09
234.076	-9.79
234.546	1.91
235.017	-0.99
235.487	-2.09
235.958	-3.49
236.428	-9.79
236.899	-1.69
237.369	-0.59
237.84	-3.59
238.31	6.51
238.78	0.31
239.251	-5.49
239.721	-3.19
240.191	-6.49
240.662	-4.69
241.132	1.31
241.602	-6.59
242.072	-8.29
242.542	2.51
243.013	-3.29
243.483	1.51
243.953	-0.89
244.423	-0.99
244.893	-11.49
245.363	-3.19
245.833	-1.59
246.303	-8.29
246.773	0.91
247.243	-2.89
247.712	-0.79
248.182	1.71
248.652	-2.29
249.122	-6.09
249.592	3.91
250.061	6.81
250.531	10.41
251.001	3.91
251.471	4.71
251.94	7.61
252.41	0.91
252.879	-4.29
253.349	2.71
253.818	13.51
254.288	1.11
254.757	-2.39
255.227	-5.79
255.696	1.31
256.166	4.81
256.635	1.91
257.105	2.51
257.574	0.01
258.043	2.11
258.513	-1.79
258.982	1.51
259.451	-3.19
259.92	4.01
260.389	2.91
260.859	10.61
261.328	-0.09
261.797	3.91
262.266	1.31
262.735	6.41
263.204	-1.89
263.673	-2.09
264.142	-0.89
264.611	-7.49
265.08	-2.79
265.549	-3.79
266.018	4.11
266.487	-8.09
266.955	-5.39
267.424	-1.19
267.893	7.71
268.362	0.31
268.83	3.01
269.299	7.51
269.768	-2.49
270.236	0.61
270.705	-8.49
271.174	-0.19
271.642	-0.39
272.111	4.21
272.579	0.61
273.048	-0.79
273.516	6.81
273.985	5.61
274.453	6.21
274.922	11.71
275.39	6.21
275.858	-7.79
276.327	6.21
276.795	10.81
277.263	-1.79
277.731	14.81
278.2	14.61
278.668	14.21
279.136	9.71
279.604	2.61
280.072	8.41
280.54	3.91
281.008	2.71
281.477	5.61
281.945	5.11
282.413	12.71
282.881	8.71
283.348	-0.49
283.816	9.21
284.284	6.41
284.752	16.61
285.22	5.41
285.688	8.41
286.156	8.21
286.623	20.21
287.091	9.31
287.559	15.41
288.026	8.71
288.494	12.71
288.962	0.91
289.429	3.31
289.897	14.31
290.364	14.81
290.832	11.91
291.3	8.71
291.767	3.71
292.234	5.51
292.702	3.01
293.169	12.41
293.637	15.81
294.104	11.51
294.571	-0.09
295.039	5.01
295.506	5.11
295.973	10.81
296.44	9.51
296.908	12.71
297.375	12.91
297.842	12.31
298.309	10.91
298.776	12.01
299.243	15.61
299.71	8.31
300.177	11.51
300.644	12.01
301.111	12.51
301.578	13.91
302.045	8.21
302.512	17.71
302.979	19.91
303.446	14.91
303.913	12.21
304.379	17.51
304.846	16.51
305.313	18.81
305.78	12.21
306.246	19.71
306.713	13.61
307.18	17.61
307.646	18.71
308.113	16.21
308.579	13.71
309.046	18.41
309.512	19.11
309.979	7.61
310.445	25.41
310.912	17.81
311.378	24.61
311.845	15.61
312.311	19.31
312.777	24.21
313.244	25.11
313.71	28.21
314.176	20.71
314.642	18.61
315.109	18.31
315.575	28.91
316.041	24.51
316.507	23.01
316.973	26.61
317.439	21.21
317.905	24.71
318.371	28.21
318.837	25.61
319.303	25.41
319.769	27.01
320.235	22.91
320.701	25.71
321.167	31.71
321.633	16.51
322.099	26.31
322.564	30.81
323.03	26.81
323.496	28.21
323.962	35.81
324.427	25.51
324.893	27.61
325.359	24.81
325.824	23.51
326.29	24.31
326.755	24.81
327.221	29.61
327.686	31.31
328.152	36.01
328.617	35.31
329.083	36.41
329.548	42.51
330.014	36.31
330.479	31.61
330.944	33.21
331.41	34.71
331.875	33.01
332.34	29.51
332.805	36.71
333.271	39.01
333.736	29.61
334.201	40.61
334.666	41.81
335.131	42.31
335.596	42.61
336.061	36.01
336.526	30.21
336.991	40.41
337.456	45.81
337.921	42.61
338.386	35.01
338.851	37.61
339.316	43.61
339.781	46.41
340.246	42.71
340.711	45.11
341.175	43.21
341.64	35.91
342.105	47.31
342.569	45.01
343.034	46.01
343.499	49.21
343.963	37.81
344.428	46.21
344.893	52.11
345.357	52.81
345.822	58.51
346.286	55.41
346.751	61.31
347.215	55.41
347.679	64.11
348.144	79.11
348.608	68.31
349.073	63.51
349.537	66.81
350.001	60.31
350.465	70.61
350.93	62.31
351.394	63.41
351.858	57.41
352.322	79.11
352.786	66.71
353.25	81.91
353.715	88.11
354.179	87.21
354.643	97.01
355.107	95.71
355.571	88.51
356.035	87.51
356.498	93.81
356.962	96.01
357.426	104.31
357.89	94.21
358.354	74.61
358.818	70.81
359.281	70.71
359.745	71.31
360.209	63.31
360.673	64.01
361.136	64.41
361.6	72.21
362.064	72.41
362.527	71.71
362.991	77.31
363.454	69.41
363.918	69.61
364.381	73.31
364.845	76.81
365.308	75.61
365.772	78.01
366.235	76.61
366.698	69.41
367.162	75.91
367.625	76.11
368.088	80.91
368.552	77.81
369.015	77.61
369.478	87.81
369.941	85.01
370.404	78.21
370.867	91.41
371.331	91.31
371.794	101.91
372.257	90.01
372.72	92.81
373.183	88.31
373.646	84.51
374.109	89.21
374.572	91.01
375.035	90.31
375.497	96.41
375.96	84.41
376.423	92.91
376.886	104.31
377.349	104.81
377.811	95.11
378.274	92.01
378.737	92.21
379.199	99.51
379.662	100.91
380.125	100.41
380.587	92.21
381.05	93.11
381.512	113.71
381.975	110.01
382.437	114.91
382.9	111.81
383.362	117.51
383.825	121.01
384.287	115.31
384.75	111.11
385.212	119.91
385.674	123.81
386.136	119.21
386.599	115.91
387.061	115.01
387.523	110.01
387.985	116.61
388.447	129.81
388.91	118.31
389.372	121.51
389.834	127.81
390.296	123.71
390.758	125.01
391.22	132.11
391.682	144.11
392.144	172.01
392.606	152.91
393.068	136.61
393.529	145.01
393.991	134.21
394.453	127.21
394.915	130.61
395.377	136.61
395.838	142.91
396.3	132.61
396.762	128.11
397.224	128.51
397.685	128.51
398.147	126.91
398.608	127.71
399.07	126.41
399.531	127.81
399.993	138.91
400.454	144.31
400.916	144.91
401.377	135.01
401.839	150.31
402.3	149.21
402.762	158.41
403.223	171.11
403.684	161.71
404.145	153.81
404.607	151.31
405.068	161.31
405.529	166.71
405.99	176.31
406.451	162.81
406.913	166.11
407.374	158.41
407.835	155.71
408.296	157.91
408.757	163.61
409.218	182.01
409.679	167.61
410.14	167.41
410.601	173.51
411.062	174.21
411.522	179.41
411.983	176.51
412.444	167.51
412.905	178.01
413.366	177.71
413.826	195.21
414.287	216.01
414.748	267.71
415.208	243.81
415.669	210.51
416.13	207.41
416.59	203.81
417.051	214.11
417.511	226.81
417.972	236.11
418.432	249.71
418.893	284.91
419.353	243.31
419.814	198.51
420.274	188.01
420.734	181.51
421.195	196.21
421.655	193.01
422.115	196.21
422.576	193.61
423.036	199.81
423.496	206.01
423.956	222.51
424.416	227.41
424.876	269.21
425.336	264.51
425.797	254.71
426.257	248.21
426.717	234.41
427.177	230.61
427.637	224.91
428.097	230.31
428.556	235.81
429.016	260.71
429.476	261.41
429.936	268.21
430.396	275.81
430.856	276.41
431.315	305.11
431.775	337.81
432.235	367.81
432.694	339.51
433.154	351.31
433.614	377.11
434.073	321.61
434.533	273.71
434.993	261.61
435.452	274.11
435.912	281.31
436.371	273.01
436.83	275.81
437.29	266.61
437.749	239.81
438.209	243.91
438.668	272.21
439.127	284.81
439.587	257.41
440.046	249.81
440.505	259.11
440.964	262.21
441.424	312.11
441.883	302.51
442.342	258.71
442.801	227.71
443.26	229.81
443.719	225.91
444.178	228.21
444.637	215.41
445.096	224.91
445.555	223.91
446.014	226.41
446.473	234.51
446.932	236.21
447.391	232.91
447.849	235.11
448.308	218.31
448.767	223.31
449.226	237.11
449.685	247.81
450.143	256.91
450.602	243.91
451.061	235.81
451.519	231.21
451.978	243.51
452.436	234.81
452.895	253.11
453.353	250.81
453.812	240.61
454.27	246.21
454.729	243.51
455.187	244.01
455.646	251.61
456.104	258.51
456.562	266.81
457.021	270.11
457.479	272.01
457.937	274.71
458.395	268.51
458.854	254.41
459.312	257.61
459.77	282.31
460.228	264.71
460.686	248.41
461.144	253.11
461.602	251.91
462.06	261.31
462.518	256.71
462.976	262.51
463.434	267.31
463.892	269.81
464.35	276.71
464.808	291.41
465.266	265.61
465.724	275.01
466.181	276.61
466.639	288.41
467.097	300.71
467.555	309.81
468.012	307.41
468.47	321.31
468.928	334.01
469.385	344.91
469.843	355.71
470.3	352.01
470.758	370.11
471.215	386.01
471.673	404.61
472.13	416.31
472.588	424.11
473.045	381.21
473.503	385.61
473.96	394.51
474.417	421.21
474.875	439.21
475.332	483.81
475.789	472.81
476.246	471.81
476.704	487.31
477.161	518.21
477.618	530.21
478.075	567.51
478.532	610.41
478.989	684.91
479.446	794.41
479.903	756.81
480.36	792.61
480.817	852.81
481.274	939.91
481.731	1029.01
482.188	1111.11
482.645	1224.01
483.102	1321.11
483.558	1442.41
484.015	1472.41
484.472	1451.71
484.929	1402.41
485.385	1364.71
485.842	1340.51
486.299	1281.71
486.755	1240.41
487.212	1063.91
487.668	913.21
488.125	838.41
488.582	772.21
489.038	750.11
489.494	713.51
489.951	684.31
490.407	662.51
490.864	655.61
491.32	644.51
491.776	651.11
492.233	655.41
492.689	622.01
493.145	617.01
493.602	609.21
494.058	629.51
494.514	620.91
494.97	647.01
495.426	655.11
495.882	624.71
496.338	622.71
496.794	634.61
497.251	615.61
497.707	635.21
498.163	649.01
498.618	642.51
499.074	648.31
499.53	679.41
499.986	684.21
500.442	653.61
500.898	633.71
501.354	619.71
501.809	640.91
502.265	639.81
502.721	645.41
503.177	658.71
503.632	656.51
504.088	668.41
504.543	691.91
504.999	711.01
505.455	670.11
505.91	651.91
506.366	651.51
506.821	655.11
507.277	656.51
507.732	651.81
508.187	652.91
508.643	653.41
509.098	656.61
509.553	679.11
510.009	698.31
510.464	694.51
510.919	712.71
511.375	714.01
511.83	725.31
512.285	745.81
512.74	784.01
513.195	795.21
513.65	780.31
514.105	783.41
514.56	783.01
515.015	807.91
515.47	810.21
515.925	800.91
516.38	810.51
516.835	820.01
517.29	794.71
517.745	792.41
518.2	788.41
518.655	774.41
519.109	766.01
519.564	761.91
520.019	747.41
520.474	754.81
520.928	741.51
521.383	733.01
521.838	739.21
522.292	737.61
522.747	721.61
523.201	733.01
523.656	732.01
524.11	710.51
524.565	721.21
525.019	712.81
525.474	719.21
525.928	720.71
526.382	721.81
526.837	720.21
527.291	728.31
527.745	713.01
528.2	718.41
528.654	712.01
529.108	710.51
529.562	704.81
530.016	708.71
530.47	707.51
530.925	709.81
531.379	720.21
531.833	727.61
532.287	722.81
532.741	719.91
533.195	726.11
533.649	719.21
534.103	741.41
534.556	724.01
535.01	731.01
535.464	725.81
535.918	731.01
536.372	741.31
536.826	749.11
537.279	725.61
537.733	724.41
538.187	727.11
538.64	728.41
539.094	744.31
539.548	751.81
540.001	753.81
540.455	751.71
540.908	758.11
541.362	774.11
541.815	770.61
542.269	788.41
542.722	786.71
543.175	786.51
543.629	793.91
544.082	811.61
544.536	818.71
544.989	810.21
545.442	820.71
545.895	818.61
546.349	811.01
546.802	837.41
547.255	825.61
547.708	836.41
548.161	846.91
548.614	854.51
549.067	861.21
549.52	844.51
549.973	842.91
550.426	831.31
550.879	819.81
551.332	827.21
551.785	836.81
552.238	849.91
552.691	848.21
553.144	869.11
553.596	880.91
554.049	894.01
554.502	927.91
554.955	949.31
555.407	930.01
555.86	925.01
556.313	920.71
556.765	921.21
557.218	920.51
557.67	911.31
558.123	908.91
558.576	918.91
559.028	910.71
559.48	911.91
559.933	912.61
560.385	878.51
560.838	842.11
561.29	815.91
561.742	811.71
562.195	808.61
562.647	805.81
563.099	820.81
563.551	804.71
564.004	819.81
564.456	800.01
564.908	788.61
565.36	764.21
565.812	758.81
566.264	743.91
566.716	744.11
567.168	736.01
567.62	742.81
568.072	732.41
568.524	733.01
568.976	718.11
569.428	696.21
569.88	697.71
570.332	711.01
570.784	717.11
571.235	714.31
571.687	729.31
572.139	737.31
572.59	748.61
573.042	741.21
573.494	742.71
573.945	735.11
574.397	715.41
574.849	720.21
575.3	715.01
575.752	717.91
576.203	713.81
576.655	708.51
577.106	707.81
577.557	699.61
578.009	704.51
578.46	694.81
578.912	684.41
579.363	690.71
579.814	699.21
580.265	688.41
580.717	695.51
581.168	702.01
581.619	710.41
582.07	711.31
582.521	695.01
582.972	691.11
583.423	705.71
583.875	703.11
584.326	710.91
584.777	733.91
585.227	762.41
585.678	797.21
586.129	833.21
586.58	868.81
587.031	894.51
587.482	952.21
587.933	1012.41
588.384	959.51
588.834	848.51
589.285	821.01
589.736	820.81
590.186	809.41
590.637	792.81
591.088	774.61
591.538	771.31
591.989	765.41
592.439	758.61
592.89	755.51
593.34	732.61
593.791	733.71
594.241	726.91
594.692	736.21
595.142	730.41
595.593	728.61
596.043	739.91
596.493	739.81
596.943	750.61
597.394	741.21
597.844	756.41
598.294	773.01
598.744	796.81
599.195	823.31
599.645	866.01
600.095	901.71
600.545	964.01
600.995	1011.51
601.445	1084.31
601.895	1135.41
602.345	1181.61
602.795	1168.61
603.245	1119.41
603.695	1060.41
604.145	1011.41
604.594	954.11
605.044	895.61
605.494	846.71
605.944	793.01
606.393	774.01
606.843	767.81
607.293	760.31
607.743	764.61
608.192	779.41
608.642	790.91
609.091	790.31
609.541	793.31
609.99	791.81
610.44	799.51
610.889	746.81
611.339	737.11
611.788	705.41
612.238	731.91
612.687	728.91
613.136	733.41
613.586	745.31
614.035	734.81
614.484	746.51
614.933	748.81
615.383	744.81
615.832	737.81
616.281	729.71
616.73	706.11
617.179	684.41
617.628	668.91
618.077	664.41
618.526	656.01
618.975	644.21
619.424	643.61
619.873	631.71
620.322	648.81
620.771	633.91
621.22	642.91
621.669	627.51
622.118	617.31
622.567	608.31
623.015	593.21
623.464	599.31
623.913	578.11
624.361	578.81
624.81	578.91
625.259	583.31
625.707	590.21
626.156	577.61
626.604	592.21
627.053	593.01
627.501	593.11
627.95	604.11
628.398	610.61
628.847	601.71
629.295	595.51
629.744	599.51
630.192	594.71
630.64	593.11
631.089	586.81
631.537	573.81
631.985	560.51
632.433	564.81
632.881	569.01
633.33	581.41
633.778	577.21
634.226	563.11
634.674	578.51
635.122	579.21
635.57	583.31
636.018	596.01
636.466	598.91
636.914	590.81
637.362	592.31
637.81	604.11
638.258	610.91
638.705	610.51
639.153	643.61
639.601	652.51
640.049	676.11
640.497	704.31
640.944	731.51
641.392	674.51
641.84	644.91
642.287	613.01
642.735	587.81
643.182	594.51
643.63	594.91
644.078	590.31
644.525	605.21
644.973	610.51
645.42	623.21
645.867	640.01
646.315	655.21
646.762	694.81
647.21	715.21
647.657	734.71
648.104	774.01
648.551	786.01
648.999	863.71
649.446	931.41
649.893	1018.31
650.34	1167.81
650.787	1395.81
651.234	1727.91
651.682	2235.31
652.129	3030.51
652.576	4302.61
653.023	6280.11
653.47	8490.41
653.917	10440.41
654.363	11966.91
654.81	13102.01
655.257	12438.91
655.704	8228.01
656.151	4978.51
656.598	3274.61
657.044	2325.31
657.491	1805.41
657.938	1465.41
658.385	1225.71
658.831	1076.61
659.278	968.21
659.724	860.91
660.171	800.81
660.618	735.11
661.064	711.31
661.511	682.21
661.957	678.31
662.404	662.71
662.85	669.91
663.296	645.91
663.743	580.41
664.189	562.71
664.635	549.51
665.082	541.41
665.528	556.41
665.974	548.31
666.42	531.61
666.867	523.71
667.313	509.31
667.759	489.51
668.205	480.71
668.651	477.71
669.097	476.91
669.543	472.01
669.989	469.31
670.435	464.01
670.881	468.31
671.327	477.21
671.773	505.91
672.219	523.91
672.665	578.11
673.11	618.61
673.556	667.61
674.002	699.71
674.448	685.51
674.893	580.01
675.339	511.51
675.785	475.81
676.23	449.71
676.676	417.71
677.122	402.31
677.567	395.61
678.013	391.01
678.458	381.51
678.904	376.21
679.349	369.71
679.794	371.01
680.24	377.81
680.685	374.41
681.131	367.01
681.576	377.61
682.021	368.91
682.466	369.41
682.912	365.21
683.357	374.81
683.802	411.31
684.247	441.21
684.692	483.61
685.137	536.01
685.583	578.31
686.028	596.81
686.473	553.21
686.918	478.11
687.363	438.81
687.807	415.91
688.252	383.91
688.697	378.61
689.142	360.61
689.587	355.11
690.032	350.71
690.477	367.01
690.921	382.71
691.366	407.51
691.811	424.11
692.255	460.41
692.7	503.41
693.145	548.41
693.589	763.51
694.034	1243.51
694.478	1664.81
694.923	1836.41
695.367	2391.21
695.812	1270.91
696.256	538.21
696.701	392.91
697.145	364.61
697.59	360.61
698.034	347.41
698.478	347.51
698.922	345.51
699.367	348.01
699.811	359.31
700.255	373.01
700.699	405.11
701.143	453.41
701.588	513.01
702.032	550.81
702.476	550.91
702.92	529.61
703.364	535.91
703.808	702.81
704.252	1141.61
704.696	1594.61
705.14	1775.41
705.584	2248.91
706.027	1131.11
706.471	559.51
706.915	427.71
707.359	380.01
707.803	343.11
708.246	333.51
708.69	328.81
709.134	338.51
709.577	336.61
710.021	336.81
710.465	325.01
710.908	319.81
711.352	320.61
711.795	331.41
712.239	375.91
712.682	406.71
713.126	443.31
713.569	478.31
714.012	389.41
714.456	324.71
714.899	306.31
715.342	294.81
715.786	272.11
716.229	275.01
716.672	267.11
717.115	262.41
717.558	263.21
718.002	265.61
718.445	277.81
718.888	304.11
719.331	313.01
719.774	321.81
720.217	327.41
720.66	301.71
721.103	283.01
721.546	271.41
721.989	260.61
722.432	252.91
722.874	261.41
723.317	240.71
723.76	252.01
724.203	276.11
724.645	340.31
725.088	484.61
725.531	602.31
725.974	683.91
726.416	579.51
726.859	321.61
727.301	257.51
727.744	248.81
728.187	247.01
728.629	258.91
729.071	259.91
729.514	272.91
729.956	290.71
730.399	298.11
730.841	314.11
731.283	297.01
731.726	278.91
732.168	278.71
732.61	283.21
733.053	313.71
733.495	344.81
733.937	384.51
734.379	430.31
734.821	474.11
735.263	590.01
735.705	923.81
736.148	1777.51
736.59	2845.41
737.032	3244.71
737.474	2631.61
737.916	879.11
738.357	464.91
738.799	358.81
739.241	316.51
739.683	298.71
740.125	314.31
740.567	312.51
741.008	330.31
741.45	341.21
741.892	349.11
742.334	383.81
742.775	386.31
743.217	364.81
743.658	297.61
744.1	275.11
744.542	289.01
744.983	337.91
745.425	366.41
745.866	372.11
746.307	296.51
746.749	300.31
747.19	354.41
747.632	504.91
748.073	991.21
748.514	2076.51
748.956	3067.01
749.397	3882.51
749.838	3222.01
750.279	3132.41
750.72	1602.61
751.162	596.11
751.603	347.51
752.044	270.91
752.485	232.21
752.926	225.81
753.367	209.21
753.808	200.71
754.249	206.81
754.69	202.01
755.131	193.01
755.572	197.11
756.013	192.51
756.453	198.11
756.894	202.41
757.335	200.91
757.776	213.11
758.216	212.11
758.657	207.61
759.098	212.61
759.538	246.21
759.979	290.21
760.42	414.81
760.86	799.01
761.301	2091.01
761.741	4906.71
762.182	6795.51
762.622	4822.91
763.063	1415.01
763.503	580.71
763.943	357.71
764.384	301.81
764.824	301.81
765.264	294.71
765.705	244.01
766.145	195.71
766.585	185.31
767.025	191.21
767.465	183.31
767.906	204.81
768.346	234.61
768.786	246.11
769.226	245.91
769.666	348.01
770.106	704.41
770.546	1751.91
770.986	2811.01
771.426	2489.81
771.866	861.91
772.306	352.51
772.745	221.51
773.185	179.81
773.625	174.21
774.065	158.31
774.505	183.21
774.944	242.11
775.384	443.71
775.824	711.91
776.263	679.11
776.703	332.11
777.142	176.91
777.582	145.61
778.021	131.51
778.461	134.51
778.9	130.01
779.34	132.71
779.779	120.71
780.219	113.81
780.658	113.01
781.097	117.01
781.537	119.51
781.976	117.41
782.415	112.11
782.855	112.31
783.294	110.31
783.733	110.11
784.172	114.11
784.611	104.21
785.05	117.41
785.489	119.51
785.928	123.31
786.367	129.31
786.806	124.21
787.245	141.91
787.684	140.41
788.123	157.31
788.562	141.11
789.001	135.41
789.44	135.51
789.879	124.71
790.317	127.01
790.756	138.91
791.195	141.51
791.634	163.01
792.072	225.91
792.511	402.31
792.95	1131.81
793.388	2279.61
793.827	1988.21
794.265	721.21
794.704	303.81
795.142	198.01
795.581	157.31
796.019	149.71
796.458	136.41
796.896	129.71
797.334	141.21
797.773	170.01
798.211	246.21
798.649	495.81
799.087	1125.81
799.526	1734.31
799.964	2199.31
800.402	2122.91
800.84	805.31
801.278	335.61
801.716	202.31
802.154	161.21
802.592	155.81
803.03	146.21
803.468	144.41
803.906	152.41
804.344	158.11
804.782	152.11
805.22	139.81
805.658	141.11
806.096	155.81
806.533	168.61
806.971	195.31
807.409	243.21
807.847	355.51
808.284	758.41
808.722	2090.11
809.16	3544.11
809.597	3482.61
810.035	5889.41
810.472	6037.21
810.91	2245.71
811.347	864.81
811.785	435.11
812.222	280.31
812.66	216.71
813.097	174.21
813.535	155.51
813.972	136.21
814.409	122.91
814.846	112.71
815.284	115.01
815.721	113.71
816.158	108.71
816.595	118.61
817.032	165.61
817.47	195.21
817.907	139.81
818.344	113.91
818.781	102.91
819.218	103.11
819.655	134.01
820.092	201.51
820.529	220.21
820.966	185.41
821.403	131.01
821.839	107.11
822.276	109.61
822.713	129.41
823.15	146.61
823.587	118.11
824.023	160.41
824.46	344.41
824.897	992.21
825.333	1431.11
825.77	629.51
826.206	247.51
826.643	149.01
827.08	117.71
827.516	95.71
827.953	91.01
828.389	86.01
828.825	75.51
829.262	75.31
829.698	67.51
830.135	68.01
830.571	67.71
831.007	68.81
831.443	70.61
831.88	57.61
832.316	68.21
832.752	69.41
833.188	65.11
833.624	69.31
834.06	78.21
834.497	72.61
834.933	84.61
835.369	79.91
835.805	69.81
836.241	88.21
836.677	85.61
837.112	98.91
837.548	110.81
837.984	147.31
838.42	223.81
838.856	573.01
839.292	1664.71
839.727	2452.31
840.163	1164.11
840.599	1044.11
841.034	2213.91
841.47	2225.41
841.906	824.01
842.341	357.41
842.777	216.41
843.212	230.71
843.648	208.21
844.083	125.91
844.519	90.51
844.954	80.11
845.39	63.81
845.825	60.61
846.261	60.41
846.696	54.41
847.131	59.21
847.566	63.11
848.002	57.11
848.437	58.41
848.872	64.11
849.307	68.01
849.742	100.41
850.177	202.61
850.613	617.61
851.048	928.81
851.483	401.11
851.918	165.31
852.353	91.21
852.788	64.31
853.223	64.01
853.657	58.31
854.092	46.81
854.527	42.41
854.962	44.51
855.397	47.01
855.832	50.61
856.266	42.21
856.701	36.71
857.136	36.61
857.57	42.91
858.005	51.41
858.44	62.11
858.874	49.11
859.309	60.41
859.743	46.01
860.178	51.21
860.612	48.51
861.047	58.61
861.481	69.41
861.915	72.81
862.35	52.91
862.784	41.11
863.218	39.81
863.653	34.51
864.087	46.11
864.521	57.81
864.955	72.11
865.39	167.71
865.824	179.91
866.258	122.11
866.692	179.21
867.126	189.21
867.56	119.01
867.994	57.11
868.428	38.61
868.862	48.31
869.296	56.81
869.73	63.91
870.164	57.91
870.598	53.01
871.031	36.31
871.465	31.41
871.899	32.31
872.333	32.41
872.766	22.91
873.2	28.91
873.634	31.01
874.067	25.21
874.501	29.01
874.935	34.21
875.368	39.31
875.802	24.51
876.235	29.91
876.669	31.11
877.102	24.01
877.535	27.61
877.969	21.41
878.402	26.71
878.836	24.11
879.269	29.01
879.702	26.41
880.135	29.01
880.569	23.51
881.002	29.51
881.435	24.21
881.868	21.21
882.301	29.21
882.734	25.51
883.167	28.11
883.601	22.11
884.034	31.71
884.467	13.81
884.899	21.21
885.332	21.41
885.765	20.61
886.198	17.21
886.631	16.51
887.064	21.41
887.497	23.91
887.929	24.11
888.362	16.21
888.795	13.31
889.228	23.01
889.66	23.81
890.093	20.11
890.526	19.71
890.958	21.81
891.391	18.21
891.823	20.11
892.256	8.41
892.688	9.91
893.121	17.61
893.553	17.71
893.985	25.81
894.418	17.81
894.85	14.61
895.282	14.41
895.715	19.71
896.147	22.91
896.579	13.91
897.011	15.51
897.444	14.51
897.876	14.11
898.308	13.91
898.74	13.21
899.172	9.91
899.604	25.91
900.036	17.51
900.468	15.31
900.9	18.61
901.332	19.41
901.764	16.51
902.196	18.31
902.628	16.61
903.06	22.11
903.491	33.71
903.923	26.61
904.355	24.01
904.787	26.71
905.218	25.61
905.65	23.91
906.082	19.51
906.513	12.31
906.945	17.71
907.376	18.41
907.808	21.51
908.239	20.51
908.671	19.51
909.102	22.81
909.534	24.41
909.965	45.41
910.397	102.51
910.828	340.51
911.259	501.91
911.691	234.91
912.122	114.71
912.553	61.21
912.984	43.21
913.415	30.21
913.847	24.31
914.278	16.41
914.709	14.31
915.14	19.91
915.571	17.61
916.002	19.71
916.433	25.71
916.864	15.01
917.295	17.21
917.726	21.31
918.157	17.11
918.587	29.01
919.018	26.71
919.449	23.71
919.88	24.21
920.311	34.61
920.741	58.41
921.172	181.31
921.603	162.71
922.033	77.11
922.464	48.41
922.895	27.71
923.325	23.01
923.756	16.21
924.186	13.81
924.617	19.61
925.047	28.31
925.478	33.01
925.908	28.81
926.338	14.51
926.769	14.11
927.199	19.01
927.629	10.01
928.06	22.41
928.49	9.71
928.92	18.01
929.35	18.51
929.78	10.11
930.21	9.61
930.641	8.71
931.071	6.31
931.501	1.31
931.931	10.41
932.361	8.31
932.791	3.61
933.221	4.11
933.651	6.01
934.08	20.21
934.51	29.31
934.94	11.61
935.37	14.61
935.8	6.91
936.229	12.31
936.659	12.41
937.089	0.11
937.519	17.91
937.948	18.91
938.378	20.91
938.807	6.71
939.237	1.21
939.666	3.61
940.096	-1.49
940.525	-0.39
940.955	0.61
941.384	3.01
941.814	-5.29
942.243	-2.69
942.672	8.01
943.102	1.21
943.531	0.31
943.96	3.31
944.39	0.91
944.819	1.01
945.248	0.61
945.677	3.31
946.106	8.11
946.535	3.91
946.964	1.11
947.393	3.01
947.822	-1.09
948.251	-0.59
948.68	-2.59
949.109	2.01
949.538	6.71
949.967	3.11
950.396	-4.99
950.825	0.61
951.254	1.41
951.682	-9.99
952.111	-0.19
952.54	1.71
952.969	-1.49
953.397	-9.69
953.826	3.91
954.254	-3.29
954.683	0.91
955.112	1.51
955.54	-0.29
955.969	2.31
956.397	2.41
956.826	-1.59
957.254	5.01
957.682	3.81
958.111	3.91
958.539	0.51
958.967	4.71
959.396	2.41
959.824	-0.19
960.252	-0.49
960.68	-3.39
961.109	-3.79
961.537	-2.79
961.965	-4.19
962.393	4.51
962.821	-5.49
963.249	4.21
963.677	7.91
964.105	1.41
964.533	49.31
964.961	41.81
965.389	26.91
965.817	8.21
966.245	2.11
966.672	2.61
967.1	-6.99
967.528	2.81
967.956	-4.49
968.383	4.21
968.811	-3.79
969.239	-3.19
969.666	-6.59
970.094	2.71
970.522	1.21
970.949	-9.59
971.377	-0.19
971.804	-4.09
972.232	-7.99
972.659	-2.29
973.087	1.21
973.514	-5.39
973.941	-5.59
974.369	7.61
974.796	4.81
975.223	3.41
975.651	0.71
976.078	1.81
976.505	-1.59
976.932	3.71
977.359	17.91
977.786	10.61
978.214	-1.29
978.641	-1.29
979.068	0.81
979.495	-7.59
979.922	2.51
980.349	-2.19
980.776	0.41
981.202	-3.79
981.629	1.61
982.056	0.41
982.483	-4.99
982.91	-1.09
983.337	-8.49
983.763	2.61
984.19	-8.09
984.617	-2.09
985.043	-9.19
985.47	-5.09
985.897	-4.49
986.323	-5.09
986.75	1.21
987.176	-0.79
987.603	-0.59
988.029	-1.09
988.456	-1.09
988.882	3.11
989.308	-9.29
989.735	0.71
990.161	0.41
990.587	-0.69
991.014	3.61
991.44	7.91
991.866	-2.89
992.292	-6.29
992.719	-4.19
993.145	2.31
993.571	-9.89
993.997	-2.39
994.423	-1.39
994.849	-5.59
995.275	1.01
995.701	-1.09
996.127	-4.09
996.553	0.61
996.979	-1.69
997.405	-3.59
997.83	-6.19
998.256	-5.79
998.682	-5.99
999.108	-9.19
999.534	-1.09
999.959	-0.99
1000.385	-3.79
1000.811	-1.99
1001.236	-14.09
1001.662	-8.89
1002.087	-9.89
1002.513	-0.09
1002.938	5.11
1003.364	1.01
1003.789	3.11
1004.215	0.71
1004.64	-4.79
1005.066	-0.79
1005.491	-1.39
1005.916	-0.19
1006.342	-1.89
1006.767	-2.99
1007.192	4.71
1007.617	-0.49
1008.042	-3.79
1008.468	-10.09
1008.893	-2.69
1009.318	-2.29
1009.743	-0.99
1010.168	6.11
1010.593	-1.89
1011.018	-9.29
1011.443	-3.39
1011.868	1.61
1012.293	-4.59
1012.718	-6.99
1013.143	-1.99
1013.567	2.31
1013.992	0.61
1014.417	-9.29
1014.842	0.21
1015.267	-6.19
1015.691	-4.59
1016.116	2.01
1016.541	-1.79
1016.965	7.31
1017.39	-0.79
1017.814	-0.69
1018.239	-2.39
1018.663	-4.29
1019.088	-9.39
1019.512	-8.19
1019.937	-1.69
1020.361	-6.29
1020.785	-11.59
1021.21	0.81
1021.634	-0.59
1022.058	2.01
1022.483	4.01
1022.907	-0.49
1023.331	-10.89
1023.755	-8.89
1024.179	-6.79
1024.604	-2.39
1025.028	-0.69
1025.452	-5.29
1025.876	-1.69
1026.3	1.91
1026.724	-9.49
1027.148	-0.79
1027.572	-1.39
1027.996	-1.29
1028.42	-4.09
1028.843	-7.99
1029.267	-7.89
1029.691	-0.49
1030.115	-4.79
1030.539	-6.49
1030.962	-3.39
1031.386	-8.89
1031.81	-4.19
1032.233	-4.09
1032.657	-5.79
1033.08	-4.79
1033.504	-9.29
1033.927	-5.69
1034.351	-2.99
1034.774	-7.29
1035.198	-8.09
1035.621	-6.89
1036.045	-10.49
1036.468	-2.09
1036.891	-6.09
1037.315	-11.29
1037.738	-9.69
1038.161	1.61
1038.584	-8.99
1039.008	-6.19
1039.431	-7.99
1039.854	-5.49
1040.277	-7.99
1040.7	-8.39
1041.123	1.21
1041.546	-11.39
1041.969	-3.09
1042.392	-8.39
1042.815	-5.09
1043.238	-0.39
1043.661	3.21
1044.084	-8.19
1044.507	-1.89
1044.93	-3.79
1045.352	-4.19
1045.775	-2.59
1046.198	-5.99
1046.621	-5.59
1047.043	-0.59
1047.466	4.01
1047.889	-2.89
1048.311	-6.19
1048.734	-7.29
1049.156	-9.29
1049.579	-5.29
1050.001	-10.19
1050.424	-2.79
1050.846	-3.99
1051.269	-6.39
1051.691	-7.89
1052.113	-2.19
1052.536	-3.49
1052.958	-7.19
1053.38	-1.69
1053.802	-7.69
1054.225	-0.69
1054.647	-10.49
1055.069	-5.59
1055.491	4.11
1055.913	-8.79
1056.335	-0.79
1056.757	-1.09
1057.179	-3.39
1057.601	-8.99
1058.023	-2.19
1058.445	-1.09
1058.867	-5.99
1059.289	-3.59
1059.711	-8.49
1060.133	0.41
1060.555	-1.59
1060.976	-6.29
1061.398	-9.09
1061.82	-5.49
1062.241	-9.09
1062.663	-10.99
1063.085	-7.49
1063.506	-2.89
1063.928	-7.09
1064.35	-4.49
1064.771	-16.19
1065.193	-8.29
1065.614	-8.39
1066.035	-6.59
1066.457	-2.89
1066.878	0.11
1067.3	-2.09
1067.721	-6.09
1068.142	-8.39
1068.564	-5.89
1068.985	-8.19
1069.406	-4.29
1069.827	-9.19
1070.248	-1.09
1070.67	-10.99
1071.091	-7.99
1071.512	-3.19
1071.933	-10.59
1072.354	-6.59
1072.775	-7.99
1073.196	-16.69
1073.617	-5.79
1074.038	-5.59
1074.459	0.11
1074.88	-9.49
1075.3	-0.29
1075.721	-6.69
1076.142	1.51
1076.563	-4.49
1076.983	-9.79
1077.404	-11.69
1077.825	-11.29
1078.246	-4.89
1078.666	-12.69
1079.087	-2.79
1079.507	-9.59
1079.928	-6.39
1080.348	-1.09
1080.769	-6.89
1081.189	0.31
1081.61	-1.19
1082.03	-5.89
1082.451	-6.29
1082.871	-5.49
1083.291	-4.99
1083.711	-6.09
1084.132	-6.19
1084.552	-2.89
1084.972	-4.09
1085.392	-16.19
1085.813	-7.29
1086.233	-4.19
1086.653	-7.29
1087.073	-9.99
1087.493	-11.99
1087.913	-5.29
1088.333	-10.09
1088.753	-7.19
1089.173	-0.99
1089.593	-11.09
1090.013	0.21
1090.433	-2.89
1090.852	2.01
1091.272	4.91
1091.692	-6.79
1092.112	-3.39
1092.531	-10.89
1092.951	-13.49
1093.371	-3.89
1093.79	0.31
1094.21	-7.49
1094.63	-6.39
1095.049	-3.69
1095.469	-3.99
1095.888	-1.89
1096.308	1.51
1096.727	3.11
1097.146	-8.99
1097.566	-0.59
1097.985	-6.49
1098.405	-7.79
1098.824	-6.19
1099.243	-6.59
1099.662	-5.59
1100.082	-4.49
1100.501	-1.29
1100.92	-5.89
1101.339	-4.69
1101.758	-9.09
