Data from 20171114-ORNL-Ar_H_NY_Subt18_08-05-05-666.txt Node
Date: Tue Nov 14 08:05:05 EST 2017
User: Ender
Spectrometer: HR+D1039
Trigger mode: 0
Integration Time (sec): 2.730000E-2
Scans to average: 10
Electric dark correction enabled: true
Nonlinearity correction enabled: false
Boxcar width: 0
XAxis mode: Wavelengths
Number of Pixels in Spectrum: 2048
>>>>>Begin Spectral Data<<<<<
187.836	-1.92
188.309	-1.92
188.782	-1.92
189.255	-0.92
189.728	-3.42
190.201	6.48
190.674	1.98
191.147	5.68
191.619	-6.92
192.092	0.08
192.565	5.68
193.038	1.48
193.511	0.28
193.984	-3.02
194.456	-2.62
194.929	0.18
195.402	-0.42
195.874	-2.62
196.347	-1.32
196.82	-3.52
197.292	3.68
197.765	-0.82
198.237	-2.62
198.71	-1.22
199.182	-0.82
199.655	1.28
200.127	3.48
200.6	0.38
201.072	-3.72
201.544	-4.52
202.017	-6.62
202.489	4.98
202.961	-2.72
203.433	-3.22
203.906	-8.32
204.378	-6.12
204.85	-1.82
205.322	-11.92
205.794	-0.82
206.266	4.88
206.739	-8.62
207.211	1.38
207.683	-13.22
208.155	-4.42
208.627	-6.82
209.099	-0.72
209.57	-6.62
210.042	1.58
210.514	-5.52
210.986	2.88
211.458	-8.22
211.93	-1.12
212.402	3.38
212.873	-2.72
213.345	-9.02
213.817	-9.32
214.288	-4.92
214.76	-9.42
215.232	-3.32
215.703	1.48
216.175	-3.72
216.646	-3.72
217.118	-3.52
217.589	1.18
218.061	-5.42
218.532	-2.72
219.004	-2.72
219.475	-1.72
219.946	4.48
220.418	-4.82
220.889	9.48
221.36	-2.82
221.832	0.38
222.303	-10.72
222.774	-2.82
223.245	-10.42
223.717	-3.42
224.188	0.18
224.659	-3.72
225.13	-3.72
225.601	0.48
226.072	-2.62
226.543	-2.82
227.014	-0.32
227.485	3.78
227.956	-2.42
228.427	-1.62
228.898	0.88
229.369	-2.52
229.839	-5.22
230.31	-7.52
230.781	-3.52
231.252	1.38
231.722	-0.92
232.193	-5.92
232.664	-4.42
233.135	0.68
233.605	1.18
234.076	-2.52
234.546	1.08
235.017	7.88
235.487	5.38
235.958	-7.82
236.428	-1.02
236.899	3.08
237.369	-1.32
237.84	-0.62
238.31	4.68
238.78	7.28
239.251	-5.82
239.721	2.88
240.191	0.88
240.662	1.78
241.132	2.48
241.602	3.78
242.072	3.68
242.542	6.78
243.013	-3.02
243.483	6.48
243.953	4.38
244.423	4.38
244.893	-0.22
245.363	0.88
245.833	4.48
246.303	-1.52
246.773	16.68
247.243	4.58
247.712	4.88
248.182	16.18
248.652	8.48
249.122	-4.72
249.592	11.88
250.061	25.38
250.531	37.28
251.001	17.78
251.471	25.48
251.94	29.48
252.41	9.58
252.879	-2.32
253.349	19.68
253.818	2.28
254.288	8.38
254.757	8.88
255.227	4.68
255.696	5.48
256.166	2.68
256.635	11.88
257.105	17.78
257.574	12.18
258.043	7.68
258.513	16.18
258.982	13.78
259.451	10.98
259.92	18.48
260.389	20.28
260.859	16.68
261.328	12.58
261.797	21.68
262.266	10.58
262.735	8.48
263.204	0.88
263.673	1.48
264.142	6.48
264.611	0.88
265.08	2.98
265.549	1.78
266.018	4.78
266.487	0.98
266.955	2.38
267.424	5.88
267.893	4.08
268.362	-0.02
268.83	11.58
269.299	14.38
269.768	10.58
270.236	13.08
270.705	3.18
271.174	9.58
271.642	13.28
272.111	13.08
272.579	18.38
273.048	24.68
273.516	30.38
273.985	30.68
274.453	25.18
274.922	19.88
275.39	12.58
275.858	8.68
276.327	21.98
276.795	25.28
277.263	17.38
277.731	32.28
278.2	60.48
278.668	61.78
279.136	44.48
279.604	20.58
280.072	12.28
280.54	11.48
281.008	8.48
281.477	14.88
281.945	13.78
282.413	16.88
282.881	18.08
283.348	12.18
283.816	14.38
284.284	17.58
284.752	22.28
285.22	15.18
285.688	21.58
286.156	23.18
286.623	44.08
287.091	57.78
287.559	32.08
288.026	17.68
288.494	18.88
288.962	1.28
289.429	8.88
289.897	18.78
290.364	16.48
290.832	20.18
291.3	16.58
291.767	20.88
292.234	21.28
292.702	13.68
293.169	19.88
293.637	23.38
294.104	20.68
294.571	6.98
295.039	14.78
295.506	21.88
295.973	24.28
296.44	24.98
296.908	23.08
297.375	21.78
297.842	23.78
298.309	18.18
298.776	21.78
299.243	27.88
299.71	17.98
300.177	23.18
300.644	24.38
301.111	22.78
301.578	30.88
302.045	14.88
302.512	28.28
302.979	24.98
303.446	21.08
303.913	23.28
304.379	22.98
304.846	30.28
305.313	24.88
305.78	28.98
306.246	30.68
306.713	33.88
307.18	30.88
307.646	33.18
308.113	27.88
308.579	24.08
309.046	35.28
309.512	28.98
309.979	24.58
310.445	31.38
310.912	32.28
311.378	34.68
311.845	38.38
312.311	35.68
312.777	33.18
313.244	31.88
313.71	37.18
314.176	26.98
314.642	29.68
315.109	33.18
315.575	37.08
316.041	42.88
316.507	36.08
316.973	42.48
317.439	33.28
317.905	34.88
318.371	40.68
318.837	37.08
319.303	38.18
319.769	36.68
320.235	38.58
320.701	40.08
321.167	37.78
321.633	40.58
322.099	40.88
322.564	52.78
323.03	40.38
323.496	42.78
323.962	41.68
324.427	47.08
324.893	50.18
325.359	39.18
325.824	39.88
326.29	39.08
326.755	47.48
327.221	40.68
327.686	41.58
328.152	47.88
328.617	47.68
329.083	47.88
329.548	59.58
330.014	48.58
330.479	39.98
330.944	45.98
331.41	42.08
331.875	45.38
332.34	45.08
332.805	49.98
333.271	53.88
333.736	50.48
334.201	59.48
334.666	54.18
335.131	60.08
335.596	53.58
336.061	52.88
336.526	43.88
336.991	52.18
337.456	61.58
337.921	51.48
338.386	41.58
338.851	45.78
339.316	49.48
339.781	49.68
340.246	56.08
340.711	45.38
341.175	60.88
341.64	49.08
342.105	53.18
342.569	54.58
343.034	69.58
343.499	62.68
343.963	58.98
344.428	66.78
344.893	62.48
345.357	63.38
345.822	58.58
346.286	74.68
346.751	77.88
347.215	72.68
347.679	76.28
348.144	102.68
348.608	85.68
349.073	67.98
349.537	78.98
350.001	87.08
350.465	92.38
350.93	82.18
351.394	82.18
351.858	80.38
352.322	93.78
352.786	84.68
353.25	99.88
353.715	117.88
354.179	101.68
354.643	124.48
355.107	126.28
355.571	109.28
356.035	108.88
356.498	119.48
356.962	120.88
357.426	132.98
357.89	120.48
358.354	87.68
358.818	85.68
359.281	81.38
359.745	80.78
360.209	82.58
360.673	74.58
361.136	81.58
361.6	86.58
362.064	89.28
362.527	83.98
362.991	96.58
363.454	78.78
363.918	77.68
364.381	84.28
364.845	86.08
365.308	91.18
365.772	87.48
366.235	93.18
366.698	86.38
367.162	85.78
367.625	86.08
368.088	90.08
368.552	90.18
369.015	87.18
369.478	101.98
369.941	105.98
370.404	99.68
370.867	103.68
371.331	108.28
371.794	119.38
372.257	110.48
372.72	117.28
373.183	111.68
373.646	101.48
374.109	104.78
374.572	112.98
375.035	111.48
375.497	111.48
375.96	107.78
376.423	110.98
376.886	113.48
377.349	116.78
377.811	100.38
378.274	107.48
378.737	109.78
379.199	112.78
379.662	118.08
380.125	117.58
380.587	118.18
381.05	130.98
381.512	124.08
381.975	128.98
382.437	130.78
382.9	130.68
383.362	131.48
383.825	147.28
384.287	148.08
384.75	141.78
385.212	140.98
385.674	137.78
386.136	134.88
386.599	124.08
387.061	125.38
387.523	131.48
387.985	141.18
388.447	140.38
388.91	140.58
389.372	151.48
389.834	151.28
390.296	145.28
390.758	152.58
391.22	173.28
391.682	209.08
392.144	295.68
392.606	220.98
393.068	164.78
393.529	163.78
393.991	159.38
394.453	146.78
394.915	155.48
395.377	188.98
395.838	205.18
396.3	154.58
396.762	141.08
397.224	134.88
397.685	126.68
398.147	134.78
398.608	129.58
399.07	127.88
399.531	132.78
399.993	146.28
400.454	156.78
400.916	145.38
401.377	146.48
401.839	150.58
402.3	145.48
402.762	163.68
403.223	181.68
403.684	170.88
404.145	155.38
404.607	157.68
405.068	166.08
405.529	168.58
405.99	184.78
406.451	172.58
406.913	171.38
407.374	162.58
407.835	163.98
408.296	169.08
408.757	166.48
409.218	188.98
409.679	181.98
410.14	173.08
410.601	178.48
411.062	178.58
411.522	187.78
411.983	186.88
412.444	176.48
412.905	180.38
413.366	177.98
413.826	197.88
414.287	213.58
414.748	261.98
415.208	245.78
415.669	205.98
416.13	197.08
416.59	196.88
417.051	218.18
417.511	218.48
417.972	234.68
418.432	243.28
418.893	283.78
419.353	250.58
419.814	200.48
420.274	186.28
420.734	174.58
421.195	199.08
421.655	196.08
422.115	189.48
422.576	187.48
423.036	200.58
423.496	199.08
423.956	216.68
424.416	228.98
424.876	261.18
425.336	252.28
425.797	263.48
426.257	256.28
426.717	234.88
427.177	234.28
427.637	223.58
428.097	237.28
428.556	242.08
429.016	265.58
429.476	262.58
429.936	272.98
430.396	283.88
430.856	280.48
431.315	315.68
431.775	341.78
432.235	377.48
432.694	349.08
433.154	359.48
433.614	395.38
434.073	342.58
434.533	282.08
434.993	267.78
435.452	283.18
435.912	292.98
436.371	284.98
436.83	278.38
437.29	271.98
437.749	250.48
438.209	248.28
438.668	268.58
439.127	277.88
439.587	269.28
440.046	250.58
440.505	258.68
440.964	272.88
441.424	321.98
441.883	302.38
442.342	262.48
442.801	224.58
443.26	215.98
443.719	219.58
444.178	211.48
444.637	211.88
445.096	212.68
445.555	213.98
446.014	224.48
446.473	219.98
446.932	222.88
447.391	224.18
447.849	221.88
448.308	216.18
448.767	218.88
449.226	236.28
449.685	235.28
450.143	246.38
450.602	232.78
451.061	220.98
451.519	223.98
451.978	234.18
452.436	234.28
452.895	234.98
453.353	243.48
453.812	240.88
454.27	238.68
454.729	236.78
455.187	239.58
455.646	241.38
456.104	244.38
456.562	260.18
457.021	261.48
457.479	258.08
457.937	267.68
458.395	263.18
458.854	243.08
459.312	251.88
459.77	273.08
460.228	249.28
460.686	236.38
461.144	242.48
461.602	250.18
462.06	243.88
462.518	246.08
462.976	255.08
463.434	258.98
463.892	263.18
464.35	275.98
464.808	285.18
465.266	269.88
465.724	269.48
466.181	266.98
466.639	274.08
467.097	287.18
467.555	300.08
468.012	304.98
468.47	309.08
468.928	320.28
469.385	336.08
469.843	343.88
470.3	352.38
470.758	362.68
471.215	389.98
471.673	409.68
472.13	405.58
472.588	404.88
473.045	369.38
473.503	376.28
473.96	392.98
474.417	398.58
474.875	431.28
475.332	471.38
475.789	458.28
476.246	456.48
476.704	485.08
477.161	500.08
477.618	528.08
478.075	565.78
478.532	611.68
478.989	682.18
479.446	793.18
479.903	765.78
480.36	800.08
480.817	858.28
481.274	956.88
481.731	1072.68
482.188	1160.68
482.645	1296.68
483.102	1405.38
483.558	1534.88
484.015	1599.98
484.472	1558.18
484.929	1511.98
485.385	1461.58
485.842	1435.58
486.299	1359.38
486.755	1288.38
487.212	1081.98
487.668	922.28
488.125	843.68
488.582	773.98
489.038	747.08
489.494	704.98
489.951	683.58
490.407	665.98
490.864	647.88
491.32	638.88
491.776	638.98
492.233	650.68
492.689	611.08
493.145	601.78
493.602	580.78
494.058	614.68
494.514	601.38
494.97	629.68
495.426	635.18
495.882	618.88
496.338	607.98
496.794	622.48
497.251	614.98
497.707	633.68
498.163	637.98
498.618	646.48
499.074	650.28
499.53	671.68
499.986	670.28
500.442	645.48
500.898	624.18
501.354	622.18
501.809	625.88
502.265	648.88
502.721	660.78
503.177	660.78
503.632	645.28
504.088	672.08
504.543	708.08
504.999	700.48
505.455	653.48
505.91	633.08
506.366	630.18
506.821	621.28
507.277	621.38
507.732	614.88
508.187	616.58
508.643	623.88
509.098	632.98
509.553	647.28
510.009	662.48
510.464	662.08
510.919	677.08
511.375	686.68
511.83	700.28
512.285	718.88
512.74	755.18
513.195	785.48
513.65	765.58
514.105	770.68
514.56	760.18
515.015	790.48
515.47	802.88
515.925	788.68
516.38	783.18
516.835	788.58
517.29	787.68
517.745	760.98
518.2	758.08
518.655	736.38
519.109	732.88
519.564	742.18
520.019	711.98
520.474	723.18
520.928	717.28
521.383	710.18
521.838	703.88
522.292	704.48
522.747	690.98
523.201	695.38
523.656	691.18
524.11	677.78
524.565	681.38
525.019	678.38
525.474	691.08
525.928	693.88
526.382	684.58
526.837	689.28
527.291	691.68
527.745	687.78
528.2	683.28
528.654	678.88
529.108	675.58
529.562	685.18
530.016	677.48
530.47	679.88
530.925	693.58
531.379	678.58
531.833	696.08
532.287	691.28
532.741	691.68
533.195	692.38
533.649	716.38
534.103	705.48
534.556	693.68
535.01	706.28
535.464	705.38
535.918	711.38
536.372	706.58
536.826	705.88
537.279	690.88
537.733	707.38
538.187	707.38
538.64	704.88
539.094	717.58
539.548	712.18
540.001	704.38
540.455	711.08
540.908	713.98
541.362	721.88
541.815	733.98
542.269	734.58
542.722	746.98
543.175	761.38
543.629	753.88
544.082	769.48
544.536	777.18
544.989	767.78
545.442	778.88
545.895	760.28
546.349	760.48
546.802	771.58
547.255	781.98
547.708	779.98
548.161	788.58
548.614	808.68
549.067	814.68
549.52	811.18
549.973	785.18
550.426	787.18
550.879	780.28
551.332	782.08
551.785	780.58
552.238	782.88
552.691	795.18
553.144	812.38
553.596	825.98
554.049	844.48
554.502	870.58
554.955	893.18
555.407	894.58
555.86	889.08
556.313	876.18
556.765	861.68
557.218	859.58
557.67	865.38
558.123	863.88
558.576	841.98
559.028	859.58
559.48	855.48
559.933	848.18
560.385	813.28
560.838	786.48
561.29	763.08
561.742	752.28
562.195	740.48
562.647	731.78
563.099	744.88
563.551	754.38
564.004	767.48
564.456	746.98
564.908	740.18
565.36	730.68
565.812	712.98
566.264	705.38
566.716	706.68
567.168	689.98
567.62	697.68
568.072	687.28
568.524	671.28
568.976	658.48
569.428	655.18
569.88	657.78
570.332	657.08
570.784	667.18
571.235	668.78
571.687	669.68
572.139	681.68
572.59	701.58
573.042	686.38
573.494	688.68
573.945	687.18
574.397	666.18
574.849	668.98
575.3	674.58
575.752	660.38
576.203	664.58
576.655	660.38
577.106	638.78
577.557	637.58
578.009	643.58
578.46	642.38
578.912	639.18
579.363	644.38
579.814	649.08
580.265	637.48
580.717	646.38
581.168	647.28
581.619	655.68
582.07	655.58
582.521	649.68
582.972	644.98
583.423	660.38
583.875	659.98
584.326	674.38
584.777	712.98
585.227	784.28
585.678	878.88
586.129	959.18
586.58	1029.38
587.031	1105.58
587.482	1254.58
587.933	1432.18
588.384	1247.48
588.834	926.58
589.285	768.08
589.736	750.88
590.186	749.08
590.637	728.88
591.088	717.58
591.538	700.48
591.989	703.28
592.439	700.38
592.89	689.58
593.34	685.38
593.791	675.08
594.241	674.48
594.692	681.38
595.142	666.88
595.593	670.78
596.043	672.28
596.493	686.38
596.943	689.48
597.394	694.18
597.844	681.68
598.294	700.58
598.744	724.48
599.195	736.98
599.645	771.58
600.095	812.28
600.545	873.48
600.995	924.28
601.445	981.88
601.895	1044.88
602.345	1079.18
602.795	1056.98
603.245	1016.48
603.695	957.98
604.145	916.38
604.594	870.88
605.044	811.78
605.494	754.38
605.944	716.08
606.393	711.98
606.843	696.18
607.293	694.28
607.743	696.08
608.192	702.98
608.642	720.98
609.091	730.38
609.541	734.28
609.99	725.78
610.44	725.38
610.889	685.58
611.339	669.28
611.788	647.78
612.238	666.68
612.687	685.58
613.136	685.88
613.586	698.38
614.035	698.88
614.484	718.28
614.933	716.88
615.383	706.88
615.832	707.88
616.281	690.58
616.73	648.68
617.179	629.18
617.628	619.98
618.077	593.48
618.526	588.68
618.975	580.78
619.424	585.98
619.873	583.88
620.322	583.88
620.771	571.78
621.22	571.08
621.669	569.28
622.118	551.18
622.567	549.58
623.015	536.78
623.464	537.48
623.913	531.28
624.361	520.78
624.81	528.48
625.259	528.78
625.707	521.78
626.156	528.68
626.604	540.58
627.053	518.08
627.501	525.88
627.95	543.88
628.398	546.48
628.847	534.28
629.295	534.68
629.744	540.18
630.192	530.68
630.64	526.28
631.089	539.58
631.537	550.88
631.985	545.38
632.433	557.28
632.881	569.88
633.33	619.58
633.778	597.18
634.226	526.08
634.674	539.78
635.122	541.48
635.57	561.78
636.018	578.38
636.466	543.28
636.914	523.88
637.362	533.08
637.81	535.68
638.258	545.88
638.705	538.18
639.153	563.18
639.601	570.38
640.049	602.98
640.497	628.68
640.944	648.28
641.392	595.88
641.84	575.78
642.287	547.18
642.735	549.98
643.182	539.78
643.63	532.48
644.078	532.58
644.525	553.08
644.973	557.28
645.42	568.78
645.867	586.48
646.315	605.28
646.762	615.68
647.21	635.18
647.657	673.68
648.104	701.88
648.551	718.98
648.999	778.58
649.446	848.08
649.893	940.18
650.34	1064.78
650.787	1282.68
651.234	1587.58
651.682	2069.08
652.129	2839.28
652.576	4096.38
653.023	6005.28
653.47	8291.48
653.917	10448.58
654.363	12166.68
654.81	13591.18
655.257	12906.88
655.704	8386.78
656.151	4953.98
656.598	3216.38
657.044	2273.48
657.491	1741.88
657.938	1410.08
658.385	1158.48
658.831	1014.68
659.278	893.28
659.724	796.78
660.171	745.38
660.618	682.88
661.064	633.08
661.511	625.38
661.957	616.48
662.404	593.48
662.85	603.78
663.296	582.98
663.743	523.28
664.189	494.98
664.635	498.38
665.082	486.88
665.528	491.38
665.974	480.98
666.42	477.88
666.867	466.18
667.313	445.58
667.759	450.68
668.205	438.68
668.651	445.38
669.097	448.58
669.543	464.08
669.989	436.28
670.435	419.38
670.881	407.68
671.327	402.28
671.773	432.98
672.219	448.88
672.665	502.68
673.11	539.58
673.556	581.28
674.002	619.58
674.448	611.88
674.893	518.88
675.339	438.98
675.785	406.98
676.23	390.58
676.676	362.38
677.122	351.18
677.567	341.88
678.013	348.28
678.458	328.88
678.904	341.18
679.349	319.28
679.794	326.88
680.24	324.38
680.685	332.68
681.131	311.88
681.576	326.88
682.021	323.28
682.466	322.98
682.912	323.28
683.357	322.48
683.802	352.38
684.247	376.28
684.692	408.08
685.137	452.68
685.583	497.58
686.028	517.48
686.473	471.18
686.918	406.88
687.363	386.08
687.807	361.88
688.252	330.08
688.697	335.68
689.142	312.78
689.587	307.38
690.032	298.58
690.477	311.58
690.921	312.78
691.366	352.08
691.811	365.68
692.255	399.78
692.7	421.78
693.145	457.28
693.589	625.08
694.034	1001.08
694.478	1391.88
694.923	1606.48
695.367	2102.78
695.812	1096.98
696.256	457.78
696.701	343.28
697.145	318.28
697.59	298.08
698.034	295.28
698.478	298.98
698.922	298.08
699.367	299.38
699.811	316.48
700.255	323.48
700.699	358.48
701.143	383.58
701.588	434.58
702.032	470.38
702.476	468.38
702.92	452.08
703.364	437.18
703.808	564.38
704.252	923.48
704.696	1307.18
705.14	1543.08
705.584	1984.78
706.027	979.58
706.471	475.78
706.915	357.48
707.359	325.48
707.803	288.38
708.246	280.98
708.69	288.08
709.134	289.78
709.577	287.18
710.021	290.18
710.465	284.38
710.908	270.28
711.352	270.28
711.795	288.18
712.239	319.28
712.682	348.88
713.126	382.68
713.569	433.08
714.012	337.88
714.456	296.68
714.899	277.38
715.342	257.28
715.786	240.88
716.229	236.18
716.672	233.48
717.115	228.68
717.558	236.18
718.002	225.68
718.445	238.38
718.888	264.48
719.331	257.98
719.774	283.98
720.217	278.28
720.66	259.88
721.103	242.78
721.546	232.98
721.989	219.48
722.432	211.78
722.874	225.38
723.317	214.78
723.76	218.68
724.203	243.48
724.645	284.98
725.088	399.78
725.531	510.78
725.974	586.88
726.416	512.28
726.859	283.18
727.301	217.58
727.744	218.98
728.187	213.68
728.629	221.58
729.071	219.88
729.514	234.78
729.956	249.98
730.399	269.58
730.841	264.58
731.283	249.98
731.726	247.48
732.168	233.68
732.61	244.78
733.053	264.18
733.495	289.78
733.937	321.28
734.379	371.28
734.821	388.28
735.263	480.78
735.705	733.08
736.148	1392.08
736.59	2329.88
737.032	2831.18
737.474	2308.48
737.916	745.38
738.357	393.08
738.799	300.58
739.241	275.38
739.683	258.28
740.125	264.18
740.567	273.68
741.008	286.28
741.45	283.08
741.892	287.38
742.334	321.58
742.775	332.88
743.217	317.38
743.658	253.68
744.1	235.18
744.542	240.18
744.983	282.28
745.425	309.78
745.866	313.98
746.307	264.48
746.749	253.58
747.19	297.58
747.632	409.28
748.073	767.08
748.514	1654.08
748.956	2579.48
749.397	3226.18
749.838	2680.28
750.279	2756.88
750.72	1377.08
751.162	500.68
751.603	292.78
752.044	231.38
752.485	197.08
752.926	191.08
753.367	188.08
753.808	180.38
754.249	174.28
754.69	164.58
755.131	168.98
755.572	161.78
756.013	163.28
756.453	168.38
756.894	171.48
757.335	175.68
757.776	179.08
758.216	180.18
758.657	181.08
759.098	186.88
759.538	202.18
759.979	236.28
760.42	329.08
760.86	625.18
761.301	1592.88
761.741	3928.18
762.182	5969.78
762.622	4189.88
763.063	1198.28
763.503	490.08
763.943	320.68
764.384	309.38
764.824	361.28
765.264	407.58
765.705	285.18
766.145	186.58
766.585	168.78
767.025	165.38
767.465	161.88
767.906	215.48
768.346	288.88
768.786	322.18
769.226	242.28
769.666	275.88
770.106	531.18
770.546	1360.68
770.986	2423.48
771.426	2208.38
771.866	723.78
772.306	297.38
772.745	186.18
773.185	155.98
773.625	150.48
774.065	156.28
774.505	177.98
774.944	272.78
775.384	595.68
775.824	1108.58
776.263	1113.98
776.703	464.18
777.142	202.88
777.582	139.58
778.021	123.18
778.461	126.58
778.9	131.58
779.34	115.08
779.779	103.98
780.219	97.38
780.658	104.68
781.097	105.58
781.537	110.28
781.976	98.48
782.415	95.88
782.855	96.28
783.294	90.68
783.733	97.48
784.172	103.28
784.611	92.88
785.05	97.38
785.489	99.58
785.928	105.68
786.367	107.68
786.806	110.38
787.245	116.78
787.684	125.38
788.123	138.88
788.562	127.08
789.001	122.58
789.44	112.78
789.879	112.18
790.317	105.68
790.756	113.48
791.195	120.88
791.634	127.58
792.072	177.78
792.511	319.78
792.95	873.78
793.388	1943.18
793.827	1797.38
794.265	613.28
794.704	256.08
795.142	164.78
795.581	131.58
796.019	125.68
796.458	121.88
796.896	111.78
797.334	119.98
797.773	141.58
798.211	191.68
798.649	383.58
799.087	910.98
799.526	1445.48
799.964	1814.18
800.402	1875.28
800.84	691.18
801.278	271.38
801.716	163.48
802.154	141.88
802.592	130.58
803.03	121.98
803.468	124.78
803.906	132.48
804.344	137.68
804.782	129.38
805.22	124.88
805.658	114.88
806.096	128.58
806.533	142.28
806.971	159.78
807.409	197.58
807.847	277.18
808.284	588.18
808.722	1652.38
809.16	2997.98
809.597	2789.18
810.035	4887.78
810.472	5417.78
810.91	1919.98
811.347	729.18
811.785	366.48
812.222	235.48
812.66	174.58
813.097	150.58
813.535	123.88
813.972	115.78
814.409	104.58
814.846	94.28
815.284	102.28
815.721	94.58
816.158	100.18
816.595	111.38
817.032	159.98
817.47	183.38
817.907	146.48
818.344	132.88
818.781	102.78
819.218	100.58
819.655	114.78
820.092	173.98
820.529	197.08
820.966	156.78
821.403	125.28
821.839	102.08
822.276	96.18
822.713	110.98
823.15	124.48
823.587	104.48
824.023	133.58
824.46	253.98
824.897	793.28
825.333	1260.98
825.77	538.28
826.206	212.98
826.643	124.38
827.08	94.48
827.516	69.08
827.953	72.88
828.389	76.08
828.825	64.48
829.262	67.08
829.698	63.58
830.135	58.58
830.571	60.38
831.007	60.48
831.443	58.78
831.88	58.18
832.316	52.48
832.752	57.08
833.188	53.28
833.624	63.88
834.06	61.48
834.497	67.38
834.933	63.18
835.369	63.08
835.805	57.68
836.241	65.68
836.677	72.68
837.112	77.58
837.548	89.58
837.984	118.98
838.42	178.38
838.856	434.78
839.292	1350.28
839.727	2122.28
840.163	977.58
840.599	806.18
841.034	1820.88
841.47	1980.58
841.906	715.88
842.341	300.88
842.777	203.68
843.212	286.58
843.648	285.38
844.083	138.28
844.519	88.08
844.954	66.68
845.39	49.68
845.825	49.28
846.261	57.08
846.696	54.68
847.131	52.18
847.566	55.88
848.002	47.28
848.437	46.28
848.872	57.28
849.307	55.78
849.742	70.28
850.177	156.68
850.613	482.88
851.048	815.58
851.483	358.18
851.918	132.98
852.353	76.48
852.788	58.08
853.223	53.48
853.657	46.28
854.092	51.38
854.527	42.38
854.962	37.78
855.397	41.58
855.832	42.18
856.266	38.78
856.701	35.18
857.136	40.28
857.57	29.88
858.005	44.88
858.44	53.38
858.874	42.38
859.309	50.18
859.743	39.98
860.178	38.58
860.612	24.28
861.047	53.28
861.481	59.78
861.915	61.58
862.35	45.88
862.784	29.28
863.218	31.78
863.653	32.48
864.087	44.28
864.521	52.28
864.955	58.58
865.39	142.98
865.824	161.08
866.258	99.68
866.692	153.28
867.126	162.88
867.56	101.38
867.994	48.28
868.428	29.08
868.862	42.98
869.296	47.88
869.73	52.68
870.164	52.88
870.598	42.28
871.031	26.88
871.465	26.18
871.899	31.88
872.333	21.48
872.766	23.58
873.2	21.48
873.634	29.38
874.067	24.18
874.501	23.98
874.935	26.18
875.368	25.68
875.802	29.98
876.235	18.98
876.669	23.38
877.102	21.78
877.535	22.78
877.969	20.48
878.402	27.18
878.836	23.58
879.269	19.48
879.702	22.68
880.135	17.28
880.569	20.58
881.002	25.78
881.435	22.98
881.868	12.88
882.301	25.68
882.734	10.48
883.167	22.08
883.601	18.58
884.034	24.28
884.467	12.58
884.899	19.78
885.332	17.28
885.765	7.78
886.198	17.38
886.631	26.08
887.064	16.28
887.497	14.88
887.929	22.88
888.362	11.68
888.795	9.28
889.228	18.08
889.66	21.08
890.093	15.88
890.526	16.48
890.958	17.28
891.391	16.88
891.823	21.78
892.256	13.68
892.688	11.18
893.121	13.78
893.553	14.58
893.985	26.58
894.418	14.48
894.85	10.88
895.282	17.28
895.715	13.58
896.147	20.88
896.579	13.88
897.011	18.78
897.444	16.18
897.876	14.08
898.308	16.18
898.74	17.58
899.172	12.78
899.604	19.08
900.036	23.38
900.468	13.38
900.9	9.78
901.332	13.88
901.764	14.38
902.196	21.88
902.628	18.58
903.06	11.08
903.491	29.58
903.923	22.88
904.355	18.38
904.787	24.08
905.218	19.08
905.65	15.58
906.082	10.38
906.513	12.18
906.945	17.48
907.376	11.28
907.808	23.78
908.239	22.88
908.671	17.18
909.102	20.18
909.534	20.18
909.965	45.08
910.397	85.68
910.828	286.08
911.259	444.08
911.691	207.68
912.122	101.98
912.553	44.28
912.984	25.58
913.415	29.18
913.847	23.18
914.278	13.88
914.709	15.58
915.14	19.88
915.571	15.28
916.002	14.68
916.433	19.28
916.864	8.58
917.295	11.18
917.726	23.28
918.157	13.48
918.587	29.38
919.018	19.48
919.449	19.68
919.88	21.38
920.311	28.88
920.741	39.48
921.172	152.98
921.603	131.58
922.033	57.98
922.464	46.18
922.895	20.18
923.325	24.48
923.756	22.88
924.186	18.08
924.617	28.78
925.047	36.48
925.478	42.98
925.908	40.58
926.338	28.08
926.769	16.38
927.199	13.58
927.629	11.38
928.06	18.78
928.49	16.98
928.92	14.98
929.35	10.38
929.78	13.58
930.21	7.38
930.641	8.88
931.071	17.48
931.501	7.28
931.931	7.58
932.361	1.38
932.791	9.38
933.221	8.28
933.651	6.58
934.08	16.28
934.51	28.98
934.94	8.48
935.37	3.88
935.8	12.28
936.229	10.08
936.659	6.88
937.089	-1.32
937.519	14.18
937.948	17.68
938.378	19.78
938.807	4.78
939.237	-0.22
939.666	9.88
940.096	-5.92
940.525	-0.22
940.955	1.18
941.384	7.08
941.814	-6.12
942.243	1.18
942.672	0.38
943.102	-6.02
943.531	-0.72
943.96	7.08
944.39	4.98
944.819	1.58
945.248	3.78
945.677	2.68
946.106	6.38
946.535	1.88
946.964	-2.62
947.393	3.98
947.822	1.78
948.251	-0.72
948.68	3.58
949.109	5.68
949.538	9.28
949.967	2.58
950.396	-2.62
950.825	0.38
951.254	5.48
951.682	-7.12
952.111	2.78
952.54	1.78
952.969	-3.72
953.397	-11.62
953.826	2.08
954.254	-5.02
954.683	1.58
955.112	1.68
955.54	3.38
955.969	1.88
956.397	2.58
956.826	-5.02
957.254	4.48
957.682	4.38
958.111	1.98
958.539	-1.12
958.967	0.88
959.396	-0.62
959.824	1.58
960.252	7.78
960.68	-1.32
961.109	-0.82
961.537	-5.22
961.965	-3.22
962.393	3.88
962.821	-1.02
963.249	-0.62
963.677	6.18
964.105	5.58
964.533	43.78
964.961	40.38
965.389	17.18
965.817	6.48
966.245	0.38
966.672	2.98
967.1	-7.72
967.528	2.88
967.956	0.38
968.383	0.28
968.811	-4.62
969.239	-1.02
969.666	-7.92
970.094	-1.12
970.522	-2.12
970.949	-1.72
971.377	-6.42
971.804	0.18
972.232	2.58
972.659	-2.82
973.087	3.28
973.514	-5.82
973.941	1.48
974.369	9.18
974.796	-0.82
975.223	6.68
975.651	0.08
976.078	5.98
976.505	4.68
976.932	2.28
977.359	14.78
977.786	16.48
978.214	1.98
978.641	-2.52
979.068	-5.42
979.495	0.08
979.922	2.18
980.349	-1.02
980.776	4.88
981.202	-2.42
981.629	9.38
982.056	5.68
982.483	2.88
982.91	8.58
983.337	-5.62
983.763	3.38
984.19	-5.42
984.617	0.58
985.043	-6.42
985.47	2.88
985.897	-0.42
986.323	-3.32
986.75	-0.02
987.176	1.68
987.603	1.98
988.029	4.28
988.456	-0.02
988.882	1.38
989.308	-6.42
989.735	-4.22
990.161	3.78
990.587	-10.22
991.014	-4.12
991.44	8.18
991.866	-0.22
992.292	-8.22
992.719	-2.72
993.145	3.78
993.571	-11.42
993.997	-4.32
994.423	3.38
994.849	-0.02
995.275	-1.42
995.701	2.38
996.127	-1.12
996.553	1.68
996.979	0.18
997.405	-6.82
997.83	-3.52
998.256	-3.42
998.682	-3.82
999.108	-10.62
999.534	-3.12
999.959	-1.62
1000.385	-1.02
1000.811	2.28
1001.236	-7.52
1001.662	-7.42
1002.087	-11.92
1002.513	1.48
1002.938	0.78
1003.364	1.18
1003.789	5.88
1004.215	1.98
1004.64	-1.82
1005.066	8.08
1005.491	0.28
1005.916	-3.22
1006.342	-7.12
1006.767	-7.12
1007.192	1.18
1007.617	-1.92
1008.042	-9.62
1008.468	-0.32
1008.893	0.08
1009.318	3.38
1009.743	2.58
1010.168	4.78
1010.593	3.18
1011.018	-9.02
1011.443	0.28
1011.868	3.28
1012.293	-3.82
1012.718	-8.92
1013.143	1.18
1013.567	2.58
1013.992	-0.62
1014.417	-11.72
1014.842	3.48
1015.267	-2.12
1015.691	1.88
1016.116	8.78
1016.541	1.58
1016.965	3.48
1017.39	-0.92
1017.814	-2.22
1018.239	-0.22
1018.663	-7.52
1019.088	-9.52
1019.512	-6.52
1019.937	-1.12
1020.361	-9.22
1020.785	-10.42
1021.21	-3.12
1021.634	-0.82
1022.058	1.68
1022.483	0.58
1022.907	-1.92
1023.331	-7.42
1023.755	-3.22
1024.179	-2.22
1024.604	-7.62
1025.028	-10.22
1025.452	-2.52
1025.876	0.28
1026.3	0.18
1026.724	-10.12
1027.148	-5.02
1027.572	-5.22
1027.996	-4.62
1028.42	-2.62
1028.843	-8.82
1029.267	-0.42
1029.691	-4.22
1030.115	-8.32
1030.539	-5.02
1030.962	-6.22
1031.386	-5.92
1031.81	2.28
1032.233	-3.42
1032.657	0.18
1033.08	1.18
1033.504	-4.22
1033.927	-5.02
1034.351	1.28
1034.774	-0.02
1035.198	-2.52
1035.621	-6.32
1036.045	-1.42
1036.468	-0.72
1036.891	-2.32
1037.315	-9.12
1037.738	-9.62
1038.161	0.28
1038.584	0.48
1039.008	-2.92
1039.431	-1.42
1039.854	-1.42
1040.277	-6.62
1040.7	-8.12
1041.123	-5.22
1041.546	-10.12
1041.969	-3.02
1042.392	-4.82
1042.815	-6.22
1043.238	-3.82
1043.661	-2.42
1044.084	-13.12
1044.507	-6.32
1044.93	-9.12
1045.352	-3.92
1045.775	-0.72
1046.198	3.38
1046.621	0.68
1047.043	-0.32
1047.466	5.08
1047.889	-2.62
1048.311	-4.92
1048.734	-8.32
1049.156	-1.12
1049.579	-2.22
1050.001	-2.02
1050.424	2.28
1050.846	-1.12
1051.269	-0.02
1051.691	-8.32
1052.113	-6.92
1052.536	-4.52
1052.958	-1.12
1053.38	-4.42
1053.802	-5.82
1054.225	5.68
1054.647	-1.52
1055.069	-3.72
1055.491	5.18
1055.913	-6.82
1056.335	2.28
1056.757	1.28
1057.179	-8.92
1057.601	-4.22
1058.023	-8.42
1058.445	-0.82
1058.867	-0.42
1059.289	-5.62
1059.711	-9.32
1060.133	-2.52
1060.555	-8.12
1060.976	-6.42
1061.398	-2.72
1061.82	-6.52
1062.241	-4.42
1062.663	-13.12
1063.085	-0.12
1063.506	1.48
1063.928	-5.32
1064.35	-3.02
1064.771	-11.52
1065.193	-4.82
1065.614	-7.62
1066.035	4.28
1066.457	0.58
1066.878	-0.62
1067.3	-6.72
1067.721	-5.02
1068.142	-2.42
1068.564	-5.62
1068.985	-2.82
1069.406	-4.72
1069.827	0.88
1070.248	-1.92
1070.67	-2.12
1071.091	-5.82
1071.512	-1.62
1071.933	0.08
1072.354	-6.22
1072.775	-5.02
1073.196	-7.22
1073.617	-5.12
1074.038	-12.12
1074.459	-4.02
1074.88	-6.02
1075.3	0.68
1075.721	-3.82
1076.142	3.58
1076.563	1.78
1076.983	-7.52
1077.404	-2.52
1077.825	-11.72
1078.246	-6.82
1078.666	-10.42
1079.087	-2.82
1079.507	-10.52
1079.928	-0.62
1080.348	1.48
1080.769	-10.12
1081.189	-2.62
1081.61	-3.72
1082.03	-2.72
1082.451	-8.92
1082.871	-0.82
1083.291	-7.32
1083.711	-5.32
1084.132	-3.52
1084.552	1.38
1084.972	-1.42
1085.392	-6.32
1085.813	-11.62
1086.233	-7.02
1086.653	-6.82
1087.073	-1.82
1087.493	-10.42
1087.913	-6.72
1088.333	-5.92
1088.753	-1.02
1089.173	2.38
1089.593	-3.92
1090.013	2.58
1090.433	-3.02
1090.852	-8.62
1091.272	-1.92
1091.692	-1.12
1092.112	-3.22
1092.531	-4.52
1092.951	-14.32
1093.371	-4.22
1093.79	-2.12
1094.21	1.38
1094.63	-3.92
1095.049	-5.62
1095.469	-3.92
1095.888	-0.32
1096.308	0.18
1096.727	7.08
1097.146	-9.22
1097.566	2.78
1097.985	-4.32
1098.405	0.78
1098.824	-6.12
1099.243	-8.32
1099.662	-9.22
1100.082	-5.02
1100.501	-3.32
1100.92	-5.22
1101.339	-2.22
1101.758	-0.42
