Data from 20171114-ORNL-Ar_H_NY_Subt18_08-07-42-627.txt Node
Date: Tue Nov 14 08:07:42 EST 2017
User: Ender
Spectrometer: HR+D1039
Trigger mode: 0
Integration Time (sec): 2.730000E-2
Scans to average: 10
Electric dark correction enabled: true
Nonlinearity correction enabled: false
Boxcar width: 0
XAxis mode: Wavelengths
Number of Pixels in Spectrum: 2048
>>>>>Begin Spectral Data<<<<<
187.836	-5.99
188.309	-5.99
188.782	-5.99
189.255	1.21
189.728	-0.49
190.201	6.41
190.674	4.71
191.147	4.41
191.619	-4.59
192.092	2.71
192.565	4.21
193.038	2.51
193.511	3.21
193.984	-2.59
194.456	-2.09
194.929	-1.79
195.402	-3.39
195.874	-8.39
196.347	-5.09
196.82	-3.09
197.292	7.31
197.765	3.21
198.237	-9.99
198.71	2.21
199.182	0.01
199.655	4.61
200.127	2.71
200.6	-0.09
201.072	-1.19
201.544	-8.19
202.017	-1.69
202.489	5.61
202.961	1.11
203.433	-4.19
203.906	-5.49
204.378	-3.89
204.85	-6.19
205.322	-10.19
205.794	-6.19
206.266	-6.39
206.739	-12.49
207.211	-1.89
207.683	-12.69
208.155	-6.69
208.627	-9.59
209.099	2.01
209.57	-12.39
210.042	-8.29
210.514	-2.79
210.986	0.91
211.458	-13.99
211.93	-3.89
212.402	1.11
212.873	-4.89
213.345	-11.99
213.817	-11.99
214.288	-4.79
214.76	-9.89
215.232	-5.99
215.703	-6.69
216.175	-5.39
216.646	-2.39
217.118	-7.09
217.589	-3.69
218.061	0.11
218.532	-8.99
219.004	-2.99
219.475	-3.79
219.946	-3.09
220.418	-6.79
220.889	6.61
221.36	2.31
221.832	-3.69
222.303	-9.99
222.774	2.11
223.245	-9.59
223.717	-9.99
224.188	-8.49
224.659	-9.09
225.13	-5.99
225.601	-4.49
226.072	1.81
226.543	0.61
227.014	-5.39
227.485	-5.29
227.956	-4.79
228.427	-3.59
228.898	-1.39
229.369	-0.39
229.839	-1.59
230.31	-5.89
230.781	0.21
231.252	0.31
231.722	-10.49
232.193	-4.89
232.664	-1.89
233.135	-3.39
233.605	-1.39
234.076	-7.69
234.546	1.41
235.017	2.81
235.487	-1.59
235.958	-1.49
236.428	-5.09
236.899	-1.79
237.369	9.81
237.84	-4.49
238.31	4.91
238.78	3.11
239.251	-3.89
239.721	3.11
240.191	0.41
240.662	-0.89
241.132	-2.59
241.602	-6.49
242.072	2.41
242.542	4.21
243.013	-3.09
243.483	2.31
243.953	4.71
244.423	-1.19
244.893	-2.99
245.363	5.01
245.833	-0.69
246.303	0.31
246.773	-1.19
247.243	-2.89
247.712	-4.99
248.182	3.31
248.652	5.31
249.122	-4.69
249.592	10.81
250.061	12.71
250.531	28.81
251.001	16.01
251.471	17.71
251.94	15.81
252.41	0.51
252.879	-0.49
253.349	14.01
253.818	5.01
254.288	2.01
254.757	2.21
255.227	1.21
255.696	-1.79
256.166	3.51
256.635	5.11
257.105	6.91
257.574	-0.39
258.043	4.31
258.513	8.91
258.982	9.51
259.451	2.91
259.92	10.61
260.389	12.01
260.859	11.91
261.328	11.01
261.797	14.71
262.266	7.41
262.735	2.71
263.204	-2.59
263.673	-3.19
264.142	4.31
264.611	-7.59
265.08	0.11
265.549	-2.19
266.018	4.51
266.487	1.21
266.955	2.61
267.424	3.41
267.893	6.81
268.362	0.71
268.83	-1.19
269.299	7.41
269.768	5.41
270.236	3.31
270.705	-0.89
271.174	5.81
271.642	2.41
272.111	8.61
272.579	17.31
273.048	15.81
273.516	21.01
273.985	24.31
274.453	20.11
274.922	16.51
275.39	4.21
275.858	1.01
276.327	7.11
276.795	18.31
277.263	5.71
277.731	21.01
278.2	46.31
278.668	47.41
279.136	45.91
279.604	10.41
280.072	11.91
280.54	10.41
281.008	12.01
281.477	15.51
281.945	7.41
282.413	10.01
282.881	11.91
283.348	6.91
283.816	10.21
284.284	9.31
284.752	20.21
285.22	11.41
285.688	9.81
286.156	17.61
286.623	39.51
287.091	47.01
287.559	24.01
288.026	16.81
288.494	16.61
288.962	1.01
289.429	7.21
289.897	18.31
290.364	11.31
290.832	12.81
291.3	12.41
291.767	18.21
292.234	18.41
292.702	13.51
293.169	15.91
293.637	22.41
294.104	12.91
294.571	4.71
295.039	6.81
295.506	6.21
295.973	12.61
296.44	13.31
296.908	15.51
297.375	16.11
297.842	17.21
298.309	14.11
298.776	12.61
299.243	14.51
299.71	8.81
300.177	21.31
300.644	19.61
301.111	18.31
301.578	12.61
302.045	15.41
302.512	19.11
302.979	16.01
303.446	23.71
303.913	19.51
304.379	18.51
304.846	21.71
305.313	20.21
305.78	15.91
306.246	21.41
306.713	18.51
307.18	29.71
307.646	26.21
308.113	29.01
308.579	17.11
309.046	21.01
309.512	21.11
309.979	11.71
310.445	18.81
310.912	30.71
311.378	31.41
311.845	27.11
312.311	25.81
312.777	28.41
313.244	30.11
313.71	34.01
314.176	25.91
314.642	33.31
315.109	27.51
315.575	28.41
316.041	38.61
316.507	22.01
316.973	33.61
317.439	26.11
317.905	27.31
318.371	28.11
318.837	32.21
319.303	28.21
319.769	34.51
320.235	29.81
320.701	30.71
321.167	36.91
321.633	32.41
322.099	40.41
322.564	37.11
323.03	39.41
323.496	33.81
323.962	33.81
324.427	28.21
324.893	47.51
325.359	31.41
325.824	29.51
326.29	32.71
326.755	37.61
327.221	32.31
327.686	33.41
328.152	36.01
328.617	37.31
329.083	42.11
329.548	45.91
330.014	44.11
330.479	35.91
330.944	35.11
331.41	34.01
331.875	34.51
332.34	36.41
332.805	34.71
333.271	41.41
333.736	44.01
334.201	47.61
334.666	52.21
335.131	45.71
335.596	48.81
336.061	45.51
336.526	38.71
336.991	43.61
337.456	50.61
337.921	40.21
338.386	37.71
338.851	38.51
339.316	40.21
339.781	46.71
340.246	41.21
340.711	39.31
341.175	41.01
341.64	43.41
342.105	44.51
342.569	48.81
343.034	52.21
343.499	46.61
343.963	39.81
344.428	49.41
344.893	46.71
345.357	53.21
345.822	54.51
346.286	59.01
346.751	58.91
347.215	65.71
347.679	65.31
348.144	85.81
348.608	76.81
349.073	67.01
349.537	67.31
350.001	71.11
350.465	81.91
350.93	73.31
351.394	73.51
351.858	60.61
352.322	81.11
352.786	73.21
353.25	94.61
353.715	100.41
354.179	91.11
354.643	112.21
355.107	108.51
355.571	101.01
356.035	87.41
356.498	111.41
356.962	112.91
357.426	118.91
357.89	106.61
358.354	85.11
358.818	75.41
359.281	74.51
359.745	69.81
360.209	69.81
360.673	69.41
361.136	67.11
361.6	76.31
362.064	79.11
362.527	79.01
362.991	78.91
363.454	73.51
363.918	63.61
364.381	69.71
364.845	73.41
365.308	76.71
365.772	77.91
366.235	80.51
366.698	77.21
367.162	76.91
367.625	77.71
368.088	77.71
368.552	78.91
369.015	74.61
369.478	91.41
369.941	95.91
370.404	85.81
370.867	92.21
371.331	100.51
371.794	100.31
372.257	102.31
372.72	103.11
373.183	99.81
373.646	91.91
374.109	96.81
374.572	98.51
375.035	102.41
375.497	98.71
375.96	99.61
376.423	92.41
376.886	101.11
377.349	104.01
377.811	88.61
378.274	90.41
378.737	100.81
379.199	102.91
379.662	103.91
380.125	111.31
380.587	107.01
381.05	114.91
381.512	121.41
381.975	125.11
382.437	115.81
382.9	118.81
383.362	120.41
383.825	130.31
384.287	135.51
384.75	129.71
385.212	127.51
385.674	127.41
386.136	126.71
386.599	122.41
387.061	114.61
387.523	118.31
387.985	119.41
388.447	133.91
388.91	136.71
389.372	151.01
389.834	150.11
390.296	139.71
390.758	154.21
391.22	161.21
391.682	203.81
392.144	291.01
392.606	218.71
393.068	152.41
393.529	161.11
393.991	145.51
394.453	132.81
394.915	146.81
395.377	181.41
395.838	208.41
396.3	152.51
396.762	133.21
397.224	127.01
397.685	118.31
398.147	121.41
398.608	118.71
399.07	120.81
399.531	123.91
399.993	132.31
400.454	140.11
400.916	140.21
401.377	134.51
401.839	133.11
402.3	140.31
402.762	155.31
403.223	172.01
403.684	162.51
404.145	149.11
404.607	143.61
405.068	151.21
405.529	165.11
405.99	177.81
406.451	159.41
406.913	164.91
407.374	159.31
407.835	152.81
408.296	149.81
408.757	162.61
409.218	180.21
409.679	169.21
410.14	170.61
410.601	165.01
411.062	173.91
411.522	179.91
411.983	180.91
412.444	162.01
412.905	164.61
413.366	169.51
413.826	183.41
414.287	205.61
414.748	242.01
415.208	234.61
415.669	199.61
416.13	193.81
416.59	184.31
417.051	200.11
417.511	213.41
417.972	222.21
418.432	241.81
418.893	278.21
419.353	239.51
419.814	187.71
420.274	176.11
420.734	175.41
421.195	189.31
421.655	185.11
422.115	180.81
422.576	179.11
423.036	191.21
423.496	199.61
423.956	201.51
424.416	222.91
424.876	246.61
425.336	245.21
425.797	247.21
426.257	254.11
426.717	230.81
427.177	218.81
427.637	207.71
428.097	222.81
428.556	229.81
429.016	261.71
429.476	251.41
429.936	257.21
430.396	270.31
430.856	281.91
431.315	300.81
431.775	338.31
432.235	359.31
432.694	331.01
433.154	341.11
433.614	377.11
434.073	316.91
434.533	272.71
434.993	263.81
435.452	265.81
435.912	286.11
436.371	274.31
436.83	271.41
437.29	260.01
437.749	243.51
438.209	233.41
438.668	254.31
439.127	281.51
439.587	252.41
440.046	235.41
440.505	252.91
440.964	266.81
441.424	311.01
441.883	298.11
442.342	247.51
442.801	212.01
443.26	211.21
443.719	208.71
444.178	208.11
444.637	200.41
445.096	220.21
445.555	203.41
446.014	213.81
446.473	212.31
446.932	219.81
447.391	213.71
447.849	219.91
448.308	208.91
448.767	210.71
449.226	224.11
449.685	229.91
450.143	243.11
450.602	232.01
451.061	217.51
451.519	225.51
451.978	219.31
452.436	220.11
452.895	225.11
453.353	240.71
453.812	236.81
454.27	230.31
454.729	234.21
455.187	228.41
455.646	233.21
456.104	241.31
456.562	249.21
457.021	256.81
457.479	255.01
457.937	259.11
458.395	252.01
458.854	237.91
459.312	240.91
459.77	262.71
460.228	243.21
460.686	234.01
461.144	242.01
461.602	235.51
462.06	231.01
462.518	243.91
462.976	243.91
463.434	244.71
463.892	252.51
464.35	267.01
464.808	267.41
465.266	253.31
465.724	253.61
466.181	255.71
466.639	255.81
467.097	274.21
467.555	285.31
468.012	283.11
468.47	300.61
468.928	311.11
469.385	327.61
469.843	341.11
470.3	335.01
470.758	349.71
471.215	373.21
471.673	390.41
472.13	399.11
472.588	405.01
473.045	366.51
473.503	360.81
473.96	377.71
474.417	390.91
474.875	414.51
475.332	464.81
475.789	447.81
476.246	443.31
476.704	472.41
477.161	490.41
477.618	511.41
478.075	549.11
478.532	592.41
478.989	666.31
479.446	777.01
479.903	741.81
480.36	782.41
480.817	830.61
481.274	935.71
481.731	1024.31
482.188	1118.01
482.645	1248.31
483.102	1354.41
483.558	1490.81
484.015	1541.21
484.472	1511.41
484.929	1469.81
485.385	1420.81
485.842	1383.01
486.299	1310.91
486.755	1254.71
487.212	1056.71
487.668	901.41
488.125	822.81
488.582	746.31
489.038	715.11
489.494	687.71
489.951	662.11
490.407	644.41
490.864	618.31
491.32	613.01
491.776	611.51
492.233	621.31
492.689	588.51
493.145	582.81
493.602	576.81
494.058	591.21
494.514	592.41
494.97	617.41
495.426	636.11
495.882	599.91
496.338	588.61
496.794	597.11
497.251	600.11
497.707	611.21
498.163	612.41
498.618	615.81
499.074	625.21
499.53	643.81
499.986	649.81
500.442	633.31
500.898	614.31
501.354	587.71
501.809	612.61
502.265	620.71
502.721	637.41
503.177	654.21
503.632	638.41
504.088	650.41
504.543	685.01
504.999	682.01
505.455	633.91
505.91	613.51
506.366	614.01
506.821	608.71
507.277	592.61
507.732	601.31
508.187	612.11
508.643	611.01
509.098	609.81
509.553	630.11
510.009	640.71
510.464	644.61
510.919	664.11
511.375	670.91
511.83	684.01
512.285	703.11
512.74	722.71
513.195	759.41
513.65	747.71
514.105	733.41
514.56	749.11
515.015	763.41
515.47	765.51
515.925	762.21
516.38	761.91
516.835	763.81
517.29	756.81
517.745	758.91
518.2	747.81
518.655	725.31
519.109	724.21
519.564	717.21
520.019	705.41
520.474	709.61
520.928	705.01
521.383	699.21
521.838	688.01
522.292	696.91
522.747	684.51
523.201	675.91
523.656	676.31
524.11	679.81
524.565	677.81
525.019	666.81
525.474	684.91
525.928	678.71
526.382	666.11
526.837	667.01
527.291	677.81
527.745	660.81
528.2	670.61
528.654	665.61
529.108	669.41
529.562	665.41
530.016	671.31
530.47	670.91
530.925	676.61
531.379	674.11
531.833	677.81
532.287	682.81
532.741	682.81
533.195	692.91
533.649	689.01
534.103	698.81
534.556	678.71
535.01	683.41
535.464	683.51
535.918	696.31
536.372	696.21
536.826	700.01
537.279	685.61
537.733	688.61
538.187	691.41
538.64	695.11
539.094	684.71
539.548	694.41
540.001	700.51
540.455	701.01
540.908	710.51
541.362	723.61
541.815	728.41
542.269	738.71
542.722	735.21
543.175	742.71
543.629	742.61
544.082	760.11
544.536	767.71
544.989	774.91
545.442	766.21
545.895	765.61
546.349	765.01
546.802	771.81
547.255	771.41
547.708	784.91
548.161	800.01
548.614	791.31
549.067	806.71
549.52	788.71
549.973	801.31
550.426	788.51
550.879	775.11
551.332	768.31
551.785	776.11
552.238	780.81
552.691	788.81
553.144	804.31
553.596	823.21
554.049	837.81
554.502	856.61
554.955	882.01
555.407	890.61
555.86	871.61
556.313	871.81
556.765	852.21
557.218	858.81
557.67	854.51
558.123	853.31
558.576	837.31
559.028	848.31
559.48	860.11
559.933	843.41
560.385	825.11
560.838	779.81
561.29	760.61
561.742	762.01
562.195	746.11
562.647	740.41
563.099	757.01
563.551	747.41
564.004	749.11
564.456	747.51
564.908	734.51
565.36	724.51
565.812	724.31
566.264	705.21
566.716	710.11
567.168	701.41
567.62	713.11
568.072	690.21
568.524	672.71
568.976	673.61
569.428	648.31
569.88	649.51
570.332	662.81
570.784	661.61
571.235	661.41
571.687	679.81
572.139	675.51
572.59	689.11
573.042	690.71
573.494	681.31
573.945	691.31
574.397	668.21
574.849	670.61
575.3	677.51
575.752	668.21
576.203	666.61
576.655	670.61
577.106	655.51
577.557	651.51
578.009	651.91
578.46	651.31
578.912	647.41
579.363	642.81
579.814	654.51
580.265	644.61
580.717	653.61
581.168	644.41
581.619	659.11
582.07	657.61
582.521	654.81
582.972	651.31
583.423	667.01
583.875	667.11
584.326	681.91
584.777	735.11
585.227	807.51
585.678	907.51
586.129	997.91
586.58	1064.41
587.031	1147.21
587.482	1280.41
587.933	1474.11
588.384	1274.61
588.834	956.31
589.285	794.21
589.736	756.21
590.186	764.11
590.637	756.81
591.088	722.51
591.538	718.11
591.989	719.11
592.439	706.71
592.89	695.61
593.34	692.41
593.791	693.11
594.241	686.01
594.692	694.41
595.142	685.91
595.593	682.91
596.043	692.01
596.493	702.01
596.943	697.41
597.394	700.91
597.844	701.11
598.294	712.11
598.744	732.71
599.195	756.41
599.645	800.21
600.095	832.41
600.545	886.11
600.995	946.41
601.445	995.71
601.895	1064.91
602.345	1110.71
602.795	1077.41
603.245	1034.91
603.695	989.81
604.145	935.81
604.594	898.11
605.044	845.61
605.494	776.61
605.944	730.41
606.393	721.31
606.843	705.71
607.293	712.51
607.743	713.01
608.192	731.71
608.642	748.91
609.091	756.31
609.541	756.41
609.99	746.11
610.44	760.31
610.889	704.21
611.339	695.71
611.788	670.41
612.238	681.41
612.687	701.21
613.136	713.61
613.586	726.61
614.035	719.81
614.484	743.91
614.933	741.61
615.383	733.71
615.832	726.81
616.281	709.91
616.73	672.71
617.179	655.01
617.628	639.11
618.077	624.21
618.526	607.91
618.975	589.41
619.424	599.01
619.873	598.51
620.322	602.71
620.771	588.71
621.22	590.21
621.669	583.81
622.118	573.21
622.567	571.41
623.015	561.51
623.464	553.41
623.913	550.81
624.361	535.31
624.81	534.91
625.259	539.61
625.707	542.01
626.156	543.81
626.604	562.61
627.053	553.61
627.501	553.41
627.95	551.51
628.398	570.01
628.847	554.01
629.295	562.81
629.744	562.91
630.192	555.61
630.64	545.51
631.089	552.91
631.537	566.41
631.985	574.21
632.433	590.51
632.881	599.91
633.33	649.91
633.778	628.11
634.226	564.51
634.674	556.71
635.122	576.51
635.57	579.21
636.018	619.91
636.466	574.11
636.914	556.11
637.362	564.51
637.81	567.21
638.258	570.41
638.705	570.01
639.153	595.01
639.601	595.61
640.049	624.81
640.497	654.71
640.944	686.31
641.392	627.01
641.84	600.31
642.287	574.51
642.735	558.71
643.182	562.81
643.63	573.31
644.078	569.71
644.525	584.11
644.973	580.41
645.42	593.01
645.867	608.11
646.315	627.61
646.762	663.41
647.21	677.21
647.657	707.21
648.104	736.61
648.551	761.01
648.999	823.01
649.446	910.91
649.893	995.61
650.34	1153.31
650.787	1381.21
651.234	1711.21
651.682	2234.01
652.129	3098.51
652.576	4461.01
653.023	6590.81
653.47	9017.51
653.917	11168.21
654.363	12833.51
654.81	14184.21
655.257	13445.01
655.704	8800.61
656.151	5207.51
656.598	3346.11
657.044	2382.81
657.491	1830.31
657.938	1470.81
658.385	1222.41
658.831	1060.21
659.278	942.61
659.724	843.51
660.171	772.91
660.618	717.81
661.064	679.51
661.511	658.11
661.957	639.61
662.404	630.21
662.85	644.61
663.296	607.81
663.743	546.31
664.189	527.01
664.635	521.11
665.082	513.21
665.528	520.21
665.974	506.31
666.42	500.51
666.867	500.01
667.313	489.31
667.759	475.41
668.205	467.31
668.651	472.71
669.097	481.31
669.543	492.01
669.989	462.01
670.435	440.51
670.881	436.91
671.327	436.61
671.773	460.21
672.219	486.91
672.665	529.31
673.11	572.81
673.556	612.21
674.002	652.31
674.448	642.21
674.893	536.91
675.339	459.11
675.785	424.51
676.23	412.61
676.676	389.81
677.122	370.81
677.567	369.31
678.013	361.01
678.458	352.41
678.904	347.11
679.349	342.71
679.794	343.21
680.24	345.81
680.685	346.01
681.131	341.41
681.576	341.91
682.021	346.21
682.466	340.21
682.912	340.21
683.357	345.31
683.802	374.01
684.247	403.51
684.692	449.41
685.137	487.01
685.583	520.71
686.028	544.51
686.473	505.11
686.918	432.61
687.363	410.71
687.807	388.51
688.252	360.51
688.697	340.61
689.142	326.41
689.587	328.51
690.032	320.61
690.477	329.71
690.921	339.71
691.366	372.71
691.811	388.11
692.255	423.71
692.7	451.31
693.145	494.41
693.589	690.21
694.034	1123.61
694.478	1514.11
694.923	1687.01
695.367	2199.01
695.812	1176.71
696.256	496.71
696.701	366.51
697.145	338.41
697.59	325.11
698.034	316.81
698.478	320.91
698.922	322.51
699.367	318.71
699.811	338.31
700.255	352.51
700.699	384.61
701.143	418.01
701.588	463.51
702.032	505.11
702.476	503.41
702.92	474.91
703.364	476.41
703.808	629.01
704.252	1042.51
704.696	1417.11
705.14	1617.21
705.584	2066.21
706.027	1033.51
706.471	519.21
706.915	389.51
707.359	343.51
707.803	311.61
708.246	307.11
708.69	306.61
709.134	304.21
709.577	305.01
710.021	318.61
710.465	298.41
710.908	293.21
711.352	295.81
711.795	308.11
712.239	345.21
712.682	376.61
713.126	413.81
713.569	458.51
714.012	360.91
714.456	315.41
714.899	294.61
715.342	273.61
715.786	259.41
716.229	254.41
716.672	248.31
717.115	248.21
717.558	250.21
718.002	244.91
718.445	252.91
718.888	274.21
719.331	288.31
719.774	302.21
720.217	300.31
720.66	279.41
721.103	266.81
721.546	251.11
721.989	242.21
722.432	221.81
722.874	234.01
723.317	232.61
723.76	233.71
724.203	255.41
724.645	320.81
725.088	437.81
725.531	550.11
725.974	621.61
726.416	533.11
726.859	305.81
727.301	239.71
727.744	235.81
728.187	222.41
728.629	226.51
729.071	238.81
729.514	256.51
729.956	268.81
730.399	278.71
730.841	277.71
731.283	265.21
731.726	257.91
732.168	252.01
732.61	264.81
733.053	291.51
733.495	314.31
733.937	349.11
734.379	396.21
734.821	424.71
735.263	537.21
735.705	830.81
736.148	1576.31
736.59	2526.31
737.032	2932.91
737.474	2404.31
737.916	780.91
738.357	416.91
738.799	316.21
739.241	292.11
739.683	281.31
740.125	290.41
740.567	292.91
741.008	304.81
741.45	310.11
741.892	304.91
742.334	344.31
742.775	356.51
743.217	331.91
743.658	260.41
744.1	252.81
744.542	255.51
744.983	302.11
745.425	336.51
745.866	339.41
746.307	271.91
746.749	269.41
747.19	322.71
747.632	463.51
748.073	886.01
748.514	1841.01
748.956	2783.71
749.397	3482.91
749.838	2894.91
750.279	2856.61
750.72	1446.71
751.162	536.41
751.603	315.81
752.044	248.51
752.485	212.71
752.926	205.01
753.367	203.61
753.808	198.61
754.249	187.91
754.69	181.81
755.131	179.21
755.572	177.51
756.013	179.11
756.453	180.31
756.894	185.01
757.335	194.31
757.776	189.11
758.216	198.41
758.657	194.41
759.098	197.71
759.538	227.51
759.979	260.51
760.42	374.11
760.86	699.71
761.301	1837.71
761.741	4371.71
762.182	6216.41
762.622	4345.81
763.063	1281.31
763.503	527.01
763.943	337.01
764.384	340.51
764.824	399.31
765.264	423.11
765.705	299.61
766.145	208.31
766.585	193.11
767.025	176.31
767.465	182.81
767.906	238.61
768.346	316.31
768.786	337.61
769.226	262.81
769.666	312.41
770.106	622.41
770.546	1567.41
770.986	2574.11
771.426	2279.21
771.866	777.81
772.306	322.71
772.745	195.31
773.185	165.91
773.625	165.31
774.065	162.31
774.505	192.01
774.944	319.31
775.384	686.11
775.824	1218.11
776.263	1170.11
776.703	496.41
777.142	216.31
777.582	152.71
778.021	132.31
778.461	137.81
778.9	133.41
779.34	125.71
779.779	114.51
780.219	106.11
780.658	106.91
781.097	109.11
781.537	116.81
781.976	106.91
782.415	110.41
782.855	107.71
783.294	102.91
783.733	104.21
784.172	110.11
784.611	103.01
785.05	104.61
785.489	109.51
785.928	115.21
786.367	120.01
786.806	121.91
787.245	125.91
787.684	138.61
788.123	140.31
788.562	133.81
789.001	119.01
789.44	117.51
789.879	116.91
790.317	114.11
790.756	125.31
791.195	129.01
791.634	146.71
792.072	197.81
792.511	371.71
792.95	1010.01
793.388	2096.91
793.827	1872.11
794.265	660.21
794.704	272.51
795.142	184.21
795.581	151.11
796.019	131.11
796.458	131.21
796.896	123.31
797.334	128.81
797.773	149.01
798.211	218.21
798.649	447.41
799.087	1014.31
799.526	1575.21
799.964	1976.51
800.402	1946.01
800.84	731.41
801.278	295.21
801.716	187.21
802.154	144.11
802.592	143.51
803.03	134.21
803.468	124.21
803.906	137.61
804.344	147.11
804.782	139.91
805.22	132.61
805.658	129.61
806.096	146.01
806.533	153.21
806.971	172.41
807.409	220.31
807.847	312.61
808.284	668.11
808.722	1839.01
809.16	3198.21
809.597	3096.71
810.035	5337.11
810.472	5527.31
810.91	2015.01
811.347	775.01
811.785	389.51
812.222	256.81
812.66	191.51
813.097	165.81
813.535	139.71
813.972	127.51
814.409	116.11
814.846	105.51
815.284	106.61
815.721	95.11
816.158	103.21
816.595	119.41
817.032	180.21
817.47	186.41
817.907	157.91
818.344	150.41
818.781	116.51
819.218	105.01
819.655	120.41
820.092	184.21
820.529	204.61
820.966	174.61
821.403	134.81
821.839	105.01
822.276	101.01
822.713	120.11
823.15	131.41
823.587	113.91
824.023	147.31
824.46	302.41
824.897	903.11
825.333	1303.41
825.77	558.51
826.206	222.31
826.643	130.81
827.08	104.11
827.516	88.81
827.953	71.81
828.389	83.81
828.825	70.31
829.262	65.61
829.698	61.11
830.135	65.61
830.571	60.21
831.007	61.51
831.443	61.31
831.88	60.01
832.316	54.31
832.752	59.21
833.188	65.01
833.624	64.71
834.06	68.71
834.497	67.71
834.933	71.11
835.369	70.31
835.805	69.51
836.241	79.61
836.677	78.21
837.112	85.61
837.548	105.01
837.984	131.81
838.42	201.51
838.856	493.71
839.292	1489.81
839.727	2214.51
840.163	1044.71
840.599	907.91
841.034	2005.01
841.47	2036.41
841.906	753.21
842.341	327.61
842.777	231.21
843.212	321.21
843.648	308.61
844.083	150.11
844.519	101.21
844.954	73.41
845.39	61.11
845.825	52.71
846.261	54.91
846.696	53.31
847.131	54.41
847.566	57.91
848.002	51.01
848.437	56.21
848.872	60.51
849.307	58.71
849.742	83.61
850.177	181.61
850.613	544.61
851.048	849.61
851.483	365.71
851.918	150.51
852.353	91.11
852.788	51.61
853.223	57.31
853.657	54.61
854.092	52.71
854.527	39.41
854.962	39.91
855.397	40.41
855.832	42.51
856.266	42.41
856.701	35.11
857.136	41.01
857.57	40.51
858.005	49.21
858.44	56.81
858.874	42.11
859.309	59.01
859.743	39.31
860.178	43.31
860.612	38.11
861.047	49.81
861.481	59.51
861.915	71.81
862.35	44.31
862.784	37.91
863.218	44.41
863.653	31.91
864.087	43.01
864.521	51.81
864.955	70.41
865.39	160.71
865.824	169.01
866.258	114.41
866.692	157.41
867.126	170.91
867.56	95.01
867.994	54.71
868.428	35.91
868.862	47.61
869.296	52.61
869.73	53.61
870.164	57.61
870.598	45.31
871.031	32.61
871.465	31.31
871.899	27.01
872.333	23.91
872.766	23.31
873.2	21.51
873.634	31.01
874.067	21.21
874.501	20.41
874.935	29.51
875.368	27.71
875.802	23.91
876.235	22.61
876.669	29.41
877.102	22.21
877.535	25.71
877.969	19.01
878.402	24.61
878.836	17.11
879.269	23.31
879.702	21.41
880.135	20.51
880.569	21.61
881.002	28.01
881.435	19.31
881.868	18.51
882.301	21.31
882.734	15.71
883.167	23.41
883.601	24.81
884.034	26.11
884.467	19.01
884.899	16.51
885.332	13.11
885.765	13.91
886.198	16.11
886.631	16.41
887.064	18.61
887.497	19.51
887.929	21.71
888.362	12.71
888.795	9.61
889.228	19.61
889.66	13.81
890.093	20.01
890.526	8.21
890.958	14.01
891.391	18.31
891.823	23.41
892.256	13.61
892.688	13.51
893.121	21.81
893.553	14.41
893.985	16.41
894.418	21.01
894.85	16.31
895.282	10.61
895.715	13.91
896.147	18.41
896.579	18.81
897.011	17.01
897.444	19.41
897.876	9.81
898.308	9.51
898.74	15.61
899.172	13.51
899.604	18.71
900.036	19.91
900.468	15.61
900.9	8.21
901.332	21.41
901.764	14.91
902.196	21.31
902.628	10.71
903.06	15.91
903.491	26.71
903.923	27.01
904.355	17.81
904.787	27.51
905.218	19.71
905.65	23.21
906.082	12.71
906.513	7.61
906.945	13.31
907.376	10.71
907.808	13.81
908.239	20.01
908.671	19.41
909.102	23.71
909.534	26.11
909.965	48.11
910.397	91.31
910.828	313.21
911.259	464.21
911.691	207.81
912.122	102.31
912.553	53.01
912.984	37.01
913.415	28.51
913.847	24.51
914.278	14.61
914.709	13.71
915.14	21.91
915.571	18.21
916.002	9.61
916.433	22.81
916.864	20.51
917.295	8.51
917.726	18.01
918.157	18.71
918.587	29.21
919.018	21.71
919.449	24.91
919.88	24.01
920.311	35.81
920.741	46.51
921.172	162.11
921.603	144.61
922.033	70.01
922.464	50.41
922.895	24.71
923.325	18.91
923.756	16.21
924.186	12.51
924.617	24.31
925.047	39.81
925.478	59.11
925.908	44.91
926.338	28.41
926.769	23.51
927.199	19.21
927.629	7.61
928.06	16.01
928.49	8.31
928.92	10.91
929.35	12.21
929.78	9.61
930.21	0.71
930.641	8.81
931.071	7.71
931.501	1.61
931.931	6.81
932.361	2.51
932.791	1.51
933.221	6.91
933.651	7.91
934.08	15.31
934.51	25.11
934.94	14.81
935.37	11.81
935.8	13.31
936.229	9.61
936.659	8.41
937.089	1.21
937.519	8.11
937.948	15.71
938.378	13.71
938.807	6.81
939.237	-4.79
939.666	8.71
940.096	-3.89
940.525	3.41
940.955	6.21
941.384	0.41
941.814	-1.99
942.243	-0.19
942.672	-2.29
943.102	-6.79
943.531	-1.39
943.96	0.91
944.39	-0.79
944.819	-3.49
945.248	3.01
945.677	1.41
946.106	2.21
946.535	-0.49
946.964	-0.19
947.393	4.61
947.822	3.11
948.251	-3.29
948.68	4.31
949.109	4.71
949.538	9.91
949.967	-2.09
950.396	-4.39
950.825	-3.39
951.254	-0.59
951.682	-0.09
952.111	-0.89
952.54	-0.49
952.969	-3.99
953.397	-6.29
953.826	0.51
954.254	-2.59
954.683	5.41
955.112	-1.89
955.54	1.11
955.969	0.61
956.397	-2.29
956.826	0.81
957.254	1.81
957.682	-0.59
958.111	7.81
958.539	0.01
958.967	1.81
959.396	-0.39
959.824	-1.09
960.252	3.31
960.68	-1.09
961.109	-4.99
961.537	-3.59
961.965	-5.79
962.393	-1.59
962.821	-6.69
963.249	5.31
963.677	3.01
964.105	5.71
964.533	48.01
964.961	39.21
965.389	21.01
965.817	6.21
966.245	5.21
966.672	-2.29
967.1	-5.19
967.528	-1.99
967.956	-3.59
968.383	3.21
968.811	-2.19
969.239	-0.29
969.666	-6.19
970.094	5.41
970.522	-2.69
970.949	-1.09
971.377	-6.29
971.804	-1.89
972.232	0.81
972.659	-3.39
973.087	1.21
973.514	-0.99
973.941	-7.29
974.369	1.21
974.796	-1.59
975.223	-4.49
975.651	0.91
976.078	2.21
976.505	-7.59
976.932	7.81
977.359	13.31
977.786	9.41
978.214	-0.19
978.641	-3.39
979.068	-7.19
979.495	-8.69
979.922	-1.69
980.349	-6.19
980.776	3.81
981.202	-1.89
981.629	6.31
982.056	4.71
982.483	-2.39
982.91	1.31
983.337	-9.29
983.763	-0.09
984.19	-5.79
984.617	-4.19
985.043	-6.69
985.47	-7.09
985.897	-2.09
986.323	-4.39
986.75	0.81
987.176	-1.29
987.603	0.31
988.029	1.01
988.456	-3.99
988.882	4.71
989.308	-2.79
989.735	-2.39
990.161	2.81
990.587	-3.69
991.014	-1.29
991.44	2.31
991.866	-2.19
992.292	-2.99
992.719	-4.69
993.145	6.01
993.571	-5.59
993.997	-0.89
994.423	2.51
994.849	-3.49
995.275	3.91
995.701	0.41
996.127	0.61
996.553	5.21
996.979	0.71
997.405	-2.09
997.83	-5.09
998.256	-6.19
998.682	-5.39
999.108	-6.39
999.534	-1.89
999.959	-3.69
1000.385	-5.49
1000.811	0.41
1001.236	-6.39
1001.662	-6.39
1002.087	-10.39
1002.513	1.61
1002.938	-3.19
1003.364	-2.99
1003.789	-3.69
1004.215	4.21
1004.64	3.41
1005.066	1.41
1005.491	-1.19
1005.916	-3.79
1006.342	-2.59
1006.767	0.31
1007.192	3.21
1007.617	-12.49
1008.042	-3.79
1008.468	-12.79
1008.893	-3.29
1009.318	-7.19
1009.743	-0.99
1010.168	6.51
1010.593	4.61
1011.018	-9.09
1011.443	-8.49
1011.868	0.51
1012.293	-2.49
1012.718	-10.39
1013.143	-2.29
1013.567	-1.69
1013.992	-3.79
1014.417	-14.29
1014.842	-4.59
1015.267	-2.59
1015.691	-4.79
1016.116	5.21
1016.541	9.61
1016.965	5.71
1017.39	-4.49
1017.814	-1.69
1018.239	0.71
1018.663	-5.49
1019.088	-9.29
1019.512	-2.59
1019.937	-1.89
1020.361	-10.69
1020.785	-6.19
1021.21	-5.39
1021.634	-10.19
1022.058	0.91
1022.483	-1.69
1022.907	-5.59
1023.331	-8.29
1023.755	-3.79
1024.179	-9.49
1024.604	-6.49
1025.028	-4.49
1025.452	-4.69
1025.876	-0.59
1026.3	-2.19
1026.724	-6.89
1027.148	-7.79
1027.572	-7.69
1027.996	-7.99
1028.42	0.81
1028.843	-5.29
1029.267	-1.49
1029.691	-4.89
1030.115	-13.39
1030.539	-7.59
1030.962	-5.89
1031.386	-9.99
1031.81	-4.99
1032.233	-5.69
1032.657	0.51
1033.08	-5.59
1033.504	-9.09
1033.927	-1.99
1034.351	-1.89
1034.774	-7.39
1035.198	-4.69
1035.621	-8.39
1036.045	-7.39
1036.468	-0.69
1036.891	-10.79
1037.315	-6.99
1037.738	-10.49
1038.161	-3.29
1038.584	-9.89
1039.008	0.51
1039.431	-6.19
1039.854	-1.79
1040.277	-12.09
1040.7	-11.99
1041.123	-2.39
1041.546	-13.39
1041.969	-4.29
1042.392	-8.89
1042.815	-5.29
1043.238	-1.09
1043.661	1.41
1044.084	-8.69
1044.507	-1.29
1044.93	-10.79
1045.352	-10.79
1045.775	1.01
1046.198	-3.89
1046.621	-4.59
1047.043	-0.59
1047.466	4.21
1047.889	-1.89
1048.311	-5.29
1048.734	-5.99
1049.156	-3.59
1049.579	-4.19
1050.001	-1.59
1050.424	-2.09
1050.846	-3.09
1051.269	-7.59
1051.691	-8.49
1052.113	-7.59
1052.536	-1.09
1052.958	-0.39
1053.38	-3.89
1053.802	-11.09
1054.225	-1.89
1054.647	-8.09
1055.069	-4.89
1055.491	2.91
1055.913	-6.09
1056.335	-1.59
1056.757	-6.19
1057.179	-6.39
1057.601	1.11
1058.023	-8.39
1058.445	-3.99
1058.867	-7.09
1059.289	-4.29
1059.711	-2.69
1060.133	-4.69
1060.555	-3.69
1060.976	-10.29
1061.398	-8.79
1061.82	-2.99
1062.241	-6.29
1062.663	-8.49
1063.085	-7.69
1063.506	-4.89
1063.928	-4.19
1064.35	-3.69
1064.771	-12.29
1065.193	-7.29
1065.614	-5.09
1066.035	-5.79
1066.457	-0.49
1066.878	-4.69
1067.3	-8.49
1067.721	-5.19
1068.142	-3.19
1068.564	-4.69
1068.985	-4.19
1069.406	-4.09
1069.827	-1.19
1070.248	-2.49
1070.67	-9.49
1071.091	-6.49
1071.512	-4.59
1071.933	-6.49
1072.354	-7.69
1072.775	-9.59
1073.196	-15.09
1073.617	-6.19
1074.038	-8.19
1074.459	-6.49
1074.88	-11.49
1075.3	-2.49
1075.721	-9.29
1076.142	2.11
1076.563	-2.09
1076.983	-11.29
1077.404	-10.89
1077.825	-8.59
1078.246	-5.99
1078.666	-13.89
1079.087	-7.29
1079.507	-3.99
1079.928	1.31
1080.348	-7.29
1080.769	-12.49
1081.189	-1.59
1081.61	-3.59
1082.03	-4.99
1082.451	-6.39
1082.871	-8.59
1083.291	-17.29
1083.711	-15.49
1084.132	-6.49
1084.552	-5.19
1084.972	0.11
1085.392	-10.99
1085.813	-10.39
1086.233	-5.49
1086.653	-11.49
1087.073	-4.29
1087.493	-8.69
1087.913	-9.29
1088.333	-10.09
1088.753	-2.19
1089.173	2.21
1089.593	-2.09
1090.013	4.91
1090.433	0.11
1090.852	-5.09
1091.272	-4.19
1091.692	-3.49
1092.112	-3.09
1092.531	-6.99
1092.951	-10.79
1093.371	-6.69
1093.79	-0.19
1094.21	-7.49
1094.63	-6.79
1095.049	-5.29
1095.469	-1.89
1095.888	-3.59
1096.308	1.41
1096.727	1.71
1097.146	-8.09
1097.566	-2.09
1097.985	-4.19
1098.405	-4.19
1098.824	-11.09
1099.243	-7.39
1099.662	-10.49
1100.082	-1.89
1100.501	-2.29
1100.92	-7.59
1101.339	-3.79
1101.758	-6.39
