Data from 20171114-ORNL-Ar_H_NY_Subt18_08-08-03-646.txt Node
Date: Tue Nov 14 08:08:03 EST 2017
User: Ender
Spectrometer: HR+D1039
Trigger mode: 0
Integration Time (sec): 2.730000E-2
Scans to average: 10
Electric dark correction enabled: true
Nonlinearity correction enabled: false
Boxcar width: 0
XAxis mode: Wavelengths
Number of Pixels in Spectrum: 2048
>>>>>Begin Spectral Data<<<<<
187.836	-1.58
188.309	-1.58
188.782	-1.58
189.255	5.82
189.728	-3.78
190.201	0.72
190.674	2.92
191.147	6.02
191.619	-9.28
192.092	0.92
192.565	5.52
193.038	-1.28
193.511	-5.78
193.984	2.32
194.456	-1.68
194.929	-0.18
195.402	-5.48
195.874	4.72
196.347	-1.48
196.82	-3.88
197.292	1.82
197.765	-6.58
198.237	-8.48
198.71	3.52
199.182	-0.48
199.655	0.92
200.127	0.22
200.6	-1.48
201.072	-5.58
201.544	-4.88
202.017	-5.48
202.489	7.42
202.961	-7.38
203.433	-6.98
203.906	-9.78
204.378	-7.98
204.85	-7.98
205.322	-5.88
205.794	-6.88
206.266	-0.48
206.739	-1.98
207.211	-0.98
207.683	-7.88
208.155	2.02
208.627	-5.28
209.099	-1.58
209.57	-5.68
210.042	-1.68
210.514	-2.78
210.986	0.42
211.458	-9.48
211.93	-2.88
212.402	1.42
212.873	-5.88
213.345	-10.28
213.817	-8.88
214.288	-5.58
214.76	-11.88
215.232	1.22
215.703	-1.68
216.175	-2.38
216.646	-4.78
217.118	-8.98
217.589	-8.98
218.061	-5.28
218.532	-3.28
219.004	-0.48
219.475	-6.68
219.946	1.42
220.418	-0.88
220.889	6.92
221.36	0.12
221.832	-6.38
222.303	-4.98
222.774	2.92
223.245	-10.08
223.717	-7.98
224.188	-4.78
224.659	-8.78
225.13	-9.88
225.601	-0.68
226.072	-1.98
226.543	2.02
227.014	3.42
227.485	-1.78
227.956	-8.18
228.427	0.72
228.898	-5.28
229.369	0.82
229.839	-1.28
230.31	-2.68
230.781	4.92
231.252	-0.68
231.722	-3.18
232.193	1.22
232.664	5.02
233.135	-2.18
233.605	-4.58
234.076	0.32
234.546	7.02
235.017	-2.48
235.487	-4.58
235.958	-4.48
236.428	-6.08
236.899	2.02
237.369	1.32
237.84	-4.68
238.31	7.82
238.78	-0.38
239.251	4.12
239.721	1.32
240.191	2.52
240.662	5.62
241.132	-2.38
241.602	-0.18
242.072	1.92
242.542	7.42
243.013	-1.28
243.483	3.82
243.953	8.92
244.423	1.32
244.893	-2.58
245.363	2.42
245.833	-0.98
246.303	-1.08
246.773	10.72
247.243	-1.18
247.712	1.22
248.182	8.52
248.652	3.72
249.122	0.22
249.592	11.32
250.061	20.32
250.531	25.32
251.001	12.62
251.471	22.52
251.94	20.02
252.41	2.62
252.879	3.12
253.349	16.72
253.818	2.82
254.288	2.02
254.757	9.72
255.227	2.42
255.696	0.62
256.166	7.52
256.635	8.52
257.105	10.42
257.574	3.62
258.043	6.62
258.513	8.32
258.982	11.02
259.451	5.52
259.92	12.32
260.389	6.32
260.859	16.22
261.328	8.42
261.797	13.92
262.266	9.12
262.735	9.52
263.204	2.02
263.673	4.62
264.142	7.82
264.611	0.22
265.08	-1.18
265.549	3.72
266.018	7.32
266.487	-1.18
266.955	-2.28
267.424	-2.58
267.893	9.92
268.362	-0.08
268.83	2.22
269.299	14.42
269.768	10.92
270.236	9.32
270.705	0.22
271.174	7.42
271.642	5.12
272.111	9.42
272.579	14.62
273.048	21.42
273.516	23.22
273.985	31.52
274.453	21.72
274.922	18.62
275.39	9.32
275.858	4.62
276.327	19.22
276.795	17.22
277.263	8.02
277.731	27.22
278.2	55.12
278.668	52.62
279.136	42.82
279.604	18.82
280.072	10.22
280.54	8.72
281.008	7.62
281.477	9.22
281.945	13.22
282.413	7.02
282.881	14.12
283.348	11.22
283.816	9.52
284.284	6.12
284.752	19.22
285.22	14.52
285.688	16.52
286.156	18.32
286.623	41.92
287.091	49.42
287.559	26.52
288.026	16.42
288.494	15.72
288.962	6.42
289.429	7.52
289.897	16.62
290.364	8.32
290.832	18.92
291.3	14.82
291.767	14.32
292.234	19.52
292.702	9.62
293.169	17.92
293.637	21.42
294.104	21.42
294.571	10.62
295.039	12.22
295.506	10.72
295.973	17.22
296.44	16.72
296.908	13.92
297.375	16.52
297.842	17.42
298.309	16.02
298.776	14.82
299.243	23.42
299.71	14.12
300.177	18.72
300.644	19.02
301.111	19.02
301.578	23.52
302.045	13.72
302.512	21.22
302.979	22.42
303.446	22.62
303.913	18.72
304.379	20.52
304.846	26.02
305.313	22.92
305.78	19.32
306.246	27.12
306.713	25.32
307.18	22.82
307.646	26.62
308.113	29.62
308.579	28.32
309.046	32.32
309.512	25.82
309.979	17.22
310.445	32.72
310.912	24.52
311.378	30.32
311.845	28.02
312.311	31.22
312.777	28.52
313.244	27.42
313.71	37.02
314.176	33.02
314.642	26.52
315.109	33.02
315.575	31.92
316.041	40.32
316.507	31.72
316.973	34.42
317.439	30.82
317.905	32.62
318.371	36.52
318.837	29.72
319.303	33.22
319.769	34.92
320.235	35.62
320.701	37.62
321.167	37.12
321.633	33.92
322.099	39.62
322.564	43.02
323.03	35.52
323.496	38.12
323.962	35.82
324.427	32.22
324.893	38.22
325.359	34.82
325.824	33.82
326.29	31.82
326.755	26.32
327.221	34.62
327.686	41.02
328.152	43.12
328.617	36.72
329.083	49.92
329.548	49.32
330.014	47.42
330.479	41.32
330.944	44.62
331.41	42.12
331.875	46.62
332.34	42.12
332.805	47.32
333.271	45.82
333.736	43.82
334.201	43.62
334.666	53.42
335.131	55.72
335.596	49.82
336.061	50.02
336.526	43.42
336.991	46.22
337.456	54.92
337.921	45.12
338.386	37.52
338.851	42.92
339.316	50.62
339.781	42.42
340.246	51.92
340.711	49.02
341.175	48.52
341.64	41.22
342.105	48.42
342.569	50.42
343.034	56.82
343.499	57.52
343.963	49.22
344.428	62.52
344.893	63.02
345.357	61.12
345.822	62.02
346.286	74.42
346.751	70.12
347.215	67.22
347.679	69.22
348.144	97.22
348.608	79.22
349.073	67.32
349.537	75.42
350.001	75.92
350.465	83.62
350.93	77.42
351.394	79.42
351.858	67.32
352.322	81.32
352.786	78.52
353.25	94.62
353.715	109.72
354.179	103.52
354.643	123.32
355.107	126.22
355.571	104.52
356.035	100.42
356.498	122.82
356.962	125.02
357.426	130.22
357.89	118.82
358.354	91.82
358.818	80.32
359.281	82.12
359.745	78.32
360.209	77.32
360.673	82.72
361.136	86.32
361.6	82.62
362.064	78.32
362.527	84.82
362.991	86.52
363.454	74.02
363.918	73.22
364.381	77.82
364.845	88.42
365.308	81.22
365.772	76.52
366.235	87.12
366.698	86.22
367.162	84.62
367.625	84.42
368.088	90.72
368.552	89.62
369.015	91.82
369.478	97.82
369.941	97.22
370.404	99.22
370.867	103.32
371.331	109.92
371.794	120.52
372.257	111.92
372.72	115.72
373.183	112.62
373.646	104.92
374.109	110.62
374.572	111.62
375.035	108.62
375.497	111.52
375.96	112.32
376.423	107.92
376.886	113.32
377.349	114.92
377.811	103.92
378.274	99.52
378.737	105.52
379.199	114.82
379.662	115.62
380.125	117.02
380.587	124.22
381.05	126.92
381.512	133.42
381.975	137.22
382.437	130.62
382.9	128.92
383.362	133.72
383.825	139.22
384.287	144.52
384.75	152.32
385.212	139.62
385.674	139.82
386.136	144.82
386.599	133.42
387.061	133.82
387.523	130.42
387.985	136.12
388.447	146.32
388.91	147.12
389.372	159.92
389.834	161.32
390.296	144.32
390.758	158.62
391.22	168.92
391.682	210.62
392.144	312.52
392.606	240.52
393.068	170.42
393.529	168.32
393.991	157.62
394.453	150.02
394.915	156.82
395.377	201.72
395.838	218.52
396.3	163.62
396.762	142.92
397.224	135.12
397.685	131.12
398.147	130.62
398.608	132.32
399.07	134.42
399.531	139.62
399.993	144.32
400.454	153.32
400.916	145.82
401.377	145.82
401.839	147.42
402.3	149.72
402.762	166.62
403.223	178.22
403.684	172.92
404.145	165.82
404.607	160.72
405.068	163.62
405.529	166.42
405.99	186.52
406.451	175.92
406.913	177.32
407.374	166.42
407.835	164.62
408.296	164.42
408.757	175.12
409.218	188.12
409.679	184.22
410.14	179.42
410.601	184.72
411.062	190.12
411.522	191.82
411.983	195.12
412.444	183.32
412.905	188.22
413.366	177.62
413.826	197.72
414.287	219.92
414.748	268.72
415.208	249.22
415.669	213.02
416.13	207.42
416.59	199.62
417.051	221.02
417.511	221.02
417.972	240.92
418.432	246.32
418.893	298.22
419.353	246.42
419.814	196.42
420.274	189.22
420.734	187.92
421.195	205.72
421.655	197.82
422.115	198.52
422.576	194.72
423.036	201.32
423.496	205.82
423.956	215.92
424.416	233.32
424.876	269.32
425.336	263.92
425.797	263.02
426.257	261.02
426.717	241.92
427.177	233.72
427.637	232.02
428.097	245.92
428.556	252.92
429.016	273.52
429.476	269.52
429.936	275.73
430.396	286.62
430.856	294.82
431.315	324.92
431.775	360.52
432.235	382.42
432.694	362.02
433.154	370.82
433.614	399.12
434.073	347.52
434.533	294.42
434.993	280.42
435.452	279.72
435.912	298.42
436.371	292.92
436.83	286.92
437.29	274.62
437.749	256.22
438.209	253.82
438.668	280.92
439.127	300.52
439.587	268.62
440.046	252.52
440.505	256.92
440.964	277.22
441.424	322.12
441.883	312.22
442.342	260.02
442.801	227.42
443.26	219.82
443.719	219.92
444.178	218.12
444.637	214.92
445.096	215.72
445.555	222.22
446.014	226.62
446.473	227.42
446.932	241.72
447.391	223.32
447.849	228.52
448.308	218.82
448.767	231.52
449.226	243.02
449.685	241.52
450.143	253.02
450.602	239.42
451.061	230.22
451.519	234.02
451.978	233.12
452.436	236.82
452.895	244.73
453.353	256.12
453.812	240.73
454.27	241.62
454.729	244.02
455.187	241.42
455.646	251.92
456.104	246.52
456.562	263.12
457.021	266.52
457.479	263.22
457.937	277.92
458.395	263.32
458.854	242.52
459.312	254.02
459.77	276.42
460.228	246.52
460.686	240.42
461.144	257.32
461.602	248.92
462.06	252.72
462.518	259.22
462.976	256.62
463.434	260.82
463.892	261.32
464.35	273.62
464.808	286.82
465.266	269.72
465.724	264.52
466.181	272.62
466.639	274.92
467.097	279.32
467.555	299.12
468.012	295.62
468.47	303.72
468.928	326.62
469.385	348.82
469.843	352.12
470.3	351.42
470.758	359.82
471.215	393.72
471.673	414.32
472.13	406.32
472.588	422.32
473.045	368.73
473.503	383.12
473.96	403.42
474.417	408.02
474.875	438.42
475.332	477.72
475.789	468.02
476.246	472.02
476.704	494.12
477.161	508.22
477.618	530.12
478.075	572.12
478.532	621.72
478.989	707.22
479.446	817.82
479.903	778.02
480.36	821.72
480.817	874.82
481.274	979.22
481.731	1091.53
482.188	1190.32
482.645	1330.72
483.102	1433.43
483.558	1563.53
484.015	1613.72
484.472	1591.32
484.929	1533.03
485.385	1487.52
485.842	1444.72
486.299	1383.73
486.755	1322.02
487.212	1102.62
487.668	940.92
488.125	854.82
488.582	773.23
489.038	754.52
489.494	713.42
489.951	685.72
490.407	668.92
490.864	646.42
491.32	650.42
491.776	638.22
492.233	653.42
492.689	616.02
493.145	607.62
493.602	600.42
494.058	618.22
494.514	620.42
494.97	641.92
495.426	653.22
495.882	617.62
496.338	619.12
496.794	620.82
497.251	623.92
497.707	630.02
498.163	633.92
498.618	638.32
499.074	659.42
499.53	674.62
499.986	671.12
500.442	653.62
500.898	635.12
501.354	626.62
501.809	644.72
502.265	652.42
502.721	665.22
503.177	676.92
503.632	664.12
504.088	681.12
504.543	723.22
504.999	712.42
505.455	655.22
505.91	633.42
506.366	633.02
506.821	626.92
507.277	624.62
507.732	622.62
508.187	631.72
508.643	623.92
509.098	627.62
509.553	661.02
510.009	667.82
510.464	676.62
510.919	686.12
511.375	698.42
511.83	711.22
512.285	718.12
512.74	761.32
513.195	786.02
513.65	771.02
514.105	769.72
514.56	774.62
515.015	780.52
515.47	812.62
515.925	789.82
516.38	791.22
516.835	797.92
517.29	779.23
517.745	774.82
518.2	758.82
518.655	755.42
519.109	745.32
519.564	745.92
520.019	728.02
520.474	714.32
520.928	727.32
521.383	718.42
521.838	713.92
522.292	703.52
522.747	707.12
523.201	708.72
523.656	701.12
524.11	701.52
524.565	687.12
525.019	695.22
525.474	701.42
525.928	705.32
526.382	697.12
526.837	693.42
527.291	697.32
527.745	695.12
528.2	695.22
528.654	697.52
529.108	689.02
529.562	690.62
530.016	687.62
530.47	707.62
530.925	700.62
531.379	694.92
531.833	704.42
532.287	705.62
532.741	694.32
533.195	711.62
533.649	720.02
534.103	715.32
534.556	710.32
535.01	716.02
535.464	711.32
535.918	718.42
536.372	716.92
536.826	719.52
537.279	706.32
537.733	716.22
538.187	709.22
538.64	719.52
539.094	736.32
539.548	738.32
540.001	723.02
540.455	724.02
540.908	731.52
541.362	737.62
541.815	748.42
542.269	763.12
542.722	763.72
543.175	767.82
543.629	774.12
544.082	778.02
544.536	785.72
544.989	780.02
545.442	786.62
545.895	789.62
546.349	788.92
546.802	798.92
547.255	810.62
547.708	801.72
548.161	828.02
548.614	826.92
549.067	831.52
549.52	822.62
549.973	810.72
550.426	803.92
550.879	788.22
551.332	783.42
551.785	809.42
552.238	816.72
552.691	820.23
553.144	835.62
553.596	859.23
554.049	861.72
554.502	891.52
554.955	909.72
555.407	908.62
555.86	898.92
556.313	900.62
556.765	878.22
557.218	885.32
557.67	883.42
558.123	875.02
558.576	874.12
559.028	878.02
559.48	885.92
559.933	874.72
560.385	842.52
560.838	810.62
561.29	787.52
561.742	783.82
562.195	777.42
562.647	777.02
563.099	772.02
563.551	767.62
564.004	777.32
564.456	776.42
564.908	765.12
565.36	752.32
565.812	731.12
566.264	736.32
566.716	732.02
567.168	719.72
567.62	731.92
568.072	712.72
568.524	702.62
568.976	697.52
569.428	685.62
569.88	677.22
570.332	677.62
570.784	688.12
571.235	689.72
571.687	712.82
572.139	703.82
572.59	715.52
573.042	721.22
573.494	705.62
573.945	705.42
574.397	690.22
574.849	693.72
575.3	697.62
575.752	681.62
576.203	677.42
576.655	683.02
577.106	675.82
577.557	668.52
578.009	673.52
578.46	664.72
578.912	660.72
579.363	670.32
579.814	675.72
580.265	671.52
580.717	673.72
581.168	662.52
581.619	679.92
582.07	686.42
582.521	688.92
582.972	680.42
583.423	688.42
583.875	689.22
584.326	705.92
584.777	761.92
585.227	852.32
585.678	950.02
586.129	1043.22
586.58	1122.02
587.031	1213.02
587.482	1367.33
587.933	1572.12
588.384	1365.03
588.834	993.82
589.285	816.62
589.736	783.62
590.186	781.92
590.637	775.52
591.088	741.52
591.538	740.72
591.989	739.82
592.439	722.52
592.89	725.42
593.34	711.42
593.791	725.72
594.241	710.52
594.692	718.22
595.142	705.72
595.593	710.62
596.043	720.22
596.493	711.12
596.943	726.12
597.394	727.42
597.844	723.22
598.294	735.12
598.744	760.82
599.195	787.52
599.645	826.82
600.095	868.12
600.545	921.32
600.995	975.62
601.445	1027.33
601.895	1081.83
602.345	1143.62
602.795	1119.82
603.245	1069.82
603.695	1012.42
604.145	960.32
604.594	912.73
605.044	854.92
605.494	796.62
605.944	760.52
606.393	751.72
606.843	733.52
607.293	737.12
607.743	746.82
608.192	755.62
608.642	763.62
609.091	776.73
609.541	783.62
609.99	781.62
610.44	784.92
610.889	729.73
611.339	717.12
611.788	693.73
612.238	704.22
612.687	722.72
613.136	737.12
613.586	748.32
614.035	748.23
614.484	766.32
614.933	776.62
615.383	755.02
615.832	739.42
616.281	727.32
616.73	696.42
617.179	676.62
617.628	658.32
618.077	647.72
618.526	622.32
618.975	622.12
619.424	630.32
619.873	632.12
620.322	621.52
620.771	615.22
621.22	605.92
621.669	595.42
622.118	582.32
622.567	578.32
623.015	577.12
623.464	568.02
623.913	572.92
624.361	561.02
624.81	555.52
625.259	557.52
625.707	563.82
626.156	561.32
626.604	574.22
627.053	566.62
627.501	572.52
627.95	574.23
628.398	584.82
628.847	578.12
629.295	573.62
629.744	572.82
630.192	582.02
630.64	575.82
631.089	574.82
631.537	595.02
631.985	596.62
632.433	618.72
632.881	628.02
633.33	677.82
633.778	658.82
634.226	572.82
634.674	578.92
635.122	588.62
635.57	608.72
636.018	641.42
636.466	596.62
636.914	560.12
637.362	569.12
637.81	580.02
638.258	594.42
638.705	585.52
639.153	610.72
639.601	617.62
640.049	653.42
640.497	686.52
640.944	697.52
641.392	650.02
641.84	618.62
642.287	596.72
642.735	580.72
643.182	582.62
643.63	585.12
644.078	579.02
644.525	601.22
644.973	605.32
645.42	615.22
645.867	639.92
646.315	649.23
646.762	679.23
647.21	701.73
647.657	715.92
648.104	770.02
648.551	792.22
648.999	860.02
649.446	927.32
649.893	1016.82
650.34	1200.03
650.787	1421.92
651.234	1783.22
651.682	2321.53
652.129	3202.62
652.576	4617.02
653.023	6844.82
653.47	9380.82
653.917	11596.12
654.363	13330.52
654.81	14623.42
655.257	13933.33
655.704	9127.52
656.151	5385.82
656.598	3472.83
657.044	2465.73
657.491	1887.53
657.938	1511.93
658.385	1265.52
658.831	1094.92
659.278	977.52
659.724	865.52
660.171	815.42
660.618	736.12
661.064	695.73
661.511	674.52
661.957	661.62
662.404	648.42
662.85	663.02
663.296	630.72
663.743	567.12
664.189	543.32
664.635	536.42
665.082	538.52
665.528	534.72
665.974	528.72
666.42	513.12
666.867	512.42
667.313	500.12
667.759	495.12
668.205	492.02
668.651	489.12
669.097	498.52
669.543	512.82
669.989	484.32
670.435	452.42
670.881	450.12
671.327	458.82
671.773	471.42
672.219	496.22
672.665	560.32
673.11	588.32
673.556	633.52
674.002	676.72
674.448	657.92
674.893	546.02
675.339	484.92
675.785	445.42
676.23	430.32
676.676	392.62
677.122	389.72
677.567	375.22
678.013	370.92
678.458	366.22
678.904	363.42
679.349	350.52
679.794	359.82
680.24	357.62
680.685	357.72
681.131	358.32
681.576	355.02
682.021	367.32
682.466	353.22
682.912	355.72
683.357	362.02
683.802	384.73
684.247	422.12
684.692	463.72
685.137	496.42
685.583	538.22
686.028	561.72
686.473	519.02
686.918	446.42
687.363	423.42
687.807	397.82
688.252	372.02
688.697	362.22
689.142	340.32
689.587	335.02
690.032	334.02
690.477	351.12
690.921	352.52
691.366	391.12
691.811	416.42
692.255	443.52
692.7	469.32
693.145	513.02
693.589	710.52
694.034	1165.82
694.478	1567.73
694.923	1723.72
695.367	2252.83
695.812	1201.12
696.256	503.82
696.701	377.62
697.145	356.02
697.59	335.82
698.034	325.72
698.478	338.32
698.922	325.23
699.367	331.42
699.811	348.12
700.255	360.12
700.699	402.92
701.143	441.32
701.588	486.72
702.032	523.22
702.476	511.73
702.92	482.12
703.364	495.12
703.808	647.82
704.252	1055.12
704.696	1477.92
705.14	1678.62
705.584	2116.22
706.027	1063.92
706.471	520.32
706.915	405.62
707.359	360.22
707.803	328.22
708.246	323.23
708.69	310.12
709.134	322.42
709.577	315.62
710.021	324.82
710.465	311.42
710.908	312.72
711.352	301.82
711.795	312.72
712.239	359.82
712.682	397.62
713.126	412.12
713.569	466.12
714.012	376.62
714.456	330.42
714.899	309.42
715.342	280.62
715.786	258.62
716.229	260.62
716.672	259.32
717.115	258.92
717.558	259.02
718.002	260.72
718.445	271.72
718.888	293.12
719.331	297.42
719.774	315.42
720.217	304.12
720.66	286.62
721.103	271.32
721.546	259.32
721.989	250.12
722.432	239.82
722.874	243.62
723.317	234.12
723.76	241.32
724.203	262.82
724.645	328.62
725.088	455.02
725.531	577.02
725.974	647.22
726.416	548.52
726.859	312.92
727.301	255.22
727.744	243.02
728.187	240.32
728.629	240.92
729.071	249.52
729.514	262.12
729.956	274.22
730.399	289.62
730.841	288.82
731.283	271.73
731.726	266.62
732.168	262.62
732.61	271.42
733.053	288.42
733.495	321.12
733.937	361.42
734.379	400.32
734.821	450.22
735.263	549.32
735.705	863.12
736.148	1625.62
736.59	2615.12
737.032	3024.52
737.474	2456.23
737.916	815.62
738.357	431.52
738.799	333.42
739.241	297.32
739.683	283.12
740.125	290.92
740.567	301.42
741.008	315.62
741.45	321.62
741.892	320.22
742.334	348.23
742.775	362.82
743.217	338.22
743.658	280.52
744.1	250.42
744.542	264.82
744.983	313.92
745.425	348.92
745.866	346.32
746.307	286.22
746.749	287.92
747.19	335.23
747.632	474.02
748.073	923.82
748.514	1915.52
748.956	2864.93
749.397	3592.82
749.838	2994.43
750.279	2935.82
750.72	1484.73
751.162	540.02
751.603	329.62
752.044	254.12
752.485	215.32
752.926	216.82
753.367	199.52
753.808	195.62
754.249	191.12
754.69	187.42
755.131	183.52
755.572	185.92
756.013	188.12
756.453	184.92
756.894	197.12
757.335	194.12
757.776	194.82
758.216	195.92
758.657	204.82
759.098	205.42
759.538	232.52
759.979	266.42
760.42	382.12
760.86	732.72
761.301	1909.53
761.741	4518.82
762.182	6325.23
762.622	4451.12
763.063	1309.93
763.503	545.32
763.943	353.82
764.384	364.32
764.824	429.12
765.264	468.42
765.705	326.52
766.145	216.12
766.585	191.62
767.025	186.62
767.465	193.92
767.906	253.12
768.346	337.82
768.786	367.62
769.226	276.72
769.666	333.82
770.106	643.92
770.546	1613.93
770.986	2637.52
771.426	2328.23
771.866	792.42
772.306	330.02
772.745	212.12
773.185	175.32
773.625	178.42
774.065	171.22
774.505	205.02
774.944	332.52
775.384	728.92
775.824	1281.92
776.263	1233.12
776.703	520.32
777.142	228.22
777.582	160.82
778.021	146.12
778.461	146.42
778.9	140.22
779.34	134.12
779.779	119.32
780.219	113.02
780.658	114.02
781.097	106.92
781.537	114.82
781.976	109.42
782.415	113.82
782.855	106.72
783.294	106.32
783.733	111.02
784.172	111.02
784.611	108.22
785.05	113.22
785.489	118.22
785.928	116.62
786.367	125.02
786.806	120.92
787.245	132.42
787.684	134.92
788.123	147.52
788.562	145.42
789.001	131.32
789.44	122.82
789.879	120.92
790.317	121.52
790.756	132.22
791.195	124.72
791.634	149.02
792.072	210.62
792.511	380.73
792.95	1034.32
793.388	2157.12
793.827	1916.22
794.265	680.32
794.704	278.22
795.142	188.22
795.581	154.92
796.019	136.22
796.458	132.52
796.896	122.62
797.334	135.12
797.773	159.12
798.211	227.72
798.649	460.42
799.087	1049.62
799.526	1610.62
799.964	2036.12
800.402	1988.03
800.84	750.82
801.278	303.42
801.716	182.22
802.154	154.32
802.592	142.02
803.03	149.82
803.468	132.42
803.906	152.12
804.344	152.02
804.782	144.92
805.22	138.12
805.658	135.02
806.096	153.32
806.533	156.72
806.971	181.72
807.409	221.22
807.847	321.42
808.284	687.92
808.722	1914.42
809.16	3284.13
809.597	3176.52
810.035	5462.82
810.472	5680.12
810.91	2064.72
811.347	796.42
811.785	408.02
812.222	258.12
812.66	194.32
813.097	163.22
813.535	142.12
813.972	133.22
814.409	121.12
814.846	108.52
815.284	108.72
815.721	106.52
816.158	108.82
816.595	125.42
817.032	177.12
817.47	194.92
817.907	160.02
818.344	151.12
818.781	117.32
819.218	101.62
819.655	123.52
820.092	183.82
820.529	211.02
820.966	175.42
821.403	136.02
821.839	106.52
822.276	102.82
822.713	126.22
823.15	139.62
823.587	119.82
824.023	151.42
824.46	316.73
824.897	914.52
825.333	1343.03
825.77	579.02
826.206	231.82
826.643	141.82
827.08	106.52
827.516	84.62
827.953	79.82
828.389	83.32
828.825	72.72
829.262	66.22
829.698	61.82
830.135	65.82
830.571	65.02
831.007	72.82
831.443	62.12
831.88	56.52
832.316	66.82
832.752	63.32
833.188	62.72
833.624	66.72
834.06	68.52
834.497	75.92
834.933	74.92
835.369	77.82
835.805	67.92
836.241	73.32
836.677	86.22
837.112	91.52
837.548	111.42
837.984	132.62
838.42	204.12
838.856	511.92
839.292	1544.53
839.727	2268.93
840.163	1070.12
840.599	951.92
841.034	2052.62
841.47	2093.62
841.906	767.42
842.341	335.12
842.777	238.62
843.212	333.22
843.648	320.92
844.083	159.92
844.519	103.02
844.954	75.72
845.39	58.02
845.825	56.42
846.261	54.12
846.696	55.52
847.131	56.32
847.566	56.02
848.002	61.42
848.437	51.82
848.872	60.12
849.307	65.32
849.742	92.52
850.177	185.82
850.613	568.42
851.048	870.12
851.483	376.12
851.918	158.52
852.353	89.72
852.788	62.22
853.223	58.92
853.657	52.72
854.092	51.92
854.527	43.02
854.962	45.12
855.397	46.92
855.832	43.42
856.266	47.42
856.701	39.62
857.136	39.52
857.57	43.42
858.005	49.92
858.44	64.42
858.874	47.22
859.309	50.52
859.743	40.22
860.178	38.12
860.612	37.22
861.047	52.02
861.481	68.22
861.915	76.02
862.35	50.72
862.784	33.72
863.218	39.12
863.653	31.32
864.087	47.12
864.521	58.52
864.955	73.72
865.39	160.22
865.824	170.52
866.258	112.52
866.692	155.62
867.126	166.02
867.56	97.32
867.994	53.12
868.428	43.02
868.862	43.42
869.296	53.72
869.73	62.62
870.164	53.92
870.598	50.62
871.031	37.42
871.465	34.32
871.899	35.02
872.333	28.92
872.766	21.72
873.2	23.22
873.634	36.32
874.067	28.72
874.501	30.72
874.935	35.52
875.368	32.92
875.802	28.12
876.235	20.32
876.669	26.52
877.102	24.82
877.535	24.82
877.969	21.52
878.402	23.42
878.836	18.12
879.269	23.82
879.702	26.92
880.135	29.12
880.569	31.12
881.002	30.32
881.435	19.02
881.868	16.12
882.301	20.72
882.734	18.12
883.167	21.52
883.601	18.52
884.034	24.02
884.467	11.92
884.899	12.12
885.332	14.62
885.765	14.12
886.198	16.72
886.631	16.92
887.064	16.52
887.497	19.82
887.929	28.22
888.362	16.72
888.795	13.82
889.228	19.32
889.66	18.92
890.093	18.32
890.526	16.82
890.958	14.72
891.391	14.82
891.823	18.32
892.256	20.72
892.688	17.02
893.121	18.42
893.553	19.72
893.985	27.32
894.418	18.22
894.85	12.32
895.282	14.82
895.715	23.22
896.147	17.22
896.579	14.62
897.011	15.92
897.444	15.22
897.876	13.42
898.308	14.92
898.74	19.12
899.172	9.82
899.604	23.82
900.036	23.72
900.468	17.32
900.9	12.52
901.332	18.52
901.764	13.72
902.196	16.52
902.628	18.92
903.06	17.12
903.491	28.02
903.923	23.32
904.355	19.32
904.787	27.52
905.218	24.52
905.65	26.42
906.082	15.52
906.513	10.42
906.945	11.52
907.376	18.22
907.808	17.62
908.239	26.62
908.671	16.62
909.102	24.42
909.534	28.32
909.965	47.52
910.397	94.02
910.828	315.52
911.259	462.52
911.691	219.72
912.122	109.12
912.553	54.12
912.984	30.32
913.415	26.42
913.847	26.02
914.278	14.62
914.709	9.92
915.14	21.92
915.571	17.82
916.002	9.72
916.433	24.12
916.864	20.32
917.295	17.02
917.726	21.72
918.157	24.02
918.587	31.72
919.018	20.62
919.449	21.52
919.88	28.02
920.311	35.32
920.741	58.22
921.172	177.02
921.603	153.52
922.033	68.92
922.464	45.22
922.895	25.72
923.325	17.82
923.756	14.42
924.186	13.12
924.617	26.32
925.047	52.42
925.478	57.12
925.908	44.42
926.338	24.12
926.769	20.02
927.199	15.22
927.629	9.62
928.06	13.62
928.49	14.42
928.92	13.72
929.35	11.52
929.78	12.12
930.21	9.62
930.641	8.32
931.071	5.22
931.501	3.92
931.931	7.82
932.361	5.92
932.791	6.32
933.221	3.02
933.651	4.92
934.08	16.72
934.51	30.62
934.94	7.92
935.37	10.72
935.8	14.02
936.229	8.82
936.659	9.72
937.089	-0.18
937.519	16.42
937.948	22.22
938.378	11.72
938.807	9.12
939.237	6.42
939.666	12.12
940.096	-1.88
940.525	8.22
940.955	-1.38
941.384	6.12
941.814	-8.98
942.243	-1.78
942.672	1.32
943.102	-7.88
943.531	-4.68
943.96	11.02
944.39	-6.18
944.819	4.22
945.248	2.52
945.677	1.72
946.106	5.52
946.535	8.32
946.964	3.52
947.393	3.92
947.822	3.92
948.251	-5.28
948.68	5.22
949.109	7.42
949.538	11.22
949.967	-0.38
950.396	1.02
950.825	-0.38
951.254	3.32
951.682	-1.58
952.111	5.72
952.54	10.62
952.969	-1.28
953.397	-3.68
953.826	4.82
954.254	-0.38
954.683	2.12
955.112	-5.98
955.54	0.82
955.969	1.52
956.397	-1.48
956.826	0.72
957.254	1.12
957.682	2.12
958.111	3.42
958.539	0.92
958.967	1.12
959.396	3.12
959.824	3.02
960.252	0.32
960.68	-10.28
961.109	-6.28
961.537	-7.58
961.965	-0.88
962.393	-1.28
962.821	-5.28
963.249	-3.68
963.677	4.72
964.105	4.92
964.533	44.42
964.961	38.32
965.389	21.42
965.817	13.42
966.245	0.92
966.672	-1.28
967.1	-11.48
967.528	-3.98
967.956	-4.58
968.383	-1.28
968.811	-2.38
969.239	-3.58
969.666	-4.18
970.094	-2.08
970.522	0.52
970.949	-3.68
971.377	-5.08
971.804	-4.38
972.232	-1.98
972.659	-2.28
973.087	-4.98
973.514	-4.48
973.941	-2.98
974.369	1.62
974.796	-0.28
975.223	-2.98
975.651	-6.78
976.078	-1.68
976.505	0.22
976.932	5.72
977.359	14.02
977.786	9.82
978.214	0.52
978.641	-2.88
979.068	-5.88
979.495	-3.78
979.922	-2.58
980.349	4.62
980.776	5.32
981.202	0.42
981.629	1.42
982.056	5.02
982.483	2.92
982.91	1.62
983.337	-1.78
983.763	2.22
984.19	-4.08
984.617	-6.78
985.043	-3.08
985.47	0.22
985.897	-7.18
986.323	-2.18
986.75	2.62
987.176	-2.98
987.603	4.72
988.029	-0.28
988.456	-5.08
988.882	4.82
989.308	-3.88
989.735	-2.28
990.161	1.82
990.587	-13.18
991.014	-1.18
991.44	8.52
991.866	-8.88
992.292	-3.98
992.719	-6.98
993.145	8.32
993.571	-13.58
993.997	-7.58
994.423	0.92
994.849	-5.38
995.275	-2.68
995.701	-2.78
996.127	-2.78
996.553	6.92
996.979	-8.28
997.405	-6.28
997.83	-3.18
998.256	-8.18
998.682	-3.08
999.108	-5.18
999.534	-1.18
999.959	-3.08
1000.385	-8.98
1000.811	-0.18
1001.236	-5.88
1001.662	-7.58
1002.087	-10.08
1002.513	0.12
1002.938	5.82
1003.364	-0.88
1003.789	-7.58
1004.215	0.32
1004.64	-1.98
1005.066	-0.48
1005.491	-5.78
1005.916	-5.78
1006.342	-1.98
1006.767	-7.48
1007.192	4.92
1007.617	-2.28
1008.042	-9.18
1008.468	-7.88
1008.893	-4.58
1009.318	-1.08
1009.743	-3.78
1010.168	3.72
1010.593	-0.38
1011.018	-4.38
1011.443	3.02
1011.868	-4.48
1012.293	-1.38
1012.718	-6.78
1013.143	8.12
1013.567	1.22
1013.992	-3.68
1014.417	-11.98
1014.842	-0.18
1015.267	-0.88
1015.691	-7.88
1016.116	2.42
1016.541	0.12
1016.965	5.32
1017.39	0.32
1017.814	-0.68
1018.239	-1.18
1018.663	-7.68
1019.088	-13.68
1019.512	-1.78
1019.937	-2.08
1020.361	-9.18
1020.785	-14.28
1021.21	-8.78
1021.634	-3.58
1022.058	-1.68
1022.483	1.82
1022.907	-0.08
1023.331	-3.78
1023.755	-0.58
1024.179	-5.18
1024.604	-8.58
1025.028	-9.08
1025.452	-6.68
1025.876	-4.58
1026.3	-0.78
1026.724	-10.58
1027.148	-7.08
1027.572	-4.78
1027.996	-2.38
1028.42	-0.48
1028.843	-0.48
1029.267	-4.88
1029.691	-2.58
1030.115	-6.18
1030.539	-12.68
1030.962	-6.88
1031.386	-4.58
1031.81	-0.88
1032.233	1.32
1032.657	-1.08
1033.08	-8.48
1033.504	-2.48
1033.927	-1.18
1034.351	0.12
1034.774	-9.88
1035.198	-4.98
1035.621	-11.28
1036.045	-10.38
1036.468	-1.18
1036.891	-10.58
1037.315	-9.08
1037.738	-8.38
1038.161	1.12
1038.584	-9.38
1039.008	-8.98
1039.431	-4.48
1039.854	-2.28
1040.277	-6.98
1040.7	-8.38
1041.123	-5.88
1041.546	-3.28
1041.969	-5.88
1042.392	-9.18
1042.815	-5.98
1043.238	-6.98
1043.661	-2.08
1044.084	-6.38
1044.507	-5.88
1044.93	-9.68
1045.352	-2.68
1045.775	-6.18
1046.198	-2.58
1046.621	-5.98
1047.043	-5.08
1047.466	2.02
1047.889	-8.98
1048.311	-4.68
1048.734	-7.08
1049.156	-6.38
1049.579	-1.38
1050.001	-6.08
1050.424	-0.58
1050.846	0.62
1051.269	-7.48
1051.691	-10.88
1052.113	-9.78
1052.536	-4.88
1052.958	-2.98
1053.38	-2.38
1053.802	-13.18
1054.225	4.62
1054.647	-13.18
1055.069	-3.08
1055.491	1.32
1055.913	-6.88
1056.335	-5.48
1056.757	-2.98
1057.179	0.72
1057.601	-5.78
1058.023	-0.48
1058.445	-7.78
1058.867	-5.88
1059.289	-5.48
1059.711	-5.38
1060.133	-0.28
1060.555	-5.38
1060.976	-9.88
1061.398	-8.58
1061.82	-13.98
1062.241	-9.18
1062.663	-5.28
1063.085	-7.38
1063.506	2.12
1063.928	-3.38
1064.35	0.22
1064.771	-9.98
1065.193	-4.68
1065.614	-11.18
1066.035	-5.68
1066.457	-3.78
1066.878	-3.48
1067.3	-4.98
1067.721	-11.08
1068.142	-3.68
1068.564	-5.58
1068.985	-7.48
1069.406	-6.58
1069.827	-6.28
1070.248	-1.98
1070.67	-3.18
1071.091	-6.88
1071.512	-5.78
1071.933	-0.88
1072.354	-11.98
1072.775	-11.78
1073.196	-13.08
1073.617	-8.48
1074.038	-10.18
1074.459	-5.78
1074.88	-7.28
1075.3	-1.18
1075.721	-6.18
1076.142	-3.18
1076.563	1.42
1076.983	-10.78
1077.404	-10.18
1077.825	-7.58
1078.246	-7.48
1078.666	-5.98
1079.087	-3.58
1079.507	-4.58
1079.928	-3.78
1080.348	-0.38
1080.769	-7.08
1081.189	-2.78
1081.61	-6.38
1082.03	-9.38
1082.451	-7.18
1082.871	-5.98
1083.291	-5.68
1083.711	-12.48
1084.132	-5.28
1084.552	-2.88
1084.972	0.62
1085.392	-9.98
1085.813	-10.48
1086.233	-8.68
1086.653	-6.98
1087.073	-5.08
1087.493	-7.48
1087.913	-2.28
1088.333	-4.68
1088.753	1.72
1089.173	-1.68
1089.593	-8.68
1090.013	2.92
1090.433	-1.28
1090.852	-4.98
1091.272	-2.68
1091.692	2.12
1092.112	-6.28
1092.531	-9.58
1092.951	-17.08
1093.371	-0.98
1093.79	-6.18
1094.21	-5.88
1094.63	-4.68
1095.049	-11.38
1095.469	-2.18
1095.888	-9.98
1096.308	1.52
1096.727	7.02
1097.146	-7.08
1097.566	0.62
1097.985	-12.28
1098.405	-1.98
1098.824	-14.78
1099.243	-9.18
1099.662	-12.28
1100.082	-2.78
1100.501	1.62
1100.92	-4.78
1101.339	-0.98
1101.758	-2.68
