Data from 20171114-ORNL-Ar_H_NY_Subt18_08-05-22-590.txt Node
Date: Tue Nov 14 08:05:22 EST 2017
User: Ender
Spectrometer: HR+D1039
Trigger mode: 0
Integration Time (sec): 2.730000E-2
Scans to average: 10
Electric dark correction enabled: true
Nonlinearity correction enabled: false
Boxcar width: 0
XAxis mode: Wavelengths
Number of Pixels in Spectrum: 2048
>>>>>Begin Spectral Data<<<<<
187.836	-1.1
188.309	-1.1
188.782	-1.1
189.255	1.6
189.728	0.8
190.201	6.5
190.674	-2
191.147	7.4
191.619	-3
192.092	1.9
192.565	-1.4
193.038	-1.6
193.511	-2.5
193.984	-7.1
194.456	0.5
194.929	-2.1
195.402	0.5
195.874	1.6
196.347	3.7
196.82	-6.2
197.292	4
197.765	-0.5
198.237	-5.4
198.71	2.9
199.182	-2
199.655	4.4
200.127	0.4
200.6	0.3
201.072	-2.9
201.544	-6.6
202.017	-2.3
202.489	-1.2
202.961	-2.7
203.433	-3.4
203.906	-6.5
204.378	-12.1
204.85	-2.3
205.322	-10.9
205.794	-3.6
206.266	-6.7
206.739	-10.5
207.211	2.1
207.683	-7.7
208.155	-11.6
208.627	-5.7
209.099	0.2
209.57	-15.4
210.042	-8.5
210.514	-2.6
210.986	-2.5
211.458	-12.2
211.93	-10.5
212.402	3.3
212.873	-4.4
213.345	-4.4
213.817	-10.4
214.288	-2.6
214.76	-8.4
215.232	1.6
215.703	-6
216.175	-6.7
216.646	-3.2
217.118	-8.3
217.589	-2.8
218.061	-2.8
218.532	-2.4
219.004	-1.4
219.475	-5.1
219.946	-0.7
220.418	-3.1
220.889	3.3
221.36	2.5
221.832	-2.5
222.303	-5.9
222.774	2.3
223.245	-8.2
223.717	-8.3
224.188	-5.2
224.659	-7.3
225.13	4
225.601	-4.5
226.072	1.5
226.543	0.3
227.014	3
227.485	-0.6
227.956	-2.8
228.427	0.1
228.898	-3.9
229.369	5.4
229.839	-2.9
230.31	0.3
230.781	1.8
231.252	-4.2
231.722	-2.1
232.193	1.1
232.664	-4.4
233.135	-0
233.605	-4.9
234.076	-5.2
234.546	5.2
235.017	7.1
235.487	0.3
235.958	2.4
236.428	-5.3
236.899	1.9
237.369	0.9
237.84	1.1
238.31	5.5
238.78	5.3
239.251	-2.2
239.721	5.8
240.191	4.4
240.662	-0.2
241.132	5.7
241.602	-1.1
242.072	-1.4
242.542	7.3
243.013	0.7
243.483	3.8
243.953	10.6
244.423	1
244.893	-3.6
245.363	1.6
245.833	0.2
246.303	-3.3
246.773	9.6
247.243	4.5
247.712	6.2
248.182	8.5
248.652	5
249.122	-0
249.592	4.4
250.061	24.7
250.531	38.1
251.001	22.5
251.471	23.6
251.94	21.4
252.41	3.7
252.879	-4.2
253.349	14.2
253.818	8.3
254.288	6.3
254.757	10.2
255.227	4.8
255.696	5.4
256.166	9.8
256.635	12
257.105	9.3
257.574	11.5
258.043	10
258.513	13.8
258.982	23.2
259.451	6.1
259.92	16.2
260.389	11.9
260.859	18.5
261.328	12.9
261.797	19.1
262.266	11.8
262.735	8.9
263.204	2.5
263.673	3.3
264.142	9.3
264.611	-0.8
265.08	6.9
265.549	-3.2
266.018	7.8
266.487	2.6
266.955	-1.8
267.424	-1.7
267.893	3.6
268.362	-0.4
268.83	2.5
269.299	8.7
269.768	0.3
270.236	10.4
270.705	2.1
271.174	4.7
271.642	10.6
272.111	15.3
272.579	23.8
273.048	27.9
273.516	28.1
273.985	33.3
274.453	29.6
274.922	15
275.39	14.2
275.858	9
276.327	9.5
276.795	21.2
277.263	10.7
277.731	31.2
278.2	56.5
278.668	66.2
279.136	47.4
279.604	24.2
280.072	18.1
280.54	14.5
281.008	7.7
281.477	17.3
281.945	14.5
282.413	13.2
282.881	16.6
283.348	3.2
283.816	19.1
284.284	15.9
284.752	19
285.22	15.3
285.688	18.9
286.156	20.4
286.623	45.3
287.091	59.5
287.559	26.8
288.026	18.6
288.494	20.4
288.962	13.3
289.429	12.8
289.897	19.2
290.364	15.9
290.832	20.2
291.3	17.1
291.767	20.8
292.234	22.9
292.702	17.4
293.169	23.4
293.637	21.7
294.104	19.9
294.571	7.1
295.039	18.2
295.506	16.9
295.973	21.2
296.44	19.6
296.908	18.5
297.375	18.8
297.842	22
298.309	19.2
298.776	19.3
299.243	23.6
299.71	21.5
300.177	23.3
300.644	23.5
301.111	26.6
301.578	23.7
302.045	18.8
302.512	22.7
302.979	23
303.446	21.6
303.913	24.1
304.379	23.7
304.846	33.8
305.313	23.5
305.78	22.2
306.246	33.9
306.713	31.5
307.18	26.7
307.646	29.4
308.113	28.6
308.579	22.6
309.046	27
309.512	23.5
309.979	25.2
310.445	25.1
310.912	31.4
311.378	30.8
311.845	23.8
312.311	33.9
312.777	36
313.244	31.8
313.71	40.9
314.176	31.1
314.642	32.4
315.109	39
315.575	40.3
316.041	42.3
316.507	35
316.973	41.8
317.439	36.2
317.905	38.4
318.371	35.4
318.837	31.5
319.303	33.8
319.769	35.6
320.235	33.6
320.701	36.5
321.167	42.6
321.633	38.7
322.099	40.5
322.564	51.3
323.03	41.5
323.496	42.7
323.962	44.9
324.427	41.3
324.893	40.3
325.359	34.7
325.824	33.5
326.29	34
326.755	46.2
327.221	41.2
327.686	39
328.152	48.7
328.617	44.8
329.083	38.8
329.548	48
330.014	49.4
330.479	37.4
330.944	46.9
331.41	41.7
331.875	47
332.34	44.2
332.805	50.9
333.271	47.8
333.736	46.2
334.201	49
334.666	53.2
335.131	56.1
335.596	53
336.061	57.6
336.526	45.4
336.991	51.4
337.456	54.5
337.921	49.7
338.386	48.5
338.851	44.3
339.316	50.2
339.781	45.3
340.246	53.8
340.711	44.7
341.175	54.6
341.64	45.2
342.105	51.4
342.569	58.9
343.034	62.7
343.499	59
343.963	54.4
344.428	65.9
344.893	60.2
345.357	62.9
345.822	61.2
346.286	68.3
346.751	73.5
347.215	65.5
347.679	74.6
348.144	102
348.608	82.9
349.073	69.5
349.537	77.5
350.001	79.7
350.465	91
350.93	83.4
351.394	87.5
351.858	78
352.322	88
352.786	88.3
353.25	105.3
353.715	114.9
354.179	102.6
354.643	122
355.107	131.6
355.571	112.9
356.035	104.4
356.498	121.7
356.962	127.2
357.426	135.1
357.89	126.9
358.354	97.9
358.818	94.7
359.281	83.6
359.745	74.9
360.209	82.1
360.673	77.5
361.136	86.1
361.6	89.9
362.064	84.7
362.527	85.6
362.991	94.1
363.454	79.8
363.918	79.5
364.381	79.2
364.845	80.2
365.308	85.9
365.772	83.6
366.235	94.7
366.698	87.4
367.162	89.4
367.625	87.3
368.088	90
368.552	91.1
369.015	95.4
369.478	94.3
369.941	95.4
370.404	93.6
370.867	106.4
371.331	105.8
371.794	114.8
372.257	109
372.72	123.5
373.183	107.9
373.646	97.7
374.109	100.3
374.572	106.7
375.035	102.5
375.497	109.4
375.96	112.2
376.423	104
376.886	115.7
377.349	114.9
377.811	107.8
378.274	108.1
378.737	112.8
379.199	115.6
379.662	109.1
380.125	119.7
380.587	116.9
381.05	126.8
381.512	134.1
381.975	130.6
382.437	123.4
382.9	126.9
383.362	132
383.825	142.4
384.287	148.7
384.75	144.7
385.212	140.5
385.674	148.5
386.136	139.7
386.599	131.3
387.061	130.7
387.523	126.7
387.985	133.9
388.447	141.8
388.91	143.6
389.372	153.6
389.834	152.8
390.296	145.7
390.758	152.4
391.22	168.7
391.682	202.3
392.144	293.8
392.606	228.7
393.068	169.1
393.529	165.4
393.991	153
394.453	144.4
394.915	152
395.377	197.4
395.838	215.7
396.3	156.3
396.762	136.5
397.224	138.8
397.685	130.1
398.147	126.4
398.608	134.6
399.07	130
399.531	141.7
399.993	140.1
400.454	155.8
400.916	141.9
401.377	154.1
401.839	148.4
402.3	152.3
402.762	167.3
403.223	186.8
403.684	171.7
404.145	163.6
404.607	161.9
405.068	163.5
405.529	173.2
405.99	186.8
406.451	174.9
406.913	167.9
407.374	164.6
407.835	157.5
408.296	166.3
408.757	181.4
409.218	184.6
409.679	186.9
410.14	172.2
410.601	171.7
411.062	194.8
411.522	195.6
411.983	190.5
412.444	174.5
412.905	182.4
413.366	184.3
413.826	197
414.287	216.1
414.748	261.2
415.208	244.7
415.669	212.9
416.13	208.5
416.59	195.6
417.051	207.9
417.511	220.5
417.972	237.3
418.432	236.4
418.893	286.8
419.353	250.7
419.814	195.6
420.274	188.9
420.734	185.6
421.195	199.7
421.655	195.7
422.115	188.3
422.576	201.5
423.036	200.1
423.496	211
423.956	214.4
424.416	224.3
424.876	262.1
425.336	260.8
425.797	256.7
426.257	257.8
426.717	243.3
427.177	235
427.637	222.9
428.097	241.3
428.556	246
429.016	267.7
429.476	262.9
429.936	269.9
430.396	280.6
430.856	283.6
431.315	313.9
431.775	354.9
432.235	386.3
432.694	351.5
433.154	363.6
433.614	390.5
434.073	337.8
434.533	285.3
434.993	273.8
435.452	276.1
435.912	292.6
436.371	296.1
436.83	288.7
437.29	260
437.749	247.9
438.209	247.4
438.668	272.6
439.127	290.5
439.587	257.4
440.046	242.7
440.505	263.3
440.964	277
441.424	322.5
441.883	318.2
442.342	262.3
442.801	229.1
443.26	224.1
443.719	218
444.178	219.3
444.637	211.9
445.096	220.8
445.555	219.4
446.014	222.9
446.473	228.5
446.932	234.3
447.391	221.5
447.849	226.6
448.308	219.1
448.767	224.9
449.226	234.3
449.685	233
450.143	249.7
450.602	229.7
451.061	225.2
451.519	227.6
451.978	231.9
452.436	232.1
452.895	250.8
453.353	244.7
453.812	242.3
454.27	241.3
454.729	230.5
455.187	242.8
455.646	251.2
456.104	243.7
456.562	251.4
457.021	258
457.479	251.4
457.937	268.2
458.395	268.5
458.854	245.4
459.312	260.5
459.77	276.1
460.228	253.8
460.686	239.6
461.144	251.9
461.602	239.8
462.06	238.6
462.518	251.8
462.976	249.9
463.434	261.7
463.892	260.9
464.35	280
464.808	288.4
465.266	264.2
465.724	265.6
466.181	270.9
466.639	272.4
467.097	294
467.555	298
468.012	298.9
468.47	313.2
468.928	325.8
469.385	343.3
469.843	355.6
470.3	356.2
470.758	357.8
471.215	392.5
471.673	414.4
472.13	404.7
472.588	410.7
473.045	371.2
473.503	379.6
473.96	389
474.417	405.7
474.875	432.3
475.332	472.8
475.789	461.2
476.246	459.6
476.704	490.7
477.161	510.5
477.618	523.6
478.075	557.4
478.532	615.6
478.989	691.5
479.446	818.5
479.903	769.9
480.36	811.2
480.817	874.5
481.274	973.1
481.731	1071.2
482.188	1165.2
482.645	1308.8
483.102	1417.5
483.558	1560.9
484.015	1602.7
484.472	1571.9
484.929	1513.7
485.385	1480.1
485.842	1445.6
486.299	1377.8
486.755	1315.1
487.212	1108.8
487.668	926.4
488.125	840.2
488.582	778.3
489.038	751.7
489.494	714
489.951	692
490.407	662
490.864	650.8
491.32	646.1
491.776	644.3
492.233	642.2
492.689	610.5
493.145	606
493.602	597.1
494.058	618.7
494.514	616.1
494.97	645
495.426	648.8
495.882	637.7
496.338	617.6
496.794	627
497.251	622.1
497.707	640
498.163	638.7
498.618	641.6
499.074	647.6
499.53	682.7
499.986	677.6
500.442	651.9
500.898	630.2
501.354	625
501.809	641.6
502.265	648.4
502.721	661.9
503.177	663.1
503.632	657.1
504.088	673.8
504.543	707.7
504.999	707.2
505.455	662.5
505.91	649.3
506.366	630.6
506.821	619.2
507.277	625.9
507.732	621.7
508.187	622.1
508.643	632.8
509.098	630.9
509.553	645.2
510.009	657.5
510.464	651.5
510.919	677.8
511.375	698.9
511.83	703.6
512.285	720
512.74	763.8
513.195	788.9
513.65	775.8
514.105	768.8
514.56	779.8
515.015	804.7
515.47	819.5
515.925	789.7
516.38	787.3
516.835	798.9
517.29	784.3
517.745	774.2
518.2	767.7
518.655	758.1
519.109	726.9
519.564	735.9
520.019	723.3
520.474	734.9
520.928	728.2
521.383	721.3
521.838	712.4
522.292	706
522.747	704.8
523.201	702.7
523.656	697.2
524.11	679.7
524.565	696
525.019	685.9
525.474	698
525.928	698.5
526.382	697.4
526.837	695.3
527.291	698.2
527.745	691.5
528.2	693.2
528.654	693.4
529.108	686.5
529.562	680.7
530.016	678.8
530.47	681.3
530.925	696.2
531.379	697.7
531.833	703.1
532.287	703
532.741	699.8
533.195	705.1
533.649	717.4
534.103	726.7
534.556	711.7
535.01	718
535.464	705
535.918	717.8
536.372	720.8
536.826	715.7
537.279	703.8
537.733	705.8
538.187	712
538.64	711.5
539.094	719.9
539.548	720.7
540.001	723.1
540.455	720
540.908	728
541.362	737.2
541.815	749.3
542.269	751.9
542.722	753.8
543.175	763.1
543.629	765.6
544.082	775.3
544.536	763.7
544.989	781.1
545.442	789.7
545.895	788.1
546.349	773.2
546.802	788.4
547.255	789.8
547.708	799.4
548.161	816.6
548.614	815
549.067	825.9
549.52	808.1
549.973	793.4
550.426	793.9
550.879	795.6
551.332	796.6
551.785	799.6
552.238	798.9
552.691	816.7
553.144	825.5
553.596	840.4
554.049	859.9
554.502	885.1
554.955	903.4
555.407	905.2
555.86	887.2
556.313	885.3
556.765	868.6
557.218	877.1
557.67	872.4
558.123	867.9
558.576	856.6
559.028	874.9
559.48	876.1
559.933	859.4
560.385	821.6
560.838	795.4
561.29	777.2
561.742	769.2
562.195	746.9
562.647	755.6
563.099	767.9
563.551	758.3
564.004	779.5
564.456	765.3
564.908	759.1
565.36	736.2
565.812	723
566.264	716.9
566.716	712.1
567.168	712.3
567.62	717.1
568.072	691.2
568.524	682.1
568.976	675.9
569.428	669.3
569.88	662.6
570.332	662.8
570.784	669.1
571.235	675
571.687	687.9
572.139	685.9
572.59	702.4
573.042	698.3
573.494	692.9
573.945	691.7
574.397	671.3
574.849	672.9
575.3	688.9
575.752	673.2
576.203	669.4
576.655	679.2
577.106	656.3
577.557	649.7
578.009	647.8
578.46	656.5
578.912	650.6
579.363	655.5
579.814	653.3
580.265	659.6
580.717	654.2
581.168	657.9
581.619	661.9
582.07	674
582.521	654.4
582.972	659.6
583.423	669.4
583.875	666.2
584.326	693.1
584.777	727.9
585.227	802.7
585.678	889.5
586.129	970.6
586.58	1048.3
587.031	1127.7
587.482	1302.9
587.933	1458.3
588.384	1270.6
588.834	962.6
589.285	793.5
589.736	764.6
590.186	751.3
590.637	742.9
591.088	730.5
591.538	720.7
591.989	714.1
592.439	711.2
592.89	704.1
593.34	697.4
593.791	685.7
594.241	686.1
594.692	693.3
595.142	684.5
595.593	684.2
596.043	680.8
596.493	696.6
596.943	695.1
597.394	697.1
597.844	698
598.294	716.1
598.744	737.6
599.195	758.8
599.645	793.5
600.095	828
600.545	886.4
600.995	931.7
601.445	992.8
601.895	1056.4
602.345	1100.9
602.795	1081.4
603.245	1042.7
603.695	990.4
604.145	914.4
604.594	887.7
605.044	833.8
605.494	784.9
605.944	730.8
606.393	718.8
606.843	708.2
607.293	700
607.743	711.2
608.192	715.2
608.642	738.3
609.091	750.5
609.541	744.3
609.99	753.9
610.44	742.5
610.889	711.2
611.339	680.5
611.788	674.6
612.238	664.8
612.687	693.1
613.136	698.8
613.586	710.9
614.035	703.7
614.484	727.9
614.933	731.2
615.383	724.5
615.832	715.4
616.281	699.5
616.73	660.8
617.179	630.9
617.628	627.9
618.077	608.3
618.526	599.2
618.975	596.5
619.424	589.9
619.873	592.4
620.322	596.1
620.771	587.7
621.22	583.1
621.669	572.2
622.118	563.4
622.567	563.2
623.015	554.1
623.464	546.2
623.913	536.4
624.361	534.3
624.81	533.2
625.259	526.8
625.707	540.7
626.156	530.5
626.604	544.4
627.053	536.4
627.501	538.4
627.95	551.6
628.398	564
628.847	546.6
629.295	548
629.744	554.8
630.192	539.4
630.64	554.7
631.089	544.8
631.537	542
631.985	562.9
632.433	571.3
632.881	584.3
633.33	638.5
633.778	609.6
634.226	536
634.674	542.3
635.122	560
635.57	579.6
636.018	606.1
636.466	558.3
636.914	530.4
637.362	546.3
637.81	550
638.258	551.4
638.705	557.3
639.153	576.3
639.601	590.4
640.049	610.8
640.497	657.9
640.944	658.2
641.392	613.1
641.84	583.7
642.287	560.7
642.735	545.2
643.182	538.3
643.63	552.3
644.078	556.9
644.525	570.6
644.973	567.7
645.42	572.1
645.867	595.4
646.315	606.9
646.762	628.4
647.21	658.1
647.657	688.8
648.104	716.7
648.551	731.3
648.999	799.9
649.446	878.1
649.893	960.2
650.34	1103
650.787	1327.4
651.234	1648.4
651.682	2134
652.129	2920.8
652.576	4208
653.023	6227.3
653.47	8543.6
653.917	10750
654.363	12507.9
654.81	13909.4
655.257	13229.4
655.704	8665.1
656.151	5089.7
656.598	3289.1
657.044	2330.5
657.491	1780.3
657.938	1443.5
658.385	1190
658.831	1029.7
659.278	920.2
659.724	825.2
660.171	756.8
660.618	694.8
661.064	653.7
661.511	627.3
661.957	626.5
662.404	605.6
662.85	623.8
663.296	592.3
663.743	533.8
664.189	518.5
664.635	509.5
665.082	496.9
665.528	492.7
665.974	501.3
666.42	485.8
666.867	480.8
667.313	454
667.759	457.5
668.205	456.6
668.651	459.3
669.097	453.6
669.543	480.3
669.989	446.4
670.435	418.4
670.881	418.5
671.327	423.7
671.773	451.3
672.219	454.8
672.665	518.3
673.11	550.2
673.556	591.5
674.002	630.2
674.448	623.1
674.893	515.3
675.339	447
675.785	409.4
676.23	400.1
676.676	369.1
677.122	364.1
677.567	344.9
678.013	351.6
678.458	338.8
678.904	342.7
679.349	323.2
679.794	335.9
680.24	324.4
680.685	330
681.131	325.2
681.576	327
682.021	336.7
682.466	325.9
682.912	330.2
683.357	331.3
683.802	355.6
684.247	382.2
684.692	430.6
685.137	464.1
685.583	498.6
686.028	524.2
686.473	484.4
686.918	417.6
687.363	391.8
687.807	369.8
688.252	341.9
688.697	338.8
689.142	324.6
689.587	311.3
690.032	303.5
690.477	316.9
690.921	334.5
691.366	358.3
691.811	374.5
692.255	404.3
692.7	436.9
693.145	461.9
693.589	642.1
694.034	1046.3
694.478	1432.8
694.923	1648.5
695.367	2160.3
695.812	1141.7
696.256	464.6
696.701	350
697.145	315.4
697.59	314
698.034	304.1
698.478	310.7
698.922	308.6
699.367	306.3
699.811	320.4
700.255	332.6
700.699	360.8
701.143	395.2
701.588	439.9
702.032	485.8
702.476	481
702.92	454.8
703.364	461.7
703.808	584.7
704.252	959
704.696	1348.8
705.14	1572.1
705.584	2029.4
706.027	1012.6
706.471	493.3
706.915	374.4
707.359	329.4
707.803	303.7
708.246	292.3
708.69	293.7
709.134	288.5
709.577	289.2
710.021	298.4
710.465	287.3
710.908	283.9
711.352	279.7
711.795	287.5
712.239	320.5
712.682	357.9
713.126	391.8
713.569	430.9
714.012	346.5
714.456	303.3
714.899	281.8
715.342	257.5
715.786	240.7
716.229	239.4
716.672	239.8
717.115	230.2
717.558	231.2
718.002	228.4
718.445	247.4
718.888	275.9
719.331	272.3
719.774	289.2
720.217	282.5
720.66	263.1
721.103	249.9
721.546	240
721.989	229.9
722.432	209
722.874	220.7
723.317	205.9
723.76	221.5
724.203	237.2
724.645	296.6
725.088	417.3
725.531	528.8
725.974	609.9
726.416	517.4
726.859	290
727.301	223.5
727.744	225.8
728.187	214.2
728.629	225.5
729.071	224.1
729.514	239.5
729.956	246.7
730.399	268.1
730.841	266.7
731.283	250.3
731.726	253
732.168	248.2
732.61	250
733.053	263.8
733.495	289.3
733.937	327.8
734.379	372.9
734.821	402.5
735.263	498.9
735.705	759.6
736.148	1442.3
736.59	2392.1
737.032	2890.5
737.474	2346.6
737.916	756.5
738.357	402.2
738.799	307.6
739.241	283.9
739.683	262.6
740.125	275
740.567	277
741.008	294
741.45	299.1
741.892	290.2
742.334	325.8
742.775	338
743.217	326.1
743.658	250.6
744.1	232.5
744.542	245.3
744.983	282.5
745.425	325
745.866	324
746.307	270.9
746.749	261.4
747.19	305.7
747.632	419.6
748.073	791.2
748.514	1698.5
748.956	2659
749.397	3337.3
749.838	2755.5
750.279	2796.8
750.72	1424.8
751.162	509.4
751.603	300.2
752.044	230.6
752.485	201.3
752.926	194.4
753.367	183.5
753.808	179.5
754.249	181.6
754.69	170.7
755.131	170.7
755.572	169.4
756.013	163.2
756.453	173.5
756.894	170.9
757.335	179.6
757.776	182.4
758.216	185.7
758.657	183.9
759.098	196.1
759.538	206.2
759.979	247.6
760.42	335.9
760.86	632.8
761.301	1647.3
761.741	4051.7
762.182	6098.4
762.622	4296
763.063	1223.9
763.503	503.1
763.943	327.8
764.384	309.2
764.824	377.9
765.264	406.1
765.705	286.1
766.145	195.9
766.585	170.3
767.025	165.9
767.465	172.1
767.906	226.2
768.346	295.9
768.786	317.7
769.226	246.5
769.666	289
770.106	552.7
770.546	1413.7
770.986	2477.7
771.426	2229.9
771.866	739.6
772.306	313
772.745	196.6
773.185	162.4
773.625	164.9
774.065	153.3
774.505	182.6
774.944	289.6
775.384	614.8
775.824	1150.4
776.263	1145.7
776.703	477.1
777.142	207.8
777.582	143.2
778.021	124.9
778.461	129.8
778.9	131.6
779.34	126.9
779.779	107.7
780.219	103.2
780.658	97.6
781.097	106
781.537	106.8
781.976	94.9
782.415	94.6
782.855	96.5
783.294	103.1
783.733	97.3
784.172	105.6
784.611	100.7
785.05	107.2
785.489	104.9
785.928	111.6
786.367	110.6
786.806	109.5
787.245	121.1
787.684	127.3
788.123	132.3
788.562	124.2
789.001	117
789.44	111.4
789.879	111.9
790.317	106.9
790.756	122
791.195	111.2
791.634	143.3
792.072	183.8
792.511	324.1
792.95	908.1
793.388	1994.9
793.827	1832.7
794.265	637.4
794.704	257.7
795.142	167.7
795.581	136.7
796.019	122.4
796.458	121.8
796.896	113.4
797.334	118.5
797.773	146
798.211	197.3
798.649	394.2
799.087	933.2
799.526	1469.9
799.964	1846.6
800.402	1913.5
800.84	709
801.278	271.4
801.716	174.6
802.154	135.5
802.592	131.3
803.03	134.5
803.468	128.3
803.906	130.5
804.344	147.6
804.782	130.2
805.22	120.7
805.658	126.1
806.096	134.7
806.533	141.5
806.971	157.4
807.409	202.9
807.847	295.7
808.284	595.2
808.722	1705.8
809.16	3069.2
809.597	2872.9
810.035	5013.2
810.472	5509.1
810.91	1956.8
811.347	733
811.785	381
812.222	246.5
812.66	179.2
813.097	152.4
813.535	135.2
813.972	123.6
814.409	112.1
814.846	104.5
815.284	101.7
815.721	91.3
816.158	98.2
816.595	106.3
817.032	166.6
817.47	184.2
817.907	164.5
818.344	146.8
818.781	104.5
819.218	95.8
819.655	114.5
820.092	171.8
820.529	200.6
820.966	160.9
821.403	125.5
821.839	99
822.276	92.3
822.713	116
823.15	129.1
823.587	112.2
824.023	132.3
824.46	272.4
824.897	813.3
825.333	1268.2
825.77	548.9
826.206	211.6
826.643	127.5
827.08	102.5
827.516	75.8
827.953	72.2
828.389	72
828.825	64.7
829.262	64.5
829.698	61.4
830.135	63.9
830.571	62.8
831.007	60.8
831.443	57.1
831.88	55.7
832.316	54
832.752	67.1
833.188	59
833.624	57
834.06	59.4
834.497	63.6
834.933	66.7
835.369	69
835.805	64
836.241	72.9
836.677	71.6
837.112	82.7
837.548	89.6
837.984	128.1
838.42	183.7
838.856	449.6
839.292	1377.9
839.727	2157.3
840.163	998.1
840.599	836
841.034	1877.1
841.47	2013.5
841.906	723.9
842.341	306.6
842.777	219.1
843.212	302.6
843.648	297.1
844.083	141.3
844.519	98.2
844.954	70.3
845.39	54.2
845.825	52.8
846.261	56.4
846.696	57.7
847.131	46.4
847.566	55.6
848.002	47.1
848.437	53.3
848.872	55.4
849.307	58.4
849.742	75.5
850.177	162.4
850.613	504.8
851.048	819
851.483	362.6
851.918	144
852.353	77.6
852.788	54.5
853.223	51.6
853.657	51.7
854.092	44.7
854.527	41.5
854.962	33.3
855.397	45.5
855.832	48.5
856.266	38.4
856.701	37.2
857.136	32.2
857.57	38.8
858.005	49.4
858.44	53.9
858.874	38.4
859.309	48.3
859.743	30.5
860.178	44.1
860.612	39.8
861.047	51.1
861.481	60
861.915	65.3
862.35	42.1
862.784	30.5
863.218	38.2
863.653	27.9
864.087	52.2
864.521	48.4
864.955	65.5
865.39	144.3
865.824	164.2
866.258	107
866.692	151.9
867.126	170.7
867.56	97.9
867.994	50.9
868.428	36.5
868.862	41
869.296	51
869.73	53.6
870.164	52.3
870.598	41.9
871.031	33.4
871.465	29.4
871.899	34.9
872.333	24.2
872.766	25
873.2	24.7
873.634	33.6
874.067	24.5
874.501	27.5
874.935	33.6
875.368	27.1
875.802	23.6
876.235	21.9
876.669	21.8
877.102	18.8
877.535	26.4
877.969	23.8
878.402	24.7
878.836	8.9
879.269	20.4
879.702	24
880.135	14.7
880.569	24.3
881.002	24.3
881.435	27.5
881.868	17.3
882.301	18.8
882.734	17.1
883.167	21.1
883.601	18.8
884.034	17.8
884.467	17.5
884.899	21.3
885.332	14
885.765	11.6
886.198	15.2
886.631	22.8
887.064	16.7
887.497	18
887.929	23.5
888.362	16.6
888.795	12.3
889.228	14.6
889.66	20.7
890.093	20.4
890.526	15.8
890.958	14
891.391	18
891.823	21.7
892.256	19.1
892.688	13.1
893.121	20.3
893.553	14.2
893.985	19.4
894.418	20.6
894.85	5.8
895.282	16.9
895.715	16.1
896.147	13.7
896.579	14.7
897.011	13.2
897.444	18.7
897.876	14.8
898.308	18.5
898.74	9.6
899.172	9
899.604	20.9
900.036	19.6
900.468	16
900.9	12.8
901.332	14
901.764	12.5
902.196	14.3
902.628	12.3
903.06	10.7
903.491	24
903.923	16.2
904.355	21.6
904.787	23.5
905.218	18.7
905.65	20.5
906.082	16.1
906.513	11.6
906.945	11.2
907.376	16.3
907.808	16.5
908.239	14.4
908.671	21.5
909.102	17.8
909.534	23.7
909.965	49.5
910.397	83.8
910.828	300.3
911.259	447.4
911.691	204.6
912.122	96.4
912.553	48.6
912.984	32.2
913.415	24
913.847	20.3
914.278	15.3
914.709	11.7
915.14	15.7
915.571	12.9
916.002	11.3
916.433	16
916.864	15.1
917.295	16.4
917.726	17.7
918.157	11.8
918.587	24.2
919.018	17.7
919.449	25.1
919.88	24.8
920.311	34.7
920.741	42.2
921.172	155.8
921.603	144.4
922.033	69.9
922.464	43.2
922.895	13.9
923.325	15
923.756	12.9
924.186	14.1
924.617	22.4
925.047	39.1
925.478	53.5
925.908	39.3
926.338	24.2
926.769	20
927.199	18.2
927.629	2.1
928.06	12.7
928.49	8.6
928.92	14.3
929.35	11.5
929.78	9.4
930.21	8.8
930.641	11.2
931.071	7.9
931.501	5.5
931.931	14.9
932.361	3.9
932.791	-3.2
933.221	4.4
933.651	9
934.08	9.1
934.51	30
934.94	7.4
935.37	3.9
935.8	10.8
936.229	7.5
936.659	11.9
937.089	5.4
937.519	11.1
937.948	19.7
938.378	18.5
938.807	4.6
939.237	2.1
939.666	9
940.096	-1.8
940.525	4
940.955	1.8
941.384	-1.2
941.814	-6.8
942.243	2.6
942.672	9.2
943.102	2.2
943.531	-5.1
943.96	2.7
944.39	6.7
944.819	-1
945.248	0.3
945.677	1.5
946.106	-0.6
946.535	6.7
946.964	-0.2
947.393	7.2
947.822	-4.5
948.251	-12
948.68	1.7
949.109	8.3
949.538	0.8
949.967	1.8
950.396	1
950.825	3.2
951.254	3.2
951.682	-7
952.111	4.2
952.54	6.4
952.969	-1.5
953.397	-3.4
953.826	-0.1
954.254	-6.4
954.683	-5.1
955.112	-8.2
955.54	0.5
955.969	3.7
956.397	3.9
956.826	-0.5
957.254	-0.2
957.682	2.8
958.111	7.7
958.539	-2.2
958.967	-7.8
959.396	0.6
959.824	2.4
960.252	0.9
960.68	-8
961.109	-4.5
961.537	-1.9
961.965	-0
962.393	3.7
962.821	2.4
963.249	1.7
963.677	5.9
964.105	0.5
964.533	42.8
964.961	35.8
965.389	24.5
965.817	5
966.245	7.6
966.672	-0.9
967.1	-8.3
967.528	-2
967.956	0.3
968.383	1.8
968.811	-6.6
969.239	-2.9
969.666	-10.4
970.094	2.3
970.522	-3.1
970.949	-0
971.377	-4.9
971.804	-4.9
972.232	-5.4
972.659	-0.2
973.087	1.9
973.514	-3.2
973.941	-0.6
974.369	-1.1
974.796	0.1
975.223	1.7
975.651	-8.2
976.078	5.5
976.505	-0
976.932	0.7
977.359	16.4
977.786	14.9
978.214	-0.7
978.641	1
979.068	-0.2
979.495	-6.3
979.922	2.6
980.349	-5.2
980.776	2.6
981.202	-5.1
981.629	4.6
982.056	6.1
982.483	-4.5
982.91	6.6
983.337	-9.3
983.763	-1.6
984.19	-12.1
984.617	2.4
985.043	-10.6
985.47	-4.6
985.897	-1.4
986.323	-8.9
986.75	-1.1
987.176	-0.8
987.603	-2.5
988.029	-1.5
988.456	-3.3
988.882	-2.1
989.308	-6.3
989.735	-5.8
990.161	3.7
990.587	-10.4
991.014	-0.9
991.44	4.2
991.866	1.2
992.292	-3.6
992.719	-3
993.145	0.7
993.571	-13.3
993.997	-3.1
994.423	-1.3
994.849	-2.8
995.275	3.3
995.701	-2.6
996.127	-9.9
996.553	0.3
996.979	-0.8
997.405	-1.1
997.83	-4.4
998.256	-2.9
998.682	-5.9
999.108	-7.1
999.534	-5
999.959	-5.5
1000.385	-4.1
1000.811	-2.2
1001.236	-6
1001.662	-1.3
1002.087	-4.8
1002.513	-1
1002.938	4.2
1003.364	-2.7
1003.789	-1.7
1004.215	-0.8
1004.64	2.6
1005.066	5.1
1005.491	0.8
1005.916	-6.6
1006.342	-3.6
1006.767	-8.4
1007.192	6.1
1007.617	0.2
1008.042	-10.4
1008.468	-6.4
1008.893	-5.6
1009.318	-5.2
1009.743	-8.3
1010.168	-4
1010.593	-4.9
1011.018	-10.6
1011.443	-3.3
1011.868	-0.2
1012.293	2.2
1012.718	-2
1013.143	4.4
1013.567	4.1
1013.992	0.5
1014.417	-10.5
1014.842	-1.9
1015.267	-4
1015.691	-10.5
1016.116	3.2
1016.541	-0.7
1016.965	4.1
1017.39	1.1
1017.814	-1.3
1018.239	-6.6
1018.663	-5.6
1019.088	-6.7
1019.512	-3.4
1019.937	0.5
1020.361	-10.8
1020.785	-4.4
1021.21	-0.4
1021.634	-6.4
1022.058	-0
1022.483	5.2
1022.907	-6.5
1023.331	-5.8
1023.755	1.4
1024.179	-7.4
1024.604	-8.2
1025.028	-3.3
1025.452	-6.7
1025.876	-4.2
1026.3	-1.6
1026.724	-6.8
1027.148	-4.7
1027.572	-10.7
1027.996	-4.6
1028.42	-6.6
1028.843	-4.5
1029.267	-1.7
1029.691	-3.7
1030.115	-7.2
1030.539	-7
1030.962	-10.4
1031.386	-13.9
1031.81	-2
1032.233	3.3
1032.657	-6.3
1033.08	-1.7
1033.504	-2
1033.927	-3.1
1034.351	-2.4
1034.774	-9.3
1035.198	-5.3
1035.621	-5.2
1036.045	-8
1036.468	-4.5
1036.891	-11.8
1037.315	-13.7
1037.738	-11.6
1038.161	-6
1038.584	-7.7
1039.008	-3.3
1039.431	-5.5
1039.854	-1.9
1040.277	-9.9
1040.7	-9.7
1041.123	0.5
1041.546	-6.9
1041.969	-1.2
1042.392	-9.4
1042.815	3.9
1043.238	-1.2
1043.661	-0.8
1044.084	-2.1
1044.507	-5.3
1044.93	-7.1
1045.352	-6
1045.775	-5.7
1046.198	-4.8
1046.621	-1.8
1047.043	-3.8
1047.466	4.1
1047.889	-8.2
1048.311	-3
1048.734	-2.3
1049.156	3.8
1049.579	3.2
1050.001	-3.6
1050.424	2.8
1050.846	-6.5
1051.269	-1.5
1051.691	-9.2
1052.113	-3.8
1052.536	-2.6
1052.958	-5.4
1053.38	-7.7
1053.802	-3.5
1054.225	3.5
1054.647	-7.3
1055.069	-10.4
1055.491	-0.7
1055.913	-6.9
1056.335	-3
1056.757	-0.3
1057.179	-4.3
1057.601	-7.9
1058.023	-2.3
1058.445	-0.7
1058.867	-2.8
1059.289	-6.1
1059.711	-4.6
1060.133	-6.7
1060.555	-1.8
1060.976	-5.6
1061.398	-8.1
1061.82	-11.1
1062.241	-8.6
1062.663	-10.2
1063.085	-6.4
1063.506	-3.9
1063.928	-5.8
1064.35	-9.3
1064.771	-13.5
1065.193	-6.1
1065.614	-9.1
1066.035	-4.6
1066.457	0.6
1066.878	1.3
1067.3	-2.6
1067.721	-5.1
1068.142	1.1
1068.564	-4.8
1068.985	-11.4
1069.406	-7.8
1069.827	-5.5
1070.248	0.2
1070.67	-14.5
1071.091	-6.6
1071.512	-0.8
1071.933	2.9
1072.354	-4.3
1072.775	-4.8
1073.196	-3.1
1073.617	-5.8
1074.038	-2
1074.459	-6.2
1074.88	-5.5
1075.3	1.2
1075.721	-1.9
1076.142	-3.6
1076.563	-5.3
1076.983	-7
1077.404	-6.6
1077.825	-9.6
1078.246	-6.5
1078.666	-10.9
1079.087	-6.7
1079.507	-8.6
1079.928	-2.3
1080.348	3.3
1080.769	-6.5
1081.189	-3.5
1081.61	-3.5
1082.03	-7
1082.451	-14.6
1082.871	-6.1
1083.291	-4.8
1083.711	-11.5
1084.132	-4.9
1084.552	-11.5
1084.972	-3.5
1085.392	-7.8
1085.813	-10.4
1086.233	-10.4
1086.653	-7.3
1087.073	-2.7
1087.493	-6.6
1087.913	-3.9
1088.333	-6.1
1088.753	-5.7
1089.173	-1.1
1089.593	-6.2
1090.013	4.1
1090.433	1.2
1090.852	-0.7
1091.272	-2
1091.692	2.7
1092.112	-2.7
1092.531	-4.7
1092.951	-12
1093.371	-1.5
1093.79	2.3
1094.21	-6.3
1094.63	2.9
1095.049	-8
1095.469	-2.3
1095.888	-5.8
1096.308	3.3
1096.727	0.7
1097.146	-8
1097.566	-0.6
1097.985	-8.9
1098.405	-4.8
1098.824	-10.4
1099.243	-3.8
1099.662	-3.2
1100.082	-2.3
1100.501	-1.6
1100.92	-10.5
1101.339	-5.7
1101.758	-12
