Data from 20171114-ORNL-Ar_H_NY_Subt18_08-08-53-356.txt Node
Date: Tue Nov 14 08:08:53 EST 2017
User: Ender
Spectrometer: HR+D1039
Trigger mode: 0
Integration Time (sec): 2.730000E-2
Scans to average: 10
Electric dark correction enabled: true
Nonlinearity correction enabled: false
Boxcar width: 0
XAxis mode: Wavelengths
Number of Pixels in Spectrum: 2048
>>>>>Begin Spectral Data<<<<<
187.836	-4.58
188.309	-4.58
188.782	-4.58
189.255	-3.08
189.728	0.12
190.201	6.32
190.674	0.92
191.147	3.42
191.619	-8.18
192.092	4.92
192.565	4.62
193.038	3.22
193.511	-4.48
193.984	-1.48
194.456	-3.88
194.929	1.52
195.402	-3.58
195.874	4.22
196.347	0.42
196.82	-10.08
197.292	7.02
197.765	-6.88
198.237	-4.48
198.71	1.72
199.182	1.02
199.655	1.92
200.127	4.02
200.6	-4.28
201.072	1.12
201.544	0.82
202.017	-3.48
202.489	5.42
202.961	-2.88
203.433	-2.18
203.906	-3.48
204.378	-10.38
204.85	-0.68
205.322	-8.28
205.794	4.22
206.266	-1.18
206.739	-10.88
207.211	7.12
207.683	-8.88
208.155	-6.28
208.627	-10.28
209.099	-3.68
209.57	-7.78
210.042	-3.28
210.514	-5.28
210.986	-1.58
211.458	-0.18
211.93	-6.38
212.402	-1.58
212.873	-3.58
213.345	-8.58
213.817	-13.88
214.288	-4.48
214.76	-14.28
215.232	-3.58
215.703	-2.28
216.175	1.22
216.646	-4.38
217.118	-10.58
217.589	-8.18
218.061	-5.58
218.532	-7.78
219.004	-5.78
219.475	-4.18
219.946	-3.58
220.418	-9.08
220.889	-3.38
221.36	-0.68
221.832	-9.48
222.303	-6.18
222.774	0.72
223.245	-11.78
223.717	-7.88
224.188	-3.68
224.659	-2.38
225.13	-5.48
225.601	-2.98
226.072	-4.38
226.543	-3.68
227.014	-0.88
227.485	-6.08
227.956	-6.08
228.427	-4.48
228.898	3.72
229.369	-1.08
229.839	-4.28
230.31	1.42
230.781	-1.18
231.252	1.32
231.722	-5.28
232.193	-2.78
232.664	-3.48
233.135	-4.68
233.605	-0.78
234.076	-10.68
234.546	-3.68
235.017	0.22
235.487	4.02
235.958	-1.18
236.428	0.42
236.899	-3.78
237.369	-0.78
237.84	-8.18
238.31	-3.08
238.78	-2.98
239.251	-9.08
239.721	-0.68
240.191	-6.08
240.662	1.72
241.132	-3.78
241.602	-5.28
242.072	-4.88
242.542	0.72
243.013	-5.18
243.483	-3.48
243.953	-0.38
244.423	-5.18
244.893	-3.98
245.363	-2.28
245.833	-2.48
246.303	-3.58
246.773	1.42
247.243	-3.18
247.712	-3.98
248.182	1.42
248.652	2.72
249.122	-8.68
249.592	-2.38
250.061	4.62
250.531	10.22
251.001	1.82
251.471	3.02
251.94	8.22
252.41	-6.98
252.879	-6.88
253.349	7.82
253.818	4.82
254.288	3.82
254.757	-2.38
255.227	2.62
255.696	-3.38
256.166	4.52
256.635	1.32
257.105	3.82
257.574	2.72
258.043	-1.58
258.513	-0.78
258.982	7.42
259.451	-3.48
259.92	4.02
260.389	1.12
260.859	7.62
261.328	7.62
261.797	3.12
262.266	1.32
262.735	6.72
263.204	-0.98
263.673	-4.98
264.142	2.52
264.611	-3.88
265.08	1.02
265.549	-3.18
266.018	0.52
266.487	-14.68
266.955	-7.78
267.424	-7.88
267.893	10.32
268.362	-1.48
268.83	-2.88
269.299	4.42
269.768	-0.08
270.236	-0.38
270.705	-3.98
271.174	5.12
271.642	1.52
272.111	0.42
272.579	0.92
273.048	1.52
273.516	5.02
273.985	7.42
274.453	9.32
274.922	10.72
275.39	1.62
275.858	-5.28
276.327	6.92
276.795	5.82
277.263	2.72
277.731	16.32
278.2	15.72
278.668	16.52
279.136	12.72
279.604	5.72
280.072	7.92
280.54	2.42
281.008	-0.98
281.477	9.12
281.945	1.22
282.413	3.52
282.881	6.02
283.348	4.02
283.816	6.02
284.284	7.02
284.752	17.82
285.22	11.42
285.688	9.82
286.156	5.72
286.623	19.02
287.091	14.32
287.559	12.82
288.026	11.02
288.494	8.22
288.962	-1.28
289.429	6.62
289.897	15.32
290.364	9.22
290.832	13.32
291.3	10.62
291.767	9.82
292.234	15.32
292.702	7.62
293.169	11.42
293.637	12.22
294.104	11.72
294.571	-0.28
295.039	0.22
295.506	5.62
295.973	10.62
296.44	8.62
296.908	11.52
297.375	10.32
297.842	11.92
298.309	10.82
298.776	8.52
299.243	11.32
299.71	8.92
300.177	12.42
300.644	14.52
301.111	12.22
301.578	17.22
302.045	5.42
302.512	17.52
302.979	14.62
303.446	11.22
303.913	11.52
304.379	11.62
304.846	22.42
305.313	14.12
305.78	14.62
306.246	16.52
306.713	21.52
307.18	18.72
307.646	13.92
308.113	16.92
308.579	13.22
309.046	16.52
309.512	20.52
309.979	11.02
310.445	22.82
310.912	19.92
311.378	20.12
311.845	17.72
312.311	24.42
312.777	23.92
313.244	22.72
313.71	25.62
314.176	17.32
314.642	19.52
315.109	19.62
315.575	25.72
316.041	28.42
316.507	21.02
316.973	26.12
317.439	23.02
317.905	26.62
318.371	27.52
318.837	24.02
319.303	29.72
319.769	22.22
320.235	24.92
320.701	26.22
321.167	25.62
321.633	25.42
322.099	26.92
322.564	31.22
323.03	30.82
323.496	29.32
323.962	27.22
324.427	26.42
324.893	33.22
325.359	23.82
325.824	24.62
326.29	30.82
326.755	27.42
327.221	26.32
327.686	29.82
328.152	36.02
328.617	30.82
329.083	36.92
329.548	48.92
330.014	36.42
330.479	29.62
330.944	31.02
331.41	30.82
331.875	33.12
332.34	31.62
332.805	30.32
333.271	40.72
333.736	32.92
334.201	37.22
334.666	37.82
335.131	39.42
335.596	37.92
336.061	43.32
336.526	24.12
336.991	39.52
337.456	44.82
337.921	38.02
338.386	29.82
338.851	35.42
339.316	40.22
339.781	37.72
340.246	42.12
340.711	41.42
341.175	38.22
341.64	30.42
342.105	43.82
342.569	48.62
343.034	46.82
343.499	47.72
343.963	40.62
344.428	52.52
344.893	48.02
345.357	50.82
345.822	47.92
346.286	56.92
346.751	55.72
347.215	53.12
347.679	58.62
348.144	69.82
348.608	71.22
349.073	59.12
349.537	62.02
350.001	62.92
350.465	69.42
350.93	66.12
351.394	62.42
351.858	56.92
352.322	74.62
352.786	65.32
353.25	69.62
353.715	87.92
354.179	79.82
354.643	99.42
355.107	99.92
355.571	85.22
356.035	83.52
356.498	92.62
356.962	102.12
357.426	101.12
357.89	88.92
358.354	70.42
358.818	65.72
359.281	65.82
359.745	60.12
360.209	68.62
360.673	65.52
361.136	69.32
361.6	67.12
362.064	68.92
362.527	66.12
362.991	77.02
363.454	68.82
363.918	62.32
364.381	69.52
364.845	72.02
365.308	80.12
365.772	81.92
366.235	70.12
366.698	67.02
367.162	68.82
367.625	71.72
368.088	74.12
368.552	74.82
369.015	74.72
369.478	80.32
369.941	88.72
370.404	82.52
370.867	85.32
371.331	89.32
371.794	103.72
372.257	81.42
372.72	97.12
373.183	85.82
373.646	80.52
374.109	86.92
374.572	85.12
375.035	87.32
375.497	88.62
375.96	89.02
376.423	90.92
376.886	100.02
377.349	88.72
377.811	93.32
378.274	89.52
378.737	93.32
379.199	95.02
379.662	94.92
380.125	94.92
380.587	98.02
381.05	102.72
381.512	106.92
381.975	112.62
382.437	103.72
382.9	99.32
383.362	103.42
383.825	119.82
384.287	117.52
384.75	103.22
385.212	112.72
385.674	116.72
386.136	120.32
386.599	109.12
387.061	108.72
387.523	114.12
387.985	114.32
388.447	121.82
388.91	114.92
389.372	121.92
389.834	119.02
390.296	121.82
390.758	127.12
391.22	135.32
391.682	149.42
392.144	183.42
392.606	153.62
393.068	137.72
393.529	139.42
393.991	130.72
394.453	120.02
394.915	126.22
395.377	136.92
395.838	144.12
396.3	126.62
396.762	131.72
397.224	118.82
397.685	119.82
398.147	125.72
398.608	118.92
399.07	116.82
399.531	129.32
399.993	134.92
400.454	139.32
400.916	134.62
401.377	133.92
401.839	141.92
402.3	138.32
402.762	154.22
403.223	162.82
403.684	156.62
404.145	141.02
404.607	151.12
405.068	149.22
405.529	153.82
405.99	172.32
406.451	159.92
406.913	161.42
407.374	160.22
407.835	151.32
408.296	159.42
408.757	161.52
409.218	172.62
409.679	163.82
410.14	159.32
410.601	163.22
411.062	169.02
411.522	170.72
411.983	172.32
412.444	165.42
412.905	164.02
413.366	174.62
413.826	185.92
414.287	210.32
414.748	251.82
415.208	235.42
415.669	198.42
416.13	198.62
416.59	191.32
417.051	203.92
417.511	210.02
417.972	226.02
418.432	236.82
418.893	271.82
419.353	243.22
419.814	186.52
420.274	178.32
420.734	173.22
421.195	189.62
421.655	182.72
422.115	189.12
422.576	188.22
423.036	183.12
423.496	199.62
423.956	198.32
424.416	214.62
424.876	252.52
425.336	252.22
425.797	252.42
426.257	247.22
426.717	233.62
427.177	223.42
427.637	221.82
428.097	217.32
428.556	229.82
429.016	245.22
429.476	247.52
429.936	257.32
430.396	260.62
430.856	273.02
431.315	294.12
431.775	332.62
432.235	356.82
432.694	335.82
433.154	344.02
433.614	372.82
434.073	307.52
434.533	274.52
434.993	250.32
435.452	271.62
435.912	272.52
436.371	262.72
436.83	267.62
437.29	250.12
437.749	236.52
438.209	235.42
438.668	266.82
439.127	279.22
439.587	252.52
440.046	239.92
440.505	243.62
440.964	259.82
441.424	307.42
441.883	300.72
442.342	260.02
442.801	218.12
443.26	214.92
443.719	210.42
444.178	208.22
444.637	208.32
445.096	219.62
445.555	214.22
446.014	220.92
446.473	221.32
446.932	225.62
447.391	225.12
447.849	220.12
448.308	218.12
448.767	218.72
449.226	232.32
449.685	236.82
450.143	248.22
450.602	232.32
451.061	227.72
451.519	229.12
451.978	223.72
452.436	227.42
452.895	237.02
453.353	256.42
453.812	231.82
454.27	237.22
454.729	226.12
455.187	237.82
455.646	240.92
456.104	249.02
456.562	256.12
457.021	259.12
457.479	263.32
457.937	265.62
458.395	256.52
458.854	235.92
459.312	253.72
459.77	270.42
460.228	249.82
460.686	239.32
461.144	244.52
461.602	242.62
462.06	238.92
462.518	251.72
462.976	247.72
463.434	249.62
463.892	258.82
464.35	265.62
464.808	283.72
465.266	270.72
465.724	273.82
466.181	273.12
466.639	267.22
467.097	277.72
467.555	297.82
468.012	305.22
468.47	305.92
468.928	323.32
469.385	329.92
469.843	343.92
470.3	350.72
470.758	350.42
471.215	363.52
471.673	399.02
472.13	399.52
472.588	408.72
473.045	371.02
473.503	376.52
473.96	386.12
474.417	390.32
474.875	425.12
475.332	464.72
475.789	446.82
476.246	460.62
476.704	473.22
477.161	498.92
477.618	513.62
478.075	548.62
478.532	598.12
478.989	665.52
479.446	763.92
479.903	734.52
480.36	774.12
480.817	826.62
481.274	908.92
481.731	996.02
482.188	1077.82
482.645	1185.42
483.102	1276.32
483.558	1403.82
484.015	1441.92
484.472	1415.22
484.929	1370.52
485.385	1322.02
485.842	1284.92
486.299	1232.92
486.755	1199.52
487.212	1023.02
487.668	875.62
488.125	814.82
488.582	741.72
489.038	715.22
489.494	695.12
489.951	671.32
490.407	656.92
490.864	626.72
491.32	613.92
491.776	625.82
492.233	635.82
492.689	593.72
493.145	592.22
493.602	588.22
494.058	596.42
494.514	601.52
494.97	625.72
495.426	640.22
495.882	601.62
496.338	590.12
496.794	602.12
497.251	602.42
497.707	610.62
498.163	618.22
498.618	633.92
499.074	626.82
499.53	651.82
499.986	642.72
500.442	638.52
500.898	604.42
501.354	609.92
501.809	610.12
502.265	611.92
502.721	624.02
503.177	634.12
503.632	638.32
504.088	650.32
504.543	669.82
504.999	681.02
505.455	645.02
505.91	625.12
506.366	625.92
506.821	612.62
507.277	626.22
507.732	631.42
508.187	619.82
508.643	631.42
509.098	626.72
509.553	653.02
510.009	658.52
510.464	670.22
510.919	679.82
511.375	687.02
511.83	713.92
512.285	706.42
512.74	746.42
513.195	772.62
513.65	759.02
514.105	749.92
514.56	758.42
515.015	772.22
515.47	788.52
515.925	774.12
516.38	773.72
516.835	780.82
517.29	769.42
517.745	754.62
518.2	752.42
518.655	738.02
519.109	733.22
519.564	727.62
520.019	718.32
520.474	717.02
520.928	719.92
521.383	711.32
521.838	713.12
522.292	708.82
522.747	698.62
523.201	699.02
523.656	686.82
524.11	693.62
524.565	683.52
525.019	682.92
525.474	701.42
525.928	705.22
526.382	692.42
526.837	691.22
527.291	689.32
527.745	688.32
528.2	689.32
528.654	685.82
529.108	680.22
529.562	682.92
530.016	686.92
530.47	692.12
530.925	689.42
531.379	696.02
531.833	691.52
532.287	694.52
532.741	691.72
533.195	698.22
533.649	703.22
534.103	703.42
534.556	707.82
535.01	703.82
535.464	699.32
535.918	711.92
536.372	716.22
536.826	707.02
537.279	698.62
537.733	706.52
538.187	705.32
538.64	709.82
539.094	723.42
539.548	725.72
540.001	721.42
540.455	717.12
540.908	731.12
541.362	730.22
541.815	739.02
542.269	760.52
542.722	756.92
543.175	771.02
543.629	764.82
544.082	789.52
544.536	785.62
544.989	784.62
545.442	789.62
545.895	792.12
546.349	792.42
546.802	800.12
547.255	802.12
547.708	803.62
548.161	815.92
548.614	812.32
549.067	828.62
549.52	819.32
549.973	811.92
550.426	813.42
550.879	784.22
551.332	799.02
551.785	813.12
552.238	803.52
552.691	818.22
553.144	829.12
553.596	853.22
554.049	852.02
554.502	884.62
554.955	895.82
555.407	901.12
555.86	894.92
556.313	884.82
556.765	882.92
557.218	873.42
557.67	885.22
558.123	869.62
558.576	874.72
559.028	874.52
559.48	885.22
559.933	870.02
560.385	842.22
560.838	818.72
561.29	794.02
561.742	785.32
562.195	774.72
562.647	779.92
563.099	776.52
563.551	782.82
564.004	781.22
564.456	771.52
564.908	759.82
565.36	744.62
565.812	728.72
566.264	714.12
566.716	719.62
567.168	708.12
567.62	719.32
568.072	704.02
568.524	693.32
568.976	689.12
569.428	678.62
569.88	688.02
570.332	688.72
570.784	689.32
571.235	687.42
571.687	692.02
572.139	692.62
572.59	709.62
573.042	717.92
573.494	699.22
573.945	711.22
574.397	686.62
574.849	699.52
575.3	699.12
575.752	684.52
576.203	684.52
576.655	698.32
577.106	678.22
577.557	662.62
578.009	674.72
578.46	677.32
578.912	662.62
579.363	657.62
579.814	675.52
580.265	664.32
580.717	680.22
581.168	679.62
581.619	678.62
582.07	680.32
582.521	669.52
582.972	675.72
583.423	678.22
583.875	671.82
584.326	691.42
584.777	715.52
585.227	754.52
585.678	780.02
586.129	813.22
586.58	844.32
587.031	885.42
587.482	941.02
587.933	1008.62
588.384	947.12
588.834	850.32
589.285	790.22
589.736	780.22
590.186	778.72
590.637	777.92
591.088	752.92
591.538	744.32
591.989	732.42
592.439	738.62
592.89	721.92
593.34	706.12
593.791	703.82
594.241	694.82
594.692	702.82
595.142	704.42
595.593	706.52
596.043	712.72
596.493	716.42
596.943	711.62
597.394	729.92
597.844	723.32
598.294	744.02
598.744	766.42
599.195	781.12
599.645	828.62
600.095	865.22
600.545	930.42
600.995	976.92
601.445	1019.42
601.895	1094.72
602.345	1136.22
602.795	1122.02
603.245	1082.42
603.695	1019.82
604.145	970.62
604.594	923.32
605.044	860.12
605.494	800.72
605.944	757.42
606.393	749.92
606.843	729.12
607.293	736.42
607.743	738.42
608.192	735.32
608.642	757.32
609.091	766.62
609.541	773.52
609.99	759.12
610.44	769.92
610.889	719.62
611.339	709.72
611.788	686.12
612.238	704.62
612.687	709.42
613.136	708.12
613.586	722.52
614.035	707.72
614.484	729.22
614.933	726.62
615.383	716.62
615.832	712.72
616.281	720.82
616.73	676.42
617.179	662.82
617.628	646.72
618.077	634.22
618.526	631.52
618.975	617.82
619.424	618.62
619.873	609.52
620.322	619.42
620.771	608.22
621.22	614.52
621.669	602.22
622.118	593.02
622.567	588.02
623.015	578.02
623.464	576.52
623.913	570.52
624.361	560.62
624.81	548.02
625.259	560.82
625.707	562.62
626.156	559.62
626.604	574.62
627.053	566.22
627.501	576.22
627.95	573.32
628.398	603.92
628.847	568.72
629.295	574.62
629.744	576.22
630.192	566.42
630.64	572.12
631.089	559.52
631.537	560.82
631.985	551.32
632.433	557.82
632.881	544.82
633.33	572.22
633.778	554.02
634.226	539.42
634.674	549.32
635.122	550.52
635.57	565.82
636.018	583.02
636.466	565.82
636.914	561.22
637.362	579.52
637.81	584.32
638.258	588.12
638.705	584.82
639.153	622.62
639.601	632.72
640.049	652.92
640.497	684.12
640.944	701.42
641.392	650.12
641.84	620.62
642.287	594.32
642.735	569.62
643.182	582.62
643.63	562.92
644.078	576.22
644.525	581.72
644.973	589.02
645.42	604.52
645.867	619.92
646.315	642.32
646.762	666.32
647.21	692.02
647.657	722.32
648.104	736.72
648.551	760.62
648.999	825.72
649.446	901.32
649.893	985.92
650.34	1143.12
650.787	1344.02
651.234	1663.32
651.682	2154.32
652.129	2934.02
652.576	4209.92
653.023	6103.02
653.47	8286.72
653.917	10180.02
654.363	11687.82
654.81	12860.72
655.257	12171.42
655.704	8056.12
656.151	4823.82
656.598	3164.62
657.044	2274.62
657.491	1763.12
657.938	1419.62
658.385	1189.02
658.831	1035.72
659.278	934.22
659.724	840.72
660.171	778.22
660.618	713.52
661.064	688.32
661.511	662.32
661.957	654.42
662.404	645.32
662.85	645.72
663.296	629.12
663.743	565.02
664.189	539.72
664.635	552.02
665.082	517.52
665.528	524.62
665.974	518.62
666.42	517.12
666.867	511.72
667.313	492.82
667.759	476.92
668.205	461.72
668.651	467.22
669.097	451.42
669.543	458.92
669.989	455.22
670.435	452.82
670.881	451.72
671.327	464.32
671.773	478.02
672.219	500.82
672.665	557.62
673.11	597.62
673.556	649.62
674.002	683.42
674.448	664.52
674.893	566.12
675.339	480.42
675.785	449.52
676.23	428.72
676.676	402.22
677.122	390.32
677.567	380.12
678.013	373.62
678.458	369.62
678.904	360.52
679.349	354.32
679.794	361.32
680.24	360.12
680.685	355.52
681.131	353.62
681.576	366.12
682.021	365.22
682.466	353.92
682.912	352.62
683.357	356.12
683.802	387.72
684.247	425.12
684.692	469.12
685.137	520.12
685.583	553.52
686.028	571.02
686.473	545.32
686.918	464.62
687.363	434.62
687.807	403.42
688.252	373.62
688.697	366.52
689.142	343.12
689.587	336.82
690.032	328.12
690.477	349.82
690.921	358.72
691.366	392.92
691.811	408.42
692.255	437.52
692.7	474.92
693.145	524.02
693.589	751.52
694.034	1200.92
694.478	1593.62
694.923	1779.22
695.367	2312.72
695.812	1244.92
696.256	514.62
696.701	379.22
697.145	344.92
697.59	326.62
698.034	324.02
698.478	334.02
698.922	328.72
699.367	331.42
699.811	341.12
700.255	355.22
700.699	403.92
701.143	430.32
701.588	483.62
702.032	523.92
702.476	526.22
702.92	501.92
703.364	516.22
703.808	670.32
704.252	1102.02
704.696	1519.62
705.14	1706.02
705.584	2160.42
706.027	1086.42
706.471	526.52
706.915	399.52
707.359	365.52
707.803	322.62
708.246	312.52
708.69	323.42
709.134	324.52
709.577	319.72
710.021	321.02
710.465	316.52
710.908	316.02
711.352	310.62
711.795	323.02
712.239	362.12
712.682	403.62
713.126	422.82
713.569	469.32
714.012	367.82
714.456	312.32
714.899	304.82
715.342	281.32
715.786	268.72
716.229	255.92
716.672	260.62
717.115	251.52
717.558	253.62
718.002	260.42
718.445	271.92
718.888	291.52
719.331	302.82
719.774	318.82
720.217	312.02
720.66	294.92
721.103	278.92
721.546	262.12
721.989	251.12
722.432	246.72
722.874	241.52
723.317	234.72
723.76	245.72
724.203	278.92
724.645	330.12
725.088	462.62
725.531	592.42
725.974	656.22
726.416	570.82
726.859	318.52
727.301	257.22
727.744	244.72
728.187	244.72
728.629	245.02
729.071	248.92
729.514	271.32
729.956	285.52
730.399	290.12
730.841	296.02
731.283	280.62
731.726	271.42
732.168	270.42
732.61	280.42
733.053	295.22
733.495	332.22
733.937	366.52
734.379	412.52
734.821	457.62
735.263	582.72
735.705	910.72
736.148	1704.72
736.59	2702.12
737.032	3095.22
737.474	2547.62
737.916	846.12
738.357	445.42
738.799	335.32
739.241	307.82
739.683	292.22
740.125	306.72
740.567	308.32
741.008	328.72
741.45	329.82
741.892	335.92
742.334	370.52
742.775	365.52
743.217	353.92
743.658	282.32
744.1	269.52
744.542	282.82
744.983	331.02
745.425	357.62
745.866	362.72
746.307	292.72
746.749	289.92
747.19	337.62
747.632	482.12
748.073	959.82
748.514	1993.42
748.956	2979.92
749.397	3739.02
749.838	3084.62
750.279	3008.12
750.72	1538.82
751.162	570.82
751.603	339.12
752.044	265.92
752.485	225.42
752.926	216.82
753.367	209.12
753.808	197.92
754.249	196.02
754.69	194.12
755.131	189.82
755.572	181.22
756.013	185.12
756.453	188.62
756.894	192.62
757.335	197.12
757.776	199.52
758.216	201.72
758.657	199.12
759.098	211.32
759.538	230.92
759.979	277.82
760.42	399.72
760.86	780.72
761.301	2017.42
761.741	4734.32
762.182	6529.92
762.622	4631.12
763.063	1372.42
763.503	556.82
763.943	339.82
764.384	299.22
764.824	294.72
765.264	291.32
765.705	233.52
766.145	199.22
766.585	187.52
767.025	173.62
767.465	174.12
767.906	204.52
768.346	234.72
768.786	246.62
769.226	242.02
769.666	327.92
770.106	672.02
770.546	1674.42
770.986	2712.92
771.426	2407.42
771.866	820.62
772.306	340.42
772.745	216.22
773.185	177.32
773.625	168.42
774.065	157.52
774.505	172.22
774.944	241.22
775.384	456.22
775.824	735.82
776.263	707.62
776.703	337.32
777.142	177.52
777.582	148.72
778.021	129.22
778.461	128.92
778.9	135.92
779.34	127.92
779.779	120.12
780.219	114.52
780.658	112.42
781.097	114.02
781.537	117.02
781.976	109.92
782.415	104.72
782.855	110.42
783.294	99.12
783.733	106.02
784.172	117.12
784.611	111.92
785.05	113.02
785.489	111.72
785.928	112.72
786.367	127.72
786.806	114.62
787.245	133.72
787.684	133.52
788.123	149.32
788.562	136.92
789.001	134.22
789.44	120.82
789.879	123.02
790.317	121.12
790.756	137.52
791.195	132.22
791.634	148.82
792.072	218.52
792.511	403.62
792.95	1091.42
793.388	2199.42
793.827	1937.62
794.265	691.72
794.704	292.32
795.142	184.12
795.581	153.32
796.019	140.22
796.458	132.82
796.896	130.12
797.334	141.92
797.773	167.82
798.211	232.92
798.649	479.02
799.087	1082.72
799.526	1665.62
799.964	2093.52
800.402	2044.72
800.84	778.52
801.278	308.22
801.716	195.02
802.154	159.02
802.592	155.02
803.03	140.42
803.468	134.12
803.906	145.32
804.344	155.52
804.782	147.22
805.22	138.62
805.658	133.52
806.096	151.32
806.533	162.42
806.971	181.92
807.409	221.72
807.847	342.52
808.284	730.62
808.722	2004.52
809.16	3401.72
809.597	3363.82
810.035	5675.02
810.472	5855.72
810.91	2167.72
811.347	838.32
811.785	421.42
812.222	264.22
812.66	199.62
813.097	172.32
813.535	145.22
813.972	135.32
814.409	126.92
814.846	105.42
815.284	112.02
815.721	106.22
816.158	106.82
816.595	115.12
817.032	168.12
817.47	187.02
817.907	130.92
818.344	117.02
818.781	103.12
819.218	100.22
819.655	127.12
820.092	195.82
820.529	215.62
820.966	179.72
821.403	133.32
821.839	105.22
822.276	106.02
822.713	127.72
823.15	143.12
823.587	121.12
824.023	149.32
824.46	328.12
824.897	959.02
825.333	1379.62
825.77	598.92
826.206	240.62
826.643	138.42
827.08	99.62
827.516	84.82
827.953	83.32
828.389	81.62
828.825	75.42
829.262	70.52
829.698	65.12
830.135	65.32
830.571	67.22
831.007	70.02
831.443	64.82
831.88	65.02
832.316	65.22
832.752	66.82
833.188	69.52
833.624	64.92
834.06	73.82
834.497	68.92
834.933	69.92
835.369	79.02
835.805	70.82
836.241	80.72
836.677	82.72
837.112	91.52
837.548	110.22
837.984	142.62
838.42	211.22
838.856	551.42
839.292	1622.52
839.727	2351.62
840.163	1108.52
840.599	1006.72
841.034	2132.92
841.47	2138.22
841.906	802.22
842.341	342.72
842.777	209.82
843.212	232.62
843.648	221.62
844.083	126.32
844.519	94.82
844.954	69.62
845.39	62.32
845.825	59.52
846.261	60.12
846.696	57.62
847.131	53.42
847.566	68.42
848.002	52.12
848.437	58.92
848.872	61.52
849.307	68.32
849.742	93.02
850.177	189.52
850.613	591.82
851.048	895.42
851.483	392.62
851.918	153.02
852.353	93.32
852.788	61.82
853.223	57.02
853.657	55.32
854.092	52.32
854.527	43.82
854.962	41.12
855.397	50.32
855.832	50.12
856.266	45.42
856.701	37.52
857.136	38.32
857.57	46.12
858.005	50.12
858.44	57.42
858.874	46.92
859.309	52.32
859.743	45.12
860.178	50.22
860.612	39.72
861.047	51.52
861.481	72.32
861.915	76.72
862.35	47.22
862.784	31.32
863.218	39.92
863.653	39.42
864.087	47.12
864.521	57.92
864.955	72.62
865.39	170.22
865.824	182.62
866.258	120.62
866.692	177.62
867.126	187.62
867.56	108.12
867.994	59.32
868.428	40.12
868.862	51.32
869.296	58.52
869.73	62.32
870.164	59.12
870.598	48.72
871.031	43.42
871.465	30.52
871.899	30.82
872.333	24.82
872.766	22.62
873.2	24.62
873.634	29.72
874.067	31.42
874.501	22.62
874.935	37.82
875.368	34.02
875.802	32.32
876.235	27.52
876.669	26.52
877.102	23.62
877.535	28.22
877.969	27.82
878.402	18.32
878.836	17.42
879.269	25.02
879.702	25.22
880.135	13.62
880.569	26.72
881.002	24.02
881.435	22.52
881.868	20.72
882.301	28.42
882.734	24.82
883.167	20.82
883.601	25.12
884.034	19.02
884.467	20.02
884.899	19.92
885.332	19.12
885.765	16.22
886.198	14.92
886.631	23.32
887.064	17.12
887.497	19.02
887.929	27.82
888.362	13.62
888.795	14.82
889.228	16.42
889.66	21.52
890.093	15.52
890.526	22.32
890.958	20.52
891.391	23.42
891.823	23.52
892.256	16.92
892.688	12.32
893.121	13.12
893.553	13.92
893.985	26.92
894.418	16.52
894.85	11.52
895.282	18.22
895.715	17.42
896.147	15.52
896.579	17.32
897.011	16.02
897.444	15.82
897.876	13.12
898.308	15.42
898.74	15.22
899.172	13.62
899.604	25.02
900.036	24.22
900.468	10.42
900.9	21.62
901.332	22.52
901.764	16.42
902.196	18.02
902.628	16.32
903.06	22.72
903.491	27.02
903.923	27.32
904.355	19.52
904.787	26.22
905.218	22.62
905.65	25.72
906.082	15.82
906.513	14.12
906.945	11.12
907.376	7.22
907.808	23.82
908.239	19.62
908.671	17.52
909.102	23.72
909.534	21.02
909.965	53.32
910.397	103.42
910.828	328.72
911.259	485.82
911.691	224.92
912.122	110.52
912.553	54.32
912.984	36.22
913.415	22.42
913.847	25.62
914.278	16.12
914.709	18.72
915.14	19.42
915.571	18.32
916.002	11.82
916.433	14.32
916.864	18.22
917.295	12.42
917.726	23.52
918.157	15.42
918.587	26.42
919.018	21.92
919.449	25.12
919.88	22.02
920.311	33.02
920.741	50.52
921.172	175.42
921.603	156.32
922.033	75.72
922.464	46.02
922.895	19.82
923.325	19.02
923.756	14.32
924.186	14.02
924.617	20.22
925.047	25.62
925.478	32.02
925.908	31.52
926.338	21.12
926.769	12.82
927.199	21.82
927.629	10.02
928.06	14.82
928.49	12.02
928.92	10.42
929.35	13.62
929.78	8.22
930.21	9.42
930.641	4.72
931.071	7.62
931.501	7.02
931.931	11.02
932.361	10.42
932.791	1.72
933.221	8.22
933.651	8.82
934.08	14.12
934.51	27.12
934.94	8.02
935.37	7.82
935.8	9.72
936.229	7.92
936.659	4.32
937.089	2.62
937.519	7.62
937.948	25.02
938.378	20.42
938.807	7.22
939.237	3.92
939.666	4.82
940.096	-1.68
940.525	2.32
940.955	3.92
941.384	1.32
941.814	-7.48
942.243	-2.38
942.672	0.82
943.102	-2.18
943.531	5.32
943.96	4.12
944.39	0.32
944.819	4.42
945.248	4.32
945.677	4.82
946.106	4.12
946.535	2.72
946.964	3.52
947.393	10.32
947.822	1.92
948.251	-2.08
948.68	3.62
949.109	3.92
949.538	9.02
949.967	-5.18
950.396	3.72
950.825	-2.68
951.254	-0.58
951.682	-11.88
952.111	1.82
952.54	8.12
952.969	-4.48
953.397	-5.28
953.826	1.82
954.254	-7.38
954.683	1.22
955.112	-3.68
955.54	2.62
955.969	4.92
956.397	0.72
956.826	-3.18
957.254	-0.48
957.682	-1.68
958.111	5.52
958.539	3.02
958.967	0.62
959.396	-2.58
959.824	1.12
960.252	0.62
960.68	-9.08
961.109	-3.58
961.537	-9.58
961.965	7.42
962.393	-1.98
962.821	-3.78
963.249	1.02
963.677	7.22
964.105	5.72
964.533	44.42
964.961	45.22
965.389	13.62
965.817	7.02
966.245	2.22
966.672	-0.28
967.1	-11.88
967.528	1.52
967.956	-8.68
968.383	-2.68
968.811	-2.48
969.239	-2.88
969.666	-3.08
970.094	7.12
970.522	3.82
970.949	-8.18
971.377	-10.08
971.804	-0.78
972.232	1.42
972.659	-0.28
973.087	-3.98
973.514	2.22
973.941	-11.68
974.369	-1.08
974.796	-5.38
975.223	2.92
975.651	-3.18
976.078	-4.98
976.505	2.92
976.932	-1.58
977.359	14.82
977.786	12.22
978.214	1.52
978.641	-4.68
979.068	-4.48
979.495	-3.58
979.922	-4.98
980.349	0.42
980.776	1.12
981.202	1.72
981.629	1.22
982.056	3.62
982.483	-2.08
982.91	0.32
983.337	-8.68
983.763	-0.38
984.19	-2.78
984.617	-4.68
985.043	-4.78
985.47	0.32
985.897	3.72
986.323	-4.18
986.75	5.62
987.176	-3.78
987.603	0.12
988.029	-1.18
988.456	-6.48
988.882	-0.08
989.308	-6.78
989.735	2.92
990.161	5.92
990.587	0.82
991.014	-3.98
991.44	-1.08
991.866	-2.68
992.292	-2.08
992.719	-3.58
993.145	0.32
993.571	-9.18
993.997	-7.88
994.423	1.52
994.849	-1.08
995.275	-0.08
995.701	-3.38
996.127	-5.28
996.553	-2.08
996.979	-0.78
997.405	1.42
997.83	-2.78
998.256	-4.28
998.682	-8.98
999.108	-8.58
999.534	-0.38
999.959	-6.68
1000.385	-1.28
1000.811	-0.48
1001.236	-11.38
1001.662	-8.68
1002.087	-11.78
1002.513	-0.28
1002.938	3.42
1003.364	-6.88
1003.789	-7.48
1004.215	3.32
1004.64	-2.08
1005.066	2.32
1005.491	0.82
1005.916	-8.48
1006.342	0.22
1006.767	-12.78
1007.192	2.82
1007.617	-6.08
1008.042	-1.98
1008.468	-5.08
1008.893	-6.88
1009.318	-6.68
1009.743	-0.78
1010.168	0.32
1010.593	-1.48
1011.018	-7.78
1011.443	-3.68
1011.868	-1.38
1012.293	-5.28
1012.718	-7.68
1013.143	-4.38
1013.567	-0.28
1013.992	-5.08
1014.417	-14.88
1014.842	0.32
1015.267	-8.28
1015.691	-4.28
1016.116	-0.08
1016.541	0.92
1016.965	4.32
1017.39	5.32
1017.814	-3.78
1018.239	-3.58
1018.663	-3.78
1019.088	-11.88
1019.512	-3.48
1019.937	-1.48
1020.361	-5.98
1020.785	-9.28
1021.21	-0.38
1021.634	-5.08
1022.058	-1.98
1022.483	4.02
1022.907	-3.68
1023.331	-2.98
1023.755	-7.08
1024.179	-1.58
1024.604	-5.68
1025.028	-7.48
1025.452	-7.48
1025.876	0.82
1026.3	2.22
1026.724	-15.28
1027.148	-2.98
1027.572	-12.78
1027.996	-1.88
1028.42	3.12
1028.843	-0.68
1029.267	-9.28
1029.691	-1.58
1030.115	-5.98
1030.539	-7.18
1030.962	-4.38
1031.386	-14.78
1031.81	-2.28
1032.233	-3.08
1032.657	2.42
1033.08	-2.08
1033.504	-2.18
1033.927	-9.18
1034.351	-3.48
1034.774	-10.68
1035.198	-4.28
1035.621	-2.58
1036.045	-10.98
1036.468	-1.48
1036.891	-16.78
1037.315	-2.18
1037.738	-5.48
1038.161	-6.58
1038.584	-7.48
1039.008	-0.88
1039.431	-3.18
1039.854	-7.58
1040.277	-7.38
1040.7	-13.78
1041.123	-0.68
1041.546	-4.08
1041.969	-7.58
1042.392	-1.28
1042.815	-4.98
1043.238	-2.48
1043.661	-3.78
1044.084	-5.88
1044.507	-6.68
1044.93	-7.08
1045.352	-7.38
1045.775	-1.78
1046.198	-1.68
1046.621	-6.48
1047.043	-1.58
1047.466	7.12
1047.889	0.22
1048.311	-11.38
1048.734	-0.98
1049.156	-3.28
1049.579	-1.48
1050.001	2.32
1050.424	-1.38
1050.846	-8.78
1051.269	-9.38
1051.691	-2.78
1052.113	-6.38
1052.536	-2.18
1052.958	-1.18
1053.38	-2.68
1053.802	-7.18
1054.225	-5.48
1054.647	-5.68
1055.069	-3.78
1055.491	-2.38
1055.913	-3.78
1056.335	-3.68
1056.757	-1.68
1057.179	-13.88
1057.601	-5.08
1058.023	-3.68
1058.445	-3.48
1058.867	-4.38
1059.289	-3.28
1059.711	-10.18
1060.133	3.92
1060.555	-5.78
1060.976	-11.18
1061.398	-7.78
1061.82	-9.48
1062.241	-8.48
1062.663	-6.78
1063.085	-2.48
1063.506	3.92
1063.928	2.42
1064.35	-2.18
1064.771	-12.68
1065.193	-2.58
1065.614	-10.28
1066.035	0.42
1066.457	-4.48
1066.878	-0.58
1067.3	-6.38
1067.721	-0.08
1068.142	-10.08
1068.564	-3.98
1068.985	-7.78
1069.406	-3.78
1069.827	-7.68
1070.248	-5.18
1070.67	-7.68
1071.091	-6.28
1071.512	-0.08
1071.933	-4.88
1072.354	-6.98
1072.775	-3.78
1073.196	-5.48
1073.617	-0.88
1074.038	-14.68
1074.459	-7.38
1074.88	-7.78
1075.3	-0.48
1075.721	-7.28
1076.142	-2.88
1076.563	0.92
1076.983	-13.88
1077.404	-4.68
1077.825	-9.88
1078.246	-2.48
1078.666	-16.18
1079.087	-14.18
1079.507	-7.38
1079.928	4.72
1080.348	-5.18
1080.769	-7.58
1081.189	0.42
1081.61	-5.98
1082.03	-4.48
1082.451	-5.08
1082.871	-0.98
1083.291	-10.68
1083.711	-11.28
1084.132	-6.88
1084.552	-4.78
1084.972	1.92
1085.392	-15.68
1085.813	-6.28
1086.233	-9.98
1086.653	-8.28
1087.073	-5.18
1087.493	-6.68
1087.913	-7.58
1088.333	-5.68
1088.753	1.92
1089.173	-2.78
1089.593	-5.68
1090.013	-5.28
1090.433	-3.48
1090.852	-4.78
1091.272	-2.28
1091.692	-6.98
1092.112	0.12
1092.531	-12.68
1092.951	-9.68
1093.371	-2.98
1093.79	-2.98
1094.21	-5.88
1094.63	-8.08
1095.049	-8.68
1095.469	-1.78
1095.888	-5.08
1096.308	1.82
1096.727	1.42
1097.146	-5.18
1097.566	-5.58
1097.985	-10.98
1098.405	-4.08
1098.824	-6.58
1099.243	-7.38
1099.662	-11.18
1100.082	-0.88
1100.501	-5.58
1100.92	-10.98
1101.339	-3.78
1101.758	-10.18
