Data from 20171114-ORNL-Ar_H_NY_Subt18_08-09-11-676.txt Node
Date: Tue Nov 14 08:09:11 EST 2017
User: Ender
Spectrometer: HR+D1039
Trigger mode: 0
Integration Time (sec): 2.730000E-2
Scans to average: 10
Electric dark correction enabled: true
Nonlinearity correction enabled: false
Boxcar width: 0
XAxis mode: Wavelengths
Number of Pixels in Spectrum: 2048
>>>>>Begin Spectral Data<<<<<
187.836	-6.83
188.309	-6.83
188.782	-6.83
189.255	2.07
189.728	-3.42
190.201	3.18
190.674	-1.62
191.147	3.67
191.619	-7.33
192.092	4.78
192.565	6.67
193.038	0.17
193.511	4.27
193.984	3.18
194.456	-0.22
194.929	0.48
195.402	-4.83
195.874	-4.22
196.347	1.08
196.82	-10.73
197.292	7.58
197.765	-3.42
198.237	-6.52
198.71	-0.33
199.182	-0.42
199.655	3.88
200.127	3.57
200.6	-1.42
201.072	-2.83
201.544	-6.62
202.017	1.88
202.489	1.48
202.961	-1.92
203.433	-0.23
203.906	-2.92
204.378	-5.62
204.85	-3.12
205.322	-8.02
205.794	-2.93
206.266	-6.82
206.739	-12.42
207.211	-2.32
207.683	-4.92
208.155	-5.33
208.627	-8.92
209.099	-8.42
209.57	-13.82
210.042	-7.43
210.514	-2.22
210.986	-2.82
211.458	-6.62
211.93	-1.23
212.402	-0.42
212.873	-4.73
213.345	-9.92
213.817	-12.92
214.288	-5.83
214.76	-14.23
215.232	-6.22
215.703	-1.62
216.175	-3.82
216.646	-8.02
217.118	-8.52
217.589	-2.12
218.061	-1.52
218.532	-6.22
219.004	0.27
219.475	-4.52
219.946	4.08
220.418	-10.12
220.889	2.98
221.36	1.18
221.832	-5.23
222.303	-6.72
222.774	0.77
223.245	-8.02
223.717	-8.62
224.188	-5.22
224.659	-5.52
225.13	-10.62
225.601	-2.93
226.072	2.68
226.543	-2.62
227.014	-5.62
227.485	-5.23
227.956	-5.42
228.427	-4.82
228.898	-3.02
229.369	-0.83
229.839	-6.92
230.31	-9.02
230.781	2.18
231.252	-9.82
231.722	-7.23
232.193	-5.12
232.664	2.58
233.135	-6.33
233.605	-4.52
234.076	-8.12
234.546	1.07
235.017	5.18
235.487	0.27
235.958	-7.42
236.428	-4.92
236.899	-4.72
237.369	-0.22
237.84	-6.32
238.31	5.98
238.78	-2.82
239.251	-1.42
239.721	-6.32
240.191	-4.92
240.662	-0.52
241.132	-5.92
241.602	-7.12
242.072	-8.12
242.542	-0.12
243.013	-8.23
243.483	0.78
243.953	-6.02
244.423	-2.02
244.893	-7.12
245.363	0.17
245.833	-0.23
246.303	1.27
246.773	1.08
247.243	-0.93
247.712	-0.73
248.182	3.77
248.652	1.88
249.122	-11.73
249.592	-1.52
250.061	2.08
250.531	6.28
251.001	-5.52
251.471	2.98
251.94	4.07
252.41	1.98
252.879	-11.02
253.349	5.48
253.818	2.98
254.288	-6.72
254.757	-4.32
255.227	-1.42
255.696	-2.23
256.166	4.78
256.635	1.28
257.105	0.48
257.574	-2.52
258.043	0.58
258.513	-7.12
258.982	-2.82
259.451	-0.73
259.92	-0.73
260.389	3.18
260.859	8.18
261.328	3.58
261.797	-2.42
262.266	-1.52
262.735	2.58
263.204	4.67
263.673	2.18
264.142	2.08
264.611	-10.73
265.08	-9.52
265.549	-2.92
266.018	2.68
266.487	2.07
266.955	-7.73
267.424	-3.02
267.893	1.58
268.362	-7.62
268.83	-5.73
269.299	8.28
269.768	0.48
270.236	1.18
270.705	-6.32
271.174	0.48
271.642	1.77
272.111	-0.82
272.579	-3.33
273.048	4.67
273.516	-3.02
273.985	-0.52
274.453	1.38
274.922	9.38
275.39	4.98
275.858	-0.73
276.327	7.68
276.795	9.78
277.263	-4.92
277.731	7.88
278.2	2.67
278.668	3.48
279.136	7.98
279.604	-1.42
280.072	4.48
280.54	4.68
281.008	2.08
281.477	11.98
281.945	5.18
282.413	7.17
282.881	8.58
283.348	-0.42
283.816	6.67
284.284	6.27
284.752	17.77
285.22	5.88
285.688	10.67
286.156	10.78
286.623	12.68
287.091	5.58
287.559	12.68
288.026	4.68
288.494	9.48
288.962	-0.62
289.429	3.38
289.897	15.38
290.364	8.27
290.832	9.58
291.3	5.48
291.767	11.58
292.234	12.27
292.702	8.18
293.169	9.88
293.637	13.88
294.104	16.77
294.571	-0.83
295.039	2.38
295.506	1.08
295.973	10.08
296.44	4.78
296.908	12.48
297.375	9.88
297.842	11.18
298.309	11.88
298.776	6.98
299.243	12.57
299.71	7.88
300.177	16.48
300.644	14.38
301.111	15.28
301.578	16.58
302.045	6.78
302.512	14.98
302.979	12.98
303.446	13.08
303.913	8.48
304.379	12.18
304.846	14.98
305.313	15.88
305.78	10.88
306.246	18.77
306.713	16.48
307.18	16.18
307.646	13.48
308.113	16.67
308.579	8.38
309.046	13.38
309.512	17.38
309.979	7.77
310.445	27.27
310.912	16.38
311.378	23.98
311.845	17.38
312.311	22.48
312.777	16.77
313.244	20.88
313.71	32.08
314.176	19.58
314.642	20.27
315.109	20.38
315.575	26.48
316.041	25.28
316.507	17.27
316.973	22.38
317.439	21.98
317.905	24.58
318.371	28.77
318.837	19.18
319.303	24.58
319.769	22.18
320.235	18.98
320.701	25.67
321.167	24.88
321.633	18.08
322.099	31.17
322.564	30.88
323.03	30.67
323.496	26.08
323.962	23.58
324.427	27.48
324.893	35.27
325.359	32.07
325.824	30.27
326.29	23.58
326.755	20.07
327.221	29.98
327.686	29.18
328.152	32.68
328.617	34.18
329.083	39.58
329.548	41.48
330.014	28.28
330.479	29.67
330.944	26.38
331.41	38.98
331.875	30.28
332.34	26.48
332.805	32.98
333.271	26.77
333.736	29.27
334.201	41.58
334.666	37.38
335.131	39.38
335.596	39.07
336.061	35.98
336.526	31.57
336.991	39.28
337.456	39.98
337.921	38.77
338.386	30.77
338.851	37.48
339.316	35.58
339.781	41.68
340.246	41.08
340.711	34.98
341.175	38.18
341.64	37.68
342.105	41.38
342.569	46.88
343.034	46.27
343.499	40.18
343.963	41.78
344.428	48.18
344.893	51.48
345.357	53.98
345.822	44.48
346.286	46.08
346.751	54.98
347.215	54.18
347.679	55.68
348.144	74.48
348.608	58.58
349.073	55.88
349.537	59.18
350.001	61.77
350.465	68.48
350.93	60.08
351.394	63.78
351.858	56.08
352.322	70.08
352.786	62.98
353.25	70.48
353.715	89.78
354.179	72.57
354.643	90.28
355.107	87.58
355.571	77.38
356.035	71.88
356.498	91.38
356.962	84.98
357.426	95.88
357.89	79.88
358.354	69.27
358.818	66.18
359.281	60.38
359.745	63.78
360.209	61.38
360.673	54.38
361.136	65.58
361.6	69.48
362.064	68.98
362.527	67.48
362.991	69.18
363.454	66.68
363.918	65.58
364.381	71.88
364.845	68.48
365.308	69.58
365.772	72.67
366.235	76.27
366.698	68.58
367.162	64.27
367.625	69.58
368.088	76.67
368.552	69.88
369.015	72.08
369.478	75.78
369.941	82.88
370.404	73.98
370.867	81.17
371.331	87.57
371.794	83.88
372.257	81.88
372.72	91.48
373.183	96.08
373.646	82.58
374.109	82.48
374.572	88.38
375.035	85.58
375.497	92.77
375.96	84.58
376.423	89.77
376.886	88.98
377.349	93.58
377.811	85.78
378.274	90.68
378.737	87.58
379.199	95.18
379.662	93.18
380.125	89.58
380.587	92.68
381.05	89.48
381.512	96.48
381.975	99.27
382.437	109.88
382.9	102.38
383.362	111.38
383.825	110.58
384.287	107.68
384.75	101.98
385.212	108.27
385.674	122.27
386.136	116.88
386.599	106.38
387.061	106.68
387.523	106.77
387.985	108.27
388.447	117.08
388.91	112.78
389.372	111.38
389.834	116.17
390.296	112.58
390.758	114.68
391.22	121.98
391.682	130.88
392.144	132.28
392.606	129.88
393.068	128.78
393.529	127.57
393.991	130.68
394.453	116.08
394.915	118.98
395.377	125.48
395.838	127.17
396.3	125.77
396.762	125.88
397.224	119.17
397.685	124.98
398.147	126.28
398.608	120.38
399.07	123.18
399.531	129.38
399.993	138.28
400.454	148.48
400.916	134.58
401.377	133.38
401.839	139.48
402.3	144.17
402.762	150.88
403.223	163.98
403.684	153.67
404.145	152.17
404.607	148.77
405.068	147.58
405.529	151.78
405.99	166.38
406.451	155.27
406.913	159.08
407.374	148.58
407.835	153.68
408.296	153.68
408.757	159.48
409.218	178.38
409.679	166.38
410.14	163.68
410.601	166.58
411.062	168.78
411.522	167.38
411.983	163.98
412.444	166.28
412.905	169.68
413.366	166.68
413.826	186.58
414.287	210.08
414.748	249.98
415.208	235.18
415.669	205.07
416.13	201.38
416.59	198.67
417.051	204.68
417.511	209.68
417.972	230.38
418.432	237.48
418.893	278.88
419.353	236.88
419.814	193.58
420.274	177.67
420.734	173.38
421.195	187.77
421.655	182.18
422.115	186.88
422.576	187.07
423.036	188.77
423.496	194.88
423.956	207.98
424.416	218.98
424.876	255.18
425.336	247.27
425.797	250.18
426.257	237.68
426.717	225.77
427.177	219.98
427.637	211.77
428.097	227.18
428.556	232.38
429.016	253.88
429.476	246.77
429.936	250.58
430.396	267.08
430.856	268.18
431.315	289.48
431.775	315.68
432.235	358.88
432.694	319.38
433.154	336.98
433.614	356.77
434.073	317.27
434.533	267.07
434.993	257.08
435.452	271.67
435.912	270.07
436.371	269.38
436.83	259.18
437.29	249.98
437.749	238.78
438.209	237.88
438.668	262.17
439.127	273.48
439.587	245.77
440.046	229.98
440.505	245.38
440.964	258.87
441.424	303.07
441.883	288.38
442.342	252.48
442.801	222.78
443.26	213.97
443.719	222.67
444.178	219.47
444.637	207.58
445.096	213.18
445.555	208.08
446.014	222.98
446.473	223.67
446.932	226.27
447.391	221.78
447.849	222.98
448.308	219.78
448.767	216.88
449.226	230.68
449.685	232.88
450.143	248.38
450.602	235.27
451.061	234.67
451.519	231.18
451.978	226.08
452.436	229.48
452.895	236.18
453.353	241.48
453.812	235.68
454.27	237.08
454.729	236.68
455.187	233.58
455.646	245.68
456.104	242.48
456.562	263.07
457.021	260.58
457.479	261.78
457.937	268.48
458.395	265.07
458.854	251.58
459.312	249.88
459.77	274.48
460.228	251.48
460.686	239.28
461.144	247.58
461.602	245.18
462.06	246.07
462.518	252.18
462.976	247.57
463.434	255.48
463.892	261.88
464.35	272.98
464.808	285.28
465.266	256.38
465.724	265.58
466.181	276.38
466.639	273.08
467.097	286.48
467.555	295.48
468.012	307.58
468.47	309.28
468.928	313.77
469.385	341.08
469.843	340.67
470.3	349.68
470.758	352.38
471.215	375.38
471.673	401.58
472.13	392.68
472.588	412.08
473.045	367.58
473.503	373.38
473.96	396.47
474.417	400.08
474.875	422.57
475.332	462.67
475.789	450.88
476.246	456.27
476.704	480.68
477.161	491.58
477.618	506.97
478.075	545.58
478.532	584.88
478.989	666.58
479.446	763.08
479.903	732.38
480.36	762.67
480.817	811.87
481.274	907.47
481.731	990.47
482.188	1063.88
482.645	1179.78
483.102	1265.97
483.558	1382.47
484.015	1422.97
484.472	1393.78
484.929	1351.67
485.385	1310.08
485.842	1278.57
486.299	1234.17
486.755	1200.98
487.212	1010.88
487.668	880.98
488.125	809.38
488.582	752.77
489.038	726.28
489.494	695.07
489.951	668.58
490.407	657.38
490.864	629.88
491.32	622.98
491.776	628.48
492.233	636.87
492.689	601.58
493.145	593.18
493.602	594.08
494.058	601.67
494.514	603.77
494.97	614.68
495.426	640.78
495.882	611.88
496.338	602.48
496.794	618.17
497.251	603.28
497.707	625.38
498.163	627.97
498.618	632.27
499.074	636.78
499.53	655.38
499.986	653.77
500.442	645.48
500.898	612.68
501.354	617.68
501.809	615.18
502.265	621.08
502.721	625.98
503.177	637.58
503.632	635.97
504.088	642.48
504.543	671.07
504.999	695.28
505.455	652.27
505.91	634.28
506.366	631.88
506.821	629.27
507.277	632.48
507.732	632.48
508.187	618.38
508.643	632.88
509.098	638.28
509.553	658.87
510.009	659.38
510.464	672.67
510.919	696.28
511.375	706.48
511.83	708.87
512.285	713.77
512.74	750.58
513.195	779.48
513.65	770.27
514.105	760.48
514.56	765.98
515.015	783.58
515.47	800.67
515.925	778.48
516.38	785.67
516.835	792.97
517.29	775.88
517.745	773.77
518.2	761.27
518.655	754.37
519.109	742.77
519.564	742.38
520.019	723.38
520.474	726.27
520.928	731.38
521.383	724.87
521.838	712.78
522.292	712.28
522.747	720.38
523.201	708.68
523.656	706.28
524.11	698.38
524.565	689.48
525.019	692.68
525.474	707.47
525.928	696.08
526.382	703.58
526.837	700.28
527.291	704.17
527.745	711.98
528.2	693.57
528.654	697.58
529.108	671.78
529.562	693.38
530.016	693.77
530.47	698.78
530.925	696.58
531.379	693.88
531.833	711.77
532.287	705.27
532.741	709.98
533.195	703.48
533.649	712.47
534.103	713.98
534.556	706.77
535.01	713.88
535.464	713.97
535.918	722.18
536.372	721.38
536.826	712.88
537.279	699.68
537.733	711.78
538.187	709.47
538.64	720.18
539.094	728.17
539.548	730.98
540.001	725.27
540.455	729.07
540.908	742.08
541.362	751.17
541.815	754.98
542.269	766.07
542.722	772.08
543.175	773.97
543.629	767.18
544.082	798.28
544.536	795.28
544.989	793.88
545.442	799.67
545.895	797.68
546.349	801.77
546.802	800.98
547.255	808.97
547.708	819.58
548.161	828.27
548.614	837.18
549.067	834.78
549.52	822.48
549.973	821.97
550.426	812.68
550.879	801.47
551.332	815.48
551.785	822.08
552.238	819.47
552.691	836.18
553.144	844.98
553.596	865.98
554.049	867.47
554.502	897.58
554.955	930.77
555.407	914.78
555.86	905.58
556.313	893.88
556.765	892.68
557.218	900.48
557.67	887.87
558.123	890.57
558.576	887.67
559.028	887.77
559.48	894.88
559.933	890.08
560.385	856.98
560.838	824.77
561.29	800.38
561.742	798.88
562.195	787.17
562.647	778.48
563.099	789.68
563.551	786.28
564.004	796.18
564.456	783.27
564.908	776.27
565.36	760.38
565.812	740.88
566.264	724.98
566.716	721.27
567.168	716.57
567.62	727.68
568.072	713.67
568.524	710.68
568.976	704.98
569.428	689.78
569.88	693.78
570.332	693.98
570.784	697.37
571.235	703.98
571.687	712.08
572.139	723.68
572.59	725.57
573.042	727.57
573.494	734.48
573.945	720.57
574.397	700.67
574.849	701.28
575.3	705.38
575.752	696.28
576.203	683.98
576.655	695.18
577.106	687.67
577.557	673.88
578.009	677.38
578.46	674.57
578.912	682.98
579.363	677.38
579.814	683.57
580.265	684.18
580.717	690.58
581.168	677.88
581.619	696.18
582.07	692.18
582.521	684.48
582.972	680.48
583.423	691.38
583.875	696.48
584.326	698.18
584.777	707.18
585.227	729.47
585.678	745.97
586.129	752.57
586.58	780.18
587.031	801.78
587.482	844.68
587.933	859.17
588.384	835.48
588.834	805.98
589.285	792.07
589.736	797.67
590.186	784.48
590.637	780.38
591.088	775.18
591.538	756.28
591.989	750.67
592.439	739.07
592.89	730.27
593.34	722.08
593.791	722.68
594.241	719.27
594.692	709.58
595.142	708.08
595.593	711.88
596.043	717.18
596.493	713.17
596.943	711.88
597.394	732.78
597.844	738.78
598.294	755.58
598.744	777.08
599.195	790.88
599.645	837.88
600.095	886.88
600.545	940.07
600.995	994.07
601.445	1056.77
601.895	1122.67
602.345	1156.78
602.795	1152.58
603.245	1096.47
603.695	1040.68
604.145	986.07
604.594	942.08
605.044	882.78
605.494	826.98
605.944	773.78
606.393	767.88
606.843	740.38
607.293	750.38
607.743	730.98
608.192	755.37
608.642	772.98
609.091	779.68
609.541	783.08
609.99	774.48
610.44	772.88
610.889	729.77
611.339	704.07
611.788	699.38
612.238	701.98
612.687	705.98
613.136	707.98
613.586	727.38
614.035	712.88
614.484	718.78
614.933	729.28
615.383	719.48
615.832	728.58
616.281	719.48
616.73	685.38
617.179	665.98
617.628	657.07
618.077	642.78
618.526	637.27
618.975	628.38
619.424	629.68
619.873	637.68
620.322	620.78
620.771	614.58
621.22	618.98
621.669	616.88
622.118	594.68
622.567	586.08
623.015	583.08
623.464	581.58
623.913	572.07
624.361	565.98
624.81	560.47
625.259	570.68
625.707	565.48
626.156	575.28
626.604	584.68
627.053	575.27
627.501	579.77
627.95	584.08
628.398	591.98
628.847	577.38
629.295	577.38
629.744	591.18
630.192	589.77
630.64	574.77
631.089	561.68
631.537	551.28
631.985	545.88
632.433	546.38
632.881	536.98
633.33	544.07
633.778	544.67
634.226	538.18
634.674	546.98
635.122	545.57
635.57	565.98
636.018	574.17
636.466	572.67
636.914	567.67
637.362	582.38
637.81	589.38
638.258	604.58
638.705	599.78
639.153	629.97
639.601	638.47
640.049	667.77
640.497	694.77
640.944	716.38
641.392	667.97
641.84	632.07
642.287	602.28
642.735	577.68
643.182	576.58
643.63	578.28
644.078	581.48
644.525	596.68
644.973	591.78
645.42	594.57
645.867	627.17
646.315	645.27
646.762	680.48
647.21	693.68
647.657	718.27
648.104	752.78
648.551	768.78
648.999	822.98
649.446	901.38
649.893	983.88
650.34	1134.78
650.787	1335.57
651.234	1652.28
651.682	2137.57
652.129	2916.47
652.576	4176.68
653.023	6069.68
653.47	8184.38
653.917	10060.17
654.363	11497.48
654.81	12594.48
655.257	11982.88
655.704	7916.97
656.151	4765.77
656.598	3126.18
657.044	2257.57
657.491	1759.07
657.938	1422.57
658.385	1202.88
658.831	1041.17
659.278	935.88
659.724	842.27
660.171	785.27
660.618	720.17
661.064	689.68
661.511	666.48
661.957	654.57
662.404	658.08
662.85	643.68
663.296	634.67
663.743	566.37
664.189	549.98
664.635	547.97
665.082	539.88
665.528	539.77
665.974	534.67
666.42	521.57
666.867	513.08
667.313	505.28
667.759	479.07
668.205	464.88
668.651	459.98
669.097	456.77
669.543	455.87
669.989	457.88
670.435	464.38
670.881	462.18
671.327	463.58
671.773	491.37
672.219	512.18
672.665	566.07
673.11	608.87
673.556	647.97
674.002	694.48
674.448	685.68
674.893	569.28
675.339	492.68
675.785	450.48
676.23	430.98
676.676	416.17
677.122	394.18
677.567	386.97
678.013	379.78
678.458	375.48
678.904	371.08
679.349	364.38
679.794	369.38
680.24	364.88
680.685	366.38
681.131	360.88
681.576	356.98
682.021	368.17
682.466	362.57
682.912	361.68
683.357	360.48
683.802	396.48
684.247	433.98
684.692	478.57
685.137	525.17
685.583	565.08
686.028	593.18
686.473	543.98
686.918	475.77
687.363	438.98
687.807	406.48
688.252	378.48
688.697	363.68
689.142	358.97
689.587	340.98
690.032	345.27
690.477	359.27
690.921	363.38
691.366	409.47
691.811	416.77
692.255	453.48
692.7	488.78
693.145	535.58
693.589	764.07
694.034	1234.88
694.478	1637.77
694.923	1817.18
695.367	2345.97
695.812	1247.67
696.256	526.98
696.701	384.57
697.145	365.58
697.59	341.77
698.034	338.07
698.478	337.77
698.922	333.18
699.367	333.28
699.811	347.17
700.255	373.68
700.699	401.38
701.143	443.98
701.588	493.57
702.032	539.08
702.476	527.88
702.92	512.98
703.364	527.68
703.808	700.98
704.252	1126.68
704.696	1551.27
705.14	1758.67
705.584	2227.38
706.027	1127.27
706.471	552.27
706.915	416.07
707.359	369.47
707.803	346.87
708.246	324.77
708.69	330.57
709.134	336.17
709.577	320.38
710.021	331.88
710.465	327.27
710.908	317.08
711.352	306.28
711.795	323.07
712.239	370.58
712.682	400.68
713.126	430.87
713.569	474.38
714.012	369.98
714.456	318.27
714.899	304.48
715.342	283.77
715.786	264.67
716.229	266.18
716.672	266.28
717.115	262.38
717.558	268.27
718.002	261.68
718.445	276.28
718.888	303.98
719.331	308.77
719.774	322.17
720.217	322.78
720.66	301.27
721.103	283.77
721.546	262.38
721.989	262.98
722.432	249.17
722.874	247.57
723.317	233.67
723.76	246.97
724.203	267.07
724.645	337.38
725.088	482.68
725.531	604.38
725.974	676.98
726.416	574.07
726.859	324.48
727.301	252.48
727.744	245.77
728.187	242.98
728.629	256.37
729.071	260.78
729.514	276.58
729.956	291.68
730.399	297.47
730.841	300.57
731.283	290.48
731.726	279.77
732.168	271.78
732.61	277.87
733.053	308.27
733.495	337.08
733.937	366.58
734.379	421.48
734.821	468.78
735.263	593.68
735.705	924.17
736.148	1758.78
736.59	2784.57
737.032	3168.77
737.474	2604.77
737.916	884.38
738.357	459.17
738.799	343.67
739.241	312.17
739.683	301.68
740.125	300.97
740.567	306.38
741.008	331.18
741.45	333.38
741.892	333.48
742.334	371.58
742.775	383.18
743.217	359.98
743.658	284.98
744.1	276.58
744.542	280.78
744.983	329.98
745.425	368.77
745.866	362.58
746.307	293.48
746.749	297.38
747.19	350.77
747.632	498.08
748.073	985.68
748.514	2062.68
748.956	3048.97
749.397	3831.97
749.838	3158.57
750.279	3076.78
750.72	1594.58
751.162	591.58
751.603	344.07
752.044	262.68
752.485	230.48
752.926	222.48
753.367	213.07
753.808	206.87
754.249	200.08
754.69	194.08
755.131	184.88
755.572	191.88
756.013	187.17
756.453	190.58
756.894	198.38
757.335	203.27
757.776	204.27
758.216	204.07
758.657	211.58
759.098	210.38
759.538	237.48
759.979	293.77
760.42	412.17
760.86	795.38
761.301	2074.88
761.741	4873.18
762.182	6668.08
762.622	4743.18
763.063	1406.97
763.503	572.68
763.943	352.38
764.384	291.77
764.824	261.18
765.264	243.17
765.705	216.88
766.145	193.67
766.585	179.88
767.025	174.88
767.465	176.67
767.906	188.58
768.346	196.68
768.786	215.68
769.226	231.88
769.666	337.87
770.106	690.07
770.546	1729.47
770.986	2776.48
771.426	2436.07
771.866	834.18
772.306	345.58
772.745	215.58
773.185	179.08
773.625	170.38
774.065	162.38
774.505	169.17
774.944	218.48
775.384	390.27
775.824	613.48
776.263	572.58
776.703	287.38
777.142	166.58
777.582	135.07
778.021	126.48
778.461	131.28
778.9	129.18
779.34	135.48
779.779	121.48
780.219	117.78
780.658	112.88
781.097	116.48
781.537	118.27
781.976	112.57
782.415	110.07
782.855	106.58
783.294	111.38
783.733	111.18
784.172	110.38
784.611	108.77
785.05	112.88
785.489	116.68
785.928	122.77
786.367	126.58
786.806	120.88
787.245	132.07
787.684	141.98
788.123	152.48
788.562	146.58
789.001	139.28
789.44	130.88
789.879	119.38
790.317	119.48
790.756	136.98
791.195	136.08
791.634	150.58
792.072	218.77
792.511	406.58
792.95	1130.18
793.388	2243.57
793.827	1974.78
794.265	699.78
794.704	302.08
795.142	197.28
795.581	162.08
796.019	146.98
796.458	135.48
796.896	129.08
797.334	141.18
797.773	162.27
798.211	236.97
798.649	490.07
799.087	1103.67
799.526	1723.68
799.964	2157.38
800.402	2102.07
800.84	799.77
801.278	329.38
801.716	200.77
802.154	158.67
802.592	153.38
803.03	146.98
803.468	140.38
803.906	150.78
804.344	165.88
804.782	153.78
805.22	145.07
805.658	137.08
806.096	156.28
806.533	167.38
806.971	188.17
807.409	240.98
807.847	351.68
808.284	739.68
808.722	2065.77
809.16	3498.98
809.597	3463.38
810.035	5869.07
810.472	5983.77
810.91	2232.88
811.347	865.88
811.785	433.48
812.222	276.07
812.66	208.77
813.097	177.07
813.535	153.57
813.972	141.08
814.409	127.18
814.846	118.38
815.284	116.18
815.721	107.88
816.158	108.28
816.595	112.78
817.032	161.38
817.47	185.38
817.907	131.18
818.344	106.98
818.781	103.58
819.218	99.88
819.655	130.28
820.092	204.67
820.529	221.27
820.966	178.48
821.403	124.77
821.839	101.88
822.276	105.98
822.713	129.77
823.15	141.98
823.587	124.08
824.023	162.88
824.46	337.68
824.897	989.17
825.333	1409.68
825.77	612.77
826.206	242.07
826.643	145.27
827.08	112.08
827.516	90.08
827.953	82.18
828.389	83.57
828.825	75.58
829.262	70.48
829.698	67.98
830.135	69.18
830.571	67.38
831.007	66.38
831.443	62.58
831.88	59.98
832.316	64.38
832.752	67.68
833.188	65.58
833.624	70.88
834.06	78.88
834.497	73.48
834.933	72.98
835.369	77.08
835.805	69.27
836.241	83.07
836.677	80.48
837.112	95.98
837.548	107.18
837.984	142.88
838.42	220.08
838.856	562.67
839.292	1668.47
839.727	2410.18
840.163	1138.07
840.599	1031.07
841.034	2193.28
841.47	2182.38
841.906	813.08
842.341	352.78
842.777	217.38
843.212	210.68
843.648	185.98
844.083	108.57
844.519	84.88
844.954	70.48
845.39	60.78
845.825	58.08
846.261	64.88
846.696	57.08
847.131	53.98
847.566	64.17
848.002	53.98
848.437	56.88
848.872	67.28
849.307	69.28
849.742	94.28
850.177	204.68
850.613	604.38
851.048	927.57
851.483	405.68
851.918	166.98
852.353	88.98
852.788	55.88
853.223	53.27
853.657	54.57
854.092	49.48
854.527	47.48
854.962	43.08
855.397	39.48
855.832	53.98
856.266	46.48
856.701	42.38
857.136	31.88
857.57	43.78
858.005	53.48
858.44	60.18
858.874	44.58
859.309	57.48
859.743	48.38
860.178	49.27
860.612	49.98
861.047	56.77
861.481	66.58
861.915	81.48
862.35	53.38
862.784	37.38
863.218	43.38
863.653	35.27
864.087	47.38
864.521	52.68
864.955	70.28
865.39	164.77
865.824	185.28
866.258	120.48
866.692	181.18
867.126	189.38
867.56	107.88
867.994	55.88
868.428	42.38
868.862	50.28
869.296	53.38
869.73	59.67
870.164	55.58
870.598	47.68
871.031	36.58
871.465	28.77
871.899	30.98
872.333	25.98
872.766	27.38
873.2	25.48
873.634	34.58
874.067	26.58
874.501	24.27
874.935	33.98
875.368	36.27
875.802	29.27
876.235	23.77
876.669	29.38
877.102	27.08
877.535	29.48
877.969	25.58
878.402	27.08
878.836	27.38
879.269	23.98
879.702	24.27
880.135	23.07
880.569	28.67
881.002	23.08
881.435	19.08
881.868	15.48
882.301	26.58
882.734	19.38
883.167	21.58
883.601	19.18
884.034	25.77
884.467	11.98
884.899	22.77
885.332	15.38
885.765	18.88
886.198	24.88
886.631	14.17
887.064	18.88
887.497	23.27
887.929	28.77
888.362	13.68
888.795	6.98
889.228	25.18
889.66	21.27
890.093	17.48
890.526	18.17
890.958	19.18
891.391	23.88
891.823	15.48
892.256	13.18
892.688	16.17
893.121	19.78
893.553	17.88
893.985	19.77
894.418	15.17
894.85	12.78
895.282	12.27
895.715	11.18
896.147	16.28
896.579	17.27
897.011	13.28
897.444	13.88
897.876	15.08
898.308	17.67
898.74	18.58
899.172	12.78
899.604	21.68
900.036	23.07
900.468	16.68
900.9	18.88
901.332	14.38
901.764	16.58
902.196	13.78
902.628	19.77
903.06	17.88
903.491	30.58
903.923	16.77
904.355	18.78
904.787	28.48
905.218	29.28
905.65	25.17
906.082	12.88
906.513	17.08
906.945	18.38
907.376	13.67
907.808	22.68
908.239	24.28
908.671	19.28
909.102	22.08
909.534	27.98
909.965	45.18
910.397	104.67
910.828	340.67
911.259	492.68
911.691	226.38
912.122	114.68
912.553	50.08
912.984	33.58
913.415	26.78
913.847	23.18
914.278	13.98
914.709	14.58
915.14	15.18
915.571	21.27
916.002	14.38
916.433	25.08
916.864	22.17
917.295	13.48
917.726	22.58
918.157	19.57
918.587	31.68
919.018	22.88
919.449	21.58
919.88	29.27
920.311	35.28
920.741	60.88
921.172	180.38
921.603	165.57
922.033	73.98
922.464	47.88
922.895	22.57
923.325	15.58
923.756	10.67
924.186	16.68
924.617	16.18
925.047	19.28
925.478	27.48
925.908	22.18
926.338	8.58
926.769	16.68
927.199	17.78
927.629	10.08
928.06	13.68
928.49	13.78
928.92	5.58
929.35	9.28
929.78	11.17
930.21	8.77
930.641	10.48
931.071	2.98
931.501	7.48
931.931	7.08
932.361	5.38
932.791	1.38
933.221	0.88
933.651	3.18
934.08	20.48
934.51	32.98
934.94	7.68
935.37	15.58
935.8	17.88
936.229	7.77
936.659	5.77
937.089	1.08
937.519	17.77
937.948	24.17
938.378	15.98
938.807	6.88
939.237	0.28
939.666	9.88
940.096	-3.92
940.525	4.48
940.955	0.38
941.384	0.18
941.814	-3.73
942.243	2.18
942.672	2.88
943.102	-2.82
943.531	3.98
943.96	5.88
944.39	0.67
944.819	-3.12
945.248	6.88
945.677	3.08
946.106	8.18
946.535	3.77
946.964	2.08
947.393	10.08
947.822	-4.12
948.251	-3.83
948.68	3.08
949.109	3.17
949.538	2.98
949.967	1.08
950.396	-1.83
950.825	-2.73
951.254	0.18
951.682	-3.02
952.111	0.98
952.54	7.28
952.969	-2.02
953.397	-6.83
953.826	-6.12
954.254	-0.32
954.683	2.27
955.112	-2.42
955.54	-0.52
955.969	0.58
956.397	-1.52
956.826	-2.12
957.254	3.48
957.682	1.67
958.111	6.38
958.539	3.68
958.967	1.98
959.396	-3.83
959.824	-4.52
960.252	-0.23
960.68	-4.33
961.109	-4.02
961.537	-7.92
961.965	-0.73
962.393	0.98
962.821	2.08
963.249	-0.12
963.677	3.68
964.105	2.58
964.533	53.78
964.961	40.88
965.389	16.78
965.817	11.48
966.245	5.58
966.672	-0.42
967.1	-6.02
967.528	2.48
967.956	-0.22
968.383	-0.62
968.811	-2.32
969.239	3.38
969.666	-7.32
970.094	-0.72
970.522	7.27
970.949	3.48
971.377	-7.82
971.804	-4.42
972.232	-5.52
972.659	-4.22
973.087	-3.12
973.514	-5.12
973.941	-1.02
974.369	0.08
974.796	1.68
975.223	-0.02
975.651	-0.32
976.078	2.38
976.505	-1.52
976.932	3.98
977.359	15.98
977.786	21.88
978.214	4.17
978.641	-5.73
979.068	-3.73
979.495	-1.12
979.922	3.57
980.349	-8.02
980.776	3.98
981.202	-3.73
981.629	13.77
982.056	8.88
982.483	2.38
982.91	3.58
983.337	-7.82
983.763	5.67
984.19	-1.23
984.617	-6.32
985.043	-7.52
985.47	-3.32
985.897	-3.92
986.323	-3.12
986.75	5.38
987.176	-2.62
987.603	0.77
988.029	1.57
988.456	-1.23
988.882	1.08
989.308	-7.33
989.735	-9.43
990.161	-0.32
990.587	-3.52
991.014	-2.82
991.44	5.77
991.866	-1.32
992.292	-2.02
992.719	0.98
993.145	4.08
993.571	-8.72
993.997	-1.42
994.423	-6.02
994.849	-3.83
995.275	0.58
995.701	-4.02
996.127	-0.62
996.553	-2.22
996.979	-2.02
997.405	-0.42
997.83	-5.83
998.256	-5.23
998.682	-4.32
999.108	-6.23
999.534	0.88
999.959	-2.23
1000.385	-6.32
1000.811	-0.62
1001.236	-8.23
1001.662	-9.02
1002.087	-11.52
1002.513	1.07
1002.938	1.28
1003.364	-2.62
1003.789	-0.32
1004.215	7.28
1004.64	-0.12
1005.066	1.38
1005.491	-1.82
1005.916	0.38
1006.342	-6.72
1006.767	-7.22
1007.192	7.98
1007.617	-2.12
1008.042	-4.52
1008.468	-8.73
1008.893	-12.32
1009.318	0.08
1009.743	1.57
1010.168	-1.12
1010.593	0.88
1011.018	-7.62
1011.443	1.88
1011.868	4.08
1012.293	-2.82
1012.718	-9.02
1013.143	1.67
1013.567	-2.73
1013.992	0.08
1014.417	-11.42
1014.842	1.98
1015.267	2.38
1015.691	-4.52
1016.116	3.98
1016.541	0.68
1016.965	0.57
1017.39	1.98
1017.814	-1.72
1018.239	-1.02
1018.663	-5.02
1019.088	-10.52
1019.512	-5.52
1019.937	-3.82
1020.361	-6.73
1020.785	-12.33
1021.21	-7.92
1021.634	-3.02
1022.058	4.38
1022.483	-1.12
1022.907	-6.42
1023.331	-5.22
1023.755	-10.23
1024.179	-7.12
1024.604	-6.22
1025.028	-8.43
1025.452	-4.92
1025.876	-5.43
1026.3	-3.92
1026.724	-10.42
1027.148	-1.32
1027.572	-10.82
1027.996	-7.92
1028.42	-6.93
1028.843	-5.52
1029.267	-2.33
1029.691	-1.12
1030.115	-10.62
1030.539	-4.52
1030.962	-4.92
1031.386	-11.52
1031.81	-3.82
1032.233	-1.92
1032.657	-5.52
1033.08	1.48
1033.504	-4.83
1033.927	-5.52
1034.351	7.88
1034.774	-1.02
1035.198	-3.73
1035.621	-1.52
1036.045	-6.42
1036.468	-2.83
1036.891	-8.12
1037.315	-7.33
1037.738	-8.42
1038.161	1.57
1038.584	-8.52
1039.008	-3.82
1039.431	-2.02
1039.854	-8.33
1040.277	-5.92
1040.7	-14.22
1041.123	0.98
1041.546	-12.12
1041.969	-5.42
1042.392	-7.73
1042.815	-0.83
1043.238	-4.73
1043.661	2.27
1044.084	-7.32
1044.507	-6.42
1044.93	-1.52
1045.352	-1.62
1045.775	0.38
1046.198	-2.02
1046.621	-1.22
1047.043	4.78
1047.466	4.98
1047.889	-2.33
1048.311	-2.62
1048.734	-4.42
1049.156	-5.42
1049.579	3.48
1050.001	-2.22
1050.424	0.07
1050.846	-1.62
1051.269	-3.52
1051.691	-7.32
1052.113	0.17
1052.536	-0.22
1052.958	-1.52
1053.38	-9.02
1053.802	-8.12
1054.225	0.27
1054.647	-8.92
1055.069	-5.33
1055.491	5.58
1055.913	-5.83
1056.335	2.77
1056.757	-3.52
1057.179	-7.92
1057.601	-6.52
1058.023	-0.02
1058.445	-4.83
1058.867	-5.73
1059.289	-2.12
1059.711	-10.22
1060.133	-1.33
1060.555	-5.52
1060.976	-7.83
1061.398	-7.73
1061.82	-7.12
1062.241	-9.02
1062.663	-8.02
1063.085	0.38
1063.506	2.28
1063.928	-4.73
1064.35	3.08
1064.771	-8.73
1065.193	-4.43
1065.614	-7.52
1066.035	-2.52
1066.457	-3.92
1066.878	5.98
1067.3	-4.52
1067.721	-1.33
1068.142	-7.52
1068.564	-4.92
1068.985	-8.62
1069.406	-5.72
1069.827	-3.52
1070.248	-0.62
1070.67	-5.92
1071.091	-11.72
1071.512	-5.43
1071.933	-4.83
1072.354	-12.62
1072.775	-8.22
1073.196	-10.12
1073.617	-1.93
1074.038	-7.72
1074.459	0.08
1074.88	-9.02
1075.3	0.98
1075.721	-9.23
1076.142	2.18
1076.563	0.38
1076.983	-11.23
1077.404	-7.52
1077.825	-10.52
1078.246	-6.42
1078.666	-10.12
1079.087	-10.42
1079.507	-8.93
1079.928	-1.33
1080.348	-2.12
1080.769	-5.92
1081.189	-3.12
1081.61	-5.32
1082.03	-2.73
1082.451	-7.42
1082.871	-7.42
1083.291	-10.23
1083.711	-14.52
1084.132	-3.62
1084.552	-3.23
1084.972	-0.42
1085.392	-16.93
1085.813	-11.62
1086.233	-5.62
1086.653	-4.12
1087.073	-9.12
1087.493	-5.02
1087.913	-12.02
1088.333	-6.42
1088.753	-4.83
1089.173	-1.62
1089.593	-0.72
1090.013	4.67
1090.433	-5.92
1090.852	-5.23
1091.272	-2.62
1091.692	-4.92
1092.112	-10.32
1092.531	-3.33
1092.951	-13.62
1093.371	-5.43
1093.79	3.28
1094.21	-3.62
1094.63	-7.32
1095.049	-4.52
1095.469	1.88
1095.888	-3.12
1096.308	4.67
1096.727	0.08
1097.146	-9.02
1097.566	-0.52
1097.985	-3.62
1098.405	-1.72
1098.824	-7.73
1099.243	-7.42
1099.662	-8.92
1100.082	-4.22
1100.501	-0.62
1100.92	-8.73
1101.339	-4.43
1101.758	-2.12
