Data from 20171114-ORNL-Ar_H_NY_Subt18_08-08-56-117.txt Node
Date: Tue Nov 14 08:08:56 EST 2017
User: Ender
Spectrometer: HR+D1039
Trigger mode: 0
Integration Time (sec): 2.730000E-2
Scans to average: 10
Electric dark correction enabled: true
Nonlinearity correction enabled: false
Boxcar width: 0
XAxis mode: Wavelengths
Number of Pixels in Spectrum: 2048
>>>>>Begin Spectral Data<<<<<
187.836	-4.38
188.309	-4.38
188.782	-4.38
189.255	1.52
189.728	0.72
190.201	4.42
190.674	3.12
191.147	-1.28
191.619	-7.28
192.092	-0.28
192.565	2.42
193.038	2.92
193.511	-0.58
193.984	-3.58
194.456	-1.78
194.929	0.42
195.402	-0.78
195.874	4.42
196.347	-0.58
196.82	-11.28
197.292	6.42
197.765	-1.28
198.237	-7.78
198.71	0.42
199.182	-3.18
199.655	1.42
200.127	-1.28
200.6	-2.78
201.072	-4.78
201.544	-5.68
202.017	-3.18
202.489	5.72
202.961	0.72
203.433	-1.98
203.906	-4.88
204.378	-9.18
204.85	-7.68
205.322	-13.48
205.794	-4.68
206.266	1.02
206.739	-8.68
207.211	7.12
207.683	-5.88
208.155	-6.28
208.627	-6.08
209.099	-5.28
209.57	-7.38
210.042	-2.58
210.514	-2.08
210.986	-1.28
211.458	-9.18
211.93	-2.48
212.402	1.82
212.873	-8.78
213.345	-10.98
213.817	-13.28
214.288	-9.58
214.76	-10.08
215.232	-1.38
215.703	-3.38
216.175	-4.58
216.646	-10.08
217.118	-7.28
217.589	-8.38
218.061	1.02
218.532	-3.48
219.004	-1.88
219.475	-3.98
219.946	-1.18
220.418	-9.78
220.889	1.72
221.36	1.52
221.832	-1.38
222.303	-9.18
222.774	2.42
223.245	-13.28
223.717	-8.48
224.188	-6.18
224.659	-9.38
225.13	-9.58
225.601	-4.08
226.072	0.62
226.543	-3.78
227.014	-6.08
227.485	-1.68
227.956	-7.18
228.427	-3.08
228.898	2.22
229.369	0.82
229.839	-2.48
230.31	-7.38
230.781	0.02
231.252	-8.58
231.722	-3.78
232.193	-3.68
232.664	0.82
233.135	-5.48
233.605	-7.28
234.076	-9.28
234.546	-7.58
235.017	-5.98
235.487	-0.38
235.958	-2.78
236.428	-11.88
236.899	-1.48
237.369	-3.18
237.84	-4.58
238.31	3.82
238.78	-3.68
239.251	-0.88
239.721	0.12
240.191	-2.48
240.662	-3.58
241.132	-0.58
241.602	-4.88
242.072	-3.38
242.542	2.42
243.013	-1.68
243.483	6.02
243.953	-2.88
244.423	-9.28
244.893	-6.88
245.363	-0.58
245.833	1.02
246.303	-2.98
246.773	0.52
247.243	0.32
247.712	0.32
248.182	4.52
248.652	0.72
249.122	-10.28
249.592	4.02
250.061	7.82
250.531	16.72
251.001	7.12
251.471	12.22
251.94	13.32
252.41	2.12
252.879	-1.48
253.349	14.12
253.818	6.12
254.288	6.52
254.757	0.32
255.227	-1.58
255.696	-6.88
256.166	-0.88
256.635	1.22
257.105	2.62
257.574	2.12
258.043	4.52
258.513	2.82
258.982	4.42
259.451	-3.68
259.92	5.82
260.389	8.22
260.859	11.32
261.328	3.82
261.797	7.12
262.266	2.42
262.735	6.72
263.204	-1.48
263.673	-3.58
264.142	-5.18
264.611	-6.08
265.08	-1.58
265.549	-1.18
266.018	5.12
266.487	-5.58
266.955	-5.68
267.424	-6.08
267.893	-0.78
268.362	0.62
268.83	-0.78
269.299	4.82
269.768	3.72
270.236	3.12
270.705	-4.78
271.174	1.62
271.642	-2.98
272.111	2.32
272.579	4.12
273.048	10.32
273.516	14.12
273.985	9.72
274.453	11.82
274.922	14.02
275.39	6.02
275.858	0.62
276.327	4.02
276.795	16.02
277.263	4.52
277.731	22.62
278.2	28.42
278.668	27.42
279.136	25.02
279.604	9.02
280.072	11.82
280.54	0.72
281.008	4.12
281.477	6.92
281.945	3.02
282.413	14.22
282.881	13.22
283.348	-1.08
283.816	7.12
284.284	3.52
284.752	6.12
285.22	7.92
285.688	11.22
286.156	7.82
286.623	29.12
287.091	28.52
287.559	15.42
288.026	9.82
288.494	13.42
288.962	-2.08
289.429	2.32
289.897	9.22
290.364	6.72
290.832	10.32
291.3	8.12
291.767	16.12
292.234	13.12
292.702	2.82
293.169	7.72
293.637	15.12
294.104	12.92
294.571	7.72
295.039	3.82
295.506	-1.78
295.973	4.32
296.44	8.62
296.908	13.12
297.375	16.02
297.842	15.82
298.309	8.12
298.776	3.62
299.243	17.72
299.71	2.02
300.177	11.52
300.644	14.92
301.111	13.62
301.578	14.12
302.045	13.72
302.512	18.32
302.979	16.22
303.446	12.72
303.913	11.72
304.379	7.52
304.846	19.12
305.313	18.52
305.78	17.42
306.246	19.22
306.713	24.22
307.18	16.32
307.646	22.42
308.113	17.32
308.579	12.92
309.046	16.02
309.512	21.62
309.979	8.42
310.445	22.12
310.912	20.02
311.378	25.32
311.845	21.72
312.311	16.22
312.777	21.92
313.244	15.22
313.71	29.52
314.176	27.32
314.642	24.32
315.109	19.52
315.575	19.42
316.041	27.02
316.507	20.72
316.973	27.32
317.439	29.12
317.905	25.62
318.371	27.12
318.837	31.52
319.303	26.72
319.769	23.02
320.235	30.12
320.701	31.02
321.167	27.62
321.633	26.32
322.099	33.92
322.564	27.12
323.03	32.82
323.496	24.82
323.962	36.92
324.427	27.12
324.893	26.02
325.359	26.92
325.824	24.82
326.29	24.12
326.755	26.62
327.221	25.82
327.686	31.42
328.152	34.82
328.617	33.82
329.083	37.82
329.548	39.82
330.014	31.02
330.479	36.82
330.944	31.22
331.41	32.72
331.875	34.32
332.34	33.52
332.805	31.82
333.271	43.12
333.736	39.92
334.201	40.32
334.666	43.12
335.131	41.02
335.596	41.72
336.061	42.12
336.526	32.22
336.991	47.92
337.456	42.62
337.921	37.42
338.386	38.32
338.851	34.52
339.316	37.82
339.781	34.92
340.246	38.82
340.711	34.82
341.175	45.52
341.64	28.92
342.105	40.02
342.569	44.62
343.034	46.72
343.499	44.42
343.963	39.42
344.428	57.12
344.893	51.12
345.357	46.12
345.822	48.72
346.286	52.22
346.751	58.02
347.215	54.42
347.679	64.72
348.144	77.02
348.608	67.22
349.073	54.02
349.537	54.72
350.001	59.72
350.465	77.42
350.93	66.32
351.394	64.12
351.858	63.92
352.322	76.72
352.786	70.92
353.25	79.72
353.715	84.12
354.179	77.32
354.643	95.92
355.107	103.22
355.571	88.02
356.035	82.02
356.498	100.12
356.962	92.82
357.426	105.62
357.89	91.72
358.354	69.62
358.818	69.22
359.281	66.02
359.745	67.52
360.209	64.62
360.673	65.92
361.136	66.82
361.6	78.02
362.064	73.22
362.527	71.32
362.991	80.52
363.454	68.72
363.918	69.82
364.381	66.02
364.845	73.12
365.308	79.92
365.772	71.62
366.235	78.02
366.698	78.12
367.162	72.52
367.625	72.72
368.088	75.22
368.552	79.32
369.015	74.32
369.478	83.12
369.941	82.92
370.404	82.32
370.867	87.72
371.331	83.42
371.794	104.42
372.257	96.02
372.72	95.32
373.183	95.62
373.646	94.12
374.109	85.62
374.572	89.22
375.035	93.72
375.497	95.62
375.96	91.92
376.423	92.22
376.886	104.72
377.349	101.62
377.811	89.42
378.274	94.12
378.737	94.92
379.199	99.12
379.662	104.92
380.125	99.92
380.587	108.42
381.05	105.42
381.512	111.22
381.975	116.62
382.437	108.02
382.9	114.12
383.362	115.62
383.825	122.32
384.287	127.12
384.75	123.72
385.212	125.82
385.674	127.72
386.136	121.22
386.599	113.52
387.061	117.02
387.523	119.62
387.985	118.42
388.447	121.22
388.91	128.02
389.372	140.52
389.834	128.52
390.296	129.02
390.758	143.82
391.22	141.52
391.682	166.82
392.144	230.12
392.606	188.62
393.068	148.22
393.529	157.02
393.991	139.52
394.453	135.02
394.915	134.72
395.377	161.02
395.838	173.72
396.3	141.92
396.762	129.12
397.224	128.22
397.685	123.12
398.147	122.52
398.608	123.52
399.07	126.92
399.531	133.42
399.993	132.42
400.454	142.62
400.916	139.52
401.377	139.42
401.839	142.52
402.3	148.32
402.762	152.02
403.223	167.92
403.684	166.72
404.145	152.92
404.607	147.12
405.068	156.72
405.529	166.72
405.99	179.82
406.451	165.02
406.913	165.12
407.374	159.62
407.835	154.42
408.296	156.32
408.757	161.02
409.218	181.72
409.679	172.12
410.14	163.82
410.601	177.62
411.062	174.82
411.522	183.22
411.983	180.22
412.444	169.42
412.905	173.72
413.366	185.02
413.826	190.62
414.287	217.42
414.748	253.42
415.208	242.92
415.669	209.92
416.13	201.92
416.59	205.92
417.051	203.22
417.511	212.02
417.972	226.42
418.432	248.32
418.893	288.02
419.353	247.92
419.814	197.92
420.274	180.42
420.734	176.42
421.195	199.92
421.655	190.52
422.115	190.62
422.576	187.72
423.036	193.12
423.496	205.72
423.956	211.42
424.416	223.12
424.876	262.82
425.336	252.82
425.797	249.32
426.257	251.02
426.717	234.32
427.177	226.92
427.637	219.92
428.097	232.42
428.556	237.92
429.016	263.12
429.476	261.22
429.936	263.92
430.396	264.92
430.856	284.52
431.315	298.02
431.775	338.32
432.235	363.72
432.694	330.62
433.154	346.12
433.614	373.32
434.073	329.42
434.533	271.12
434.993	256.72
435.452	264.82
435.912	285.92
436.371	271.02
436.83	267.22
437.29	255.42
437.749	243.02
438.209	238.42
438.668	263.02
439.127	275.02
439.587	254.92
440.046	236.12
440.505	254.92
440.964	266.22
441.424	309.62
441.883	291.42
442.342	258.22
442.801	225.52
443.26	222.82
443.719	221.32
444.178	216.52
444.637	214.82
445.096	218.92
445.555	220.92
446.014	216.42
446.473	228.82
446.932	231.72
447.391	227.32
447.849	224.12
448.308	214.82
448.767	214.62
449.226	233.22
449.685	236.82
450.143	246.52
450.602	242.42
451.061	232.92
451.519	232.52
451.978	228.52
452.436	232.12
452.895	239.12
453.353	253.72
453.812	237.02
454.27	237.22
454.729	236.52
455.187	237.12
455.646	243.12
456.104	249.22
456.562	259.92
457.021	264.62
457.479	259.92
457.937	269.32
458.395	265.72
458.854	247.42
459.312	255.42
459.77	276.92
460.228	258.92
460.686	243.12
461.144	247.42
461.602	249.82
462.06	243.62
462.518	247.12
462.976	249.72
463.434	257.42
463.892	263.22
464.35	272.72
464.808	286.72
465.266	265.12
465.724	274.32
466.181	272.12
466.639	268.12
467.097	286.32
467.555	299.82
468.012	307.12
468.47	305.62
468.928	319.42
469.385	331.42
469.843	348.02
470.3	341.52
470.758	368.22
471.215	376.12
471.673	400.52
472.13	406.72
472.588	420.62
473.045	372.42
473.503	376.72
473.96	396.32
474.417	405.32
474.875	426.92
475.332	472.62
475.789	467.22
476.246	468.02
476.704	475.22
477.161	501.62
477.618	519.92
478.075	552.52
478.532	607.52
478.989	683.12
479.446	782.22
479.903	752.92
480.36	786.32
480.817	833.02
481.274	939.42
481.731	1027.42
482.188	1122.62
482.645	1243.12
483.102	1331.42
483.558	1447.02
484.015	1500.32
484.472	1475.32
484.929	1437.12
485.385	1402.22
485.842	1345.02
486.299	1302.72
486.755	1246.92
487.212	1052.42
487.668	898.32
488.125	828.32
488.582	777.92
489.038	740.02
489.494	693.92
489.951	678.52
490.407	656.22
490.864	639.02
491.32	636.42
491.776	630.92
492.233	635.82
492.689	614.12
493.145	608.52
493.602	589.52
494.058	607.32
494.514	612.22
494.97	631.92
495.426	651.02
495.882	621.72
496.338	608.52
496.794	611.12
497.251	611.82
497.707	630.52
498.163	621.92
498.618	626.72
499.074	637.22
499.53	671.62
499.986	676.12
500.442	638.82
500.898	614.92
501.354	621.32
501.809	631.02
502.265	641.12
502.721	656.52
503.177	664.62
503.632	656.22
504.088	659.82
504.543	687.22
504.999	693.62
505.455	649.12
505.91	636.42
506.366	632.22
506.821	637.42
507.277	629.92
507.732	629.12
508.187	620.32
508.643	633.32
509.098	644.12
509.553	662.32
510.009	664.62
510.464	673.62
510.919	687.22
511.375	690.72
511.83	706.32
512.285	718.62
512.74	756.02
513.195	779.82
513.65	769.42
514.105	773.82
514.56	778.72
515.015	786.32
515.47	802.22
515.925	783.92
516.38	790.02
516.835	795.02
517.29	782.92
517.745	773.62
518.2	765.82
518.655	750.52
519.109	750.52
519.564	741.62
520.019	723.92
520.474	728.42
520.928	728.42
521.383	722.22
521.838	710.32
522.292	707.92
522.747	703.52
523.201	707.42
523.656	703.02
524.11	693.92
524.565	694.42
525.019	690.32
525.474	699.82
525.928	711.02
526.382	695.12
526.837	701.02
527.291	708.22
527.745	707.82
528.2	701.42
528.654	702.62
529.108	688.42
529.562	687.42
530.016	689.32
530.47	687.42
530.925	688.12
531.379	691.32
531.833	712.02
532.287	710.12
532.741	699.32
533.195	701.22
533.649	718.42
534.103	719.22
534.556	703.12
535.01	706.32
535.464	712.52
535.918	721.92
536.372	718.72
536.826	718.32
537.279	708.62
537.733	718.52
538.187	721.92
538.64	713.22
539.094	725.02
539.548	733.22
540.001	727.12
540.455	723.22
540.908	741.32
541.362	738.82
541.815	751.42
542.269	766.32
542.722	768.62
543.175	782.82
543.629	787.22
544.082	789.32
544.536	796.02
544.989	794.42
545.442	803.02
545.895	804.32
546.349	807.02
546.802	795.42
547.255	812.82
547.708	807.12
548.161	822.12
548.614	829.02
549.067	829.32
549.52	817.02
549.973	816.32
550.426	816.62
550.879	804.72
551.332	811.82
551.785	821.32
552.238	825.32
552.691	838.62
553.144	833.52
553.596	857.82
554.049	874.02
554.502	904.32
554.955	921.62
555.407	927.12
555.86	901.32
556.313	900.52
556.765	892.02
557.218	886.62
557.67	879.12
558.123	878.12
558.576	881.02
559.028	890.72
559.48	891.22
559.933	875.52
560.385	857.12
560.838	819.12
561.29	803.62
561.742	790.82
562.195	768.62
562.647	774.22
563.099	780.62
563.551	777.52
564.004	787.92
564.456	785.42
564.908	766.42
565.36	756.12
565.812	744.02
566.264	735.42
566.716	734.02
567.168	722.82
567.62	724.62
568.072	716.52
568.524	700.92
568.976	697.62
569.428	691.22
569.88	689.02
570.332	693.82
570.784	700.82
571.235	704.92
571.687	704.62
572.139	716.12
572.59	732.42
573.042	726.12
573.494	732.62
573.945	711.52
574.397	700.42
574.849	696.02
575.3	706.02
575.752	685.62
576.203	695.52
576.655	696.52
577.106	686.42
577.557	679.12
578.009	669.52
578.46	669.62
578.912	671.12
579.363	682.92
579.814	679.52
580.265	677.92
580.717	682.22
581.168	685.92
581.619	692.92
582.07	697.82
582.521	694.42
582.972	688.02
583.423	688.32
583.875	687.12
584.326	712.42
584.777	736.22
585.227	794.82
585.678	850.22
586.129	917.02
586.58	973.52
587.031	1037.62
587.482	1115.02
587.933	1255.62
588.384	1130.82
588.834	919.42
589.285	813.72
589.736	796.52
590.186	789.32
590.637	785.62
591.088	764.52
591.538	753.72
591.989	739.52
592.439	741.42
592.89	729.52
593.34	730.02
593.791	723.62
594.241	713.72
594.692	717.82
595.142	714.72
595.593	703.52
596.043	713.52
596.493	730.32
596.943	725.12
597.394	742.02
597.844	730.12
598.294	747.02
598.744	770.22
599.195	797.02
599.645	832.72
600.095	879.12
600.545	942.72
600.995	991.92
601.445	1045.22
601.895	1108.52
602.345	1164.62
602.795	1133.42
603.245	1087.02
603.695	1025.92
604.145	988.32
604.594	936.92
605.044	881.92
605.494	809.82
605.944	769.62
606.393	764.32
606.843	743.12
607.293	746.62
607.743	747.62
608.192	755.22
608.642	768.12
609.091	772.82
609.541	790.82
609.99	778.92
610.44	784.32
610.889	731.22
611.339	713.82
611.788	708.62
612.238	713.72
612.687	731.02
613.136	729.42
613.586	743.52
614.035	730.62
614.484	755.42
614.933	747.22
615.383	747.12
615.832	731.32
616.281	727.92
616.73	689.12
617.179	682.72
617.628	664.42
618.077	652.32
618.526	631.02
618.975	631.22
619.424	630.62
619.873	632.42
620.322	633.42
620.771	627.02
621.22	614.82
621.669	609.22
622.118	601.32
622.567	593.42
623.015	589.72
623.464	575.32
623.913	570.02
624.361	564.12
624.81	560.72
625.259	564.02
625.707	570.92
626.156	576.72
626.604	583.42
627.053	580.12
627.501	580.32
627.95	592.12
628.398	606.92
628.847	585.82
629.295	574.62
629.744	579.42
630.192	578.82
630.64	573.72
631.089	575.22
631.537	572.32
631.985	575.42
632.433	587.32
632.881	588.62
633.33	622.02
633.778	604.02
634.226	568.82
634.674	576.32
635.122	575.52
635.57	595.32
636.018	614.92
636.466	585.92
636.914	579.42
637.362	597.92
637.81	591.22
638.258	601.32
638.705	594.12
639.153	625.72
639.601	640.62
640.049	660.02
640.497	696.22
640.944	710.82
641.392	659.52
641.84	630.72
642.287	602.02
642.735	573.82
643.182	591.02
643.63	588.12
644.078	577.42
644.525	600.02
644.973	602.32
645.42	604.62
645.867	630.02
646.315	649.92
646.762	673.82
647.21	695.12
647.657	731.52
648.104	755.52
648.551	785.52
648.999	846.22
649.446	930.02
649.893	1021.82
650.34	1182.22
650.787	1392.62
651.234	1730.52
651.682	2258.22
652.129	3083.62
652.576	4446.02
653.023	6491.32
653.47	8832.12
653.917	10912.32
654.363	12456.92
654.81	13656.82
655.257	12941.22
655.704	8541.62
656.151	5077.82
656.598	3319.62
657.044	2353.32
657.491	1825.92
657.938	1475.92
658.385	1241.02
658.831	1076.42
659.278	955.92
659.724	855.12
660.171	791.12
660.618	730.82
661.064	703.12
661.511	674.42
661.957	672.72
662.404	649.42
662.85	661.42
663.296	630.72
663.743	576.12
664.189	558.62
664.635	548.62
665.082	541.82
665.528	536.62
665.974	523.82
666.42	528.82
666.867	517.82
667.313	500.32
667.759	485.52
668.205	479.32
668.651	481.42
669.097	469.62
669.543	485.42
669.989	474.62
670.435	458.52
670.881	462.72
671.327	463.62
671.773	490.92
672.219	503.12
672.665	564.92
673.11	600.92
673.556	656.82
674.002	693.72
674.448	677.02
674.893	572.12
675.339	483.52
675.785	450.72
676.23	429.22
676.676	409.82
677.122	403.62
677.567	386.32
678.013	382.22
678.458	372.22
678.904	372.12
679.349	366.12
679.794	369.62
680.24	366.82
680.685	369.92
681.131	358.72
681.576	356.82
682.021	367.32
682.466	359.72
682.912	355.72
683.357	358.72
683.802	396.02
684.247	427.52
684.692	475.32
685.137	513.92
685.583	555.22
686.028	578.42
686.473	526.82
686.918	461.22
687.363	424.42
687.807	403.12
688.252	377.82
688.697	372.92
689.142	349.32
689.587	352.52
690.032	340.72
690.477	351.32
690.921	365.42
691.366	389.02
691.811	421.32
692.255	437.42
692.7	482.92
693.145	531.72
693.589	743.12
694.034	1211.82
694.478	1619.22
694.923	1792.72
695.367	2316.42
695.812	1250.22
696.256	524.92
696.701	374.92
697.145	354.72
697.59	344.22
698.034	327.72
698.478	344.22
698.922	330.92
699.367	345.72
699.811	347.62
700.255	365.42
700.699	393.62
701.143	441.02
701.588	499.12
702.032	531.42
702.476	518.42
702.92	511.12
703.364	523.52
703.808	685.92
704.252	1118.42
704.696	1536.12
705.14	1735.92
705.584	2200.32
706.027	1095.92
706.471	546.02
706.915	414.82
707.359	368.42
707.803	328.62
708.246	326.72
708.69	318.72
709.134	328.32
709.577	320.32
710.021	325.22
710.465	322.62
710.908	300.02
711.352	307.62
711.795	325.52
712.239	371.22
712.682	400.42
713.126	433.32
713.569	480.92
714.012	387.02
714.456	329.72
714.899	302.72
715.342	282.42
715.786	263.82
716.229	260.32
716.672	265.62
717.115	258.22
717.558	256.32
718.002	263.82
718.445	275.52
718.888	305.22
719.331	308.72
719.774	322.82
720.217	316.82
720.66	297.92
721.103	280.52
721.546	264.92
721.989	269.42
722.432	237.72
722.874	246.32
723.317	237.22
723.76	240.22
724.203	270.02
724.645	329.92
725.088	468.52
725.531	594.92
725.974	660.12
726.416	562.82
726.859	313.42
727.301	252.22
727.744	248.82
728.187	240.72
728.629	251.82
729.071	248.32
729.514	267.62
729.956	280.02
730.399	296.02
730.841	299.82
731.283	285.32
731.726	281.12
732.168	275.32
732.61	282.62
733.053	299.92
733.495	333.92
733.937	367.32
734.379	415.02
734.821	459.22
735.263	579.12
735.705	908.82
736.148	1726.12
736.59	2736.72
737.032	3138.92
737.474	2564.92
737.916	856.62
738.357	449.42
738.799	335.12
739.241	305.92
739.683	300.22
740.125	302.92
740.567	312.62
741.008	324.62
741.45	328.72
741.892	328.82
742.334	367.22
742.775	378.72
743.217	353.82
743.658	286.32
744.1	268.82
744.542	281.22
744.983	326.02
745.425	355.32
745.866	349.62
746.307	297.62
746.749	298.42
747.19	345.02
747.632	496.92
748.073	973.82
748.514	2032.02
748.956	3000.92
749.397	3770.02
749.838	3108.52
750.279	3031.72
750.72	1558.32
751.162	572.32
751.603	339.02
752.044	266.42
752.485	220.22
752.926	219.62
753.367	210.02
753.808	201.52
754.249	199.42
754.69	198.42
755.131	194.62
755.572	192.52
756.013	184.82
756.453	190.52
756.894	194.22
757.335	203.02
757.776	205.22
758.216	203.92
758.657	203.82
759.098	203.92
759.538	235.82
759.979	281.02
760.42	396.02
760.86	772.32
761.301	2035.62
761.741	4777.72
762.182	6612.82
762.622	4661.72
763.063	1366.02
763.503	562.12
763.943	358.52
764.384	333.42
764.824	354.22
765.264	363.02
765.705	275.72
766.145	200.22
766.585	187.82
767.025	184.62
767.465	189.72
767.906	224.92
768.346	273.22
768.786	296.72
769.226	257.62
769.666	333.32
770.106	687.72
770.546	1700.12
770.986	2739.72
771.426	2426.42
771.866	833.42
772.306	348.42
772.745	216.92
773.185	178.92
773.625	173.72
774.065	167.52
774.505	190.32
774.944	281.82
775.384	568.82
775.824	951.32
776.263	896.52
776.703	405.92
777.142	203.52
777.582	146.62
778.021	134.92
778.461	140.12
778.9	138.82
779.34	132.82
779.779	119.32
780.219	117.32
780.658	111.32
781.097	115.92
781.537	118.62
781.976	109.62
782.415	104.22
782.855	112.52
783.294	106.72
783.733	106.32
784.172	108.02
784.611	112.62
785.05	118.42
785.489	118.92
785.928	120.02
786.367	123.02
786.806	119.22
787.245	132.92
787.684	139.62
788.123	154.02
788.562	142.42
789.001	132.22
789.44	132.92
789.879	120.02
790.317	123.42
790.756	133.42
791.195	126.42
791.634	151.82
792.072	217.72
792.511	405.32
792.95	1102.72
793.388	2227.82
793.827	1959.72
794.265	709.02
794.704	295.02
795.142	188.22
795.581	163.92
796.019	140.22
796.458	132.62
796.896	126.02
797.334	135.22
797.773	161.42
798.211	233.32
798.649	486.12
799.087	1100.62
799.526	1686.42
799.964	2129.02
800.402	2066.52
800.84	789.52
801.278	322.62
801.716	195.32
802.154	154.72
802.592	150.52
803.03	143.92
803.468	138.52
803.906	148.52
804.344	159.32
804.782	145.92
805.22	139.02
805.658	131.52
806.096	149.72
806.533	167.62
806.971	180.92
807.409	234.02
807.847	343.92
808.284	736.92
808.722	2027.62
809.16	3450.32
809.597	3388.22
810.035	5745.12
810.472	5912.92
810.91	2176.22
811.347	843.52
811.785	427.42
812.222	268.62
812.66	210.12
813.097	176.72
813.535	150.52
813.972	141.02
814.409	125.62
814.846	122.22
815.284	111.32
815.721	109.42
816.158	105.62
816.595	121.22
817.032	171.72
817.47	195.62
817.907	150.42
818.344	124.12
818.781	115.02
819.218	105.52
819.655	129.82
820.092	196.62
820.529	216.92
820.966	173.52
821.403	131.42
821.839	109.42
822.276	109.72
822.713	125.52
823.15	141.72
823.587	126.22
824.023	158.72
824.46	331.72
824.897	968.72
825.333	1395.32
825.77	598.72
826.206	242.02
826.643	131.62
827.08	102.42
827.516	89.42
827.953	75.52
828.389	80.12
828.825	79.72
829.262	69.82
829.698	62.32
830.135	72.92
830.571	62.12
831.007	64.32
831.443	71.32
831.88	63.02
832.316	62.82
832.752	65.22
833.188	69.62
833.624	67.92
834.06	69.72
834.497	75.42
834.933	78.62
835.369	74.32
835.805	70.12
836.241	79.02
836.677	85.12
837.112	98.62
837.548	113.72
837.984	136.22
838.42	221.12
838.856	553.82
839.292	1635.32
839.727	2379.52
840.163	1117.52
840.599	1002.02
841.034	2161.92
841.47	2167.22
841.906	812.52
842.341	346.52
842.777	225.42
843.212	271.32
843.648	244.62
844.083	136.62
844.519	97.82
844.954	72.42
845.39	69.52
845.825	56.52
846.261	59.52
846.696	56.72
847.131	48.62
847.566	62.82
848.002	55.32
848.437	54.62
848.872	60.12
849.307	65.72
849.742	91.52
850.177	200.02
850.613	596.52
851.048	913.12
851.483	382.62
851.918	160.42
852.353	88.72
852.788	61.32
853.223	58.92
853.657	52.42
854.092	48.42
854.527	41.12
854.962	43.52
855.397	44.42
855.832	49.22
856.266	39.82
856.701	40.82
857.136	41.52
857.57	40.02
858.005	49.32
858.44	61.32
858.874	48.92
859.309	54.72
859.743	39.32
860.178	50.12
860.612	41.32
861.047	57.02
861.481	66.82
861.915	72.22
862.35	54.22
862.784	30.52
863.218	39.32
863.653	36.12
864.087	50.82
864.521	55.02
864.955	77.42
865.39	162.62
865.824	176.52
866.258	121.52
866.692	165.92
867.126	183.32
867.56	108.82
867.994	56.92
868.428	39.72
868.862	52.22
869.296	55.52
869.73	58.32
870.164	60.02
870.598	52.22
871.031	38.62
871.465	32.62
871.899	30.32
872.333	24.22
872.766	30.42
873.2	22.52
873.634	33.02
874.067	27.92
874.501	29.32
874.935	30.82
875.368	32.32
875.802	29.62
876.235	22.92
876.669	26.12
877.102	21.32
877.535	28.32
877.969	25.52
878.402	25.02
878.836	21.52
879.269	22.02
879.702	18.72
880.135	23.22
880.569	23.62
881.002	29.22
881.435	27.92
881.868	18.62
882.301	24.22
882.734	15.52
883.167	21.92
883.601	17.92
884.034	21.62
884.467	17.22
884.899	20.52
885.332	19.22
885.765	11.92
886.198	13.52
886.631	16.62
887.064	18.72
887.497	28.62
887.929	22.12
888.362	16.62
888.795	13.42
889.228	18.72
889.66	15.82
890.093	17.32
890.526	14.62
890.958	15.92
891.391	16.82
891.823	24.12
892.256	19.22
892.688	10.92
893.121	13.82
893.553	15.32
893.985	22.72
894.418	22.02
894.85	18.32
895.282	14.62
895.715	16.32
896.147	22.52
896.579	17.42
897.011	16.02
897.444	18.82
897.876	12.52
898.308	18.72
898.74	10.12
899.172	16.72
899.604	24.02
900.036	18.82
900.468	16.32
900.9	17.72
901.332	18.22
901.764	13.52
902.196	24.22
902.628	15.82
903.06	19.22
903.491	31.52
903.923	25.52
904.355	23.42
904.787	26.92
905.218	29.02
905.65	24.22
906.082	12.82
906.513	15.42
906.945	12.42
907.376	17.22
907.808	18.92
908.239	20.32
908.671	22.92
909.102	24.62
909.534	26.42
909.965	48.42
910.397	96.32
910.828	328.12
911.259	491.22
911.691	229.12
912.122	113.52
912.553	55.22
912.984	30.42
913.415	24.62
913.847	28.42
914.278	15.82
914.709	19.92
915.14	19.32
915.571	14.92
916.002	6.82
916.433	19.42
916.864	14.62
917.295	15.62
917.726	24.32
918.157	20.62
918.587	28.92
919.018	19.62
919.449	24.12
919.88	26.72
920.311	25.22
920.741	51.42
921.172	180.02
921.603	156.12
922.033	74.62
922.464	42.02
922.895	19.52
923.325	21.62
923.756	16.02
924.186	10.42
924.617	21.82
925.047	33.62
925.478	40.82
925.908	31.02
926.338	14.52
926.769	17.12
927.199	21.52
927.629	5.62
928.06	22.02
928.49	7.52
928.92	9.42
929.35	8.92
929.78	14.22
930.21	4.92
930.641	13.32
931.071	9.22
931.501	4.32
931.931	3.32
932.361	9.52
932.791	5.82
933.221	1.92
933.651	4.72
934.08	17.82
934.51	27.22
934.94	13.02
935.37	5.72
935.8	13.82
936.229	7.42
936.659	8.82
937.089	4.42
937.519	14.42
937.948	17.42
938.378	14.52
938.807	12.02
939.237	6.32
939.666	9.32
940.096	-4.18
940.525	3.42
940.955	1.12
941.384	5.92
941.814	-5.28
942.243	3.52
942.672	3.92
943.102	-6.78
943.531	1.82
943.96	4.92
944.39	-0.28
944.819	0.52
945.248	2.32
945.677	1.82
946.106	6.92
946.535	6.72
946.964	1.42
947.393	5.22
947.822	3.32
948.251	1.42
948.68	3.12
949.109	5.82
949.538	7.52
949.967	3.22
950.396	2.82
950.825	-2.38
951.254	2.12
951.682	-8.48
952.111	-2.38
952.54	1.82
952.969	-2.28
953.397	-1.38
953.826	-0.38
954.254	-5.48
954.683	-0.78
955.112	4.72
955.54	4.72
955.969	4.82
956.397	1.82
956.826	-2.88
957.254	2.22
957.682	0.82
958.111	7.62
958.539	0.52
958.967	1.42
959.396	-1.38
959.824	-1.48
960.252	1.52
960.68	-7.98
961.109	-4.68
961.537	2.02
961.965	-2.48
962.393	2.62
962.821	-4.48
963.249	0.82
963.677	11.72
964.105	6.22
964.533	44.32
964.961	34.32
965.389	21.22
965.817	13.92
966.245	-0.68
966.672	3.32
967.1	-4.68
967.528	-4.38
967.956	-1.18
968.383	2.02
968.811	-7.18
969.239	3.42
969.666	-5.28
970.094	2.32
970.522	0.22
970.949	-1.98
971.377	-5.28
971.804	1.72
972.232	-4.38
972.659	-5.38
973.087	0.72
973.514	-0.78
973.941	-8.78
974.369	4.62
974.796	3.72
975.223	-0.48
975.651	-0.18
976.078	0.82
976.505	-3.58
976.932	4.12
977.359	14.52
977.786	11.92
978.214	2.92
978.641	-2.08
979.068	-3.98
979.495	-4.48
979.922	-3.98
980.349	1.92
980.776	3.32
981.202	-3.28
981.629	1.92
982.056	-0.28
982.483	1.12
982.91	4.72
983.337	-7.78
983.763	6.42
984.19	-9.28
984.617	-2.68
985.043	-0.78
985.47	-4.78
985.897	-1.18
986.323	-3.18
986.75	3.22
987.176	3.62
987.603	-3.08
988.029	3.02
988.456	-8.38
988.882	4.42
989.308	-9.38
989.735	-2.08
990.161	-1.08
990.587	-6.68
991.014	-2.18
991.44	4.62
991.866	-4.78
992.292	-1.68
992.719	-2.68
993.145	4.52
993.571	-7.78
993.997	-9.88
994.423	-3.98
994.849	-8.08
995.275	-4.48
995.701	1.62
996.127	-1.48
996.553	2.22
996.979	-1.28
997.405	2.12
997.83	-3.98
998.256	-4.08
998.682	-7.38
999.108	-14.48
999.534	-8.58
999.959	-1.48
1000.385	-2.28
1000.811	-4.18
1001.236	-10.78
1001.662	-13.08
1002.087	-9.78
1002.513	-3.88
1002.938	-0.68
1003.364	-2.08
1003.789	-0.78
1004.215	0.02
1004.64	1.52
1005.066	1.82
1005.491	-3.58
1005.916	-3.98
1006.342	-4.08
1006.767	-6.98
1007.192	5.12
1007.617	-2.98
1008.042	-5.68
1008.468	-10.18
1008.893	-2.38
1009.318	-3.88
1009.743	-2.98
1010.168	5.42
1010.593	0.22
1011.018	-3.78
1011.443	-1.18
1011.868	-1.58
1012.293	-0.88
1012.718	-13.18
1013.143	4.92
1013.567	2.82
1013.992	-2.68
1014.417	-12.08
1014.842	2.72
1015.267	-1.98
1015.691	0.32
1016.116	1.52
1016.541	-3.48
1016.965	2.82
1017.39	1.42
1017.814	-4.78
1018.239	-1.68
1018.663	-6.38
1019.088	-8.68
1019.512	-7.18
1019.937	-4.28
1020.361	-3.78
1020.785	-9.98
1021.21	-3.58
1021.634	-2.38
1022.058	3.32
1022.483	-0.58
1022.907	-4.98
1023.331	-2.28
1023.755	-2.38
1024.179	-7.38
1024.604	-12.08
1025.028	-8.38
1025.452	-6.68
1025.876	-0.18
1026.3	-1.98
1026.724	-16.38
1027.148	-7.18
1027.572	-5.38
1027.996	-3.58
1028.42	-2.48
1028.843	-8.98
1029.267	-9.28
1029.691	0.72
1030.115	-8.78
1030.539	-9.08
1030.962	-3.98
1031.386	-9.98
1031.81	1.42
1032.233	2.02
1032.657	-4.58
1033.08	-4.28
1033.504	-3.38
1033.927	-10.68
1034.351	-3.48
1034.774	-4.88
1035.198	-3.08
1035.621	-8.98
1036.045	-10.78
1036.468	-4.08
1036.891	-9.48
1037.315	-8.48
1037.738	-11.38
1038.161	1.62
1038.584	-6.68
1039.008	-4.78
1039.431	-7.88
1039.854	-8.08
1040.277	-4.48
1040.7	-11.28
1041.123	-2.08
1041.546	-9.48
1041.969	-6.38
1042.392	-8.08
1042.815	-1.38
1043.238	0.42
1043.661	-4.48
1044.084	-6.28
1044.507	-6.48
1044.93	-7.88
1045.352	-8.58
1045.775	0.32
1046.198	4.12
1046.621	-2.88
1047.043	5.12
1047.466	10.82
1047.889	-3.28
1048.311	-6.68
1048.734	-1.48
1049.156	-3.28
1049.579	-5.28
1050.001	-5.38
1050.424	-5.38
1050.846	-4.98
1051.269	-2.78
1051.691	-1.18
1052.113	-5.48
1052.536	-3.98
1052.958	-1.98
1053.38	-2.28
1053.802	-3.38
1054.225	4.92
1054.647	-10.38
1055.069	-5.48
1055.491	0.62
1055.913	-8.88
1056.335	-2.78
1056.757	-2.78
1057.179	-5.28
1057.601	-4.28
1058.023	-5.08
1058.445	-9.18
1058.867	-1.38
1059.289	-7.58
1059.711	-12.48
1060.133	-0.68
1060.555	-5.68
1060.976	-5.28
1061.398	-6.98
1061.82	-10.68
1062.241	-7.08
1062.663	-8.78
1063.085	-3.18
1063.506	0.52
1063.928	1.02
1064.35	-4.58
1064.771	-7.08
1065.193	-1.98
1065.614	-11.78
1066.035	-4.28
1066.457	-5.58
1066.878	6.42
1067.3	0.82
1067.721	-7.08
1068.142	-0.58
1068.564	-6.78
1068.985	-1.68
1069.406	-3.08
1069.827	-3.48
1070.248	-3.38
1070.67	-7.08
1071.091	-14.28
1071.512	-3.38
1071.933	-8.58
1072.354	-4.58
1072.775	-7.98
1073.196	-3.38
1073.617	-9.28
1074.038	-8.38
1074.459	-6.88
1074.88	-7.18
1075.3	4.62
1075.721	-6.78
1076.142	2.42
1076.563	-4.58
1076.983	-13.58
1077.404	-9.28
1077.825	-10.38
1078.246	-9.98
1078.666	-14.58
1079.087	-5.58
1079.507	-10.68
1079.928	-0.28
1080.348	0.82
1080.769	-2.98
1081.189	0.62
1081.61	-3.88
1082.03	-7.08
1082.451	-6.28
1082.871	-2.18
1083.291	-7.38
1083.711	-10.78
1084.132	-9.78
1084.552	-6.98
1084.972	-1.88
1085.392	-8.98
1085.813	-11.38
1086.233	-8.98
1086.653	-3.58
1087.073	-2.98
1087.493	-7.78
1087.913	-7.78
1088.333	-8.28
1088.753	-3.98
1089.173	5.62
1089.593	-0.18
1090.013	0.92
1090.433	3.52
1090.852	-5.58
1091.272	-1.48
1091.692	-5.78
1092.112	-4.78
1092.531	-8.98
1092.951	-9.68
1093.371	-4.68
1093.79	0.82
1094.21	-7.98
1094.63	-9.98
1095.049	2.92
1095.469	-7.38
1095.888	-0.68
1096.308	2.02
1096.727	1.32
1097.146	-10.58
1097.566	2.32
1097.985	-3.98
1098.405	-1.68
1098.824	-9.18
1099.243	-6.98
1099.662	-6.98
1100.082	-6.18
1100.501	-4.08
1100.92	-6.08
1101.339	-5.48
1101.758	-9.18
