Data from 20171114-ORNL-Ar_H_NY_Subt18_08-09-08-946.txt Node
Date: Tue Nov 14 08:09:08 EST 2017
User: Ender
Spectrometer: HR+D1039
Trigger mode: 0
Integration Time (sec): 2.730000E-2
Scans to average: 10
Electric dark correction enabled: true
Nonlinearity correction enabled: false
Boxcar width: 0
XAxis mode: Wavelengths
Number of Pixels in Spectrum: 2048
>>>>>Begin Spectral Data<<<<<
187.836	-3.63
188.309	-3.63
188.782	-3.63
189.255	5.17
189.728	2.57
190.201	-0.43
190.674	-1.43
191.147	1.77
191.619	-9.23
192.092	4.27
192.565	-0.03
193.038	-0.73
193.511	1.17
193.984	6.37
194.456	-6.13
194.929	-0.03
195.402	3.07
195.874	-2.83
196.347	-3.53
196.82	-8.83
197.292	10.17
197.765	-2.93
198.237	-6.63
198.71	1.47
199.182	-3.83
199.655	0.97
200.127	0.57
200.6	-1.93
201.072	-3.63
201.544	-2.73
202.017	-1.93
202.489	9.97
202.961	-3.13
203.433	2.17
203.906	-8.43
204.378	-8.93
204.85	-5.03
205.322	-2.13
205.794	-4.33
206.266	-2.73
206.739	-5.63
207.211	4.57
207.683	-7.83
208.155	-4.03
208.627	-11.73
209.099	0.17
209.57	-7.13
210.042	-3.93
210.514	-0.63
210.986	-4.23
211.458	-8.93
211.93	-4.33
212.402	-0.93
212.873	-5.23
213.345	-13.03
213.817	-18.63
214.288	-7.93
214.76	-8.03
215.232	-8.43
215.703	-5.23
216.175	-4.83
216.646	-2.33
217.118	-13.43
217.589	-7.83
218.061	-5.43
218.532	-5.53
219.004	-0.83
219.475	-6.33
219.946	-1.83
220.418	-10.33
220.889	-1.73
221.36	1.87
221.832	-8.33
222.303	-8.03
222.774	-0.43
223.245	-11.63
223.717	-7.03
224.188	-3.23
224.659	-9.43
225.13	-9.73
225.601	-1.33
226.072	-0.43
226.543	-4.13
227.014	-1.53
227.485	-4.53
227.956	-10.23
228.427	-2.83
228.898	-1.83
229.369	1.57
229.839	-1.83
230.31	-8.03
230.781	-1.13
231.252	-6.03
231.722	-7.63
232.193	-2.33
232.664	-3.93
233.135	-7.83
233.605	-4.43
234.076	-9.53
234.546	-4.53
235.017	0.67
235.487	0.97
235.958	-3.83
236.428	-6.43
236.899	2.47
237.369	-5.73
237.84	1.17
238.31	-0.13
238.78	-5.53
239.251	-10.53
239.721	-3.33
240.191	-6.43
240.662	-3.43
241.132	-4.43
241.602	1.47
242.072	-3.13
242.542	4.07
243.013	-6.53
243.483	5.27
243.953	0.87
244.423	1.17
244.893	-4.23
245.363	-1.33
245.833	-0.63
246.303	-5.63
246.773	6.87
247.243	-2.33
247.712	-1.43
248.182	-4.03
248.652	1.67
249.122	-5.43
249.592	-3.23
250.061	5.57
250.531	5.67
251.001	2.07
251.471	4.77
251.94	10.97
252.41	1.47
252.879	-9.83
253.349	3.97
253.818	2.27
254.288	1.67
254.757	2.47
255.227	-7.83
255.696	-0.93
256.166	1.97
256.635	1.37
257.105	5.27
257.574	0.77
258.043	-5.23
258.513	-3.43
258.982	4.27
259.451	-2.93
259.92	0.17
260.389	2.57
260.859	7.87
261.328	6.87
261.797	4.17
262.266	0.47
262.735	9.67
263.204	4.67
263.673	-1.43
264.142	1.77
264.611	-10.43
265.08	-3.13
265.549	0.67
266.018	5.97
266.487	-2.43
266.955	-9.43
267.424	-9.33
267.893	3.77
268.362	-1.73
268.83	0.17
269.299	7.57
269.768	-0.23
270.236	-1.13
270.705	-4.63
271.174	-3.53
271.642	-1.53
272.111	-4.03
272.579	-0.23
273.048	-1.13
273.516	2.17
273.985	5.67
274.453	3.87
274.922	7.07
275.39	2.97
275.858	-3.23
276.327	3.07
276.795	14.87
277.263	-0.03
277.731	7.37
278.2	9.07
278.668	13.27
279.136	5.37
279.604	1.57
280.072	3.87
280.54	0.67
281.008	8.27
281.477	8.37
281.945	7.67
282.413	5.67
282.881	7.87
283.348	2.07
283.816	7.57
284.284	11.57
284.752	10.97
285.22	8.67
285.688	10.47
286.156	4.17
286.623	15.77
287.091	11.67
287.559	8.77
288.026	8.37
288.494	7.27
288.962	-1.53
289.429	0.37
289.897	10.87
290.364	8.67
290.832	8.57
291.3	5.77
291.767	11.87
292.234	7.47
292.702	6.57
293.169	10.97
293.637	14.87
294.104	14.07
294.571	-0.03
295.039	7.77
295.506	4.77
295.973	10.97
296.44	8.17
296.908	6.67
297.375	12.17
297.842	13.57
298.309	15.47
298.776	3.37
299.243	4.07
299.71	3.37
300.177	14.27
300.644	13.67
301.111	12.67
301.578	15.97
302.045	9.77
302.512	18.27
302.979	17.57
303.446	18.77
303.913	13.57
304.379	7.27
304.846	21.77
305.313	19.87
305.78	11.77
306.246	15.17
306.713	14.67
307.18	19.57
307.646	19.97
308.113	16.07
308.579	5.97
309.046	18.77
309.512	17.27
309.979	9.37
310.445	21.57
310.912	20.87
311.378	19.87
311.845	20.27
312.311	24.47
312.777	19.97
313.244	26.27
313.71	27.07
314.176	22.77
314.642	19.17
315.109	14.17
315.575	24.17
316.041	28.27
316.507	17.47
316.973	22.07
317.439	22.27
317.905	23.97
318.371	27.57
318.837	18.77
319.303	25.67
319.769	23.17
320.235	20.57
320.701	26.77
321.167	23.97
321.633	19.77
322.099	20.77
322.564	29.77
323.03	31.17
323.496	25.27
323.962	26.97
324.427	28.17
324.893	30.27
325.359	25.17
325.824	27.87
326.29	26.47
326.755	28.87
327.221	26.77
327.686	24.27
328.152	35.07
328.617	29.97
329.083	35.77
329.548	39.27
330.014	38.57
330.479	31.57
330.944	34.57
331.41	30.77
331.875	35.17
332.34	33.87
332.805	28.57
333.271	30.17
333.736	32.27
334.201	38.77
334.666	36.47
335.131	38.57
335.596	39.77
336.061	42.97
336.526	31.97
336.991	40.57
337.456	41.27
337.921	37.77
338.386	33.07
338.851	34.47
339.316	32.07
339.781	35.27
340.246	43.87
340.711	38.97
341.175	40.17
341.64	26.87
342.105	35.07
342.569	41.17
343.034	49.27
343.499	41.87
343.963	40.87
344.428	52.37
344.893	50.87
345.357	50.37
345.822	53.27
346.286	51.77
346.751	57.27
347.215	54.67
347.679	57.57
348.144	82.07
348.608	68.07
349.073	58.37
349.537	61.37
350.001	58.77
350.465	75.87
350.93	65.07
351.394	63.27
351.858	61.67
352.322	70.67
352.786	69.47
353.25	78.37
353.715	87.37
354.179	81.57
354.643	94.47
355.107	100.07
355.571	75.67
356.035	78.37
356.498	89.47
356.962	83.57
357.426	98.07
357.89	89.77
358.354	70.77
358.818	63.27
359.281	65.87
359.745	72.37
360.209	64.57
360.673	56.87
361.136	65.17
361.6	68.47
362.064	69.57
362.527	69.17
362.991	79.27
363.454	71.07
363.918	59.57
364.381	73.17
364.845	71.97
365.308	69.87
365.772	71.97
366.235	70.57
366.698	75.17
367.162	70.87
367.625	69.37
368.088	76.07
368.552	77.07
369.015	73.57
369.478	78.67
369.941	80.37
370.404	77.97
370.867	85.87
371.331	90.07
371.794	95.67
372.257	89.87
372.72	90.47
373.183	87.47
373.646	81.57
374.109	82.57
374.572	89.67
375.035	85.37
375.497	82.77
375.96	86.07
376.423	91.87
376.886	92.77
377.349	94.77
377.811	92.97
378.274	89.27
378.737	88.17
379.199	98.17
379.662	97.77
380.125	94.17
380.587	92.27
381.05	95.87
381.512	98.07
381.975	105.07
382.437	104.67
382.9	106.07
383.362	110.47
383.825	118.67
384.287	115.17
384.75	100.17
385.212	109.77
385.674	114.77
386.136	124.77
386.599	107.27
387.061	111.47
387.523	110.77
387.985	111.67
388.447	116.97
388.91	117.47
389.372	114.17
389.834	116.77
390.296	119.77
390.758	121.27
391.22	119.37
391.682	136.77
392.144	135.87
392.606	135.67
393.068	126.77
393.529	133.07
393.991	130.37
394.453	124.07
394.915	119.87
395.377	124.27
395.838	124.27
396.3	127.87
396.762	130.87
397.224	125.77
397.685	117.77
398.147	121.77
398.608	123.07
399.07	117.97
399.531	129.37
399.993	129.07
400.454	140.57
400.916	132.17
401.377	131.37
401.839	146.27
402.3	134.97
402.762	151.67
403.223	163.07
403.684	161.67
404.145	146.87
404.607	139.97
405.068	150.37
405.529	157.17
405.99	170.37
406.451	153.67
406.913	162.27
407.374	155.67
407.835	153.57
408.296	156.77
408.757	160.47
409.218	179.07
409.679	167.57
410.14	166.07
410.601	162.67
411.062	168.07
411.522	162.77
411.983	163.67
412.444	164.57
412.905	172.87
413.366	170.17
413.826	182.87
414.287	211.27
414.748	254.07
415.208	243.47
415.669	201.87
416.13	198.17
416.59	193.67
417.051	211.47
417.511	219.37
417.972	238.37
418.432	243.67
418.893	282.07
419.353	245.57
419.814	190.77
420.274	185.27
420.734	175.87
421.195	192.37
421.655	182.57
422.115	181.07
422.576	188.17
423.036	193.97
423.496	206.57
423.956	205.77
424.416	224.87
424.876	261.87
425.336	253.47
425.797	252.97
426.257	247.97
426.717	237.27
427.177	226.87
427.637	218.07
428.097	221.67
428.556	236.17
429.016	261.57
429.476	256.07
429.936	255.47
430.396	270.77
430.856	275.97
431.315	291.57
431.775	324.57
432.235	355.77
432.694	330.37
433.154	340.57
433.614	364.07
434.073	314.57
434.533	264.47
434.993	257.97
435.452	264.47
435.912	281.77
436.371	273.07
436.83	269.97
437.29	254.77
437.749	227.57
438.209	242.47
438.668	259.77
439.127	279.97
439.587	248.77
440.046	241.57
440.505	246.87
440.964	262.07
441.424	305.67
441.883	300.77
442.342	253.77
442.801	222.77
443.26	225.27
443.719	224.87
444.178	217.67
444.637	212.17
445.096	225.07
445.555	227.77
446.014	222.67
446.473	226.97
446.932	232.77
447.391	222.57
447.849	231.07
448.308	213.77
448.767	226.57
449.226	234.27
449.685	240.57
450.143	252.57
450.602	236.87
451.061	226.97
451.519	236.67
451.978	231.37
452.436	233.07
452.895	242.87
453.353	250.47
453.812	234.17
454.27	232.07
454.729	246.17
455.187	238.77
455.646	242.27
456.104	247.77
456.562	264.97
457.021	265.87
457.479	265.07
457.937	277.07
458.395	263.07
458.854	250.37
459.312	255.37
459.77	270.47
460.228	253.17
460.686	250.17
461.144	253.37
461.602	249.07
462.06	246.97
462.518	261.97
462.976	260.67
463.434	265.27
463.892	266.27
464.35	277.27
464.808	287.37
465.266	266.57
465.724	272.77
466.181	274.97
466.639	274.77
467.097	295.37
467.555	300.77
468.012	307.37
468.47	308.17
468.928	328.27
469.385	334.47
469.843	345.37
470.3	339.77
470.758	370.77
471.215	381.87
471.673	407.07
472.13	399.47
472.588	409.07
473.045	379.17
473.503	380.27
473.96	397.57
474.417	407.77
474.875	433.37
475.332	477.07
475.789	459.47
476.246	470.87
476.704	486.97
477.161	506.77
477.618	520.87
478.075	555.57
478.532	593.47
478.989	668.97
479.446	766.47
479.903	750.37
480.36	770.27
480.817	827.47
481.274	916.47
481.731	1007.87
482.188	1081.67
482.645	1194.67
483.102	1268.67
483.558	1392.77
484.015	1434.78
484.472	1408.88
484.929	1370.67
485.385	1329.67
485.842	1298.67
486.299	1248.17
486.755	1209.87
487.212	1031.07
487.668	888.67
488.125	824.87
488.582	753.87
489.038	724.57
489.494	699.77
489.951	676.17
490.407	651.57
490.864	633.27
491.32	626.87
491.776	641.97
492.233	644.87
492.689	605.57
493.145	606.57
493.602	599.97
494.058	616.97
494.514	616.47
494.97	637.37
495.426	649.07
495.882	620.07
496.338	611.97
496.794	613.57
497.251	609.67
497.707	632.67
498.163	631.67
498.618	632.07
499.074	638.87
499.53	674.27
499.986	668.67
500.442	647.27
500.898	621.97
501.354	608.37
501.809	626.87
502.265	622.27
502.721	636.67
503.177	645.67
503.632	645.07
504.088	645.57
504.543	662.47
504.999	699.37
505.455	657.27
505.91	636.67
506.366	636.17
506.821	640.97
507.277	631.37
507.732	642.27
508.187	634.77
508.643	643.07
509.098	644.07
509.553	669.07
510.009	681.37
510.464	668.87
510.919	691.67
511.375	702.87
511.83	715.77
512.285	736.17
512.74	772.77
513.195	784.37
513.65	773.17
514.105	777.87
514.56	770.27
515.015	788.67
515.47	811.07
515.925	780.37
516.38	795.87
516.835	805.47
517.29	786.17
517.745	787.37
518.2	776.47
518.655	758.17
519.109	748.67
519.564	747.57
520.019	737.27
520.474	723.57
520.928	734.27
521.383	727.37
521.838	721.27
522.292	721.57
522.747	717.17
523.201	712.77
523.656	705.87
524.11	712.27
524.565	696.97
525.019	695.27
525.474	720.57
525.928	711.87
526.382	710.87
526.837	719.37
527.291	720.97
527.745	713.97
528.2	715.07
528.654	704.37
529.108	699.67
529.562	701.87
530.016	698.07
530.47	698.87
530.925	705.87
531.379	698.07
531.833	717.37
532.287	711.97
532.741	702.37
533.195	714.07
533.649	724.37
534.103	724.97
534.556	719.07
535.01	713.17
535.464	713.77
535.918	720.97
536.372	722.77
536.826	727.07
537.279	723.97
537.733	726.17
538.187	731.07
538.64	728.07
539.094	729.27
539.548	738.07
540.001	732.97
540.455	738.07
540.908	738.37
541.362	750.77
541.815	759.57
542.269	773.77
542.722	768.57
543.175	781.37
543.629	783.37
544.082	804.87
544.536	802.97
544.989	805.67
545.442	817.77
545.895	808.47
546.349	808.87
546.802	820.37
547.255	817.97
547.708	815.47
548.161	827.27
548.614	836.37
549.067	850.67
549.52	824.97
549.973	823.67
550.426	829.67
550.879	816.67
551.332	821.17
551.785	832.37
552.238	823.27
552.691	844.27
553.144	849.37
553.596	863.97
554.049	887.57
554.502	915.67
554.955	936.27
555.407	923.27
555.86	922.77
556.313	914.67
556.765	902.67
557.218	910.37
557.67	903.17
558.123	892.67
558.576	882.27
559.028	897.27
559.48	908.47
559.933	899.47
560.385	855.47
560.838	830.07
561.29	816.87
561.742	807.57
562.195	797.47
562.647	789.37
563.099	798.07
563.551	796.77
564.004	806.17
564.456	790.47
564.908	770.87
565.36	762.07
565.812	753.77
566.264	737.47
566.716	733.27
567.168	721.07
567.62	731.97
568.072	717.57
568.524	712.67
568.976	706.87
569.428	686.67
569.88	687.87
570.332	702.47
570.784	705.37
571.235	705.37
571.687	713.67
572.139	730.17
572.59	736.27
573.042	728.47
573.494	733.77
573.945	734.47
574.397	705.77
574.849	712.07
575.3	707.97
575.752	697.47
576.203	700.47
576.655	708.47
577.106	697.37
577.557	698.17
578.009	694.37
578.46	685.97
578.912	687.47
579.363	693.17
579.814	686.67
580.265	688.37
580.717	680.27
581.168	679.87
581.619	693.47
582.07	705.87
582.521	696.47
582.972	689.37
583.423	701.87
583.875	687.47
584.326	700.17
584.777	720.47
585.227	741.27
585.678	760.17
586.129	769.27
586.58	797.77
587.031	822.27
587.482	852.27
587.933	892.47
588.384	858.77
588.834	814.57
589.285	806.17
589.736	790.87
590.186	786.57
590.637	793.07
591.088	765.67
591.538	763.37
591.989	744.67
592.439	747.97
592.89	736.77
593.34	718.97
593.791	721.77
594.241	715.67
594.692	721.47
595.142	722.77
595.593	720.17
596.043	725.17
596.493	723.57
596.943	722.47
597.394	748.67
597.844	738.67
598.294	759.97
598.744	779.47
599.195	803.47
599.645	846.67
600.095	890.87
600.545	949.77
600.995	993.27
601.445	1051.77
601.895	1119.87
602.345	1175.77
602.795	1147.97
603.245	1104.37
603.695	1039.87
604.145	992.97
604.594	939.07
605.044	897.57
605.494	823.27
605.944	783.17
606.393	775.17
606.843	748.97
607.293	759.07
607.743	761.07
608.192	766.07
608.642	780.37
609.091	773.67
609.541	789.17
609.99	788.87
610.44	773.87
610.889	726.67
611.339	726.77
611.788	702.77
612.238	714.77
612.687	722.27
613.136	728.27
613.586	714.87
614.035	722.87
614.484	743.57
614.933	724.67
615.383	737.17
615.832	730.97
616.281	719.17
616.73	686.47
617.179	671.07
617.628	664.57
618.077	642.67
618.526	640.27
618.975	635.17
619.424	636.47
619.873	633.17
620.322	639.87
620.771	622.97
621.22	618.47
621.669	618.27
622.118	608.87
622.567	595.07
623.015	578.67
623.464	588.97
623.913	580.17
624.361	573.07
624.81	573.07
625.259	578.57
625.707	574.47
626.156	572.07
626.604	591.27
627.053	576.67
627.501	579.37
627.95	584.67
628.398	603.37
628.847	586.87
629.295	589.07
629.744	594.17
630.192	581.37
630.64	579.27
631.089	566.17
631.537	555.97
631.985	550.77
632.433	546.47
632.881	551.07
633.33	538.07
633.778	548.97
634.226	533.97
634.674	562.27
635.122	563.17
635.57	564.87
636.018	583.07
636.466	581.17
636.914	573.67
637.362	593.57
637.81	599.47
638.258	608.17
638.705	609.77
639.153	635.57
639.601	649.67
640.049	668.57
640.497	701.97
640.944	718.47
641.392	664.37
641.84	634.17
642.287	612.77
642.735	583.87
643.182	586.87
643.63	584.17
644.078	573.87
644.525	591.37
644.973	601.77
645.42	616.67
645.867	640.17
646.315	651.97
646.762	676.27
647.21	703.57
647.657	730.07
648.104	765.47
648.551	779.27
648.999	835.57
649.446	909.67
649.893	999.37
650.34	1144.47
650.787	1374.27
651.234	1684.17
651.682	2182.27
652.129	2951.67
652.576	4206.67
653.023	6131.37
653.47	8250.77
653.917	10185.17
654.363	11587.58
654.81	12730.48
655.257	12072.78
655.704	8001.48
656.151	4827.67
656.598	3160.38
657.044	2267.97
657.491	1768.97
657.938	1434.77
658.385	1206.47
658.831	1049.77
659.278	948.37
659.724	849.17
660.171	791.87
660.618	726.97
661.064	689.87
661.511	675.57
661.957	665.87
662.404	643.87
662.85	659.37
663.296	641.17
663.743	576.27
664.189	551.27
664.635	547.07
665.082	545.67
665.528	551.37
665.974	532.57
666.42	532.27
666.867	527.97
667.313	492.77
667.759	485.47
668.205	466.17
668.651	468.87
669.097	460.57
669.543	459.37
669.989	464.87
670.435	464.67
670.881	460.37
671.327	465.37
671.773	489.87
672.219	521.47
672.665	570.17
673.11	618.87
673.556	666.17
674.002	708.17
674.448	688.87
674.893	578.37
675.339	495.77
675.785	464.27
676.23	429.17
676.676	418.87
677.122	397.67
677.567	395.97
678.013	381.87
678.458	367.07
678.904	382.37
679.349	364.27
679.794	366.27
680.24	369.47
680.685	372.57
681.131	368.47
681.576	371.57
682.021	374.67
682.466	369.67
682.912	370.67
683.357	373.17
683.802	403.57
684.247	436.47
684.692	484.67
685.137	517.87
685.583	558.37
686.028	584.47
686.473	543.87
686.918	469.17
687.363	436.67
687.807	410.97
688.252	388.07
688.697	370.17
689.142	351.67
689.587	354.17
690.032	337.17
690.477	363.97
690.921	371.67
691.366	400.97
691.811	418.17
692.255	457.17
692.7	488.77
693.145	536.77
693.589	766.17
694.034	1244.17
694.478	1651.77
694.923	1832.57
695.367	2365.07
695.812	1257.57
696.256	528.67
696.701	390.37
697.145	370.47
697.59	343.37
698.034	341.47
698.478	345.87
698.922	330.67
699.367	335.57
699.811	345.67
700.255	371.17
700.699	399.27
701.143	453.27
701.588	494.37
702.032	541.27
702.476	536.47
702.92	515.47
703.364	530.47
703.808	707.57
704.252	1134.67
704.696	1571.08
705.14	1754.27
705.584	2231.57
706.027	1124.87
706.471	557.17
706.915	427.57
707.359	370.67
707.803	342.37
708.246	335.87
708.69	335.07
709.134	330.77
709.577	324.77
710.021	325.07
710.465	323.77
710.908	311.87
711.352	316.97
711.795	324.97
712.239	372.87
712.682	417.77
713.126	437.47
713.569	482.67
714.012	382.67
714.456	317.47
714.899	303.47
715.342	286.57
715.786	281.27
716.229	271.37
716.672	258.37
717.115	260.67
717.558	258.77
718.002	263.57
718.445	280.07
718.888	301.97
719.331	310.97
719.774	324.97
720.217	320.57
720.66	305.07
721.103	281.97
721.546	262.37
721.989	259.47
722.432	241.87
722.874	252.27
723.317	242.17
723.76	249.57
724.203	269.77
724.645	341.17
725.088	480.37
725.531	600.87
725.974	669.17
726.416	570.17
726.859	325.37
727.301	267.17
727.744	251.87
728.187	250.37
728.629	249.67
729.071	262.87
729.514	279.67
729.956	283.17
730.399	304.27
730.841	300.87
731.283	295.47
731.726	288.07
732.168	275.77
732.61	281.07
733.053	306.87
733.495	340.67
733.937	369.57
734.379	427.87
734.821	471.17
735.263	592.37
735.705	944.87
736.148	1747.28
736.59	2780.27
737.032	3204.68
737.474	2623.38
737.916	873.77
738.357	453.67
738.799	354.07
739.241	317.97
739.683	297.87
740.125	317.37
740.567	316.47
741.008	336.07
741.45	339.97
741.892	335.17
742.334	375.07
742.775	387.97
743.217	363.77
743.658	286.27
744.1	267.57
744.542	279.27
744.983	334.17
745.425	372.77
745.866	365.67
746.307	293.67
746.749	300.07
747.19	351.17
747.632	499.47
748.073	1005.97
748.514	2047.87
748.956	3066.47
749.397	3873.97
749.838	3204.38
750.279	3100.97
750.72	1590.37
751.162	585.87
751.603	350.17
752.044	267.17
752.485	227.47
752.926	221.27
753.367	217.77
753.808	211.67
754.249	204.47
754.69	195.77
755.131	190.07
755.572	192.07
756.013	187.77
756.453	195.07
756.894	193.17
757.335	200.47
757.776	208.17
758.216	208.67
758.657	208.87
759.098	215.57
759.538	243.77
759.979	294.57
760.42	415.27
760.86	808.17
761.301	2095.17
761.741	4912.38
762.182	6733.58
762.622	4779.48
763.063	1404.77
763.503	573.47
763.943	347.87
764.384	290.17
764.824	271.27
765.264	257.07
765.705	226.07
766.145	193.97
766.585	186.47
767.025	187.17
767.465	171.47
767.906	191.87
768.346	207.77
768.786	222.07
769.226	232.37
769.666	338.37
770.106	698.77
770.546	1738.67
770.986	2775.18
771.426	2468.27
771.866	841.37
772.306	353.47
772.745	216.17
773.185	182.57
773.625	173.07
774.065	155.67
774.505	172.97
774.944	224.17
775.384	396.77
775.824	625.57
776.263	606.77
776.703	300.07
777.142	169.47
777.582	146.37
778.021	129.67
778.461	127.87
778.9	132.37
779.34	136.37
779.779	120.47
780.219	113.17
780.658	107.57
781.097	115.77
781.537	118.37
781.976	115.07
782.415	113.27
782.855	106.37
783.294	102.97
783.733	104.27
784.172	113.77
784.611	115.57
785.05	111.07
785.489	118.07
785.928	125.97
786.367	130.17
786.806	128.97
787.245	143.47
787.684	136.77
788.123	154.37
788.562	145.27
789.001	137.17
789.44	129.27
789.879	121.37
790.317	128.97
790.756	136.47
791.195	140.37
791.634	161.17
792.072	226.07
792.511	410.07
792.95	1129.27
793.388	2242.87
793.827	1985.67
794.265	710.47
794.704	304.47
795.142	194.67
795.581	155.27
796.019	143.37
796.458	131.47
796.896	131.17
797.334	138.67
797.773	169.67
798.211	236.67
798.649	504.67
799.087	1124.17
799.526	1728.78
799.964	2175.57
800.402	2094.57
800.84	812.57
801.278	335.07
801.716	203.97
802.154	158.97
802.592	160.77
803.03	152.77
803.468	144.57
803.906	150.87
804.344	163.57
804.782	152.27
805.22	142.77
805.658	141.67
806.096	157.37
806.533	165.47
806.971	193.07
807.409	240.07
807.847	357.47
808.284	759.37
808.722	2081.47
809.16	3515.17
809.597	3489.57
810.035	5893.48
810.472	6029.67
810.91	2225.97
811.347	855.07
811.785	435.07
812.222	278.17
812.66	215.17
813.097	173.67
813.535	154.47
813.972	137.47
814.409	127.37
814.846	109.77
815.284	116.47
815.721	101.37
816.158	107.67
816.595	121.57
817.032	161.07
817.47	189.67
817.907	135.97
818.344	113.97
818.781	110.17
819.218	102.07
819.655	130.77
820.092	197.77
820.529	220.97
820.966	176.07
821.403	134.47
821.839	103.27
822.276	106.47
822.713	139.67
823.15	145.87
823.587	123.57
824.023	163.27
824.46	340.57
824.897	986.67
825.333	1416.78
825.77	613.77
826.206	242.87
826.643	146.37
827.08	108.07
827.516	88.07
827.953	82.17
828.389	84.47
828.825	73.17
829.262	72.67
829.698	61.67
830.135	70.17
830.571	70.97
831.007	65.57
831.443	73.77
831.88	70.17
832.316	66.67
832.752	69.47
833.188	71.87
833.624	69.27
834.06	73.47
834.497	74.27
834.933	76.47
835.369	83.57
835.805	73.97
836.241	81.17
836.677	85.57
837.112	98.57
837.548	113.67
837.984	146.67
838.42	224.47
838.856	574.97
839.292	1673.57
839.727	2424.57
840.163	1156.67
840.599	1040.27
841.034	2216.57
841.47	2218.38
841.906	836.47
842.341	357.37
842.777	213.67
843.212	216.37
843.648	202.07
844.083	119.07
844.519	89.87
844.954	80.47
845.39	63.67
845.825	61.57
846.261	54.47
846.696	57.67
847.131	55.57
847.566	63.37
848.002	55.87
848.437	57.37
848.872	66.97
849.307	65.97
849.742	90.57
850.177	202.67
850.613	610.47
851.048	924.17
851.483	396.97
851.918	166.17
852.353	98.77
852.788	61.87
853.223	53.77
853.657	55.87
854.092	50.77
854.527	43.77
854.962	48.57
855.397	46.47
855.832	51.77
856.266	36.77
856.701	42.17
857.136	42.97
857.57	47.67
858.005	55.37
858.44	63.87
858.874	41.97
859.309	51.07
859.743	40.57
860.178	50.97
860.612	46.47
861.047	54.57
861.481	74.67
861.915	78.27
862.35	58.17
862.784	35.67
863.218	45.27
863.653	39.07
864.087	53.97
864.521	57.67
864.955	76.97
865.39	169.37
865.824	178.17
866.258	126.37
866.692	180.87
867.126	189.97
867.56	109.97
867.994	57.27
868.428	44.37
868.862	51.97
869.296	58.77
869.73	60.27
870.164	55.67
870.598	55.97
871.031	37.87
871.465	31.87
871.899	34.87
872.333	23.27
872.766	23.77
873.2	17.77
873.634	30.27
874.067	28.47
874.501	28.17
874.935	32.27
875.368	32.87
875.802	28.57
876.235	26.87
876.669	26.97
877.102	23.17
877.535	22.87
877.969	23.17
878.402	25.97
878.836	26.27
879.269	23.57
879.702	27.37
880.135	22.27
880.569	22.27
881.002	24.57
881.435	21.27
881.868	18.37
882.301	22.87
882.734	18.87
883.167	26.77
883.601	22.87
884.034	20.37
884.467	15.67
884.899	22.47
885.332	15.47
885.765	16.67
886.198	15.77
886.631	15.17
887.064	24.97
887.497	20.77
887.929	27.87
888.362	18.07
888.795	12.47
889.228	20.27
889.66	21.97
890.093	14.27
890.526	17.17
890.958	20.97
891.391	18.07
891.823	20.97
892.256	17.27
892.688	9.47
893.121	17.57
893.553	13.87
893.985	20.87
894.418	20.57
894.85	10.47
895.282	21.77
895.715	13.17
896.147	16.07
896.579	18.07
897.011	11.27
897.444	19.47
897.876	18.27
898.308	16.67
898.74	12.97
899.172	15.37
899.604	20.47
900.036	17.97
900.468	14.27
900.9	14.27
901.332	26.47
901.764	17.47
902.196	18.67
902.628	16.37
903.06	15.77
903.491	30.37
903.923	22.67
904.355	18.37
904.787	21.47
905.218	24.77
905.65	18.07
906.082	12.77
906.513	16.97
906.945	18.27
907.376	15.27
907.808	10.77
908.239	13.67
908.671	17.37
909.102	20.67
909.534	22.47
909.965	54.77
910.397	109.87
910.828	337.87
911.259	496.17
911.691	229.77
912.122	114.77
912.553	57.37
912.984	37.87
913.415	27.17
913.847	24.57
914.278	11.77
914.709	16.87
915.14	17.97
915.571	16.97
916.002	15.67
916.433	17.57
916.864	21.37
917.295	14.57
917.726	20.47
918.157	17.47
918.587	26.17
919.018	24.97
919.449	21.07
919.88	24.57
920.311	33.47
920.741	52.77
921.172	184.27
921.603	162.07
922.033	76.97
922.464	51.47
922.895	27.37
923.325	23.17
923.756	15.37
924.186	14.87
924.617	23.07
925.047	20.47
925.478	20.67
925.908	22.97
926.338	15.77
926.769	10.87
927.199	19.47
927.629	11.67
928.06	11.07
928.49	16.47
928.92	15.87
929.35	11.17
929.78	11.17
930.21	9.67
930.641	8.37
931.071	10.17
931.501	9.67
931.931	10.17
932.361	5.87
932.791	3.27
933.221	9.77
933.651	5.47
934.08	17.87
934.51	31.37
934.94	11.97
935.37	7.37
935.8	12.87
936.229	12.57
936.659	7.77
937.089	5.47
937.519	19.77
937.948	25.17
938.378	18.47
938.807	10.07
939.237	6.97
939.666	3.97
940.096	-2.93
940.525	-3.23
940.955	0.37
941.384	2.17
941.814	0.67
942.243	-1.13
942.672	4.17
943.102	1.47
943.531	2.57
943.96	6.47
944.39	-0.33
944.819	3.97
945.248	0.97
945.677	-3.53
946.106	6.47
946.535	6.97
946.964	-2.33
947.393	-2.53
947.822	6.97
948.251	-3.43
948.68	4.87
949.109	2.37
949.538	2.47
949.967	3.57
950.396	3.67
950.825	-4.23
951.254	-3.83
951.682	-6.63
952.111	0.87
952.54	6.67
952.969	-7.03
953.397	-1.23
953.826	2.27
954.254	-7.13
954.683	0.27
955.112	-5.73
955.54	0.17
955.969	-0.43
956.397	5.77
956.826	-5.23
957.254	2.87
957.682	2.87
958.111	5.47
958.539	2.57
958.967	-4.63
959.396	-0.33
959.824	-2.83
960.252	-0.03
960.68	-4.23
961.109	-6.93
961.537	-3.93
961.965	-4.13
962.393	-2.13
962.821	-7.03
963.249	1.97
963.677	-0.33
964.105	2.67
964.533	45.77
964.961	49.87
965.389	25.77
965.817	10.17
966.245	0.17
966.672	-3.13
967.1	-8.23
967.528	-2.43
967.956	0.27
968.383	1.77
968.811	1.77
969.239	-3.93
969.666	-7.13
970.094	-3.83
970.522	-2.33
970.949	-0.43
971.377	-3.03
971.804	-0.73
972.232	-4.03
972.659	-2.53
973.087	-3.93
973.514	-6.93
973.941	-3.13
974.369	6.47
974.796	-3.23
975.223	4.87
975.651	-6.33
976.078	-2.73
976.505	-6.93
976.932	-1.53
977.359	17.17
977.786	21.57
978.214	1.57
978.641	-4.43
979.068	2.77
979.495	0.47
979.922	-3.93
980.349	-5.03
980.776	4.47
981.202	-0.93
981.629	0.17
982.056	5.17
982.483	-4.73
982.91	3.67
983.337	-3.43
983.763	4.37
984.19	-6.03
984.617	-7.03
985.043	-1.93
985.47	3.07
985.897	-10.63
986.323	-7.63
986.75	2.47
987.176	-1.53
987.603	0.07
988.029	-4.53
988.456	-3.93
988.882	-1.63
989.308	-8.13
989.735	-5.63
990.161	0.07
990.587	-0.53
991.014	-2.43
991.44	6.87
991.866	-1.23
992.292	-6.03
992.719	-3.13
993.145	0.67
993.571	-6.23
993.997	-2.93
994.423	-6.93
994.849	-4.43
995.275	0.47
995.701	1.47
996.127	-9.13
996.553	3.87
996.979	0.37
997.405	-3.03
997.83	-9.93
998.256	-4.13
998.682	-3.83
999.108	-11.43
999.534	-2.23
999.959	-2.03
1000.385	-3.03
1000.811	-1.43
1001.236	-10.93
1001.662	-4.23
1002.087	-5.83
1002.513	5.17
1002.938	-0.83
1003.364	-5.73
1003.789	-1.23
1004.215	-2.03
1004.64	-4.53
1005.066	3.27
1005.491	-0.43
1005.916	0.57
1006.342	-5.33
1006.767	-8.13
1007.192	6.87
1007.617	-7.13
1008.042	-11.13
1008.468	-4.23
1008.893	-2.03
1009.318	-2.83
1009.743	-5.23
1010.168	2.77
1010.593	2.17
1011.018	-6.63
1011.443	-6.73
1011.868	0.37
1012.293	-1.13
1012.718	-8.13
1013.143	2.17
1013.567	-0.03
1013.992	-4.63
1014.417	-19.63
1014.842	-1.03
1015.267	-5.83
1015.691	-3.83
1016.116	7.27
1016.541	-1.83
1016.965	3.67
1017.39	-2.63
1017.814	-1.63
1018.239	-1.23
1018.663	-8.83
1019.088	-12.03
1019.512	-2.33
1019.937	0.47
1020.361	-3.73
1020.785	-7.33
1021.21	-11.43
1021.634	1.87
1022.058	2.07
1022.483	3.37
1022.907	-5.73
1023.331	1.27
1023.755	-5.13
1024.179	-1.93
1024.604	-3.13
1025.028	-3.53
1025.452	-1.13
1025.876	-1.83
1026.3	4.67
1026.724	-12.83
1027.148	-3.73
1027.572	-4.83
1027.996	-2.63
1028.42	-0.33
1028.843	-2.83
1029.267	-7.83
1029.691	-9.03
1030.115	-5.43
1030.539	-7.53
1030.962	-5.93
1031.386	-7.83
1031.81	0.57
1032.233	-9.23
1032.657	-6.53
1033.08	-4.93
1033.504	-2.73
1033.927	-2.83
1034.351	-3.53
1034.774	-6.53
1035.198	-1.83
1035.621	-6.83
1036.045	-4.23
1036.468	-3.73
1036.891	-15.93
1037.315	-9.73
1037.738	-10.33
1038.161	-4.13
1038.584	-7.03
1039.008	-7.73
1039.431	0.07
1039.854	-4.53
1040.277	-10.23
1040.7	-5.63
1041.123	-0.93
1041.546	-11.63
1041.969	-8.33
1042.392	-7.03
1042.815	-6.53
1043.238	-0.13
1043.661	2.57
1044.084	-7.93
1044.507	-3.33
1044.93	-4.73
1045.352	-9.43
1045.775	-2.63
1046.198	-3.03
1046.621	-5.63
1047.043	-0.93
1047.466	8.27
1047.889	-6.23
1048.311	-3.73
1048.734	-7.43
1049.156	-2.43
1049.579	-1.93
1050.001	-0.23
1050.424	-3.13
1050.846	-2.03
1051.269	-7.83
1051.691	-11.33
1052.113	-5.63
1052.536	-2.33
1052.958	-8.93
1053.38	-7.03
1053.802	-8.13
1054.225	-1.23
1054.647	-6.83
1055.069	-1.73
1055.491	-3.43
1055.913	-3.73
1056.335	-3.03
1056.757	-7.63
1057.179	-8.93
1057.601	-5.83
1058.023	-11.43
1058.445	-0.03
1058.867	-7.93
1059.289	-4.53
1059.711	-4.03
1060.133	-3.63
1060.555	-3.73
1060.976	-11.33
1061.398	-4.33
1061.82	-10.23
1062.241	-3.83
1062.663	-9.53
1063.085	-6.33
1063.506	-0.93
1063.928	-2.03
1064.35	-5.43
1064.771	-13.73
1065.193	-4.83
1065.614	-6.03
1066.035	-6.53
1066.457	-7.03
1066.878	1.07
1067.3	-8.63
1067.721	-0.63
1068.142	-2.93
1068.564	-7.63
1068.985	-4.93
1069.406	-8.13
1069.827	-7.53
1070.248	0.57
1070.67	-3.03
1071.091	-4.13
1071.512	-2.73
1071.933	-12.13
1072.354	-9.63
1072.775	-5.23
1073.196	-7.43
1073.617	3.67
1074.038	-10.23
1074.459	-2.43
1074.88	-11.03
1075.3	1.17
1075.721	-2.43
1076.142	-2.83
1076.563	-0.53
1076.983	-15.43
1077.404	-6.73
1077.825	-11.23
1078.246	-0.43
1078.666	-10.43
1079.087	-11.23
1079.507	-6.23
1079.928	-0.33
1080.348	-5.63
1080.769	-8.83
1081.189	-4.33
1081.61	-1.63
1082.03	-9.13
1082.451	-2.83
1082.871	-8.23
1083.291	-6.93
1083.711	-1.83
1084.132	-8.73
1084.552	-9.33
1084.972	0.47
1085.392	-8.73
1085.813	-12.53
1086.233	-8.23
1086.653	-3.73
1087.073	-1.63
1087.493	-10.03
1087.913	-8.83
1088.333	-6.53
1088.753	-0.63
1089.173	0.37
1089.593	-4.03
1090.013	-2.43
1090.433	-0.03
1090.852	-9.83
1091.272	-5.33
1091.692	-3.43
1092.112	-2.73
1092.531	-12.03
1092.951	-13.33
1093.371	-3.23
1093.79	-3.13
1094.21	-8.23
1094.63	-1.63
1095.049	-8.23
1095.469	-7.43
1095.888	-5.53
1096.308	0.17
1096.727	-1.93
1097.146	-7.43
1097.566	-7.83
1097.985	-6.23
1098.405	0.77
1098.824	-8.53
1099.243	-4.13
1099.662	-12.13
1100.082	-2.83
1100.501	1.77
1100.92	-5.03
1101.339	-0.23
1101.758	-6.83
