Data from 20171114-ORNL-Ar_H_NY_Subt18_08-05-52-071.txt Node
Date: Tue Nov 14 08:05:52 EST 2017
User: Ender
Spectrometer: HR+D1039
Trigger mode: 0
Integration Time (sec): 2.730000E-2
Scans to average: 10
Electric dark correction enabled: true
Nonlinearity correction enabled: false
Boxcar width: 0
XAxis mode: Wavelengths
Number of Pixels in Spectrum: 2048
>>>>>Begin Spectral Data<<<<<
187.836	-1.69
188.309	-1.69
188.782	-1.69
189.255	-2.09
189.728	-0.79
190.201	7.51
190.674	1.81
191.147	4.21
191.619	-5.69
192.092	-0.19
192.565	1.11
193.038	0.01
193.511	-1.49
193.984	-0.39
194.456	2.61
194.929	3.61
195.402	-6.29
195.874	-2.29
196.347	-2.19
196.82	-1.29
197.292	4.01
197.765	-1.09
198.237	-10.09
198.71	0.61
199.182	0.91
199.655	4.51
200.127	0.01
200.6	-0.99
201.072	-0.09
201.544	-3.99
202.017	1.51
202.489	2.21
202.961	-6.39
203.433	-0.89
203.906	-5.59
204.378	-7.09
204.85	-2.79
205.322	-5.69
205.794	-2.79
206.266	-3.49
206.739	-4.49
207.211	5.11
207.683	-1.99
208.155	-5.39
208.627	-8.19
209.099	-1.49
209.57	-8.59
210.042	-3.59
210.514	-0.59
210.986	-1.39
211.458	-6.09
211.93	1.11
212.402	5.11
212.873	-6.69
213.345	-11.09
213.817	-7.99
214.288	0.61
214.76	-10.39
215.232	-3.79
215.703	1.91
216.175	-3.49
216.646	-2.89
217.118	-6.29
217.589	-7.89
218.061	-1.19
218.532	-7.39
219.004	-0.89
219.475	-1.29
219.946	-6.39
220.418	-3.69
220.889	1.31
221.36	2.11
221.832	-5.49
222.303	-2.59
222.774	1.61
223.245	-6.79
223.717	-4.89
224.188	-3.59
224.659	-5.29
225.13	-7.79
225.601	-5.29
226.072	0.61
226.543	2.71
227.014	4.31
227.485	1.51
227.956	-2.09
228.427	-0.49
228.898	5.01
229.369	-1.09
229.839	-6.79
230.31	-3.69
230.781	0.61
231.252	-1.29
231.722	-2.79
232.193	1.81
232.664	1.01
233.135	-0.09
233.605	4.61
234.076	0.41
234.546	2.31
235.017	1.71
235.487	-1.79
235.958	-0.99
236.428	-4.89
236.899	2.71
237.369	2.61
237.84	-0.69
238.31	5.21
238.78	-0.29
239.251	3.81
239.721	4.51
240.191	-1.69
240.662	1.31
241.132	0.21
241.602	1.51
242.072	-3.79
242.542	7.61
243.013	-0.29
243.483	3.51
243.953	1.51
244.423	-0.29
244.893	-1.49
245.363	4.01
245.833	2.31
246.303	1.01
246.773	7.21
247.243	5.21
247.712	4.91
248.182	6.41
248.652	7.51
249.122	0.81
249.592	17.91
250.061	17.71
250.531	29.41
251.001	11.41
251.471	20.11
251.94	22.51
252.41	9.11
252.879	3.21
253.349	12.11
253.818	1.41
254.288	-4.19
254.757	2.41
255.227	1.01
255.696	2.31
256.166	11.01
256.635	9.91
257.105	12.61
257.574	7.51
258.043	13.21
258.513	13.51
258.982	11.81
259.451	9.31
259.92	14.21
260.389	11.91
260.859	18.71
261.328	16.31
261.797	18.41
262.266	3.61
262.735	12.91
263.204	6.81
263.673	-1.19
264.142	9.01
264.611	-1.19
265.08	3.41
265.549	-6.09
266.018	2.61
266.487	2.41
266.955	0.91
267.424	6.31
267.893	9.71
268.362	-2.49
268.83	5.31
269.299	12.61
269.768	5.81
270.236	13.41
270.705	7.81
271.174	9.81
271.642	15.01
272.111	17.31
272.579	19.81
273.048	23.21
273.516	30.61
273.985	29.81
274.453	29.31
274.922	17.81
275.39	11.41
275.858	7.41
276.327	12.01
276.795	22.91
277.263	16.31
277.731	35.91
278.2	57.31
278.668	66.01
279.136	47.31
279.604	27.31
280.072	19.71
280.54	14.41
281.008	18.31
281.477	21.11
281.945	14.41
282.413	14.01
282.881	12.21
283.348	9.01
283.816	14.71
284.284	14.51
284.752	21.71
285.22	19.61
285.688	21.61
286.156	19.21
286.623	49.51
287.091	53.91
287.559	35.11
288.026	20.01
288.494	16.81
288.962	9.01
289.429	13.61
289.897	20.61
290.364	19.11
290.832	24.21
291.3	8.61
291.767	16.21
292.234	18.71
292.702	15.71
293.169	22.01
293.637	25.51
294.104	24.31
294.571	9.61
295.039	14.71
295.506	16.01
295.973	26.01
296.44	12.01
296.908	24.31
297.375	22.71
297.842	22.21
298.309	21.11
298.776	12.41
299.243	25.01
299.71	12.91
300.177	27.11
300.644	24.21
301.111	26.51
301.578	30.11
302.045	17.91
302.512	30.71
302.979	27.01
303.446	22.31
303.913	20.51
304.379	17.91
304.846	21.21
305.313	27.11
305.78	25.41
306.246	30.31
306.713	31.51
307.18	27.51
307.646	28.01
308.113	30.41
308.579	24.21
309.046	25.91
309.512	26.81
309.979	21.61
310.445	30.31
310.912	28.51
311.378	36.21
311.845	33.61
312.311	29.11
312.777	32.61
313.244	33.51
313.71	41.41
314.176	35.21
314.642	32.11
315.109	34.31
315.575	43.21
316.041	43.21
316.507	42.61
316.973	43.41
317.439	34.61
317.905	39.61
318.371	37.21
318.837	33.61
319.303	33.01
319.769	32.71
320.235	39.11
320.701	35.71
321.167	46.21
321.633	33.11
322.099	40.11
322.564	47.01
323.03	46.01
323.496	39.11
323.962	45.61
324.427	40.81
324.893	44.51
325.359	40.01
325.824	40.11
326.29	37.81
326.755	42.51
327.221	38.51
327.686	41.51
328.152	48.31
328.617	47.51
329.083	48.11
329.548	53.51
330.014	42.61
330.479	40.41
330.944	53.31
331.41	45.71
331.875	50.51
332.34	42.31
332.805	46.61
333.271	45.21
333.736	48.71
334.201	57.81
334.666	52.51
335.131	55.81
335.596	58.41
336.061	48.71
336.526	49.61
336.991	48.01
337.456	54.11
337.921	53.61
338.386	47.71
338.851	54.61
339.316	47.01
339.781	49.91
340.246	51.21
340.711	53.01
341.175	54.61
341.64	45.91
342.105	54.61
342.569	56.41
343.034	60.51
343.499	55.21
343.963	55.71
344.428	66.81
344.893	63.01
345.357	60.81
345.822	64.41
346.286	69.71
346.751	78.01
347.215	75.21
347.679	80.71
348.144	98.91
348.608	88.71
349.073	70.31
349.537	68.11
350.001	83.61
350.465	87.41
350.93	83.31
351.394	85.91
351.858	76.21
352.322	89.41
352.786	88.91
353.25	102.11
353.715	114.51
354.179	101.11
354.643	127.41
355.107	134.21
355.571	106.71
356.035	104.71
356.498	123.91
356.962	131.01
357.426	137.51
357.89	119.21
358.354	97.21
358.818	87.51
359.281	73.81
359.745	79.51
360.209	78.51
360.673	75.31
361.136	84.31
361.6	86.01
362.064	90.41
362.527	84.11
362.991	101.71
363.454	81.01
363.918	74.41
364.381	81.31
364.845	89.61
365.308	88.21
365.772	93.01
366.235	92.01
366.698	87.71
367.162	92.51
367.625	94.81
368.088	84.41
368.552	92.01
369.015	97.21
369.478	97.71
369.941	98.61
370.404	98.01
370.867	105.81
371.331	106.31
371.794	120.41
372.257	116.01
372.72	118.71
373.183	112.91
373.646	107.71
374.109	108.31
374.572	111.01
375.035	112.31
375.497	110.41
375.96	109.01
376.423	110.11
376.886	117.01
377.349	111.71
377.811	105.31
378.274	108.61
378.737	101.31
379.199	115.41
379.662	116.11
380.125	115.81
380.587	113.01
381.05	119.81
381.512	125.41
381.975	130.41
382.437	131.71
382.9	129.91
383.362	126.01
383.825	140.21
384.287	151.81
384.75	140.51
385.212	136.31
385.674	144.01
386.136	136.61
386.599	137.61
387.061	130.31
387.523	128.11
387.985	141.11
388.447	152.51
388.91	148.51
389.372	156.81
389.834	155.51
390.296	143.51
390.758	157.71
391.22	164.21
391.682	206.11
392.144	296.01
392.606	228.91
393.068	163.31
393.529	168.21
393.991	152.21
394.453	149.91
394.915	155.21
395.377	193.11
395.838	214.01
396.3	153.41
396.762	140.11
397.224	133.81
397.685	125.81
398.147	129.81
398.608	133.31
399.07	128.71
399.531	133.81
399.993	145.91
400.454	150.91
400.916	151.91
401.377	146.01
401.839	155.21
402.3	155.61
402.762	172.81
403.223	180.21
403.684	171.21
404.145	160.11
404.607	158.41
405.068	165.41
405.529	181.81
405.99	194.51
406.451	187.41
406.913	173.21
407.374	168.21
407.835	168.01
408.296	170.81
408.757	176.61
409.218	185.21
409.679	183.51
410.14	183.41
410.601	181.41
411.062	184.61
411.522	190.71
411.983	186.31
412.444	168.51
412.905	185.91
413.366	185.51
413.826	197.71
414.287	212.21
414.748	268.41
415.208	252.01
415.669	207.01
416.13	210.61
416.59	201.71
417.051	218.61
417.511	218.41
417.972	232.91
418.432	248.71
418.893	286.91
419.353	253.01
419.814	200.31
420.274	186.51
420.734	181.11
421.195	199.01
421.655	203.91
422.115	196.11
422.576	193.61
423.036	196.71
423.496	210.21
423.956	211.61
424.416	237.71
424.876	266.61
425.336	260.01
425.797	266.91
426.257	254.31
426.717	237.71
427.177	238.11
427.637	230.01
428.097	240.91
428.556	251.61
429.016	271.41
429.476	260.21
429.936	271.21
430.396	275.31
430.856	292.81
431.315	326.11
431.775	355.61
432.235	378.11
432.694	360.51
433.154	367.21
433.614	396.81
434.073	337.51
434.533	288.81
434.993	281.61
435.452	289.21
435.912	294.61
436.371	290.31
436.83	290.91
437.29	271.11
437.749	250.31
438.209	246.41
438.668	274.91
439.127	295.81
439.587	274.11
440.046	255.11
440.505	267.61
440.964	280.31
441.424	324.81
441.883	314.11
442.342	264.01
442.801	231.51
443.26	222.51
443.719	222.91
444.178	224.51
444.637	218.11
445.096	223.71
445.555	226.61
446.014	228.61
446.473	226.31
446.932	232.41
447.391	232.81
447.849	224.31
448.308	216.21
448.767	225.31
449.226	238.01
449.685	244.41
450.143	258.41
450.602	244.01
451.061	232.51
451.519	236.11
451.978	236.51
452.436	238.01
452.895	245.21
453.353	251.41
453.812	244.01
454.27	246.11
454.729	242.01
455.187	244.61
455.646	247.61
456.104	253.11
456.562	262.81
457.021	271.11
457.479	269.01
457.937	281.41
458.395	272.61
458.854	248.91
459.312	256.61
459.77	281.61
460.228	262.31
460.686	250.61
461.144	251.81
461.602	240.81
462.06	240.91
462.518	256.21
462.976	255.31
463.434	258.01
463.892	268.91
464.35	281.51
464.808	292.31
465.266	275.81
465.724	269.91
466.181	272.31
466.639	272.21
467.097	296.31
467.555	302.91
468.012	304.81
468.47	308.21
468.928	330.71
469.385	342.51
469.843	348.01
470.3	357.31
470.758	372.71
471.215	392.41
471.673	421.61
472.13	409.31
472.588	424.71
473.045	377.21
473.503	385.61
473.96	396.01
474.417	411.91
474.875	438.71
475.332	492.71
475.789	480.61
476.246	488.91
476.704	492.01
477.161	517.81
477.618	522.61
478.075	558.41
478.532	634.81
478.989	698.91
479.446	819.01
479.903	784.91
480.36	820.11
480.817	887.71
481.274	978.61
481.731	1077.51
482.188	1173.01
482.645	1324.61
483.102	1435.11
483.558	1566.41
484.015	1619.61
484.472	1592.61
484.929	1541.51
485.385	1499.51
485.842	1459.61
486.299	1383.11
486.755	1322.71
487.212	1106.11
487.668	941.11
488.125	868.81
488.582	800.11
489.038	764.31
489.494	724.41
489.951	701.61
490.407	675.51
490.864	657.71
491.32	656.51
491.776	656.11
492.233	654.11
492.689	626.21
493.145	608.11
493.602	606.51
494.058	623.11
494.514	629.51
494.97	641.11
495.426	657.51
495.882	628.21
496.338	620.01
496.794	646.81
497.251	629.41
497.707	644.41
498.163	648.81
498.618	649.81
499.074	664.61
499.53	694.01
499.986	691.41
500.442	667.11
500.898	643.61
501.354	637.31
501.809	652.51
502.265	646.11
502.721	663.11
503.177	669.91
503.632	674.31
504.088	693.41
504.543	719.61
504.999	712.71
505.455	666.81
505.91	635.41
506.366	650.01
506.821	636.91
507.277	636.11
507.732	636.61
508.187	629.51
508.643	641.61
509.098	643.11
509.553	666.61
510.009	669.81
510.464	679.81
510.919	693.01
511.375	700.61
511.83	717.21
512.285	738.81
512.74	778.71
513.195	798.61
513.65	792.81
514.105	782.31
514.56	783.01
515.015	800.31
515.47	811.81
515.925	805.41
516.38	804.91
516.835	808.81
517.29	803.31
517.745	778.11
518.2	771.81
518.655	761.91
519.109	760.61
519.564	747.21
520.019	747.81
520.474	731.01
520.928	735.71
521.383	726.31
521.838	715.31
522.292	726.51
522.747	719.81
523.201	707.21
523.656	709.31
524.11	702.61
524.565	694.31
525.019	700.11
525.474	705.11
525.928	711.41
526.382	714.11
526.837	716.61
527.291	706.81
527.745	710.71
528.2	711.71
528.654	708.71
529.108	695.41
529.562	701.81
530.016	698.41
530.47	704.81
530.925	702.61
531.379	709.31
531.833	714.51
532.287	707.51
532.741	720.61
533.195	719.71
533.649	728.51
534.103	736.01
534.556	720.31
535.01	721.21
535.464	724.21
535.918	729.41
536.372	728.71
536.826	724.21
537.279	710.31
537.733	720.61
538.187	728.31
538.64	723.21
539.094	734.51
539.548	744.21
540.001	739.41
540.455	729.41
540.908	737.21
541.362	749.31
541.815	761.21
542.269	771.61
542.722	767.01
543.175	775.11
543.629	780.61
544.082	789.11
544.536	787.91
544.989	784.81
545.442	797.21
545.895	794.31
546.349	791.41
546.802	802.81
547.255	799.31
547.708	812.21
548.161	829.31
548.614	828.41
549.067	830.81
549.52	829.21
549.973	821.11
550.426	818.41
550.879	804.41
551.332	814.11
551.785	808.41
552.238	809.31
552.691	826.01
553.144	841.11
553.596	851.31
554.049	874.11
554.502	914.91
554.955	930.41
555.407	918.31
555.86	915.31
556.313	915.21
556.765	890.51
557.218	894.71
557.67	895.51
558.123	888.61
558.576	885.41
559.028	882.81
559.48	885.81
559.933	885.11
560.385	845.01
560.838	821.41
561.29	799.41
561.742	791.51
562.195	772.61
562.647	776.01
563.099	790.71
563.551	779.01
564.004	785.71
564.456	782.11
564.908	779.51
565.36	762.71
565.812	744.21
566.264	734.11
566.716	734.41
567.168	721.71
567.62	735.91
568.072	717.31
568.524	702.41
568.976	697.41
569.428	679.51
569.88	683.81
570.332	687.51
570.784	686.71
571.235	680.61
571.687	702.01
572.139	721.11
572.59	716.31
573.042	712.81
573.494	715.01
573.945	714.21
574.397	694.91
574.849	690.81
575.3	697.61
575.752	688.61
576.203	693.61
576.655	698.31
577.106	680.81
577.557	666.81
578.009	677.11
578.46	675.71
578.912	660.01
579.363	675.81
579.814	681.21
580.265	676.11
580.717	678.81
581.168	682.41
581.619	687.31
582.07	680.31
582.521	683.61
582.972	676.41
583.423	689.11
583.875	688.31
584.326	708.01
584.777	745.01
585.227	821.01
585.678	911.41
586.129	992.61
586.58	1070.01
587.031	1146.81
587.482	1305.11
587.933	1487.81
588.384	1292.51
588.834	971.51
589.285	805.31
589.736	782.41
590.186	774.61
590.637	768.61
591.088	735.41
591.538	741.01
591.989	734.21
592.439	738.21
592.89	725.01
593.34	710.51
593.791	707.11
594.241	712.51
594.692	713.11
595.142	712.61
595.593	708.21
596.043	707.81
596.493	721.81
596.943	713.81
597.394	724.91
597.844	713.31
598.294	738.21
598.744	753.01
599.195	787.31
599.645	816.81
600.095	855.51
600.545	909.41
600.995	973.81
601.445	1025.21
601.895	1087.41
602.345	1144.91
602.795	1118.21
603.245	1065.71
603.695	1014.71
604.145	971.11
604.594	909.81
605.044	873.21
605.494	799.51
605.944	753.81
606.393	742.61
606.843	733.21
607.293	740.91
607.743	733.01
608.192	748.91
608.642	759.61
609.091	780.11
609.541	778.31
609.99	777.31
610.44	774.01
610.889	728.71
611.339	705.61
611.788	682.31
612.238	695.01
612.687	725.81
613.136	715.71
613.586	735.31
614.035	731.91
614.484	747.61
614.933	763.61
615.383	739.31
615.832	740.41
616.281	724.11
616.73	682.41
617.179	663.51
617.628	646.71
618.077	631.51
618.526	622.11
618.975	607.41
619.424	622.11
619.873	613.01
620.322	612.61
620.771	612.91
621.22	602.11
621.669	595.41
622.118	582.71
622.567	592.61
623.015	575.31
623.464	567.91
623.913	556.11
624.361	553.01
624.81	545.41
625.259	546.71
625.707	558.91
626.156	558.91
626.604	569.41
627.053	560.31
627.501	561.81
627.95	561.81
628.398	579.01
628.847	567.81
629.295	579.01
629.744	572.91
630.192	568.21
630.64	562.71
631.089	568.31
631.537	580.21
631.985	573.81
632.433	601.91
632.881	604.31
633.33	659.81
633.778	626.91
634.226	559.11
634.674	571.01
635.122	582.61
635.57	595.51
636.018	615.01
636.466	573.81
636.914	552.31
637.362	577.61
637.81	563.41
638.258	575.61
638.705	571.61
639.153	604.31
639.601	611.21
640.049	631.11
640.497	661.01
640.944	690.51
641.392	644.91
641.84	605.61
642.287	578.91
642.735	563.51
643.182	564.71
643.63	563.71
644.078	580.81
644.525	588.51
644.973	590.01
645.42	590.61
645.867	619.31
646.315	640.21
646.762	658.31
647.21	689.91
647.657	715.01
648.104	746.31
648.551	768.51
648.999	834.61
649.446	910.31
649.893	997.31
650.34	1148.11
650.787	1376.01
651.234	1712.81
651.682	2226.01
652.129	3031.91
652.576	4368.51
653.023	6471.41
653.47	8870.81
653.917	11101.41
654.363	12864.31
654.81	14259.01
655.257	13561.01
655.704	8871.21
656.151	5246.81
656.598	3399.61
657.044	2418.51
657.491	1855.41
657.938	1468.31
658.385	1236.21
658.831	1081.11
659.278	957.11
659.724	851.51
660.171	784.61
660.618	725.01
661.064	678.21
661.511	658.91
661.957	659.41
662.404	636.21
662.85	635.41
663.296	617.51
663.743	556.71
664.189	529.11
664.635	525.21
665.082	522.61
665.528	522.21
665.974	514.51
666.42	505.51
666.867	499.21
667.313	487.51
667.759	469.31
668.205	471.51
668.651	477.01
669.097	476.91
669.543	501.71
669.989	467.61
670.435	448.11
670.881	437.01
671.327	445.71
671.773	463.41
672.219	483.91
672.665	536.71
673.11	568.31
673.556	629.91
674.002	659.91
674.448	642.61
674.893	539.81
675.339	464.81
675.785	440.21
676.23	413.01
676.676	391.41
677.122	385.41
677.567	369.01
678.013	366.51
678.458	353.21
678.904	353.31
679.349	339.21
679.794	351.01
680.24	357.41
680.685	342.91
681.131	337.81
681.576	339.61
682.021	348.21
682.466	344.41
682.912	335.61
683.357	341.61
683.802	374.31
684.247	405.91
684.692	442.71
685.137	484.91
685.583	528.81
686.028	550.91
686.473	506.41
686.918	432.91
687.363	408.61
687.807	391.91
688.252	354.81
688.697	344.11
689.142	331.61
689.587	331.61
690.032	324.31
690.477	340.61
690.921	341.81
691.366	371.71
691.811	389.91
692.255	415.81
692.7	452.71
693.145	489.81
693.589	674.31
694.034	1094.71
694.478	1491.41
694.923	1701.81
695.367	2224.61
695.812	1172.81
696.256	491.71
696.701	365.61
697.145	335.61
697.59	324.31
698.034	312.11
698.478	315.21
698.922	318.91
699.367	322.31
699.811	326.61
700.255	349.41
700.699	371.21
701.143	423.11
701.588	465.71
702.032	506.01
702.476	509.21
702.92	478.31
703.364	476.61
703.808	614.31
704.252	1010.81
704.696	1409.91
705.14	1637.11
705.584	2102.31
706.027	1034.11
706.471	513.51
706.915	391.51
707.359	351.21
707.803	311.71
708.246	305.31
708.69	305.21
709.134	310.01
709.577	309.21
710.021	310.21
710.465	300.81
710.908	298.71
711.352	294.41
711.795	304.11
712.239	345.21
712.682	383.51
713.126	411.81
713.569	456.21
714.012	356.71
714.456	317.31
714.899	289.11
715.342	268.51
715.786	250.31
716.229	256.61
716.672	249.01
717.115	239.71
717.558	246.11
718.002	244.41
718.445	252.91
718.888	274.71
719.331	289.61
719.774	305.31
720.217	303.41
720.66	276.61
721.103	264.81
721.546	254.51
721.989	241.61
722.432	231.61
722.874	232.41
723.317	226.91
723.76	229.11
724.203	250.01
724.645	316.21
725.088	433.51
725.531	552.41
725.974	628.41
726.416	535.81
726.859	297.61
727.301	243.11
727.744	232.51
728.187	223.61
728.629	234.41
729.071	236.81
729.514	253.21
729.956	266.11
730.399	283.91
730.841	279.11
731.283	273.11
731.726	265.01
732.168	252.21
732.61	259.11
733.053	266.31
733.495	305.21
733.937	344.31
734.379	391.41
734.821	430.11
735.263	520.91
735.705	803.81
736.148	1511.41
736.59	2484.81
737.032	3011.21
737.474	2443.31
737.916	791.81
738.357	423.21
738.799	318.11
739.241	299.21
739.683	277.91
740.125	290.41
740.567	296.41
741.008	313.11
741.45	304.91
741.892	308.71
742.334	333.91
742.775	347.51
743.217	338.61
743.658	264.31
744.1	251.11
744.542	253.11
744.983	306.41
745.425	339.21
745.866	336.11
746.307	277.61
746.749	277.31
747.19	316.91
747.632	440.41
748.073	846.91
748.514	1784.01
748.956	2769.91
749.397	3471.91
749.838	2885.41
750.279	2906.11
750.72	1470.31
751.162	541.61
751.603	305.91
752.044	245.81
752.485	203.21
752.926	204.81
753.367	194.01
753.808	182.91
754.249	193.01
754.69	187.91
755.131	180.21
755.572	173.61
756.013	175.81
756.453	176.21
756.894	184.01
757.335	187.81
757.776	198.31
758.216	188.91
758.657	191.91
759.098	197.71
759.538	226.01
759.979	259.61
760.42	362.31
760.86	669.81
761.301	1713.41
761.741	4256.21
762.182	6305.41
762.622	4458.11
763.063	1274.81
763.503	516.31
763.943	337.11
764.384	321.11
764.824	383.01
765.264	420.41
765.705	297.11
766.145	203.71
766.585	177.01
767.025	181.51
767.465	184.01
767.906	233.01
768.346	302.51
768.786	334.01
769.226	250.41
769.666	306.71
770.106	586.31
770.546	1486.91
770.986	2589.51
771.426	2323.01
771.866	773.51
772.306	318.11
772.745	204.71
773.185	176.01
773.625	170.41
774.065	163.11
774.505	190.61
774.944	288.41
775.384	631.41
775.824	1163.61
776.263	1154.41
776.703	491.71
777.142	212.61
777.582	152.41
778.021	132.31
778.461	140.31
778.9	141.01
779.34	131.71
779.779	116.31
780.219	104.51
780.658	105.71
781.097	104.11
781.537	112.61
781.976	110.01
782.415	106.41
782.855	98.01
783.294	100.91
783.733	101.01
784.172	106.51
784.611	98.01
785.05	104.31
785.489	105.41
785.928	118.01
786.367	121.51
786.806	119.31
787.245	129.61
787.684	143.81
788.123	146.61
788.562	131.51
789.001	124.41
789.44	119.11
789.879	113.11
790.317	111.41
790.756	123.11
791.195	126.01
791.634	138.81
792.072	199.61
792.511	351.41
792.95	947.61
793.388	2084.21
793.827	1890.31
794.265	659.41
794.704	272.21
795.142	181.11
795.581	151.21
796.019	137.81
796.458	130.31
796.896	123.81
797.334	133.21
797.773	145.31
798.211	206.81
798.649	410.91
799.087	982.71
799.526	1552.41
799.964	1936.61
800.402	1962.61
800.84	739.71
801.278	299.91
801.716	180.21
802.154	145.81
802.592	139.71
803.03	137.71
803.468	130.21
803.906	136.41
804.344	151.41
804.782	136.91
805.22	133.11
805.658	134.11
806.096	143.11
806.533	150.41
806.971	163.81
807.409	208.11
807.847	304.71
808.284	625.71
808.722	1773.91
809.16	3206.81
809.597	2992.11
810.035	5205.71
810.472	5679.11
810.91	2034.11
811.347	775.11
811.785	390.71
812.222	248.21
812.66	193.91
813.097	158.51
813.535	135.91
813.972	117.81
814.409	110.21
814.846	106.01
815.284	105.91
815.721	99.91
816.158	101.31
816.595	116.01
817.032	168.81
817.47	187.41
817.907	168.81
818.344	147.91
818.781	115.41
819.218	100.71
819.655	117.11
820.092	181.81
820.529	209.81
820.966	173.51
821.403	132.01
821.839	105.51
822.276	97.91
822.713	117.41
823.15	132.81
823.587	105.41
824.023	130.71
824.46	283.41
824.897	863.91
825.333	1322.31
825.77	569.71
826.206	224.71
826.643	130.11
827.08	98.21
827.516	83.61
827.953	77.11
828.389	76.41
828.825	69.91
829.262	63.61
829.698	56.31
830.135	61.21
830.571	60.71
831.007	61.81
831.443	63.91
831.88	62.71
832.316	66.51
832.752	66.01
833.188	65.41
833.624	63.81
834.06	64.31
834.497	69.41
834.933	68.11
835.369	70.11
835.805	59.61
836.241	67.71
836.677	78.11
837.112	84.01
837.548	103.41
837.984	124.61
838.42	189.31
838.856	466.71
839.292	1451.21
839.727	2238.61
840.163	1046.31
840.599	878.31
841.034	1951.31
841.47	2070.91
841.906	752.91
842.341	327.41
842.777	221.31
843.212	299.01
843.648	293.61
844.083	143.81
844.519	88.01
844.954	69.21
845.39	58.21
845.825	60.41
846.261	53.91
846.696	46.81
847.131	54.71
847.566	47.01
848.002	45.61
848.437	52.61
848.872	62.61
849.307	62.51
849.742	83.81
850.177	171.11
850.613	531.01
851.048	865.91
851.483	370.71
851.918	156.41
852.353	83.01
852.788	69.91
853.223	57.21
853.657	49.41
854.092	47.81
854.527	46.91
854.962	40.91
855.397	39.11
855.832	45.91
856.266	38.61
856.701	37.81
857.136	28.51
857.57	41.21
858.005	51.51
858.44	56.01
858.874	42.11
859.309	48.11
859.743	40.61
860.178	48.81
860.612	43.11
861.047	55.31
861.481	68.11
861.915	69.01
862.35	50.71
862.784	35.41
863.218	31.21
863.653	31.31
864.087	38.31
864.521	51.41
864.955	63.61
865.39	147.41
865.824	178.21
866.258	111.81
866.692	158.71
867.126	168.41
867.56	101.91
867.994	53.51
868.428	29.01
868.862	50.11
869.296	51.81
869.73	57.31
870.164	53.41
870.598	47.71
871.031	34.91
871.465	25.01
871.899	28.61
872.333	21.51
872.766	23.41
873.2	20.21
873.634	29.11
874.067	20.31
874.501	24.81
874.935	34.21
875.368	35.41
875.802	28.81
876.235	25.51
876.669	24.61
877.102	18.21
877.535	26.41
877.969	21.41
878.402	25.11
878.836	19.61
879.269	20.61
879.702	24.51
880.135	26.41
880.569	25.21
881.002	24.81
881.435	25.51
881.868	19.71
882.301	25.91
882.734	16.51
883.167	23.61
883.601	22.91
884.034	22.71
884.467	18.31
884.899	22.91
885.332	17.71
885.765	10.61
886.198	13.11
886.631	18.91
887.064	17.31
887.497	20.71
887.929	25.91
888.362	15.61
888.795	11.21
889.228	19.01
889.66	16.71
890.093	14.31
890.526	20.01
890.958	14.71
891.391	14.61
891.823	20.11
892.256	11.21
892.688	9.01
893.121	16.21
893.553	16.11
893.985	26.81
894.418	18.61
894.85	16.81
895.282	17.91
895.715	18.41
896.147	16.41
896.579	15.21
897.011	9.31
897.444	17.61
897.876	10.91
898.308	16.01
898.74	15.21
899.172	9.11
899.604	25.11
900.036	22.81
900.468	13.21
900.9	19.11
901.332	15.71
901.764	17.91
902.196	13.51
902.628	17.91
903.06	15.31
903.491	26.41
903.923	26.21
904.355	24.31
904.787	21.61
905.218	21.61
905.65	22.91
906.082	14.41
906.513	13.31
906.945	11.81
907.376	15.71
907.808	17.81
908.239	18.71
908.671	14.31
909.102	18.61
909.534	27.41
909.965	43.51
910.397	89.31
910.828	295.11
911.259	461.31
911.691	210.91
912.122	104.21
912.553	49.21
912.984	32.01
913.415	22.21
913.847	22.91
914.278	14.71
914.709	10.51
915.14	19.71
915.571	16.51
916.002	20.31
916.433	22.51
916.864	14.81
917.295	10.61
917.726	20.01
918.157	19.01
918.587	29.11
919.018	23.81
919.449	19.61
919.88	23.01
920.311	27.91
920.741	42.31
921.172	160.81
921.603	142.91
922.033	70.41
922.464	46.31
922.895	22.41
923.325	16.31
923.756	19.01
924.186	14.61
924.617	30.31
925.047	41.11
925.478	54.51
925.908	42.31
926.338	20.21
926.769	18.81
927.199	22.61
927.629	6.51
928.06	16.61
928.49	15.41
928.92	12.81
929.35	9.61
929.78	13.11
930.21	8.11
930.641	11.91
931.071	8.81
931.501	4.81
931.931	10.81
932.361	8.01
932.791	0.01
933.221	3.61
933.651	9.61
934.08	20.81
934.51	30.41
934.94	4.21
935.37	12.01
935.8	13.21
936.229	5.31
936.659	9.91
937.089	3.11
937.519	13.01
937.948	25.91
938.378	12.01
938.807	8.81
939.237	4.81
939.666	6.21
940.096	-3.89
940.525	3.31
940.955	3.21
941.384	6.21
941.814	-6.49
942.243	-1.89
942.672	4.91
943.102	-2.49
943.531	-0.69
943.96	2.21
944.39	1.31
944.819	1.61
945.248	4.01
945.677	1.51
946.106	3.91
946.535	0.41
946.964	-0.49
947.393	-0.59
947.822	-1.19
948.251	0.81
948.68	4.91
949.109	11.31
949.538	4.71
949.967	7.01
950.396	-0.89
950.825	0.11
951.254	1.31
951.682	-4.49
952.111	3.91
952.54	5.81
952.969	-5.29
953.397	-6.29
953.826	-2.79
954.254	0.21
954.683	-0.49
955.112	-1.49
955.54	-0.39
955.969	4.11
956.397	1.91
956.826	-7.69
957.254	5.41
957.682	-0.89
958.111	4.81
958.539	2.31
958.967	1.91
959.396	-4.59
959.824	-0.59
960.252	1.81
960.68	-4.19
961.109	5.51
961.537	-3.99
961.965	-5.09
962.393	0.81
962.821	0.01
963.249	0.21
963.677	5.21
964.105	5.11
964.533	45.71
964.961	38.91
965.389	22.01
965.817	7.61
966.245	4.81
966.672	-0.99
967.1	-1.49
967.528	4.31
967.956	0.61
968.383	-3.09
968.811	-2.29
969.239	-2.59
969.666	-9.09
970.094	0.31
970.522	-3.09
970.949	0.21
971.377	-2.49
971.804	-1.89
972.232	-3.99
972.659	-0.09
973.087	-4.99
973.514	-2.59
973.941	-0.49
974.369	3.81
974.796	-3.99
975.223	-0.99
975.651	-2.59
976.078	3.91
976.505	-0.19
976.932	3.51
977.359	17.51
977.786	12.01
978.214	4.51
978.641	-8.49
979.068	-10.19
979.495	-0.09
979.922	-3.09
980.349	-1.49
980.776	5.01
981.202	1.91
981.629	4.81
982.056	4.51
982.483	-4.89
982.91	-0.69
983.337	-8.99
983.763	1.51
984.19	-6.49
984.617	-4.09
985.043	-5.99
985.47	-0.09
985.897	-3.09
986.323	-3.79
986.75	4.81
987.176	1.21
987.603	-1.89
988.029	5.91
988.456	3.31
988.882	2.91
989.308	-7.59
989.735	-5.29
990.161	-2.79
990.587	-7.39
991.014	-4.29
991.44	5.01
991.866	-1.09
992.292	-4.69
992.719	1.21
993.145	1.81
993.571	-5.49
993.997	0.81
994.423	-2.39
994.849	-2.49
995.275	1.01
995.701	-0.59
996.127	-3.29
996.553	1.51
996.979	-2.19
997.405	-0.19
997.83	-6.59
998.256	-4.59
998.682	1.01
999.108	-6.89
999.534	-2.09
999.959	-0.29
1000.385	-1.39
1000.811	0.11
1001.236	-10.09
1001.662	-3.99
1002.087	-5.69
1002.513	-0.29
1002.938	-1.39
1003.364	-2.69
1003.789	-3.29
1004.215	4.41
1004.64	-1.29
1005.066	1.81
1005.491	3.01
1005.916	-5.19
1006.342	-5.99
1006.767	-5.79
1007.192	3.31
1007.617	-7.59
1008.042	-4.79
1008.468	-8.99
1008.893	-9.29
1009.318	-0.19
1009.743	-4.69
1010.168	0.21
1010.593	0.61
1011.018	-5.59
1011.443	-3.09
1011.868	-6.39
1012.293	-4.79
1012.718	-9.69
1013.143	3.41
1013.567	3.51
1013.992	1.31
1014.417	-12.09
1014.842	-3.99
1015.267	-3.09
1015.691	-3.89
1016.116	-0.49
1016.541	1.11
1016.965	-2.89
1017.39	-0.09
1017.814	0.11
1018.239	-4.59
1018.663	-7.69
1019.088	-13.19
1019.512	-6.89
1019.937	-0.19
1020.361	-9.09
1020.785	-6.49
1021.21	-3.49
1021.634	0.21
1022.058	-4.99
1022.483	0.11
1022.907	-8.79
1023.331	-7.79
1023.755	-7.59
1024.179	-5.19
1024.604	-5.79
1025.028	-13.69
1025.452	-0.69
1025.876	-5.59
1026.3	-3.29
1026.724	-10.39
1027.148	-4.99
1027.572	-6.69
1027.996	-2.39
1028.42	-2.79
1028.843	-4.49
1029.267	-6.09
1029.691	-2.09
1030.115	-7.19
1030.539	-10.19
1030.962	-9.59
1031.386	-7.69
1031.81	-7.99
1032.233	0.11
1032.657	0.81
1033.08	-1.59
1033.504	-6.19
1033.927	-10.49
1034.351	-1.09
1034.774	-11.29
1035.198	1.81
1035.621	-2.69
1036.045	-4.49
1036.468	2.31
1036.891	-11.69
1037.315	-13.09
1037.738	-12.59
1038.161	-3.29
1038.584	-5.99
1039.008	-4.49
1039.431	-5.69
1039.854	-1.19
1040.277	-11.19
1040.7	-8.59
1041.123	-0.39
1041.546	-6.09
1041.969	-7.59
1042.392	0.11
1042.815	-6.59
1043.238	0.51
1043.661	-0.79
1044.084	-5.29
1044.507	-0.59
1044.93	-5.29
1045.352	-2.49
1045.775	-5.09
1046.198	-2.59
1046.621	2.81
1047.043	1.11
1047.466	6.81
1047.889	-1.39
1048.311	-10.19
1048.734	-1.89
1049.156	-1.99
1049.579	-4.39
1050.001	-4.79
1050.424	-5.69
1050.846	-9.19
1051.269	-5.79
1051.691	-5.49
1052.113	-0.89
1052.536	-2.99
1052.958	2.61
1053.38	-3.19
1053.802	-9.99
1054.225	-0.79
1054.647	-16.49
1055.069	-6.89
1055.491	1.01
1055.913	-7.59
1056.335	-3.89
1056.757	-4.39
1057.179	-6.99
1057.601	-5.19
1058.023	-5.99
1058.445	-12.19
1058.867	-2.99
1059.289	-8.39
1059.711	-7.29
1060.133	-2.99
1060.555	-5.89
1060.976	-8.69
1061.398	-7.29
1061.82	-4.09
1062.241	-3.59
1062.663	-9.29
1063.085	-6.49
1063.506	10.41
1063.928	-5.99
1064.35	-2.99
1064.771	-13.69
1065.193	-6.29
1065.614	-12.99
1066.035	-2.19
1066.457	-5.79
1066.878	-1.19
1067.3	-5.09
1067.721	-1.89
1068.142	-6.79
1068.564	-3.09
1068.985	-9.69
1069.406	-7.49
1069.827	-7.99
1070.248	1.41
1070.67	-12.09
1071.091	-3.49
1071.512	-2.79
1071.933	-5.99
1072.354	-7.19
1072.775	-3.19
1073.196	-12.19
1073.617	-5.99
1074.038	2.01
1074.459	-5.69
1074.88	-6.79
1075.3	-3.09
1075.721	-8.39
1076.142	-2.09
1076.563	0.11
1076.983	-5.59
1077.404	-6.59
1077.825	-6.09
1078.246	-3.29
1078.666	-10.19
1079.087	-8.19
1079.507	-6.99
1079.928	-0.19
1080.348	0.61
1080.769	-1.59
1081.189	1.11
1081.61	0.31
1082.03	-3.29
1082.451	-6.99
1082.871	-3.69
1083.291	-10.29
1083.711	-10.49
1084.132	-9.89
1084.552	-6.39
1084.972	0.41
1085.392	-10.09
1085.813	-11.69
1086.233	-6.29
1086.653	-2.99
1087.073	-4.19
1087.493	-9.09
1087.913	-6.79
1088.333	-10.59
1088.753	-4.89
1089.173	-2.69
1089.593	-10.19
1090.013	-1.79
1090.433	3.61
1090.852	-3.99
1091.272	-3.39
1091.692	-0.39
1092.112	-9.89
1092.531	-8.89
1092.951	-14.29
1093.371	1.01
1093.79	-3.79
1094.21	-4.09
1094.63	-7.39
1095.049	-4.99
1095.469	-6.09
1095.888	-4.39
1096.308	1.41
1096.727	1.21
1097.146	-4.19
1097.566	-1.89
1097.985	-0.19
1098.405	-1.19
1098.824	-7.99
1099.243	-6.89
1099.662	-7.99
1100.082	-0.09
1100.501	-2.39
1100.92	-5.99
1101.339	-8.09
1101.758	-2.09
