Data from 20171114-ORNL-Ar_H_NY_Subt18_08-04-33-454.txt Node
Date: Tue Nov 14 08:04:33 EST 2017
User: Ender
Spectrometer: HR+D1039
Trigger mode: 0
Integration Time (sec): 2.730000E-2
Scans to average: 10
Electric dark correction enabled: true
Nonlinearity correction enabled: false
Boxcar width: 0
XAxis mode: Wavelengths
Number of Pixels in Spectrum: 2048
>>>>>Begin Spectral Data<<<<<
187.836	-6.93
188.309	-6.93
188.782	-6.93
189.255	6.47
189.728	0.87
190.201	6.87
190.674	0.17
191.147	0.57
191.619	-9.13
192.092	2.67
192.565	6.87
193.038	-1.03
193.511	-2.53
193.984	2.07
194.456	-6.03
194.929	-0.93
195.402	-2.13
195.874	2.07
196.347	0.37
196.82	-5.03
197.292	0.27
197.765	2.97
198.237	-10.03
198.71	4.07
199.182	-2.23
199.655	3.97
200.127	0.57
200.6	-1.23
201.072	-1.03
201.544	-7.53
202.017	0.77
202.489	0.87
202.961	-1.43
203.433	-2.23
203.906	-5.53
204.378	-4.73
204.85	-10.13
205.322	-2.03
205.794	2.77
206.266	-1.23
206.739	-4.73
207.211	1.97
207.683	-4.73
208.155	-4.03
208.627	-6.43
209.099	1.27
209.57	-9.53
210.042	-3.33
210.514	-0.83
210.986	-4.63
211.458	-2.33
211.93	0.07
212.402	6.07
212.873	-5.83
213.345	-9.53
213.817	-12.93
214.288	-1.43
214.76	-5.13
215.232	-5.43
215.703	-2.03
216.175	-1.53
216.646	0.57
217.118	-4.23
217.589	-3.73
218.061	-1.73
218.532	-4.23
219.004	0.47
219.475	-1.33
219.946	-1.63
220.418	-5.53
220.889	4.27
221.36	-1.23
221.832	-1.43
222.303	-8.73
222.774	-1.73
223.245	-4.73
223.717	-4.43
224.188	-3.23
224.659	-6.83
225.13	1.47
225.601	-1.33
226.072	2.37
226.543	-2.03
227.014	-1.03
227.485	0.57
227.956	-7.93
228.427	1.77
228.898	2.77
229.369	7.67
229.839	-2.83
230.31	-12.03
230.781	0.57
231.252	1.57
231.722	-1.53
232.193	2.27
232.664	2.77
233.135	-1.13
233.605	0.37
234.076	-0.43
234.546	7.07
235.017	5.37
235.487	-3.53
235.958	5.37
236.428	-1.73
236.899	7.17
237.369	6.17
237.84	4.07
238.31	8.57
238.78	4.67
239.251	0.97
239.721	3.87
240.191	0.57
240.662	5.77
241.132	6.57
241.602	-1.73
242.072	2.97
242.542	6.57
243.013	0.47
243.483	4.77
243.953	3.37
244.423	0.37
244.893	0.77
245.363	2.87
245.833	0.67
246.303	0.67
246.773	10.27
247.243	3.77
247.712	1.07
248.182	8.57
248.652	7.07
249.122	9.27
249.592	12.87
250.061	25.77
250.531	40.17
251.001	14.47
251.471	22.97
251.94	20.47
252.41	8.57
252.879	3.87
253.349	16.37
253.818	14.77
254.288	2.47
254.757	2.57
255.227	-1.23
255.696	3.87
256.166	1.67
256.635	4.97
257.105	11.67
257.574	6.97
258.043	16.27
258.513	15.57
258.982	22.67
259.451	6.97
259.92	19.37
260.389	16.67
260.859	21.97
261.328	16.37
261.797	19.17
262.266	12.17
262.735	12.07
263.204	6.77
263.673	2.67
264.142	10.67
264.611	0.97
265.08	5.27
265.549	5.37
266.018	12.07
266.487	3.07
266.955	-2.03
267.424	3.37
267.893	11.47
268.362	3.47
268.83	7.17
269.299	14.67
269.768	8.57
270.236	11.27
270.705	10.37
271.174	9.37
271.642	12.97
272.111	14.07
272.579	19.37
273.048	26.17
273.516	30.47
273.985	28.07
274.453	28.27
274.922	20.27
275.39	14.27
275.858	7.77
276.327	16.27
276.795	19.87
277.263	10.97
277.731	34.27
278.2	50.97
278.668	64.57
279.136	52.17
279.604	20.37
280.072	17.67
280.54	7.07
281.008	12.97
281.477	21.27
281.945	18.57
282.413	15.57
282.881	17.67
283.348	10.67
283.816	17.87
284.284	17.57
284.752	21.67
285.22	11.47
285.688	19.27
286.156	27.97
286.623	49.77
287.091	55.97
287.559	31.37
288.026	17.87
288.494	17.27
288.962	11.87
289.429	10.57
289.897	18.67
290.364	18.47
290.832	16.27
291.3	18.47
291.767	21.07
292.234	19.37
292.702	16.57
293.169	22.57
293.637	30.17
294.104	21.47
294.571	11.17
295.039	20.67
295.506	19.67
295.973	22.97
296.44	18.17
296.908	22.17
297.375	24.47
297.842	19.67
298.309	19.57
298.776	16.27
299.243	17.67
299.71	19.17
300.177	19.37
300.644	31.27
301.111	19.07
301.578	25.47
302.045	20.07
302.512	26.97
302.979	30.67
303.446	22.27
303.913	24.37
304.379	21.07
304.846	27.77
305.313	25.57
305.78	26.87
306.246	26.47
306.713	34.57
307.18	23.87
307.646	30.97
308.113	33.97
308.579	23.87
309.046	27.17
309.512	28.37
309.979	20.17
310.445	34.67
310.912	35.27
311.378	36.17
311.845	26.57
312.311	31.17
312.777	29.97
313.244	29.67
313.71	42.57
314.176	33.57
314.642	37.07
315.109	34.17
315.575	34.97
316.041	36.27
316.507	36.77
316.973	36.67
317.439	34.87
317.905	32.37
318.371	39.17
318.837	32.87
319.303	34.27
319.769	41.87
320.235	33.17
320.701	36.77
321.167	32.37
321.633	37.97
322.099	36.27
322.564	49.77
323.03	42.77
323.496	45.87
323.962	47.37
324.427	38.37
324.893	46.67
325.359	38.37
325.824	42.27
326.29	38.77
326.755	38.87
327.221	43.47
327.686	38.47
328.152	47.87
328.617	47.37
329.083	47.57
329.548	50.07
330.014	50.87
330.479	40.17
330.944	42.67
331.41	44.67
331.875	47.07
332.34	40.27
332.805	47.87
333.271	49.07
333.736	41.97
334.201	53.07
334.666	48.17
335.131	58.27
335.596	48.57
336.061	51.97
336.526	41.37
336.991	47.27
337.456	51.97
337.921	50.17
338.386	44.47
338.851	47.17
339.316	52.67
339.781	42.77
340.246	44.87
340.711	44.47
341.175	49.27
341.64	46.67
342.105	55.17
342.569	56.17
343.034	52.77
343.499	50.97
343.963	51.47
344.428	67.67
344.893	59.97
345.357	57.67
345.822	56.07
346.286	66.57
346.751	73.97
347.215	60.77
347.679	78.77
348.144	97.67
348.608	88.87
349.073	68.47
349.537	75.27
350.001	80.37
350.465	89.37
350.93	73.47
351.394	77.27
351.858	64.57
352.322	77.67
352.786	81.37
353.25	96.77
353.715	109.47
354.179	94.87
354.643	119.47
355.107	122.17
355.571	109.87
356.035	104.57
356.498	113.07
356.962	116.17
357.426	129.77
357.89	111.27
358.354	91.37
358.818	86.07
359.281	80.57
359.745	76.97
360.209	84.57
360.673	76.77
361.136	86.37
361.6	82.47
362.064	80.17
362.527	83.47
362.991	90.57
363.454	81.47
363.918	77.87
364.381	77.47
364.845	74.67
365.308	87.27
365.772	82.07
366.235	82.37
366.698	76.57
367.162	80.67
367.625	82.77
368.088	83.67
368.552	88.17
369.015	83.97
369.478	99.67
369.941	99.57
370.404	92.67
370.867	109.87
371.331	110.57
371.794	108.77
372.257	107.17
372.72	115.97
373.183	97.97
373.646	102.37
374.109	101.07
374.572	107.47
375.035	100.47
375.497	104.27
375.96	98.87
376.423	101.07
376.886	115.87
377.349	108.77
377.811	104.77
378.274	97.57
378.737	108.77
379.199	110.07
379.662	102.97
380.125	110.77
380.587	113.97
381.05	115.27
381.512	122.47
381.975	126.47
382.437	121.07
382.9	120.77
383.362	123.87
383.825	142.97
384.287	145.67
384.75	135.87
385.212	136.87
385.674	136.67
386.136	134.37
386.599	118.67
387.061	126.57
387.523	118.37
387.985	129.17
388.447	138.27
388.91	138.17
389.372	150.87
389.834	145.37
390.296	144.67
390.758	143.47
391.22	163.27
391.682	198.77
392.144	279.67
392.606	207.97
393.068	161.67
393.529	159.97
393.991	142.77
394.453	139.17
394.915	149.67
395.377	191.27
395.838	201.77
396.3	148.87
396.762	133.47
397.224	128.97
397.685	122.37
398.147	128.17
398.608	126.97
399.07	125.97
399.531	134.37
399.993	142.57
400.454	150.97
400.916	141.17
401.377	135.97
401.839	141.67
402.3	143.37
402.762	153.17
403.223	170.17
403.684	162.67
404.145	147.87
404.607	159.37
405.068	159.07
405.529	155.57
405.99	178.97
406.451	167.27
406.913	167.37
407.374	156.87
407.835	157.17
408.296	157.57
408.757	159.97
409.218	175.37
409.679	175.67
410.14	169.87
410.601	174.57
411.062	169.77
411.522	179.97
411.983	180.67
412.444	162.57
412.905	175.07
413.366	175.97
413.826	184.37
414.287	210.97
414.748	250.57
415.208	232.27
415.669	203.57
416.13	202.67
416.59	190.67
417.051	198.17
417.511	204.57
417.972	226.47
418.432	234.57
418.893	277.07
419.353	233.87
419.814	179.87
420.274	167.77
420.734	167.27
421.195	193.57
421.655	184.07
422.115	183.77
422.576	176.87
423.036	185.17
423.496	192.47
423.956	201.47
424.416	218.57
424.876	262.97
425.336	247.47
425.797	241.67
426.257	239.97
426.717	224.87
427.177	218.17
427.637	213.27
428.097	222.47
428.556	231.27
429.016	249.77
429.476	247.27
429.936	255.47
430.396	267.27
430.856	274.07
431.315	298.97
431.775	328.97
432.235	353.47
432.694	333.97
433.154	344.17
433.614	365.57
434.073	315.87
434.533	275.27
434.993	256.27
435.452	258.97
435.912	284.37
436.371	265.67
436.83	265.47
437.29	257.57
437.749	236.47
438.209	226.67
438.668	254.87
439.127	264.17
439.587	251.77
440.046	234.37
440.505	248.27
440.964	255.97
441.424	297.17
441.883	292.67
442.342	240.47
442.801	213.47
443.26	201.47
443.719	210.97
444.178	210.67
444.637	196.37
445.096	205.67
445.555	206.27
446.014	208.37
446.473	210.57
446.932	221.17
447.391	207.57
447.849	219.17
448.308	207.07
448.767	205.97
449.226	222.77
449.685	225.77
450.143	235.37
450.602	221.97
451.061	216.67
451.519	219.37
451.978	227.77
452.436	226.57
452.895	228.37
453.353	238.57
453.812	219.87
454.27	229.07
454.729	226.57
455.187	221.27
455.646	229.17
456.104	236.67
456.562	240.07
457.021	249.97
457.479	246.97
457.937	253.07
458.395	256.37
458.854	229.57
459.312	247.27
459.77	245.97
460.228	246.27
460.686	223.57
461.144	232.57
461.602	228.57
462.06	227.87
462.518	240.27
462.976	232.27
463.434	249.27
463.892	245.37
464.35	260.77
464.808	268.67
465.266	255.17
465.724	250.27
466.181	260.17
466.639	257.07
467.097	273.07
467.555	289.07
468.012	284.37
468.47	294.17
468.928	302.67
469.385	324.37
469.843	327.57
470.3	318.97
470.758	347.37
471.215	361.57
471.673	376.57
472.13	381.57
472.588	385.97
473.045	347.87
473.503	358.07
473.96	361.37
474.417	382.57
474.875	406.37
475.332	443.17
475.789	425.47
476.246	430.97
476.704	455.17
477.161	477.97
477.618	482.77
478.075	523.17
478.532	578.87
478.989	653.27
479.446	748.97
479.903	720.87
480.36	765.87
480.817	818.77
481.274	914.07
481.731	1012.77
482.188	1115.17
482.645	1231.27
483.102	1334.17
483.558	1471.17
484.015	1517.57
484.472	1487.87
484.929	1451.57
485.385	1408.37
485.842	1362.97
486.299	1293.57
486.755	1228.57
487.212	1025.77
487.668	865.67
488.125	805.47
488.582	728.67
489.038	713.47
489.494	671.47
489.951	647.27
490.407	631.17
490.864	608.47
491.32	605.17
491.776	608.67
492.233	610.87
492.689	575.27
493.145	562.27
493.602	555.07
494.058	581.57
494.514	581.87
494.97	600.37
495.426	605.37
495.882	591.27
496.338	580.97
496.794	587.47
497.251	582.17
497.707	592.57
498.163	607.97
498.618	606.67
499.074	607.97
499.53	637.67
499.986	638.67
500.442	610.07
500.898	602.97
501.354	576.97
501.809	589.37
502.265	603.17
502.721	616.87
503.177	625.07
503.632	618.27
504.088	623.17
504.543	659.07
504.999	664.77
505.455	623.57
505.91	596.17
506.366	600.27
506.821	589.37
507.277	583.07
507.732	581.17
508.187	580.37
508.643	606.07
509.098	595.67
509.553	615.27
510.009	621.67
510.464	629.07
510.919	641.67
511.375	655.37
511.83	655.27
512.285	674.17
512.74	704.57
513.195	734.27
513.65	725.47
514.105	715.97
514.56	729.47
515.015	740.77
515.47	761.97
515.925	745.67
516.38	739.07
516.835	742.27
517.29	737.17
517.745	733.57
518.2	722.57
518.655	699.57
519.109	694.17
519.564	706.77
520.019	687.57
520.474	681.87
520.928	679.47
521.383	680.67
521.838	663.07
522.292	662.57
522.747	665.37
523.201	654.27
523.656	653.57
524.11	638.97
524.565	649.07
525.019	639.37
525.474	656.47
525.928	651.37
526.382	648.97
526.837	648.27
527.291	653.97
527.745	646.07
528.2	644.87
528.654	649.47
529.108	636.77
529.562	638.27
530.016	647.77
530.47	645.47
530.925	649.97
531.379	649.67
531.833	656.67
532.287	648.97
532.741	650.37
533.195	648.87
533.649	666.87
534.103	667.97
534.556	659.17
535.01	660.67
535.464	658.87
535.918	671.77
536.372	662.67
536.826	662.17
537.279	649.17
537.733	656.37
538.187	664.17
538.64	669.17
539.094	670.87
539.548	668.27
540.001	677.47
540.455	673.37
540.908	678.27
541.362	680.07
541.815	698.07
542.269	701.67
542.722	709.87
543.175	709.37
543.629	709.07
544.082	732.67
544.536	728.47
544.989	712.37
545.442	730.77
545.895	721.17
546.349	727.57
546.802	720.17
547.255	739.67
547.708	736.97
548.161	751.47
548.614	759.07
549.067	768.97
549.52	758.17
549.973	751.07
550.426	743.77
550.879	738.67
551.332	731.67
551.785	744.07
552.238	739.47
552.691	752.47
553.144	762.57
553.596	773.17
554.049	781.07
554.502	819.77
554.955	846.57
555.407	835.67
555.86	827.57
556.313	816.97
556.765	806.77
557.218	814.67
557.67	812.37
558.123	806.97
558.576	795.97
559.028	802.97
559.48	815.17
559.933	804.07
560.385	772.47
560.838	736.37
561.29	714.17
561.742	714.97
562.195	700.27
562.647	691.97
563.099	705.27
563.551	699.77
564.004	727.67
564.456	708.97
564.908	692.37
565.36	687.57
565.812	667.77
566.264	671.67
566.716	669.07
567.168	655.17
567.62	652.07
568.072	639.57
568.524	625.37
568.976	624.37
569.428	613.37
569.88	617.87
570.332	614.47
570.784	618.87
571.235	623.27
571.687	624.97
572.139	633.07
572.59	651.87
573.042	652.57
573.494	644.87
573.945	648.97
574.397	624.87
574.849	622.77
575.3	631.97
575.752	611.07
576.203	608.57
576.655	614.07
577.106	615.57
577.557	607.77
578.009	600.57
578.46	606.37
578.912	598.87
579.363	601.07
579.814	601.37
580.265	592.67
580.717	604.17
581.168	602.07
581.619	619.77
582.07	618.97
582.521	607.47
582.972	610.07
583.423	609.07
583.875	619.27
584.326	632.67
584.777	672.27
585.227	744.67
585.678	817.67
586.129	911.07
586.58	984.17
587.031	1043.37
587.482	1214.17
587.933	1385.77
588.384	1192.07
588.834	878.97
589.285	723.57
589.736	696.67
590.186	698.27
590.637	692.87
591.088	664.17
591.538	666.37
591.989	658.37
592.439	657.07
592.89	647.67
593.34	633.67
593.791	631.57
594.241	618.17
594.692	633.87
595.142	627.97
595.593	618.67
596.043	629.87
596.493	636.07
596.943	633.17
597.394	639.47
597.844	630.57
598.294	651.87
598.744	669.77
599.195	692.97
599.645	727.47
600.095	756.87
600.545	814.67
600.995	866.97
601.445	904.37
601.895	972.07
602.345	1007.57
602.795	995.57
603.245	960.17
603.695	908.07
604.145	847.47
604.594	810.67
605.044	769.57
605.494	707.47
605.944	660.47
606.393	652.97
606.843	649.77
607.293	647.27
607.743	659.07
608.192	653.17
608.642	664.47
609.091	682.77
609.541	682.17
609.99	677.27
610.44	665.97
610.889	633.97
611.339	614.07
611.788	603.07
612.238	623.47
612.687	645.87
613.136	640.97
613.586	658.67
614.035	650.97
614.484	669.97
614.933	668.87
615.383	657.27
615.832	647.47
616.281	629.07
616.73	598.57
617.179	579.57
617.628	567.37
618.077	559.87
618.526	549.07
618.975	542.27
619.424	532.47
619.873	531.77
620.322	541.57
620.771	536.97
621.22	533.07
621.669	517.67
622.118	504.77
622.567	505.17
623.015	493.47
623.464	499.57
623.913	489.77
624.361	478.47
624.81	490.87
625.259	484.47
625.707	495.37
626.156	484.87
626.604	505.87
627.053	484.77
627.501	494.17
627.95	488.37
628.398	503.57
628.847	498.97
629.295	502.67
629.744	506.07
630.192	499.07
630.64	501.47
631.089	492.67
631.537	495.57
631.985	513.87
632.433	513.57
632.881	527.97
633.33	567.27
633.778	556.27
634.226	484.07
634.674	502.07
635.122	488.17
635.57	519.57
636.018	543.17
636.466	507.97
636.914	488.17
637.362	503.37
637.81	498.37
638.258	490.37
638.705	503.07
639.153	515.87
639.601	535.97
640.049	551.67
640.497	579.27
640.944	607.77
641.392	546.17
641.84	536.47
642.287	510.17
642.735	489.17
643.182	483.87
643.63	496.87
644.078	497.97
644.525	509.27
644.973	516.87
645.42	516.77
645.867	544.67
646.315	547.57
646.762	566.17
647.21	588.87
647.657	612.87
648.104	651.07
648.551	673.37
648.999	722.47
649.446	799.37
649.893	863.97
650.34	994.57
650.787	1194.57
651.234	1474.17
651.682	1911.17
652.129	2600.77
652.576	3767.28
653.023	5561.57
653.47	7700.07
653.917	9733.17
654.363	11385.98
654.81	12773.98
655.257	12156.57
655.704	7894.08
656.151	4633.27
656.598	3000.87
657.044	2114.97
657.491	1632.17
657.938	1299.77
658.385	1072.07
658.831	940.67
659.278	832.17
659.724	737.17
660.171	687.37
660.618	631.17
661.064	589.77
661.511	565.77
661.957	558.97
662.404	544.97
662.85	547.77
663.296	525.17
663.743	480.47
664.189	464.07
664.635	457.97
665.082	446.57
665.528	443.67
665.974	442.57
666.42	432.77
666.867	436.57
667.313	420.87
667.759	414.47
668.205	403.17
668.651	419.97
669.097	416.67
669.543	433.47
669.989	406.57
670.435	381.07
670.881	384.87
671.327	380.07
671.773	398.47
672.219	425.97
672.665	470.77
673.11	485.87
673.556	531.07
674.002	568.77
674.448	554.77
674.893	474.57
675.339	410.47
675.785	377.77
676.23	354.97
676.676	337.67
677.122	328.07
677.567	313.47
678.013	310.87
678.458	301.97
678.904	310.47
679.349	288.87
679.794	297.87
680.24	296.57
680.685	291.87
681.131	290.67
681.576	294.77
682.021	298.37
682.466	290.57
682.912	290.17
683.357	302.17
683.802	316.67
684.247	342.67
684.692	384.27
685.137	410.57
685.583	448.97
686.028	467.97
686.473	438.07
686.918	385.37
687.363	354.47
687.807	346.27
688.252	312.87
688.697	304.17
689.142	282.37
689.587	281.47
690.032	272.97
690.477	290.87
690.921	299.07
691.366	313.67
691.811	341.87
692.255	361.37
692.7	386.47
693.145	421.27
693.589	577.17
694.034	930.27
694.478	1292.17
694.923	1490.77
695.367	1984.17
695.812	1032.17
696.256	426.97
696.701	318.07
697.145	287.87
697.59	280.87
698.034	269.87
698.478	276.87
698.922	278.07
699.367	271.97
699.811	286.97
700.255	296.17
700.699	329.37
701.143	361.37
701.588	404.07
702.032	442.87
702.476	430.07
702.92	410.87
703.364	409.67
703.808	516.07
704.252	835.97
704.696	1207.37
705.14	1421.07
705.584	1841.77
706.027	915.07
706.471	444.17
706.915	335.07
707.359	289.27
707.803	265.17
708.246	261.77
708.69	269.07
709.134	263.47
709.577	261.27
710.021	262.57
710.465	261.97
710.908	254.77
711.352	252.87
711.795	259.97
712.239	301.97
712.682	319.07
713.126	345.87
713.569	400.67
714.012	309.97
714.456	279.77
714.899	253.17
715.342	229.57
715.786	218.47
716.229	214.87
716.672	216.77
717.115	208.57
717.558	207.17
718.002	214.27
718.445	224.27
718.888	239.97
719.331	236.47
719.774	264.87
720.217	259.37
720.66	241.27
721.103	225.37
721.546	215.87
721.989	208.67
722.432	204.47
722.874	198.37
723.317	192.97
723.76	196.57
724.203	214.37
724.645	268.27
725.088	370.27
725.531	474.97
725.974	538.77
726.416	469.97
726.859	259.97
727.301	211.37
727.744	197.87
728.187	190.87
728.629	201.37
729.071	201.17
729.514	216.37
729.956	222.87
730.399	237.67
730.841	245.27
731.283	226.37
731.726	229.27
732.168	217.57
732.61	225.57
733.053	235.97
733.495	263.17
733.937	293.27
734.379	329.67
734.821	356.67
735.263	440.47
735.705	673.07
736.148	1291.77
736.59	2145.57
737.032	2627.47
737.474	2147.57
737.916	676.47
738.357	364.27
738.799	274.27
739.241	256.37
739.683	229.77
740.125	245.27
740.567	251.27
741.008	271.37
741.45	265.67
741.892	261.77
742.334	296.97
742.775	301.77
743.217	288.87
743.658	228.37
744.1	214.47
744.542	218.47
744.983	263.77
745.425	293.57
745.866	299.17
746.307	240.57
746.749	236.27
747.19	271.07
747.632	372.77
748.073	709.47
748.514	1512.27
748.956	2392.07
749.397	2997.57
749.838	2511.47
750.279	2557.37
750.72	1278.47
751.162	467.87
751.603	268.37
752.044	214.87
752.485	184.37
752.926	176.37
753.367	166.07
753.808	166.87
754.249	158.77
754.69	154.67
755.131	154.77
755.572	148.07
756.013	158.47
756.453	151.47
756.894	157.27
757.335	155.27
757.776	164.17
758.216	165.57
758.657	161.87
759.098	167.27
759.538	191.67
759.979	224.87
760.42	304.37
760.86	570.67
761.301	1456.17
761.741	3645.67
762.182	5606.58
762.622	3935.47
763.063	1117.07
763.503	456.57
763.943	299.87
764.384	293.57
764.824	350.37
765.264	389.57
765.705	257.77
766.145	177.07
766.585	156.57
767.025	151.57
767.465	154.97
767.906	207.17
768.346	284.17
768.786	305.17
769.226	217.77
769.666	253.27
770.106	489.27
770.546	1262.57
770.986	2259.27
771.426	2048.88
771.866	673.47
772.306	272.57
772.745	178.07
773.185	144.77
773.625	143.47
774.065	126.97
774.505	164.17
774.944	257.37
775.384	559.07
775.824	1061.07
776.263	1048.87
776.703	439.67
777.142	183.87
777.582	137.97
778.021	122.57
778.461	116.87
778.9	117.97
779.34	109.97
779.779	97.37
780.219	87.87
780.658	95.27
781.097	96.27
781.537	91.47
781.976	89.07
782.415	86.97
782.855	88.37
783.294	91.37
783.733	89.27
784.172	94.17
784.611	86.17
785.05	88.07
785.489	92.47
785.928	100.07
786.367	101.57
786.806	94.07
787.245	108.77
787.684	113.47
788.123	124.27
788.562	109.27
789.001	104.97
789.44	105.67
789.879	98.07
790.317	99.57
790.756	111.07
791.195	104.57
791.634	121.97
792.072	167.47
792.511	294.07
792.95	809.67
793.388	1806.47
793.827	1701.97
794.265	569.17
794.704	232.87
795.142	154.17
795.581	125.77
796.019	109.57
796.458	103.07
796.896	98.77
797.334	113.57
797.773	125.47
798.211	181.47
798.649	347.57
799.087	840.07
799.526	1331.47
799.964	1672.37
800.402	1733.47
800.84	645.47
801.278	248.97
801.716	152.57
802.154	131.67
802.592	125.67
803.03	113.87
803.468	111.77
803.906	117.57
804.344	121.97
804.782	115.77
805.22	107.47
805.658	113.57
806.096	129.77
806.533	134.97
806.971	143.37
807.409	177.87
807.847	257.27
808.284	533.27
808.722	1523.77
809.16	2821.47
809.597	2590.07
810.035	4578.48
810.472	5109.48
810.91	1814.17
811.347	672.17
811.785	340.27
812.222	215.87
812.66	164.87
813.097	139.17
813.535	116.47
813.972	102.67
814.409	103.27
814.846	90.97
815.284	94.17
815.721	84.37
816.158	85.27
816.595	99.27
817.032	148.27
817.47	174.97
817.907	148.17
818.344	126.27
818.781	99.47
819.218	85.47
819.655	106.47
820.092	157.37
820.529	185.87
820.966	156.17
821.403	117.27
821.839	95.67
822.276	88.17
822.713	99.77
823.15	113.27
823.587	92.77
824.023	119.77
824.46	239.17
824.897	746.37
825.333	1164.97
825.77	500.37
826.206	197.17
826.643	112.27
827.08	82.97
827.516	69.57
827.953	67.57
828.389	66.07
828.825	63.57
829.262	60.27
829.698	49.87
830.135	53.67
830.571	52.57
831.007	54.07
831.443	57.87
831.88	51.47
832.316	53.77
832.752	52.87
833.188	46.07
833.624	54.27
834.06	57.37
834.497	55.77
834.933	59.77
835.369	66.27
835.805	59.37
836.241	67.87
836.677	69.67
837.112	68.17
837.548	79.07
837.984	99.77
838.42	165.27
838.856	397.97
839.292	1262.57
839.727	2007.67
840.163	919.27
840.599	762.57
841.034	1713.57
841.47	1869.47
841.906	671.17
842.341	285.17
842.777	193.17
843.212	271.77
843.648	270.17
844.083	130.37
844.519	81.87
844.954	66.37
845.39	50.47
845.825	47.47
846.261	49.77
846.696	44.17
847.131	43.67
847.566	47.87
848.002	42.37
848.437	47.77
848.872	56.67
849.307	50.37
849.742	66.47
850.177	144.27
850.613	458.97
851.048	752.67
851.483	324.47
851.918	122.47
852.353	71.57
852.788	48.77
853.223	43.57
853.657	41.17
854.092	42.17
854.527	33.47
854.962	33.77
855.397	36.57
855.832	46.57
856.266	35.17
856.701	36.47
857.136	31.27
857.57	34.57
858.005	41.37
858.44	45.27
858.874	37.37
859.309	43.17
859.743	32.57
860.178	41.57
860.612	39.17
861.047	44.67
861.481	54.97
861.915	62.77
862.35	43.87
862.784	35.97
863.218	34.67
863.653	28.37
864.087	42.67
864.521	42.67
864.955	58.67
865.39	130.07
865.824	155.67
866.258	96.77
866.692	137.67
867.126	156.07
867.56	97.27
867.994	42.47
868.428	33.97
868.862	45.37
869.296	48.37
869.73	53.57
870.164	44.17
870.598	45.27
871.031	29.07
871.465	32.77
871.899	25.27
872.333	17.87
872.766	19.57
873.2	17.77
873.634	21.17
874.067	20.67
874.501	24.37
874.935	32.97
875.368	21.47
875.802	22.97
876.235	18.47
876.669	21.47
877.102	16.17
877.535	20.97
877.969	20.87
878.402	26.37
878.836	8.17
879.269	14.17
879.702	20.07
880.135	17.17
880.569	25.57
881.002	22.37
881.435	18.67
881.868	6.87
882.301	20.17
882.734	10.87
883.167	18.97
883.601	16.77
884.034	16.37
884.467	12.87
884.899	17.77
885.332	12.37
885.765	8.77
886.198	15.77
886.631	13.87
887.064	17.67
887.497	20.97
887.929	22.07
888.362	10.97
888.795	6.27
889.228	17.27
889.66	16.07
890.093	10.87
890.526	14.27
890.958	17.87
891.391	12.97
891.823	17.67
892.256	11.97
892.688	14.77
893.121	16.67
893.553	6.77
893.985	17.37
894.418	13.07
894.85	11.47
895.282	14.17
895.715	10.97
896.147	10.77
896.579	10.67
897.011	12.87
897.444	13.37
897.876	14.27
898.308	18.17
898.74	13.07
899.172	5.17
899.604	20.67
900.036	16.87
900.468	10.57
900.9	10.17
901.332	16.27
901.764	15.77
902.196	13.57
902.628	11.07
903.06	15.37
903.491	26.07
903.923	24.67
904.355	13.57
904.787	18.87
905.218	18.57
905.65	11.37
906.082	12.07
906.513	13.67
906.945	10.77
907.376	10.67
907.808	17.37
908.239	18.57
908.671	12.97
909.102	20.67
909.534	17.97
909.965	38.17
910.397	78.87
910.828	266.77
911.259	426.07
911.691	189.07
912.122	93.57
912.553	41.67
912.984	22.07
913.415	21.37
913.847	21.87
914.278	12.87
914.709	5.97
915.14	13.67
915.571	16.07
916.002	8.27
916.433	17.27
916.864	19.37
917.295	11.77
917.726	20.57
918.157	20.97
918.587	23.17
919.018	23.17
919.449	20.87
919.88	17.07
920.311	25.57
920.741	38.07
921.172	142.17
921.603	132.57
922.033	59.47
922.464	42.77
922.895	25.47
923.325	14.47
923.756	17.97
924.186	9.07
924.617	21.87
925.047	39.27
925.478	43.57
925.908	35.37
926.338	24.97
926.769	20.97
927.199	16.57
927.629	9.87
928.06	14.47
928.49	7.97
928.92	10.07
929.35	11.87
929.78	12.07
930.21	1.97
930.641	7.87
931.071	0.67
931.501	3.87
931.931	7.57
932.361	7.67
932.791	3.87
933.221	8.47
933.651	8.37
934.08	15.97
934.51	29.57
934.94	4.57
935.37	7.87
935.8	11.47
936.229	6.27
936.659	10.77
937.089	4.27
937.519	13.67
937.948	16.87
938.378	13.07
938.807	5.97
939.237	5.17
939.666	4.67
940.096	-9.33
940.525	1.67
940.955	-0.33
941.384	7.57
941.814	-3.83
942.243	1.77
942.672	6.07
943.102	-7.23
943.531	2.27
943.96	4.97
944.39	-0.43
944.819	-0.53
945.248	6.07
945.677	0.77
946.106	2.37
946.535	4.37
946.964	3.87
947.393	5.57
947.822	7.37
948.251	-6.33
948.68	8.17
949.109	-1.93
949.538	7.97
949.967	5.87
950.396	1.97
950.825	2.97
951.254	3.77
951.682	-5.23
952.111	5.97
952.54	8.77
952.969	-2.83
953.397	-5.73
953.826	6.87
954.254	-2.73
954.683	3.17
955.112	-8.13
955.54	3.77
955.969	0.17
956.397	-6.03
956.826	-0.73
957.254	2.17
957.682	2.97
958.111	0.07
958.539	2.07
958.967	-1.33
959.396	-1.23
959.824	-1.13
960.252	-3.83
960.68	-3.63
961.109	-4.73
961.537	-2.63
961.965	-0.03
962.393	-1.33
962.821	-7.53
963.249	-3.83
963.677	5.77
964.105	-0.03
964.533	33.47
964.961	37.47
965.389	13.17
965.817	1.07
966.245	1.27
966.672	-2.23
967.1	-7.53
967.528	0.07
967.956	-2.63
968.383	-0.93
968.811	0.17
969.239	-5.03
969.666	-4.13
970.094	3.77
970.522	4.37
970.949	4.17
971.377	-3.13
971.804	-0.13
972.232	0.87
972.659	-1.23
973.087	-1.53
973.514	-3.03
973.941	-7.53
974.369	-1.53
974.796	1.97
975.223	-1.63
975.651	-1.83
976.078	5.07
976.505	4.27
976.932	0.17
977.359	8.97
977.786	9.47
978.214	-1.83
978.641	-0.13
979.068	-8.43
979.495	-8.93
979.922	-1.33
980.349	-3.33
980.776	1.97
981.202	2.87
981.629	7.67
982.056	2.27
982.483	-2.73
982.91	-2.63
983.337	-1.53
983.763	-2.43
984.19	-2.53
984.617	-2.13
985.043	-4.73
985.47	0.67
985.897	-2.23
986.323	-5.43
986.75	2.27
987.176	3.27
987.603	0.57
988.029	1.77
988.456	-5.63
988.882	0.07
989.308	-4.93
989.735	-4.43
990.161	7.47
990.587	-6.13
991.014	-2.53
991.44	-0.03
991.866	0.07
992.292	-6.63
992.719	-3.63
993.145	-1.13
993.571	-5.73
993.997	-0.83
994.423	3.47
994.849	-7.33
995.275	-0.23
995.701	4.07
996.127	6.47
996.553	0.47
996.979	-4.23
997.405	-6.03
997.83	-6.53
998.256	-8.33
998.682	-5.33
999.108	-2.63
999.534	5.17
999.959	-3.23
1000.385	-5.43
1000.811	-1.33
1001.236	-11.33
1001.662	-7.53
1002.087	-6.33
1002.513	1.77
1002.938	-4.03
1003.364	-5.43
1003.789	-3.73
1004.215	7.07
1004.64	-2.43
1005.066	1.47
1005.491	6.07
1005.916	1.67
1006.342	-5.03
1006.767	-2.63
1007.192	6.27
1007.617	-2.53
1008.042	-0.43
1008.468	-7.43
1008.893	-11.23
1009.318	-2.63
1009.743	-2.63
1010.168	4.97
1010.593	0.47
1011.018	-2.53
1011.443	-0.33
1011.868	4.37
1012.293	-11.93
1012.718	-5.33
1013.143	-2.43
1013.567	0.17
1013.992	-5.03
1014.417	-14.23
1014.842	5.37
1015.267	-6.13
1015.691	-2.23
1016.116	5.37
1016.541	-3.23
1016.965	1.77
1017.39	-0.83
1017.814	7.57
1018.239	-0.33
1018.663	-1.83
1019.088	-6.83
1019.512	-1.03
1019.937	2.07
1020.361	-0.43
1020.785	-10.03
1021.21	-1.13
1021.634	-2.23
1022.058	-2.33
1022.483	7.37
1022.907	-5.43
1023.331	-4.23
1023.755	-3.73
1024.179	3.57
1024.604	-4.73
1025.028	-6.03
1025.452	-2.23
1025.876	-0.43
1026.3	-2.23
1026.724	-10.63
1027.148	-0.63
1027.572	-3.33
1027.996	-1.63
1028.42	-5.43
1028.843	1.67
1029.267	-4.33
1029.691	-2.83
1030.115	-3.33
1030.539	-9.43
1030.962	-6.93
1031.386	-11.93
1031.81	1.97
1032.233	2.97
1032.657	0.07
1033.08	-1.13
1033.504	-2.03
1033.927	-0.43
1034.351	-0.53
1034.774	-3.73
1035.198	-5.23
1035.621	0.27
1036.045	-5.93
1036.468	1.17
1036.891	-9.93
1037.315	-8.53
1037.738	-2.63
1038.161	-1.03
1038.584	-2.13
1039.008	-4.13
1039.431	-3.73
1039.854	-3.73
1040.277	-3.53
1040.7	-8.03
1041.123	-0.33
1041.546	-6.63
1041.969	-4.53
1042.392	-4.73
1042.815	-5.23
1043.238	-1.43
1043.661	-1.83
1044.084	-5.53
1044.507	-2.33
1044.93	-2.63
1045.352	-2.53
1045.775	-5.23
1046.198	-1.93
1046.621	0.97
1047.043	2.47
1047.466	11.17
1047.889	-0.03
1048.311	-6.33
1048.734	-3.03
1049.156	-3.43
1049.579	0.07
1050.001	-1.53
1050.424	0.47
1050.846	-1.13
1051.269	-7.53
1051.691	-6.33
1052.113	-5.53
1052.536	-3.23
1052.958	-1.63
1053.38	-5.73
1053.802	-10.03
1054.225	0.27
1054.647	-9.93
1055.069	-9.53
1055.491	4.57
1055.913	-6.73
1056.335	-3.33
1056.757	-2.53
1057.179	-6.83
1057.601	-3.93
1058.023	-7.93
1058.445	-7.33
1058.867	-6.53
1059.289	-0.53
1059.711	-3.93
1060.133	-7.73
1060.555	-10.33
1060.976	-7.03
1061.398	-6.53
1061.82	-7.83
1062.241	-5.13
1062.663	-9.53
1063.085	-3.43
1063.506	2.27
1063.928	0.37
1064.35	-1.83
1064.771	-11.53
1065.193	-1.93
1065.614	-11.83
1066.035	-1.83
1066.457	-3.33
1066.878	0.87
1067.3	-2.73
1067.721	-4.23
1068.142	-1.73
1068.564	0.27
1068.985	-2.33
1069.406	-5.73
1069.827	-5.83
1070.248	-1.33
1070.67	-5.73
1071.091	-5.13
1071.512	-1.13
1071.933	-1.93
1072.354	-1.53
1072.775	-4.53
1073.196	-3.23
1073.617	0.47
1074.038	-5.43
1074.459	-3.43
1074.88	-9.43
1075.3	1.87
1075.721	-3.53
1076.142	-2.13
1076.563	1.47
1076.983	-7.13
1077.404	-8.33
1077.825	-8.83
1078.246	-2.13
1078.666	-10.43
1079.087	-7.63
1079.507	-7.93
1079.928	-0.83
1080.348	1.67
1080.769	-9.83
1081.189	-6.03
1081.61	0.37
1082.03	-3.83
1082.451	-11.13
1082.871	-3.13
1083.291	-4.53
1083.711	-9.43
1084.132	-8.63
1084.552	-4.33
1084.972	4.27
1085.392	-8.83
1085.813	-8.03
1086.233	-3.03
1086.653	-4.63
1087.073	-6.63
1087.493	-2.93
1087.913	-4.03
1088.333	-7.73
1088.753	1.07
1089.173	1.17
1089.593	-6.13
1090.013	3.67
1090.433	-1.63
1090.852	-2.73
1091.272	-0.03
1091.692	-4.23
1092.112	-7.13
1092.531	-8.43
1092.951	-13.03
1093.371	-2.53
1093.79	3.57
1094.21	-2.93
1094.63	-10.83
1095.049	-4.13
1095.469	-1.63
1095.888	-5.23
1096.308	2.37
1096.727	1.97
1097.146	-4.73
1097.566	-0.03
1097.985	-1.03
1098.405	2.07
1098.824	-4.23
1099.243	-3.43
1099.662	-9.63
1100.082	-4.23
1100.501	2.27
1100.92	-1.13
1101.339	-6.73
1101.758	-3.93
