Data from 20171114-ORNL-Ar_H_NY_Subt18_08-08-11-562.txt Node
Date: Tue Nov 14 08:08:11 EST 2017
User: Ender
Spectrometer: HR+D1039
Trigger mode: 0
Integration Time (sec): 2.730000E-2
Scans to average: 10
Electric dark correction enabled: true
Nonlinearity correction enabled: false
Boxcar width: 0
XAxis mode: Wavelengths
Number of Pixels in Spectrum: 2048
>>>>>Begin Spectral Data<<<<<
187.836	-0.78
188.309	-0.78
188.782	-0.78
189.255	2.02
189.728	0.02
190.201	3.02
190.674	2.72
191.147	2.62
191.619	-7.68
192.092	0.52
192.565	5.52
193.038	-1.18
193.511	-2.88
193.984	-1.78
194.456	-3.28
194.929	0.22
195.402	0.52
195.874	0.42
196.347	1.62
196.82	-5.98
197.292	0.02
197.765	-2.48
198.237	-2.98
198.71	-4.98
199.182	-6.68
199.655	1.12
200.127	-0.08
200.6	-3.48
201.072	0.62
201.544	-3.78
202.017	-4.38
202.489	0.72
202.961	-4.28
203.433	-5.88
203.906	-6.88
204.378	-7.68
204.85	-4.28
205.322	-4.38
205.794	-1.38
206.266	-7.58
206.739	-8.28
207.211	7.82
207.683	-3.48
208.155	2.52
208.627	-4.18
209.099	-4.28
209.57	-9.78
210.042	-3.88
210.514	-0.48
210.986	-3.68
211.458	-8.08
211.93	-7.28
212.402	6.42
212.873	-5.48
213.345	-3.78
213.817	-11.88
214.288	-9.68
214.76	-9.68
215.232	-5.58
215.703	-2.78
216.175	1.62
216.646	-5.08
217.118	-6.08
217.589	1.22
218.061	-0.38
218.532	-1.38
219.004	-4.18
219.475	-8.38
219.946	-1.48
220.418	-2.58
220.889	-0.78
221.36	-1.98
221.832	-7.28
222.303	-7.58
222.774	8.92
223.245	-10.98
223.717	-7.38
224.188	-4.08
224.659	-9.88
225.13	-6.88
225.601	1.32
226.072	-1.78
226.543	0.22
227.014	1.92
227.485	-6.28
227.956	-6.08
228.427	-3.68
228.898	-2.48
229.369	6.32
229.839	0.32
230.31	-3.68
230.781	1.42
231.252	-7.48
231.722	-4.78
232.193	-2.88
232.664	2.22
233.135	7.22
233.605	0.82
234.076	-8.18
234.546	2.62
235.017	8.32
235.487	-3.98
235.958	-6.68
236.428	-3.88
236.899	2.42
237.369	0.62
237.84	0.12
238.31	5.02
238.78	3.82
239.251	-2.68
239.721	4.72
240.191	6.12
240.662	-0.28
241.132	0.22
241.602	-6.88
242.072	6.32
242.542	7.12
243.013	1.12
243.483	3.62
243.953	5.22
244.423	-2.18
244.893	-6.98
245.363	11.12
245.833	3.62
246.303	0.52
246.773	3.72
247.243	5.12
247.712	2.32
248.182	6.72
248.652	4.22
249.122	-5.38
249.592	8.62
250.061	18.02
250.531	26.42
251.001	9.62
251.471	20.02
251.94	21.82
252.41	8.32
252.879	1.42
253.349	6.72
253.818	2.82
254.288	3.62
254.757	-2.78
255.227	0.32
255.696	5.02
256.166	-0.98
256.635	4.52
257.105	10.72
257.574	4.82
258.043	5.62
258.513	6.92
258.982	15.22
259.451	7.22
259.92	9.62
260.389	7.92
260.859	13.02
261.328	16.22
261.797	17.82
262.266	6.92
262.735	7.32
263.204	2.82
263.673	1.22
264.142	3.12
264.611	-2.58
265.08	-0.38
265.549	0.02
266.018	0.22
266.487	-1.08
266.955	-3.98
267.424	0.72
267.893	-1.78
268.362	-2.28
268.83	0.12
269.299	12.82
269.768	14.22
270.236	8.02
270.705	5.92
271.174	3.32
271.642	9.52
272.111	4.52
272.579	12.72
273.048	22.02
273.516	21.42
273.985	26.32
274.453	21.62
274.922	17.32
275.39	11.12
275.858	4.12
276.327	10.12
276.795	9.62
277.263	9.72
277.731	30.62
278.2	48.72
278.668	53.52
279.136	45.32
279.604	15.22
280.072	17.42
280.54	8.22
281.008	7.52
281.477	13.72
281.945	12.12
282.413	16.52
282.881	9.72
283.348	3.92
283.816	14.82
284.284	13.02
284.752	18.92
285.22	14.52
285.688	18.92
286.156	23.32
286.623	45.42
287.091	41.62
287.559	27.22
288.026	20.42
288.494	18.62
288.962	-0.68
289.429	12.12
289.897	16.72
290.364	12.42
290.832	11.42
291.3	9.32
291.767	16.22
292.234	17.72
292.702	14.02
293.169	14.32
293.637	15.92
294.104	14.92
294.571	10.52
295.039	11.32
295.506	17.42
295.973	21.82
296.44	15.72
296.908	16.52
297.375	15.62
297.842	24.82
298.309	15.42
298.776	12.62
299.243	20.22
299.71	7.72
300.177	23.02
300.644	17.22
301.111	15.92
301.578	21.82
302.045	18.02
302.512	18.02
302.979	22.42
303.446	17.42
303.913	16.82
304.379	18.62
304.846	23.32
305.313	23.92
305.78	19.12
306.246	26.22
306.713	19.42
307.18	21.32
307.646	27.62
308.113	25.82
308.579	15.92
309.046	22.12
309.512	23.02
309.979	13.62
310.445	27.72
310.912	24.72
311.378	25.02
311.845	22.82
312.311	30.12
312.777	33.42
313.244	29.32
313.71	34.62
314.176	28.42
314.642	26.12
315.109	27.92
315.575	35.62
316.041	37.52
316.507	36.62
316.973	39.62
317.439	27.92
317.905	37.32
318.371	29.42
318.837	31.22
319.303	29.22
319.769	32.22
320.235	35.62
320.701	38.42
321.167	38.62
321.633	28.92
322.099	40.42
322.564	37.92
323.03	37.12
323.496	33.42
323.962	38.92
324.427	35.82
324.893	43.32
325.359	34.42
325.824	35.12
326.29	35.92
326.755	30.12
327.221	40.12
327.686	36.12
328.152	42.82
328.617	40.22
329.083	44.02
329.548	52.22
330.014	51.42
330.479	35.22
330.944	34.82
331.41	37.22
331.875	42.92
332.34	35.32
332.805	40.12
333.271	45.42
333.736	43.02
334.201	51.22
334.666	48.92
335.131	53.42
335.596	47.62
336.061	46.92
336.526	40.92
336.991	46.92
337.456	54.92
337.921	49.52
338.386	41.42
338.851	46.82
339.316	41.42
339.781	46.72
340.246	46.62
340.711	42.72
341.175	42.32
341.64	46.22
342.105	50.62
342.569	46.62
343.034	57.82
343.499	53.52
343.963	46.82
344.428	59.72
344.893	60.52
345.357	58.22
345.822	57.02
346.286	62.42
346.751	68.82
347.215	63.82
347.679	71.62
348.144	92.12
348.608	86.12
349.073	70.02
349.537	74.02
350.001	77.12
350.465	88.82
350.93	72.42
351.394	78.12
351.858	69.92
352.322	74.92
352.786	75.52
353.25	98.22
353.715	108.02
354.179	94.62
354.643	119.32
355.107	123.42
355.571	107.82
356.035	97.32
356.498	119.22
356.962	118.92
357.426	128.42
357.89	112.02
358.354	88.52
358.818	83.12
359.281	79.52
359.745	82.12
360.209	79.42
360.673	75.42
361.136	76.62
361.6	83.02
362.064	74.82
362.527	80.02
362.991	85.52
363.454	78.42
363.918	77.92
364.381	77.22
364.845	80.92
365.308	80.52
365.772	79.52
366.235	82.82
366.698	83.62
367.162	75.52
367.625	86.22
368.088	92.22
368.552	82.02
369.015	82.52
369.478	91.92
369.941	96.72
370.404	93.82
370.867	97.12
371.331	102.82
371.794	120.42
372.257	115.82
372.72	110.62
373.183	106.72
373.646	102.32
374.109	106.62
374.572	100.52
375.035	105.22
375.497	115.12
375.96	103.42
376.423	100.12
376.886	111.52
377.349	104.02
377.811	103.22
378.274	106.12
378.737	106.12
379.199	113.62
379.662	110.32
380.125	114.12
380.587	117.12
381.05	111.02
381.512	122.92
381.975	132.92
382.437	131.52
382.9	129.62
383.362	135.22
383.825	137.62
384.287	143.52
384.75	140.62
385.212	139.22
385.674	131.92
386.136	137.12
386.599	126.42
387.061	128.02
387.523	125.82
387.985	135.82
388.447	148.32
388.91	138.52
389.372	160.02
389.834	154.02
390.296	146.82
390.758	156.72
391.22	173.62
391.682	207.02
392.144	297.32
392.606	220.02
393.068	171.42
393.529	167.92
393.991	148.62
394.453	150.82
394.915	154.92
395.377	189.22
395.838	211.92
396.3	151.42
396.762	138.92
397.224	132.12
397.685	126.22
398.147	128.42
398.608	135.12
399.07	126.92
399.531	128.72
399.993	135.92
400.454	155.92
400.916	146.02
401.377	146.42
401.839	152.92
402.3	153.02
402.762	167.02
403.223	178.62
403.684	171.72
404.145	159.02
404.607	162.42
405.068	163.42
405.529	164.02
405.99	184.52
406.451	174.22
406.913	169.72
407.374	159.12
407.835	160.92
408.296	163.42
408.757	167.72
409.218	183.12
409.679	178.72
410.14	174.52
410.601	178.12
411.062	180.42
411.522	194.42
411.983	189.22
412.444	177.82
412.905	186.42
413.366	181.32
413.826	191.82
414.287	214.12
414.748	258.72
415.208	242.72
415.669	210.92
416.13	196.92
416.59	205.32
417.051	212.22
417.511	214.32
417.972	233.42
418.432	247.52
418.893	285.82
419.353	247.12
419.814	194.02
420.274	189.52
420.734	188.52
421.195	204.62
421.655	199.52
422.115	190.82
422.576	188.62
423.036	197.92
423.496	206.92
423.956	208.52
424.416	231.22
424.876	263.22
425.336	257.12
425.797	258.92
426.257	253.22
426.717	242.42
427.177	228.92
427.637	225.12
428.097	231.32
428.556	245.92
429.016	266.52
429.476	263.82
429.936	279.42
430.396	273.62
430.856	290.92
431.315	323.62
431.775	356.02
432.235	376.52
432.694	351.52
433.154	364.82
433.614	398.12
434.073	341.22
434.533	283.62
434.993	266.72
435.452	282.22
435.912	291.02
436.371	293.02
436.83	278.42
437.29	272.52
437.749	246.72
438.209	252.92
438.668	276.52
439.127	285.82
439.587	271.32
440.046	259.72
440.505	261.32
440.964	276.62
441.424	321.52
441.883	309.32
442.342	256.22
442.801	224.22
443.26	217.82
443.719	216.62
444.178	220.42
444.637	217.32
445.096	223.12
445.555	225.32
446.014	220.92
446.473	220.62
446.932	237.82
447.391	227.42
447.849	222.52
448.308	221.22
448.767	222.02
449.226	226.72
449.685	230.52
450.143	246.72
450.602	240.62
451.061	226.22
451.519	228.62
451.978	232.12
452.436	225.22
452.895	233.72
453.353	254.12
453.812	234.32
454.27	236.62
454.729	240.62
455.187	246.42
455.646	243.52
456.104	253.42
456.562	253.82
457.021	262.42
457.479	252.92
457.937	275.92
458.395	258.82
458.854	257.02
459.312	256.32
459.77	278.02
460.228	253.02
460.686	242.52
461.144	248.22
461.602	238.42
462.06	239.42
462.518	247.22
462.976	251.32
463.434	258.72
463.892	261.22
464.35	272.92
464.808	283.52
465.266	262.42
465.724	268.72
466.181	267.92
466.639	265.02
467.097	287.32
467.555	294.42
468.012	298.62
468.47	310.22
468.928	329.72
469.385	337.82
469.843	341.92
470.3	349.52
470.758	360.12
471.215	384.12
471.673	409.42
472.13	409.12
472.588	411.22
473.045	368.42
473.503	373.12
473.96	385.82
474.417	397.92
474.875	430.42
475.332	470.72
475.789	454.42
476.246	462.72
476.704	480.22
477.161	501.82
477.618	523.72
478.075	564.22
478.532	614.12
478.989	688.22
479.446	807.32
479.903	761.12
480.36	803.32
480.817	854.72
481.274	961.52
481.731	1062.92
482.188	1146.42
482.645	1277.92
483.102	1384.42
483.558	1518.82
484.015	1557.52
484.472	1543.42
484.929	1495.92
485.385	1449.82
485.842	1400.22
486.299	1331.72
486.755	1294.12
487.212	1087.72
487.668	920.02
488.125	844.92
488.582	771.22
489.038	734.22
489.494	704.02
489.951	675.02
490.407	654.62
490.864	649.22
491.32	634.12
491.776	641.82
492.233	634.32
492.689	608.32
493.145	589.02
493.602	587.92
494.058	600.52
494.514	617.52
494.97	629.62
495.426	641.42
495.882	623.12
496.338	594.22
496.794	610.22
497.251	605.92
497.707	619.32
498.163	626.82
498.618	640.62
499.074	633.42
499.53	671.42
499.986	668.32
500.442	637.12
500.898	627.72
501.354	620.22
501.809	622.52
502.265	635.92
502.721	660.22
503.177	658.62
503.632	658.62
504.088	666.92
504.543	694.42
504.999	705.22
505.455	650.12
505.91	631.42
506.366	624.82
506.821	624.22
507.277	619.82
507.732	621.62
508.187	611.02
508.643	622.12
509.098	621.52
509.553	642.72
510.009	653.22
510.464	658.22
510.919	683.72
511.375	683.42
511.83	696.62
512.285	710.82
512.74	753.52
513.195	779.02
513.65	768.02
514.105	758.92
514.56	754.92
515.015	775.62
515.47	790.22
515.925	787.02
516.38	776.82
516.835	776.92
517.29	772.22
517.745	760.52
518.2	744.52
518.655	729.32
519.109	729.02
519.564	726.52
520.019	715.72
520.474	716.32
520.928	713.02
521.383	718.12
521.838	712.82
522.292	698.52
522.747	703.92
523.201	690.42
523.656	687.12
524.11	685.92
524.565	688.62
525.019	681.62
525.474	692.52
525.928	694.02
526.382	684.82
526.837	685.32
527.291	696.42
527.745	687.62
528.2	694.92
528.654	690.62
529.108	670.32
529.562	683.32
530.016	684.52
530.47	682.62
530.925	673.52
531.379	688.52
531.833	692.92
532.287	693.32
532.741	694.92
533.195	690.12
533.649	708.82
534.103	703.12
534.556	699.02
535.01	698.42
535.464	695.72
535.918	702.02
536.372	698.82
536.826	703.12
537.279	684.12
537.733	710.62
538.187	703.92
538.64	709.22
539.094	712.62
539.548	718.12
540.001	713.32
540.455	716.42
540.908	724.62
541.362	725.32
541.815	735.82
542.269	749.62
542.722	754.62
543.175	764.72
543.629	761.42
544.082	777.22
544.536	781.82
544.989	773.62
545.442	781.42
545.895	780.92
546.349	772.02
546.802	783.12
547.255	789.12
547.708	796.82
548.161	797.12
548.614	806.32
549.067	811.32
549.52	810.52
549.973	799.82
550.426	796.72
550.879	791.32
551.332	792.92
551.785	794.52
552.238	794.92
552.691	811.62
553.144	820.62
553.596	834.02
554.049	842.82
554.502	883.22
554.955	896.32
555.407	889.02
555.86	882.32
556.313	871.82
556.765	866.72
557.218	881.12
557.67	872.52
558.123	861.42
558.576	860.52
559.028	872.22
559.48	871.52
559.933	857.82
560.385	832.32
560.838	792.32
561.29	759.92
561.742	767.72
562.195	748.02
562.647	752.92
563.099	766.82
563.551	758.92
564.004	771.92
564.456	762.72
564.908	754.12
565.36	743.62
565.812	731.32
566.264	713.22
566.716	703.92
567.168	709.42
567.62	725.42
568.072	693.42
568.524	692.42
568.976	683.32
569.428	670.22
569.88	668.72
570.332	675.42
570.784	676.82
571.235	672.02
571.687	682.32
572.139	700.52
572.59	704.92
573.042	712.92
573.494	697.72
573.945	690.82
574.397	679.72
574.849	679.42
575.3	676.42
575.752	667.82
576.203	664.72
576.655	683.12
577.106	659.82
577.557	650.72
578.009	666.72
578.46	658.32
578.912	654.12
579.363	659.52
579.814	661.32
580.265	655.62
580.717	657.82
581.168	661.02
581.619	667.72
582.07	674.12
582.521	660.12
582.972	667.02
583.423	671.12
583.875	671.92
584.326	696.92
584.777	743.22
585.227	823.82
585.678	902.02
586.129	999.62
586.58	1058.82
587.031	1146.62
587.482	1288.62
587.933	1473.02
588.384	1281.82
588.834	958.02
589.285	806.02
589.736	775.82
590.186	770.22
590.637	761.42
591.088	742.62
591.538	734.32
591.989	729.52
592.439	727.62
592.89	719.72
593.34	702.92
593.791	708.02
594.241	700.82
594.692	710.82
595.142	696.12
595.593	696.82
596.043	693.12
596.493	710.42
596.943	715.32
597.394	710.82
597.844	710.42
598.294	729.62
598.744	742.92
599.195	780.62
599.645	815.62
600.095	858.42
600.545	917.32
600.995	964.02
601.445	1024.82
601.895	1084.22
602.345	1120.32
602.795	1096.52
603.245	1056.72
603.695	990.22
604.145	943.32
604.594	899.22
605.044	851.92
605.494	801.92
605.944	754.12
606.393	740.02
606.843	728.02
607.293	730.32
607.743	737.62
608.192	742.32
608.642	756.32
609.091	751.92
609.541	757.52
609.99	754.72
610.44	762.82
610.889	723.02
611.339	705.02
611.788	679.12
612.238	689.42
612.687	720.22
613.136	722.72
613.586	729.82
614.035	729.92
614.484	747.82
614.933	762.52
615.383	752.32
615.832	742.32
616.281	728.02
616.73	687.12
617.179	668.92
617.628	646.22
618.077	634.12
618.526	631.52
618.975	620.32
619.424	608.82
619.873	613.52
620.322	612.92
620.771	598.12
621.22	600.62
621.669	598.32
622.118	586.82
622.567	574.22
623.015	562.32
623.464	563.62
623.913	566.02
624.361	552.02
624.81	539.92
625.259	544.22
625.707	561.72
626.156	552.12
626.604	569.12
627.053	564.42
627.501	562.72
627.95	574.12
628.398	580.52
628.847	564.52
629.295	572.02
629.744	571.12
630.192	557.02
630.64	569.92
631.089	558.22
631.537	584.12
631.985	593.52
632.433	597.42
632.881	608.32
633.33	660.62
633.778	641.12
634.226	563.42
634.674	573.32
635.122	576.32
635.57	595.02
636.018	629.22
636.466	582.02
636.914	553.92
637.362	560.52
637.81	579.42
638.258	578.12
638.705	580.02
639.153	607.52
639.601	612.32
640.049	633.32
640.497	663.02
640.944	692.82
641.392	634.42
641.84	612.62
642.287	582.42
642.735	568.62
643.182	564.32
643.63	575.82
644.078	581.42
644.525	587.32
644.973	591.32
645.42	595.22
645.867	626.82
646.315	630.92
646.762	656.52
647.21	684.12
647.657	720.82
648.104	742.62
648.551	766.82
648.999	839.42
649.446	910.72
649.893	996.02
650.34	1156.72
650.787	1392.22
651.234	1734.72
651.682	2271.62
652.129	3119.12
652.576	4524.62
653.023	6634.62
653.47	9059.52
653.917	11240.62
654.363	12891.32
654.81	14198.42
655.257	13477.92
655.704	8767.12
656.151	5238.92
656.598	3377.32
657.044	2374.52
657.491	1852.52
657.938	1474.82
658.385	1234.02
658.831	1071.12
659.278	952.32
659.724	855.72
660.171	782.52
660.618	718.32
661.064	693.62
661.511	671.32
661.957	654.52
662.404	637.22
662.85	645.62
663.296	618.12
663.743	563.42
664.189	539.12
664.635	524.52
665.082	527.52
665.528	536.92
665.974	521.42
666.42	501.82
666.867	515.22
667.313	496.12
667.759	489.82
668.205	475.32
668.651	486.72
669.097	482.12
669.543	498.92
669.989	468.02
670.435	451.02
670.881	441.42
671.327	454.42
671.773	463.92
672.219	489.62
672.665	544.92
673.11	581.12
673.556	628.32
674.002	668.72
674.448	644.32
674.893	548.82
675.339	479.22
675.785	448.02
676.23	418.12
676.676	394.32
677.122	389.72
677.567	370.42
678.013	364.72
678.458	360.62
678.904	379.02
679.349	348.62
679.794	352.92
680.24	353.82
680.685	348.32
681.131	350.62
681.576	347.42
682.021	356.02
682.466	344.42
682.912	352.42
683.357	355.02
683.802	385.12
684.247	405.12
684.692	456.52
685.137	491.42
685.583	537.12
686.028	555.72
686.473	512.52
686.918	435.02
687.363	420.62
687.807	391.52
688.252	355.02
688.697	349.22
689.142	339.32
689.587	332.12
690.032	325.82
690.477	345.12
690.921	352.62
691.366	385.22
691.811	400.12
692.255	435.42
692.7	462.02
693.145	506.52
693.589	706.92
694.034	1142.82
694.478	1534.32
694.923	1718.02
695.367	2227.22
695.812	1187.92
696.256	495.12
696.701	374.62
697.145	343.02
697.59	335.82
698.034	318.82
698.478	332.42
698.922	327.32
699.367	328.12
699.811	337.22
700.255	360.32
700.699	386.52
701.143	425.22
701.588	475.02
702.032	512.32
702.476	510.32
702.92	492.42
703.364	492.42
703.808	652.12
704.252	1056.12
704.696	1459.42
705.14	1645.72
705.584	2094.42
706.027	1063.12
706.471	517.02
706.915	398.02
707.359	345.42
707.803	323.72
708.246	310.42
708.69	315.02
709.134	309.32
709.577	308.92
710.021	323.32
710.465	305.62
710.908	300.72
711.352	298.72
711.795	315.12
712.239	356.92
712.682	391.72
713.126	420.72
713.569	458.62
714.012	372.62
714.456	325.42
714.899	295.92
715.342	274.52
715.786	262.42
716.229	257.82
716.672	254.12
717.115	240.62
717.558	249.12
718.002	253.22
718.445	266.12
718.888	284.72
719.331	291.32
719.774	305.52
720.217	296.82
720.66	278.22
721.103	270.62
721.546	251.62
721.989	251.62
722.432	230.42
722.874	238.02
723.317	228.92
723.76	230.52
724.203	256.72
724.645	325.52
725.088	451.92
725.531	563.32
725.974	646.42
726.416	547.32
726.859	307.72
727.301	243.32
727.744	235.62
728.187	234.32
728.629	232.92
729.071	238.12
729.514	260.62
729.956	278.12
730.399	293.12
730.841	287.52
731.283	264.22
731.726	265.02
732.168	257.42
732.61	271.02
733.053	288.52
733.495	314.52
733.937	356.52
734.379	396.02
734.821	438.52
735.263	548.22
735.705	868.42
736.148	1605.72
736.59	2593.02
737.032	2989.12
737.474	2434.52
737.916	804.22
738.357	421.02
738.799	326.82
739.241	291.72
739.683	290.52
740.125	297.42
740.567	301.62
741.008	311.82
741.45	316.32
741.892	315.92
742.334	353.32
742.775	345.62
743.217	338.22
743.658	273.12
744.1	262.52
744.542	257.92
744.983	307.62
745.425	337.52
745.866	334.92
746.307	277.02
746.749	282.62
747.19	330.32
747.632	470.22
748.073	922.62
748.514	1891.62
748.956	2830.52
749.397	3549.12
749.838	2950.12
750.279	2914.52
750.72	1472.62
751.162	544.82
751.603	314.42
752.044	250.92
752.485	216.62
752.926	200.92
753.367	206.92
753.808	185.62
754.249	199.62
754.69	186.32
755.131	176.52
755.572	182.72
756.013	181.92
756.453	190.42
756.894	189.92
757.335	190.12
757.776	195.52
758.216	197.52
758.657	198.32
759.098	200.02
759.538	226.32
759.979	260.02
760.42	381.52
760.86	724.72
761.301	1912.02
761.741	4498.52
762.182	6272.22
762.622	4402.72
763.063	1293.82
763.503	531.72
763.943	343.22
764.384	345.62
764.824	402.22
765.264	433.42
765.705	305.62
766.145	218.42
766.585	187.12
767.025	181.92
767.465	190.12
767.906	251.12
768.346	322.62
768.786	341.02
769.226	265.72
769.666	317.22
770.106	640.12
770.546	1598.32
770.986	2617.82
771.426	2328.32
771.866	791.82
772.306	325.22
772.745	207.62
773.185	179.32
773.625	169.52
774.065	172.92
774.505	199.72
774.944	308.72
775.384	683.22
775.824	1187.82
776.263	1130.72
776.703	490.62
777.142	222.42
777.582	158.42
778.021	144.52
778.461	133.52
778.9	141.42
779.34	130.52
779.779	115.82
780.219	106.82
780.658	111.52
781.097	115.02
781.537	116.52
781.976	109.02
782.415	107.12
782.855	103.32
783.294	103.22
783.733	107.62
784.172	112.92
784.611	102.42
785.05	109.72
785.489	111.12
785.928	118.32
786.367	121.82
786.806	124.82
787.245	134.92
787.684	144.02
788.123	145.62
788.562	131.12
789.001	129.12
789.44	129.92
789.879	113.72
790.317	118.92
790.756	131.72
791.195	130.02
791.634	144.62
792.072	207.62
792.511	376.42
792.95	1034.62
793.388	2140.42
793.827	1880.52
794.265	668.82
794.704	275.62
795.142	184.22
795.581	157.22
796.019	133.92
796.458	126.42
796.896	122.82
797.334	133.42
797.773	161.92
798.211	225.52
798.649	458.82
799.087	1029.72
799.526	1608.12
799.964	1999.62
800.402	1970.62
800.84	753.82
801.278	294.82
801.716	185.02
802.154	153.22
802.592	145.92
803.03	135.72
803.468	138.52
803.906	137.22
804.344	151.72
804.782	138.52
805.22	127.52
805.658	125.52
806.096	144.72
806.533	154.22
806.971	176.92
807.409	224.72
807.847	324.32
808.284	674.92
808.722	1890.02
809.16	3244.52
809.597	3156.42
810.035	5419.32
810.472	5613.82
810.91	2058.62
811.347	788.02
811.785	402.02
812.222	253.62
812.66	200.62
813.097	159.52
813.535	141.22
813.972	125.22
814.409	113.62
814.846	100.42
815.284	113.02
815.721	101.62
816.158	108.72
816.595	123.42
817.032	177.82
817.47	201.42
817.907	160.22
818.344	141.92
818.781	113.22
819.218	101.62
819.655	127.52
820.092	184.22
820.529	210.42
820.966	172.32
821.403	132.02
821.839	107.22
822.276	101.32
822.713	121.52
823.15	132.02
823.587	121.12
824.023	148.12
824.46	315.42
824.897	915.82
825.333	1323.22
825.77	566.72
826.206	229.82
826.643	137.42
827.08	99.92
827.516	84.62
827.953	77.12
828.389	75.92
828.825	69.62
829.262	70.22
829.698	64.32
830.135	62.22
830.571	65.42
831.007	61.92
831.443	62.92
831.88	60.52
832.316	57.32
832.752	67.92
833.188	62.82
833.624	61.52
834.06	68.62
834.497	73.62
834.933	71.22
835.369	76.02
835.805	62.02
836.241	75.42
836.677	79.72
837.112	88.42
837.548	102.92
837.984	137.72
838.42	194.92
838.856	511.62
839.292	1529.02
839.727	2250.32
840.163	1051.32
840.599	927.52
841.034	2035.82
841.47	2058.72
841.906	763.12
842.341	335.82
842.777	234.12
843.212	305.62
843.648	303.42
844.083	147.92
844.519	92.02
844.954	72.52
845.39	57.12
845.825	55.02
846.261	55.32
846.696	50.02
847.131	54.12
847.566	58.22
848.002	56.42
848.437	56.92
848.872	53.12
849.307	59.32
849.742	84.02
850.177	187.42
850.613	566.52
851.048	863.82
851.483	368.52
851.918	152.52
852.353	87.02
852.788	71.12
853.223	62.12
853.657	55.92
854.092	40.92
854.527	43.32
854.962	46.62
855.397	40.52
855.832	47.62
856.266	41.22
856.701	38.32
857.136	41.12
857.57	45.12
858.005	47.92
858.44	56.42
858.874	40.42
859.309	49.02
859.743	38.42
860.178	49.42
860.612	42.62
861.047	47.82
861.481	64.42
861.915	67.82
862.35	53.62
862.784	34.62
863.218	35.22
863.653	37.12
864.087	43.92
864.521	53.02
864.955	73.42
865.39	158.92
865.824	171.12
866.258	114.42
866.692	162.32
867.126	170.02
867.56	99.82
867.994	54.22
868.428	38.62
868.862	48.42
869.296	57.12
869.73	54.42
870.164	49.52
870.598	50.82
871.031	38.92
871.465	27.92
871.899	33.42
872.333	25.72
872.766	21.82
873.2	18.82
873.634	28.42
874.067	29.22
874.501	27.22
874.935	34.72
875.368	30.92
875.802	24.62
876.235	20.12
876.669	21.32
877.102	20.42
877.535	23.92
877.969	23.82
878.402	18.62
878.836	16.32
879.269	20.02
879.702	24.72
880.135	23.62
880.569	21.02
881.002	33.52
881.435	25.02
881.868	18.32
882.301	19.22
882.734	20.12
883.167	23.12
883.601	23.62
884.034	26.22
884.467	10.42
884.899	18.62
885.332	19.12
885.765	10.82
886.198	15.82
886.631	19.42
887.064	21.92
887.497	18.02
887.929	23.22
888.362	15.02
888.795	15.42
889.228	17.22
889.66	19.72
890.093	19.32
890.526	20.82
890.958	14.32
891.391	19.12
891.823	19.72
892.256	11.72
892.688	11.72
893.121	13.22
893.553	12.42
893.985	16.22
894.418	15.82
894.85	9.42
895.282	16.12
895.715	15.82
896.147	12.12
896.579	14.02
897.011	15.72
897.444	16.32
897.876	16.22
898.308	11.82
898.74	15.22
899.172	12.82
899.604	22.32
900.036	16.02
900.468	9.92
900.9	16.12
901.332	19.02
901.764	13.82
902.196	13.62
902.628	17.62
903.06	18.62
903.491	34.52
903.923	20.12
904.355	18.92
904.787	27.62
905.218	25.22
905.65	23.02
906.082	20.52
906.513	15.72
906.945	20.82
907.376	19.82
907.808	15.92
908.239	18.52
908.671	19.22
909.102	27.12
909.534	22.92
909.965	44.82
910.397	97.02
910.828	312.92
911.259	464.82
911.691	208.52
912.122	106.62
912.553	50.82
912.984	33.12
913.415	21.52
913.847	24.42
914.278	20.12
914.709	18.52
915.14	13.32
915.571	12.62
916.002	12.32
916.433	17.32
916.864	16.12
917.295	2.52
917.726	13.72
918.157	15.92
918.587	24.32
919.018	19.72
919.449	22.42
919.88	26.32
920.311	24.32
920.741	52.42
921.172	171.62
921.603	144.62
922.033	70.22
922.464	43.32
922.895	21.22
923.325	21.92
923.756	18.62
924.186	16.82
924.617	22.62
925.047	36.02
925.478	54.02
925.908	42.82
926.338	24.82
926.769	17.62
927.199	17.32
927.629	9.32
928.06	16.42
928.49	12.02
928.92	13.22
929.35	12.92
929.78	10.22
930.21	4.52
930.641	6.72
931.071	7.52
931.501	3.12
931.931	9.52
932.361	6.82
932.791	7.12
933.221	6.62
933.651	4.32
934.08	18.72
934.51	26.72
934.94	12.32
935.37	9.12
935.8	8.82
936.229	9.72
936.659	14.42
937.089	-2.88
937.519	13.42
937.948	21.42
938.378	14.92
938.807	8.32
939.237	-0.78
939.666	9.92
940.096	-2.58
940.525	-1.78
940.955	4.72
941.384	-2.38
941.814	-5.28
942.243	-1.58
942.672	1.32
943.102	-1.58
943.531	3.12
943.96	5.22
944.39	-2.48
944.819	-2.18
945.248	2.42
945.677	1.72
946.106	0.42
946.535	3.02
946.964	-2.88
947.393	5.92
947.822	-0.98
948.251	-6.48
948.68	1.12
949.109	3.02
949.538	6.92
949.967	3.02
950.396	2.92
950.825	-2.58
951.254	-2.28
951.682	-11.38
952.111	6.92
952.54	0.72
952.969	-9.88
953.397	-5.78
953.826	1.72
954.254	-8.08
954.683	-0.68
955.112	-6.68
955.54	-2.88
955.969	-1.88
956.397	0.32
956.826	-9.68
957.254	-2.48
957.682	-5.08
958.111	-1.08
958.539	1.32
958.967	1.62
959.396	-8.98
959.824	-3.58
960.252	3.42
960.68	-7.68
961.109	-3.88
961.537	-7.08
961.965	-6.18
962.393	-2.78
962.821	-1.58
963.249	-0.28
963.677	0.82
964.105	9.82
964.533	47.12
964.961	37.22
965.389	23.22
965.817	6.82
966.245	3.92
966.672	-1.08
967.1	-7.68
967.528	-7.18
967.956	-2.18
968.383	-0.08
968.811	-1.68
969.239	0.32
969.666	-1.28
970.094	-3.08
970.522	-3.08
970.949	-4.58
971.377	-7.98
971.804	-5.48
972.232	1.52
972.659	-5.78
973.087	-11.28
973.514	-3.38
973.941	-1.38
974.369	4.32
974.796	-1.78
975.223	0.12
975.651	0.32
976.078	2.42
976.505	-2.68
976.932	0.32
977.359	17.12
977.786	10.42
978.214	2.32
978.641	-0.18
979.068	-2.48
979.495	-5.78
979.922	-0.08
980.349	-1.08
980.776	1.32
981.202	3.32
981.629	0.92
982.056	3.92
982.483	-8.58
982.91	3.92
983.337	-4.68
983.763	2.62
984.19	-5.28
984.617	-2.68
985.043	-6.38
985.47	-7.28
985.897	-4.88
986.323	-11.78
986.75	-1.78
987.176	-3.38
987.603	-1.78
988.029	3.02
988.456	-0.28
988.882	1.52
989.308	-13.58
989.735	-4.88
990.161	0.22
990.587	-8.68
991.014	-3.08
991.44	4.12
991.866	-2.18
992.292	-2.88
992.719	-4.78
993.145	3.92
993.571	-7.18
993.997	-8.98
994.423	1.32
994.849	-6.18
995.275	5.12
995.701	1.72
996.127	-5.58
996.553	2.72
996.979	-3.68
997.405	1.22
997.83	-1.58
998.256	-12.38
998.682	-4.88
999.108	-10.28
999.534	-4.08
999.959	-0.68
1000.385	-11.18
1000.811	-3.58
1001.236	-5.08
1001.662	-6.88
1002.087	-8.48
1002.513	0.02
1002.938	0.02
1003.364	-0.18
1003.789	-1.18
1004.215	6.22
1004.64	-1.08
1005.066	-1.98
1005.491	-5.08
1005.916	-1.18
1006.342	-0.48
1006.767	-9.68
1007.192	4.02
1007.617	-3.38
1008.042	-4.38
1008.468	-8.98
1008.893	-7.68
1009.318	-3.38
1009.743	-2.78
1010.168	2.52
1010.593	0.02
1011.018	-8.08
1011.443	-0.48
1011.868	-0.48
1012.293	-2.28
1012.718	-6.38
1013.143	1.52
1013.567	-0.98
1013.992	-5.28
1014.417	-13.38
1014.842	-1.58
1015.267	0.12
1015.691	-6.38
1016.116	0.32
1016.541	4.22
1016.965	4.12
1017.39	6.22
1017.814	-3.78
1018.239	-0.98
1018.663	-10.48
1019.088	-4.58
1019.512	-2.18
1019.937	-2.58
1020.361	-5.88
1020.785	-12.38
1021.21	-3.28
1021.634	0.42
1022.058	-0.48
1022.483	5.82
1022.907	-10.48
1023.331	-5.98
1023.755	-9.38
1024.179	-2.78
1024.604	-6.58
1025.028	-4.18
1025.452	-3.28
1025.876	1.42
1026.3	-1.08
1026.724	-9.08
1027.148	-4.48
1027.572	-3.38
1027.996	-4.78
1028.42	-2.78
1028.843	-10.18
1029.267	-8.88
1029.691	-6.68
1030.115	-4.58
1030.539	-5.98
1030.962	-6.38
1031.386	-7.68
1031.81	1.32
1032.233	-3.88
1032.657	3.42
1033.08	-6.38
1033.504	-5.18
1033.927	-6.48
1034.351	-0.08
1034.774	-7.68
1035.198	-4.08
1035.621	-4.48
1036.045	-10.48
1036.468	-3.08
1036.891	-15.18
1037.315	-9.18
1037.738	-11.48
1038.161	2.22
1038.584	-8.98
1039.008	-9.18
1039.431	-10.08
1039.854	-6.78
1040.277	-9.18
1040.7	-12.88
1041.123	-2.18
1041.546	-3.78
1041.969	-2.78
1042.392	-13.08
1042.815	-9.28
1043.238	2.52
1043.661	-3.98
1044.084	-6.08
1044.507	-5.88
1044.93	-8.78
1045.352	-5.18
1045.775	-6.18
1046.198	-1.78
1046.621	-2.18
1047.043	-5.58
1047.466	2.62
1047.889	2.52
1048.311	-8.98
1048.734	-2.88
1049.156	-3.58
1049.579	-5.88
1050.001	-3.08
1050.424	-2.78
1050.846	-7.08
1051.269	-8.98
1051.691	-4.98
1052.113	-2.98
1052.536	-4.48
1052.958	-4.78
1053.38	-8.68
1053.802	-9.18
1054.225	2.02
1054.647	-12.58
1055.069	-2.18
1055.491	1.52
1055.913	-13.68
1056.335	-8.58
1056.757	-10.28
1057.179	-8.98
1057.601	-9.28
1058.023	-9.38
1058.445	-6.38
1058.867	-7.28
1059.289	-1.68
1059.711	-8.38
1060.133	-2.38
1060.555	-2.48
1060.976	-3.78
1061.398	-7.38
1061.82	-4.18
1062.241	-1.98
1062.663	-6.18
1063.085	-6.28
1063.506	0.32
1063.928	-3.08
1064.35	-0.18
1064.771	-9.48
1065.193	-2.58
1065.614	-9.18
1066.035	-0.18
1066.457	-6.58
1066.878	3.12
1067.3	-6.28
1067.721	-4.38
1068.142	-7.78
1068.564	-2.88
1068.985	-4.38
1069.406	-4.48
1069.827	-6.18
1070.248	-8.98
1070.67	-6.28
1071.091	-11.18
1071.512	-4.18
1071.933	-8.78
1072.354	-5.88
1072.775	-9.38
1073.196	-8.78
1073.617	-1.28
1074.038	-13.18
1074.459	-6.58
1074.88	-10.68
1075.3	0.62
1075.721	-8.58
1076.142	-5.08
1076.563	0.82
1076.983	-11.78
1077.404	-6.98
1077.825	-10.48
1078.246	-5.08
1078.666	-10.78
1079.087	-8.58
1079.507	-6.88
1079.928	-3.78
1080.348	-4.98
1080.769	-13.08
1081.189	-1.88
1081.61	-6.98
1082.03	-10.28
1082.451	-6.68
1082.871	-0.68
1083.291	-2.68
1083.711	-13.18
1084.132	-5.28
1084.552	-7.38
1084.972	-1.78
1085.392	-8.98
1085.813	-12.68
1086.233	-8.18
1086.653	-2.98
1087.073	-3.98
1087.493	-4.48
1087.913	-10.08
1088.333	-9.78
1088.753	-0.48
1089.173	-0.88
1089.593	-2.78
1090.013	-2.48
1090.433	-0.18
1090.852	-1.58
1091.272	-2.88
1091.692	-0.08
1092.112	0.22
1092.531	-10.08
1092.951	-18.08
1093.371	-1.38
1093.79	-1.18
1094.21	-2.98
1094.63	-4.68
1095.049	-5.78
1095.469	-7.98
1095.888	-3.88
1096.308	2.82
1096.727	-2.18
1097.146	-3.98
1097.566	-1.18
1097.985	-5.48
1098.405	-6.88
1098.824	-2.88
1099.243	-6.88
1099.662	-14.08
1100.082	-5.48
1100.501	-0.98
1100.92	-9.48
1101.339	-5.48
1101.758	-10.18
