Data from 20171114-ORNL-Ar_H_NY_Subt18_08-09-28-328.txt Node
Date: Tue Nov 14 08:09:28 EST 2017
User: Ender
Spectrometer: HR+D1039
Trigger mode: 0
Integration Time (sec): 2.730000E-2
Scans to average: 10
Electric dark correction enabled: true
Nonlinearity correction enabled: false
Boxcar width: 0
XAxis mode: Wavelengths
Number of Pixels in Spectrum: 2048
>>>>>Begin Spectral Data<<<<<
187.836	-3.08
188.309	-3.08
188.782	-3.08
189.255	0.22
189.728	0.92
190.201	6.12
190.674	-3.18
191.147	0.92
191.619	-11.38
192.092	0.02
192.565	4.12
193.038	1.92
193.511	-3.68
193.984	6.52
194.456	-3.78
194.929	2.12
195.402	-0.48
195.874	2.72
196.347	-1.98
196.82	-2.18
197.292	5.22
197.765	-2.38
198.237	-7.88
198.71	7.02
199.182	-5.58
199.655	0.12
200.127	3.42
200.6	4.12
201.072	-0.48
201.544	-2.78
202.017	-2.88
202.489	-1.88
202.961	-7.08
203.433	-2.88
203.906	-4.08
204.378	-0.28
204.85	-7.08
205.322	-10.78
205.794	-6.48
206.266	0.22
206.739	-6.88
207.211	-3.08
207.683	-9.28
208.155	-7.38
208.627	-8.18
209.099	-3.98
209.57	-4.68
210.042	-1.38
210.514	-6.38
210.986	-0.78
211.458	-10.98
211.93	-2.28
212.402	-1.68
212.873	-5.98
213.345	-10.58
213.817	-13.38
214.288	-2.68
214.76	-12.38
215.232	-2.18
215.703	-11.98
216.175	-5.58
216.646	-11.48
217.118	-4.88
217.589	-2.98
218.061	-5.68
218.532	-7.78
219.004	-7.48
219.475	-2.18
219.946	-7.38
220.418	-3.68
220.889	1.22
221.36	-0.98
221.832	-5.58
222.303	-10.88
222.774	3.22
223.245	-10.38
223.717	-5.58
224.188	-12.48
224.659	-11.38
225.13	-6.78
225.601	-1.98
226.072	1.22
226.543	-0.38
227.014	0.22
227.485	-4.78
227.956	-6.78
228.427	-4.08
228.898	1.42
229.369	-1.78
229.839	-1.18
230.31	-8.78
230.781	1.12
231.252	-4.78
231.722	-5.08
232.193	-9.38
232.664	-2.48
233.135	1.32
233.605	-5.78
234.076	-5.38
234.546	0.22
235.017	1.32
235.487	-3.98
235.958	-3.28
236.428	-6.98
236.899	-6.08
237.369	1.92
237.84	-10.88
238.31	-1.58
238.78	-2.68
239.251	-6.28
239.721	-7.78
240.191	-8.08
240.662	-4.68
241.132	-5.18
241.602	-8.28
242.072	-5.58
242.542	2.32
243.013	-6.68
243.483	0.62
243.953	-0.78
244.423	-2.48
244.893	-10.68
245.363	-5.08
245.833	-2.98
246.303	-8.58
246.773	4.72
247.243	0.12
247.712	-4.18
248.182	-0.88
248.652	-3.78
249.122	-8.88
249.592	-6.78
250.061	3.22
250.531	10.32
251.001	-1.98
251.471	-0.18
251.94	6.42
252.41	1.72
252.879	-9.28
253.349	5.62
253.818	2.72
254.288	4.22
254.757	3.22
255.227	-3.98
255.696	-3.38
256.166	-0.78
256.635	-1.38
257.105	2.42
257.574	-4.58
258.043	0.72
258.513	-2.98
258.982	0.52
259.451	-10.28
259.92	-0.48
260.389	-1.38
260.859	5.12
261.328	2.32
261.797	2.92
262.266	-4.68
262.735	2.92
263.204	-0.98
263.673	0.52
264.142	-1.18
264.611	-6.28
265.08	-4.08
265.549	-6.68
266.018	1.52
266.487	-13.98
266.955	-10.78
267.424	-2.58
267.893	3.62
268.362	-4.58
268.83	-0.08
269.299	6.22
269.768	1.82
270.236	-1.98
270.705	-4.58
271.174	-4.58
271.642	3.62
272.111	-4.28
272.579	1.12
273.048	1.32
273.516	4.52
273.985	3.52
274.453	4.72
274.922	12.12
275.39	1.42
275.858	-5.28
276.327	6.22
276.795	11.82
277.263	3.42
277.731	5.62
278.2	6.82
278.668	11.42
279.136	14.42
279.604	1.32
280.072	10.12
280.54	2.62
281.008	-1.88
281.477	8.92
281.945	4.12
282.413	8.42
282.881	5.62
283.348	-0.58
283.816	6.82
284.284	11.22
284.752	15.32
285.22	11.72
285.688	8.82
286.156	11.02
286.623	13.02
287.091	10.02
287.559	3.42
288.026	2.72
288.494	7.82
288.962	-2.98
289.429	-3.38
289.897	17.82
290.364	6.92
290.832	7.42
291.3	3.52
291.767	7.82
292.234	14.82
292.702	5.22
293.169	19.02
293.637	11.52
294.104	9.52
294.571	-0.98
295.039	12.12
295.506	2.72
295.973	8.52
296.44	5.82
296.908	4.02
297.375	8.22
297.842	13.12
298.309	2.52
298.776	-0.28
299.243	9.82
299.71	-0.18
300.177	10.02
300.644	6.72
301.111	6.52
301.578	11.72
302.045	7.02
302.512	11.62
302.979	15.02
303.446	8.32
303.913	5.52
304.379	7.32
304.846	14.62
305.313	13.12
305.78	14.62
306.246	13.52
306.713	16.52
307.18	9.82
307.646	18.22
308.113	19.52
308.579	13.92
309.046	17.12
309.512	14.52
309.979	9.12
310.445	17.42
310.912	16.62
311.378	18.32
311.845	21.62
312.311	18.42
312.777	14.52
313.244	17.82
313.71	27.12
314.176	21.72
314.642	13.12
315.109	17.62
315.575	19.12
316.041	30.22
316.507	16.42
316.973	22.12
317.439	24.12
317.905	23.32
318.371	22.52
318.837	21.12
319.303	24.12
319.769	18.12
320.235	22.42
320.701	27.52
321.167	22.02
321.633	18.62
322.099	19.12
322.564	29.22
323.03	23.82
323.496	24.32
323.962	26.42
324.427	21.72
324.893	31.22
325.359	26.42
325.824	29.82
326.29	24.52
326.755	27.72
327.221	23.22
327.686	28.82
328.152	31.22
328.617	29.62
329.083	35.82
329.548	35.22
330.014	32.72
330.479	26.22
330.944	28.22
331.41	29.62
331.875	30.62
332.34	29.62
332.805	27.92
333.271	24.42
333.736	30.02
334.201	37.42
334.666	38.22
335.131	36.02
335.596	31.22
336.061	41.52
336.526	29.62
336.991	36.32
337.456	38.22
337.921	34.72
338.386	31.92
338.851	36.22
339.316	33.72
339.781	36.52
340.246	44.82
340.711	34.62
341.175	34.62
341.64	35.82
342.105	35.52
342.569	40.42
343.034	42.72
343.499	42.32
343.963	39.12
344.428	47.62
344.893	41.02
345.357	41.82
345.822	42.92
346.286	50.72
346.751	49.02
347.215	55.12
347.679	55.62
348.144	63.72
348.608	66.92
349.073	45.62
349.537	62.32
350.001	54.92
350.465	68.72
350.93	62.92
351.394	56.12
351.858	53.82
352.322	63.42
352.786	65.12
353.25	74.92
353.715	75.62
354.179	72.32
354.643	90.12
355.107	92.02
355.571	82.72
356.035	77.92
356.498	86.42
356.962	83.62
357.426	94.92
357.89	87.42
358.354	68.22
358.818	71.42
359.281	64.02
359.745	61.92
360.209	63.52
360.673	54.32
361.136	65.02
361.6	66.72
362.064	70.52
362.527	66.92
362.991	73.22
363.454	64.12
363.918	63.12
364.381	61.22
364.845	62.22
365.308	64.12
365.772	76.72
366.235	73.32
366.698	59.52
367.162	64.02
367.625	72.22
368.088	73.42
368.552	71.22
369.015	69.42
369.478	76.32
369.941	80.32
370.404	74.52
370.867	75.62
371.331	87.82
371.794	88.52
372.257	78.92
372.72	92.02
373.183	89.32
373.646	79.52
374.109	77.02
374.572	83.82
375.035	83.32
375.497	87.02
375.96	85.72
376.423	88.82
376.886	93.32
377.349	92.62
377.811	82.02
378.274	82.52
378.737	91.72
379.199	90.92
379.662	97.42
380.125	94.52
380.587	98.12
381.05	93.02
381.512	101.52
381.975	108.02
382.437	104.92
382.9	105.12
383.362	102.62
383.825	111.52
384.287	113.42
384.75	105.92
385.212	106.62
385.674	114.82
386.136	118.72
386.599	110.02
387.061	114.22
387.523	103.42
387.985	109.42
388.447	114.42
388.91	114.42
389.372	117.92
389.834	122.22
390.296	116.82
390.758	113.22
391.22	126.12
391.682	131.52
392.144	158.62
392.606	139.42
393.068	130.22
393.529	136.72
393.991	123.32
394.453	123.32
394.915	122.42
395.377	124.72
395.838	130.92
396.3	124.92
396.762	125.82
397.224	129.72
397.685	115.82
398.147	124.72
398.608	118.52
399.07	114.82
399.531	129.12
399.993	127.72
400.454	135.12
400.916	132.22
401.377	127.82
401.839	131.72
402.3	136.82
402.762	151.82
403.223	160.22
403.684	156.62
404.145	139.42
404.607	149.52
405.068	145.82
405.529	153.12
405.99	161.62
406.451	159.02
406.913	161.42
407.374	157.22
407.835	152.32
408.296	155.12
408.757	153.22
409.218	163.92
409.679	162.92
410.14	159.62
410.601	162.32
411.062	171.02
411.522	168.82
411.983	166.12
412.444	163.02
412.905	168.52
413.366	167.72
413.826	192.62
414.287	206.32
414.748	251.42
415.208	237.42
415.669	201.22
416.13	198.72
416.59	199.02
417.051	205.82
417.511	209.82
417.972	227.82
418.432	236.42
418.893	278.32
419.353	238.12
419.814	190.02
420.274	175.72
420.734	175.12
421.195	188.02
421.655	184.62
422.115	184.22
422.576	186.12
423.036	184.72
423.496	193.72
423.956	205.02
424.416	219.72
424.876	252.32
425.336	244.32
425.797	241.62
426.257	240.62
426.717	223.02
427.177	221.22
427.637	209.52
428.097	220.12
428.556	230.02
429.016	249.42
429.476	247.72
429.936	257.92
430.396	259.92
430.856	263.52
431.315	295.22
431.775	322.32
432.235	348.42
432.694	328.12
433.154	333.52
433.614	363.02
434.073	319.62
434.533	272.02
434.993	255.72
435.452	274.12
435.912	273.92
436.371	268.22
436.83	263.12
437.29	247.82
437.749	234.22
438.209	235.52
438.668	255.42
439.127	266.22
439.587	249.62
440.046	235.12
440.505	248.22
440.964	250.22
441.424	302.62
441.883	291.02
442.342	247.32
442.801	217.72
443.26	223.32
443.719	218.22
444.178	216.22
444.637	206.22
445.096	217.82
445.555	216.72
446.014	222.62
446.473	221.22
446.932	230.32
447.391	218.12
447.849	234.52
448.308	218.22
448.767	224.02
449.226	230.52
449.685	225.02
450.143	251.42
450.602	232.92
451.061	224.72
451.519	225.82
451.978	228.12
452.436	221.92
452.895	229.72
453.353	247.52
453.812	233.72
454.27	238.22
454.729	232.82
455.187	236.72
455.646	240.42
456.104	240.92
456.562	251.52
457.021	259.22
457.479	245.92
457.937	265.22
458.395	258.92
458.854	242.12
459.312	258.32
459.77	270.52
460.228	253.82
460.686	243.82
461.144	248.42
461.602	241.72
462.06	240.52
462.518	254.52
462.976	257.72
463.434	258.02
463.892	257.32
464.35	271.52
464.808	287.92
465.266	253.42
465.724	265.82
466.181	273.32
466.639	272.32
467.097	287.72
467.555	292.92
468.012	297.62
468.47	306.82
468.928	324.42
469.385	333.82
469.843	336.52
470.3	341.12
470.758	355.02
471.215	367.12
471.673	388.72
472.13	385.02
472.588	403.02
473.045	366.92
473.503	369.42
473.96	384.42
474.417	391.92
474.875	429.02
475.332	463.52
475.789	461.82
476.246	457.92
476.704	468.92
477.161	489.72
477.618	514.12
478.075	548.62
478.532	594.62
478.989	655.22
479.446	768.92
479.903	719.32
480.36	757.02
480.817	805.02
481.274	895.32
481.731	986.82
482.188	1047.92
482.645	1175.82
483.102	1273.82
483.558	1383.32
484.015	1418.42
484.472	1387.72
484.929	1357.22
485.385	1316.32
485.842	1281.22
486.299	1226.22
486.755	1189.32
487.212	1016.72
487.668	866.02
488.125	808.92
488.582	737.32
489.038	717.02
489.494	691.62
489.951	658.52
490.407	635.22
490.864	626.42
491.32	622.92
491.776	620.22
492.233	636.92
492.689	586.82
493.145	585.62
493.602	589.52
494.058	594.72
494.514	601.22
494.97	620.92
495.426	634.92
495.882	609.92
496.338	598.42
496.794	599.52
497.251	598.92
497.707	616.22
498.163	630.22
498.618	627.12
499.074	627.92
499.53	653.72
499.986	643.12
500.442	631.42
500.898	613.92
501.354	603.72
501.809	620.92
502.265	618.22
502.721	617.62
503.177	627.32
503.632	625.02
504.088	631.52
504.543	660.82
504.999	683.32
505.455	648.02
505.91	632.62
506.366	627.22
506.821	629.92
507.277	614.52
507.732	621.42
508.187	625.42
508.643	633.12
509.098	629.72
509.553	657.12
510.009	660.32
510.464	665.82
510.919	684.92
511.375	676.42
511.83	705.32
512.285	709.72
512.74	748.32
513.195	764.52
513.65	771.52
514.105	750.22
514.56	761.82
515.015	772.82
515.47	784.42
515.925	773.52
516.38	769.52
516.835	782.22
517.29	766.82
517.745	763.52
518.2	753.42
518.655	742.32
519.109	734.72
519.564	729.02
520.019	719.22
520.474	712.42
520.928	717.62
521.383	715.72
521.838	708.52
522.292	712.32
522.747	704.82
523.201	702.02
523.656	696.72
524.11	690.92
524.565	688.12
525.019	689.42
525.474	696.02
525.928	699.12
526.382	694.22
526.837	693.82
527.291	703.72
527.745	688.32
528.2	697.52
528.654	677.52
529.108	676.92
529.562	683.32
530.016	687.42
530.47	681.32
530.925	680.12
531.379	686.02
531.833	694.42
532.287	694.62
532.741	688.12
533.195	688.72
533.649	705.42
534.103	715.12
534.556	697.32
535.01	703.62
535.464	696.92
535.918	699.12
536.372	711.52
536.826	706.82
537.279	697.92
537.733	699.92
538.187	716.62
538.64	703.22
539.094	721.42
539.548	723.92
540.001	714.02
540.455	720.22
540.908	729.32
541.362	733.62
541.815	736.22
542.269	753.42
542.722	750.42
543.175	761.42
543.629	767.22
544.082	796.72
544.536	785.72
544.989	774.42
545.442	794.32
545.895	787.42
546.349	791.32
546.802	786.42
547.255	799.32
547.708	801.52
548.161	813.52
548.614	812.82
549.067	829.72
549.52	819.52
549.973	805.22
550.426	815.72
550.879	802.62
551.332	801.12
551.785	803.92
552.238	817.12
552.691	815.72
553.144	841.62
553.596	838.02
554.049	858.42
554.502	887.72
554.955	913.02
555.407	910.72
555.86	896.72
556.313	892.12
556.765	873.32
557.218	888.12
557.67	880.72
558.123	874.12
558.576	859.42
559.028	865.62
559.48	877.72
559.933	871.82
560.385	837.22
560.838	806.32
561.29	788.72
561.742	782.52
562.195	764.42
562.647	768.22
563.099	780.52
563.551	774.92
564.004	785.52
564.456	774.82
564.908	773.42
565.36	743.92
565.812	728.52
566.264	720.72
566.716	713.92
567.168	700.72
567.62	710.62
568.072	697.92
568.524	694.82
568.976	693.82
569.428	683.72
569.88	675.62
570.332	681.62
570.784	690.72
571.235	689.42
571.687	701.52
572.139	698.32
572.59	719.62
573.042	716.92
573.494	715.62
573.945	705.82
574.397	687.32
574.849	688.12
575.3	687.82
575.752	688.92
576.203	679.52
576.655	687.62
577.106	668.72
577.557	669.82
578.009	671.32
578.46	657.82
578.912	671.72
579.363	678.72
579.814	669.42
580.265	662.52
580.717	666.12
581.168	669.72
581.619	675.82
582.07	684.82
582.521	676.62
582.972	673.32
583.423	680.62
583.875	683.72
584.326	696.92
584.777	710.92
585.227	723.92
585.678	765.52
586.129	782.72
586.58	816.92
587.031	845.82
587.482	895.72
587.933	953.92
588.384	897.02
588.834	818.52
589.285	784.42
589.736	779.22
590.186	770.02
590.637	769.62
591.088	756.22
591.538	739.62
591.989	732.12
592.439	732.12
592.89	717.62
593.34	712.42
593.791	707.62
594.241	698.32
594.692	705.92
595.142	701.82
595.593	692.62
596.043	707.62
596.493	717.32
596.943	716.02
597.394	733.82
597.844	731.22
598.294	740.72
598.744	761.52
599.195	788.62
599.645	825.12
600.095	872.32
600.545	934.32
600.995	977.62
601.445	1049.52
601.895	1103.12
602.345	1150.82
602.795	1121.92
603.245	1086.12
603.695	1017.82
604.145	972.62
604.594	920.12
605.044	859.52
605.494	815.12
605.944	762.62
606.393	749.92
606.843	744.42
607.293	739.42
607.743	726.12
608.192	745.32
608.642	755.82
609.091	772.32
609.541	762.62
609.99	763.12
610.44	775.12
610.889	726.02
611.339	704.02
611.788	688.12
612.238	704.52
612.687	702.42
613.136	704.62
613.586	716.82
614.035	710.32
614.484	723.72
614.933	716.12
615.383	713.92
615.832	706.12
616.281	710.02
616.73	680.92
617.179	655.12
617.628	651.12
618.077	633.32
618.526	619.32
618.975	623.62
619.424	624.72
619.873	611.12
620.322	626.42
620.771	604.22
621.22	611.72
621.669	592.12
622.118	598.12
622.567	587.02
623.015	569.32
623.464	570.52
623.913	573.62
624.361	558.82
624.81	554.82
625.259	554.02
625.707	562.62
626.156	562.92
626.604	574.12
627.053	567.32
627.501	571.32
627.95	567.22
628.398	577.02
628.847	573.52
629.295	572.72
629.744	581.52
630.192	571.72
630.64	561.52
631.089	560.72
631.537	553.12
631.985	539.72
632.433	553.12
632.881	546.52
633.33	560.92
633.778	540.12
634.226	535.72
634.674	547.12
635.122	547.82
635.57	567.82
636.018	581.62
636.466	574.62
636.914	563.42
637.362	576.02
637.81	577.92
638.258	585.92
638.705	594.82
639.153	619.92
639.601	637.22
640.049	649.72
640.497	688.32
640.944	699.52
641.392	658.92
641.84	617.72
642.287	596.42
642.735	572.22
643.182	566.42
643.63	571.92
644.078	567.82
644.525	591.42
644.973	579.22
645.42	598.12
645.867	620.42
646.315	637.22
646.762	661.62
647.21	689.82
647.657	712.52
648.104	740.02
648.551	762.22
648.999	822.12
649.446	898.92
649.893	972.42
650.34	1124.42
650.787	1340.52
651.234	1662.32
651.682	2142.72
652.129	2925.92
652.576	4172.82
653.023	6066.62
653.47	8179.02
653.917	10037.02
654.363	11530.62
654.81	12627.62
655.257	11954.72
655.704	7897.92
656.151	4746.32
656.598	3124.22
657.044	2241.02
657.491	1742.82
657.938	1400.62
658.385	1172.92
658.831	1036.52
659.278	920.52
659.724	835.12
660.171	769.82
660.618	715.42
661.064	685.02
661.511	664.82
661.957	648.02
662.404	641.62
662.85	646.62
663.296	627.12
663.743	565.52
664.189	535.92
664.635	528.82
665.082	526.32
665.528	532.52
665.974	518.82
666.42	521.92
666.867	511.22
667.313	488.72
667.759	476.12
668.205	459.72
668.651	458.32
669.097	451.52
669.543	462.32
669.989	459.62
670.435	451.22
670.881	454.92
671.327	457.72
671.773	480.32
672.219	507.92
672.665	557.72
673.11	593.02
673.556	641.92
674.002	680.42
674.448	666.72
674.893	563.32
675.339	484.92
675.785	451.42
676.23	427.92
676.676	403.02
677.122	388.82
677.567	384.32
678.013	382.82
678.458	366.22
678.904	365.32
679.349	351.12
679.794	369.42
680.24	361.72
680.685	359.42
681.131	358.02
681.576	362.42
682.021	362.92
682.466	357.62
682.912	344.72
683.357	363.12
683.802	392.52
684.247	426.62
684.692	474.32
685.137	508.62
685.583	547.62
686.028	571.12
686.473	534.62
686.918	462.22
687.363	425.92
687.807	403.32
688.252	377.42
688.697	364.02
689.142	341.82
689.587	342.32
690.032	333.02
690.477	353.22
690.921	370.12
691.366	395.12
691.811	423.72
692.255	443.02
692.7	475.72
693.145	530.72
693.589	752.62
694.034	1217.52
694.478	1622.42
694.923	1766.12
695.367	2284.82
695.812	1228.62
696.256	509.82
696.701	383.02
697.145	351.32
697.59	344.62
698.034	324.82
698.478	343.62
698.922	333.92
699.367	334.82
699.811	341.52
700.255	359.32
700.699	394.62
701.143	436.42
701.588	486.82
702.032	531.82
702.476	533.82
702.92	504.52
703.364	517.92
703.808	681.82
704.252	1113.12
704.696	1520.42
705.14	1708.22
705.584	2167.22
706.027	1091.62
706.471	546.02
706.915	409.12
707.359	366.62
707.803	327.22
708.246	317.82
708.69	326.62
709.134	323.12
709.577	316.92
710.021	323.32
710.465	321.62
710.908	311.92
711.352	311.12
711.795	317.62
712.239	358.12
712.682	405.82
713.126	425.32
713.569	473.72
714.012	370.22
714.456	311.22
714.899	299.42
715.342	286.72
715.786	261.22
716.229	268.72
716.672	260.12
717.115	255.42
717.558	257.92
718.002	260.12
718.445	269.82
718.888	294.92
719.331	306.22
719.774	313.72
720.217	307.82
720.66	289.02
721.103	269.62
721.546	264.62
721.989	255.62
722.432	239.72
722.874	242.92
723.317	238.52
723.76	238.52
724.203	262.92
724.645	332.32
725.088	468.52
725.531	589.12
725.974	655.72
726.416	562.22
726.859	314.92
727.301	246.02
727.744	252.42
728.187	235.52
728.629	240.32
729.071	255.32
729.514	270.92
729.956	282.02
730.399	294.22
730.841	294.32
731.283	291.82
731.726	272.92
732.168	267.02
732.61	273.42
733.053	303.02
733.495	331.72
733.937	370.72
734.379	417.32
734.821	462.42
735.263	576.62
735.705	924.62
736.148	1739.82
736.59	2735.52
737.032	3116.82
737.474	2563.22
737.916	842.02
738.357	452.42
738.799	340.02
739.241	305.72
739.683	291.02
740.125	304.32
740.567	308.52
741.008	327.62
741.45	332.92
741.892	327.92
742.334	364.12
742.775	370.82
743.217	354.62
743.658	284.12
744.1	267.82
744.542	277.72
744.983	334.12
745.425	361.22
745.866	356.92
746.307	292.32
746.749	288.92
747.19	343.42
747.632	502.12
748.073	987.42
748.514	2038.82
748.956	2993.02
749.397	3779.12
749.838	3109.72
750.279	3011.02
750.72	1549.62
751.162	576.32
751.603	335.72
752.044	263.12
752.485	222.32
752.926	219.22
753.367	213.92
753.808	203.22
754.249	206.82
754.69	198.52
755.131	190.52
755.572	184.42
756.013	184.22
756.453	187.12
756.894	191.02
757.335	202.02
757.776	200.32
758.216	205.22
758.657	206.82
759.098	213.52
759.538	237.42
759.979	275.12
760.42	405.72
760.86	790.52
761.301	2072.22
761.741	4808.42
762.182	6572.82
762.622	4624.22
763.063	1376.72
763.503	557.72
763.943	345.62
764.384	286.02
764.824	272.12
765.264	272.52
765.705	230.02
766.145	190.32
766.585	178.22
767.025	175.72
767.465	169.22
767.906	195.02
768.346	220.12
768.786	227.72
769.226	240.92
769.666	331.72
770.106	683.92
770.546	1718.22
770.986	2730.92
771.426	2401.22
771.866	832.72
772.306	350.22
772.745	221.32
773.185	170.72
773.625	169.72
774.065	159.22
774.505	171.62
774.944	235.42
775.384	411.72
775.824	649.52
776.263	629.72
776.703	308.32
777.142	175.52
777.582	134.72
778.021	127.62
778.461	127.72
778.9	131.42
779.34	128.72
779.779	112.92
780.219	111.72
780.658	107.02
781.097	114.52
781.537	112.62
781.976	111.02
782.415	105.02
782.855	110.62
783.294	106.72
783.733	103.62
784.172	112.52
784.611	103.12
785.05	113.72
785.489	117.92
785.928	126.32
786.367	115.22
786.806	124.02
787.245	134.12
787.684	137.32
788.123	150.72
788.562	138.42
789.001	134.02
789.44	124.12
789.879	116.32
790.317	115.42
790.756	137.72
791.195	131.02
791.634	148.42
792.072	218.32
792.511	401.82
792.95	1121.02
793.388	2213.92
793.827	1937.02
794.265	696.72
794.704	293.82
795.142	193.42
795.581	155.92
796.019	139.62
796.458	134.42
796.896	131.22
797.334	139.52
797.773	170.22
798.211	236.82
798.649	493.82
799.087	1094.42
799.526	1687.42
799.964	2139.12
800.402	2045.52
800.84	788.32
801.278	317.02
801.716	190.42
802.154	161.92
802.592	156.02
803.03	145.12
803.468	143.02
803.906	149.42
804.344	156.42
804.782	149.02
805.22	136.82
805.658	142.62
806.096	150.92
806.533	163.02
806.971	180.22
807.409	233.12
807.847	338.52
808.284	747.62
808.722	2038.32
809.16	3435.72
809.597	3424.62
810.035	5793.52
810.472	5884.22
810.91	2180.72
811.347	845.62
811.785	424.72
812.222	271.42
812.66	202.62
813.097	170.12
813.535	147.52
813.972	131.42
814.409	123.92
814.846	112.92
815.284	122.72
815.721	106.42
816.158	109.42
816.595	119.02
817.032	160.82
817.47	177.02
817.907	130.52
818.344	111.02
818.781	102.02
819.218	99.72
819.655	130.72
820.092	197.32
820.529	217.02
820.966	172.42
821.403	131.92
821.839	96.62
822.276	100.52
822.713	131.22
823.15	139.72
823.587	128.22
824.023	156.72
824.46	336.22
824.897	978.42
825.333	1380.42
825.77	592.62
826.206	243.82
826.643	139.42
827.08	110.42
827.516	86.22
827.953	76.12
828.389	80.32
828.825	69.02
829.262	69.02
829.698	63.92
830.135	66.12
830.571	58.02
831.007	63.62
831.443	65.52
831.88	66.82
832.316	64.12
832.752	64.02
833.188	76.12
833.624	64.22
834.06	70.32
834.497	67.82
834.933	72.02
835.369	76.12
835.805	67.62
836.241	78.82
836.677	78.62
837.112	95.32
837.548	108.02
837.984	151.02
838.42	215.12
838.856	560.62
839.292	1649.72
839.727	2367.22
840.163	1125.82
840.599	1023.42
841.034	2166.42
841.47	2161.02
841.906	809.32
842.341	335.12
842.777	211.42
843.212	226.02
843.648	201.42
844.083	116.82
844.519	81.62
844.954	79.42
845.39	62.22
845.825	54.52
846.261	58.12
846.696	56.72
847.131	57.92
847.566	59.42
848.002	51.72
848.437	60.92
848.872	65.62
849.307	67.02
849.742	93.32
850.177	200.82
850.613	606.92
851.048	901.82
851.483	394.02
851.918	163.12
852.353	92.42
852.788	62.42
853.223	55.32
853.657	59.32
854.092	51.02
854.527	47.52
854.962	42.02
855.397	43.22
855.832	47.72
856.266	39.32
856.701	44.92
857.136	36.42
857.57	41.82
858.005	45.22
858.44	62.12
858.874	41.22
859.309	55.52
859.743	40.12
860.178	40.82
860.612	44.82
861.047	54.12
861.481	71.32
861.915	73.02
862.35	52.42
862.784	35.62
863.218	35.02
863.653	34.32
864.087	48.02
864.521	56.12
864.955	75.32
865.39	172.32
865.824	180.02
866.258	125.72
866.692	175.32
867.126	188.32
867.56	105.42
867.994	51.62
868.428	38.42
868.862	52.62
869.296	56.22
869.73	58.12
870.164	53.12
870.598	47.92
871.031	37.42
871.465	31.12
871.899	37.62
872.333	24.72
872.766	26.32
873.2	25.22
873.634	28.12
874.067	26.92
874.501	21.52
874.935	40.72
875.368	31.92
875.802	30.82
876.235	21.92
876.669	26.92
877.102	25.52
877.535	25.32
877.969	30.12
878.402	24.82
878.836	22.72
879.269	22.32
879.702	28.02
880.135	17.82
880.569	24.52
881.002	25.32
881.435	19.22
881.868	20.52
882.301	21.92
882.734	16.02
883.167	29.02
883.601	15.12
884.034	24.22
884.467	12.72
884.899	22.82
885.332	17.02
885.765	17.02
886.198	16.12
886.631	18.02
887.064	19.92
887.497	15.32
887.929	24.52
888.362	13.82
888.795	14.02
889.228	15.62
889.66	19.22
890.093	18.62
890.526	17.22
890.958	15.02
891.391	15.72
891.823	21.22
892.256	18.72
892.688	15.62
893.121	13.62
893.553	17.02
893.985	23.62
894.418	12.92
894.85	12.72
895.282	21.32
895.715	15.32
896.147	20.12
896.579	16.02
897.011	10.82
897.444	20.92
897.876	14.42
898.308	22.52
898.74	14.92
899.172	14.22
899.604	28.82
900.036	19.12
900.468	14.92
900.9	18.82
901.332	17.82
901.764	13.62
902.196	14.12
902.628	12.82
903.06	21.62
903.491	29.62
903.923	21.62
904.355	22.52
904.787	27.72
905.218	26.42
905.65	19.82
906.082	11.92
906.513	12.32
906.945	14.32
907.376	13.72
907.808	20.42
908.239	19.52
908.671	15.72
909.102	25.02
909.534	23.72
909.965	47.52
910.397	97.42
910.828	336.92
911.259	488.82
911.691	221.92
912.122	114.02
912.553	50.92
912.984	36.72
913.415	31.42
913.847	27.22
914.278	15.62
914.709	15.72
915.14	18.22
915.571	18.62
916.002	13.12
916.433	17.52
916.864	23.82
917.295	13.42
917.726	21.02
918.157	19.12
918.587	29.32
919.018	28.12
919.449	15.82
919.88	26.12
920.311	30.32
920.741	57.12
921.172	169.02
921.603	159.92
922.033	75.52
922.464	51.32
922.895	20.82
923.325	19.22
923.756	13.42
924.186	12.52
924.617	16.72
925.047	21.52
925.478	28.32
925.908	27.02
926.338	13.72
926.769	10.02
927.199	19.02
927.629	7.62
928.06	14.42
928.49	15.42
928.92	12.22
929.35	15.62
929.78	10.02
930.21	8.72
930.641	12.22
931.071	9.12
931.501	7.92
931.931	9.92
932.361	3.72
932.791	1.02
933.221	7.82
933.651	6.42
934.08	19.12
934.51	32.52
934.94	11.62
935.37	9.42
935.8	10.02
936.229	10.92
936.659	7.72
937.089	11.42
937.519	12.22
937.948	27.92
938.378	17.12
938.807	4.42
939.237	3.02
939.666	3.02
940.096	-8.18
940.525	-4.38
940.955	3.82
941.384	0.02
941.814	-0.28
942.243	3.12
942.672	6.82
943.102	-1.08
943.531	4.92
943.96	9.62
944.39	1.82
944.819	0.42
945.248	0.62
945.677	3.82
946.106	6.52
946.535	7.42
946.964	1.52
947.393	4.82
947.822	6.02
948.251	-3.68
948.68	6.22
949.109	4.92
949.538	4.62
949.967	4.22
950.396	4.42
950.825	-4.28
951.254	2.32
951.682	-5.38
952.111	2.02
952.54	12.12
952.969	-3.28
953.397	-5.58
953.826	0.52
954.254	-7.28
954.683	-1.68
955.112	-6.18
955.54	2.32
955.969	0.02
956.397	0.12
956.826	-0.88
957.254	9.62
957.682	-0.88
958.111	11.02
958.539	-1.78
958.967	0.42
959.396	0.52
959.824	-7.08
960.252	0.52
960.68	-11.38
961.109	5.92
961.537	-9.98
961.965	-0.58
962.393	0.52
962.821	-9.78
963.249	-1.28
963.677	-0.58
964.105	6.62
964.533	39.02
964.961	44.82
965.389	19.92
965.817	13.32
966.245	5.32
966.672	-4.08
967.1	-3.48
967.528	1.52
967.956	-2.88
968.383	-2.78
968.811	-2.48
969.239	-3.58
969.666	-3.78
970.094	2.62
970.522	-0.28
970.949	3.82
971.377	-6.98
971.804	4.02
972.232	-1.78
972.659	4.12
973.087	-4.28
973.514	-6.88
973.941	-9.28
974.369	5.92
974.796	5.92
975.223	-2.78
975.651	0.92
976.078	1.42
976.505	2.62
976.932	1.32
977.359	15.62
977.786	11.82
978.214	1.92
978.641	1.02
979.068	-3.98
979.495	-7.28
979.922	-6.78
980.349	3.32
980.776	5.32
981.202	-3.78
981.629	1.82
982.056	1.82
982.483	-1.78
982.91	2.62
983.337	-4.78
983.763	2.72
984.19	-3.58
984.617	-3.88
985.043	0.52
985.47	0.92
985.897	-0.98
986.323	-9.08
986.75	4.22
987.176	0.62
987.603	-0.08
988.029	-0.98
988.456	-2.88
988.882	2.92
989.308	-5.58
989.735	0.52
990.161	0.52
990.587	-12.18
991.014	-2.98
991.44	-3.08
991.866	-0.18
992.292	-2.78
992.719	-3.18
993.145	5.52
993.571	-9.68
993.997	-2.38
994.423	-2.48
994.849	-2.98
995.275	-0.38
995.701	10.62
996.127	-2.58
996.553	0.82
996.979	-3.98
997.405	-5.98
997.83	-3.48
998.256	-4.28
998.682	-2.38
999.108	-5.98
999.534	0.72
999.959	-2.98
1000.385	0.92
1000.811	-1.18
1001.236	-8.48
1001.662	-7.58
1002.087	-9.78
1002.513	0.92
1002.938	-2.18
1003.364	-3.78
1003.789	-4.88
1004.215	6.72
1004.64	-0.88
1005.066	1.22
1005.491	-0.18
1005.916	-2.88
1006.342	-4.28
1006.767	-12.58
1007.192	7.52
1007.617	-4.78
1008.042	-1.88
1008.468	-3.38
1008.893	-3.08
1009.318	-2.98
1009.743	-3.18
1010.168	7.82
1010.593	1.62
1011.018	-2.38
1011.443	-4.98
1011.868	2.72
1012.293	-3.88
1012.718	-1.98
1013.143	3.02
1013.567	-0.78
1013.992	-1.58
1014.417	-15.78
1014.842	6.92
1015.267	-7.18
1015.691	-2.48
1016.116	4.52
1016.541	0.62
1016.965	3.32
1017.39	3.12
1017.814	-2.08
1018.239	-1.68
1018.663	-6.78
1019.088	-3.98
1019.512	-3.58
1019.937	-0.58
1020.361	-4.18
1020.785	-8.98
1021.21	-3.08
1021.634	-1.18
1022.058	-1.78
1022.483	2.32
1022.907	-1.88
1023.331	-5.08
1023.755	-3.88
1024.179	-2.58
1024.604	-9.28
1025.028	-8.78
1025.452	-4.08
1025.876	-1.28
1026.3	5.52
1026.724	-13.88
1027.148	1.92
1027.572	-2.48
1027.996	-1.58
1028.42	-5.08
1028.843	-3.38
1029.267	-4.48
1029.691	-4.58
1030.115	-7.58
1030.539	-7.38
1030.962	2.12
1031.386	-8.88
1031.81	-1.68
1032.233	-7.58
1032.657	-1.08
1033.08	-2.48
1033.504	1.32
1033.927	-4.28
1034.351	-3.58
1034.774	-7.58
1035.198	-7.48
1035.621	-0.98
1036.045	-9.08
1036.468	0.82
1036.891	-9.08
1037.315	-7.68
1037.738	-9.08
1038.161	0.82
1038.584	-3.88
1039.008	-8.88
1039.431	-4.68
1039.854	-2.38
1040.277	-4.18
1040.7	-6.18
1041.123	-3.98
1041.546	-4.38
1041.969	-4.08
1042.392	-0.88
1042.815	-3.38
1043.238	-0.08
1043.661	1.62
1044.084	-2.88
1044.507	-3.58
1044.93	-7.48
1045.352	-9.88
1045.775	-6.98
1046.198	5.62
1046.621	-1.08
1047.043	2.82
1047.466	7.02
1047.889	-4.68
1048.311	-6.08
1048.734	-3.78
1049.156	-2.58
1049.579	-1.38
1050.001	-0.08
1050.424	-4.68
1050.846	-5.28
1051.269	-6.18
1051.691	-5.38
1052.113	-3.38
1052.536	4.02
1052.958	-5.18
1053.38	-5.18
1053.802	-7.38
1054.225	-6.48
1054.647	-9.38
1055.069	-8.18
1055.491	-1.08
1055.913	-6.98
1056.335	-5.48
1056.757	-4.88
1057.179	-6.18
1057.601	-3.88
1058.023	-3.28
1058.445	-3.78
1058.867	-6.38
1059.289	-1.48
1059.711	-5.48
1060.133	0.02
1060.555	1.42
1060.976	-8.08
1061.398	-4.88
1061.82	-6.28
1062.241	-9.38
1062.663	-10.78
1063.085	-6.68
1063.506	1.12
1063.928	-1.08
1064.35	-2.28
1064.771	-10.78
1065.193	-0.78
1065.614	-4.48
1066.035	1.52
1066.457	-2.18
1066.878	0.22
1067.3	-2.38
1067.721	-6.98
1068.142	-1.08
1068.564	-2.78
1068.985	-8.28
1069.406	-4.08
1069.827	-1.38
1070.248	3.12
1070.67	-3.18
1071.091	-4.28
1071.512	-7.28
1071.933	-3.08
1072.354	-7.08
1072.775	-0.28
1073.196	-13.18
1073.617	-1.58
1074.038	-8.88
1074.459	-2.98
1074.88	-4.58
1075.3	-1.58
1075.721	-4.18
1076.142	2.12
1076.563	-1.28
1076.983	-11.48
1077.404	-5.98
1077.825	-5.88
1078.246	-2.58
1078.666	-11.78
1079.087	-1.18
1079.507	-10.58
1079.928	-4.88
1080.348	2.82
1080.769	-12.28
1081.189	-3.58
1081.61	-1.98
1082.03	-6.78
1082.451	-10.38
1082.871	-4.78
1083.291	-5.38
1083.711	-8.58
1084.132	0.32
1084.552	-5.38
1084.972	0.92
1085.392	-5.48
1085.813	-8.28
1086.233	-9.68
1086.653	-4.48
1087.073	-6.78
1087.493	-15.28
1087.913	-5.38
1088.333	-6.58
1088.753	-1.78
1089.173	-4.38
1089.593	0.12
1090.013	-2.08
1090.433	-0.58
1090.852	-1.58
1091.272	-1.18
1091.692	-0.48
1092.112	-7.08
1092.531	-0.18
1092.951	-12.28
1093.371	1.52
1093.79	3.02
1094.21	-3.98
1094.63	-3.98
1095.049	-3.98
1095.469	-6.78
1095.888	-7.18
1096.308	1.82
1096.727	3.02
1097.146	-9.18
1097.566	3.32
1097.985	-9.98
1098.405	-1.38
1098.824	-6.08
1099.243	-6.28
1099.662	-5.88
1100.082	-3.18
1100.501	-5.18
1100.92	-4.58
1101.339	-6.98
1101.758	-5.08
