Data from 20171114-ORNL-Ar_H_NY_Subt18_08-09-24-233.txt Node
Date: Tue Nov 14 08:09:24 EST 2017
User: Ender
Spectrometer: HR+D1039
Trigger mode: 0
Integration Time (sec): 2.730000E-2
Scans to average: 10
Electric dark correction enabled: true
Nonlinearity correction enabled: false
Boxcar width: 0
XAxis mode: Wavelengths
Number of Pixels in Spectrum: 2048
>>>>>Begin Spectral Data<<<<<
187.836	-3.81
188.309	-3.81
188.782	-3.81
189.255	-0.71
189.728	-4.21
190.201	1.49
190.674	-0.61
191.147	1.69
191.619	-3.91
192.092	2.09
192.565	0.49
193.038	0.09
193.511	3.39
193.984	1.49
194.456	0.49
194.929	3.39
195.402	-2.61
195.874	1.19
196.347	-0.71
196.82	1.29
197.292	6.19
197.765	-5.41
198.237	-7.41
198.71	3.29
199.182	1.19
199.655	-1.21
200.127	9.49
200.6	0.09
201.072	-2.41
201.544	-2.21
202.017	0.99
202.489	0.69
202.961	-2.71
203.433	-4.71
203.906	-5.41
204.378	-4.01
204.85	-10.91
205.322	-11.61
205.794	-7.31
206.266	-4.21
206.739	-6.61
207.211	-3.71
207.683	-6.01
208.155	-1.71
208.627	-7.01
209.099	-7.21
209.57	-9.01
210.042	-2.41
210.514	-3.01
210.986	1.29
211.458	-11.41
211.93	-9.11
212.402	-3.31
212.873	-6.21
213.345	-10.41
213.817	-14.41
214.288	-5.81
214.76	-14.71
215.232	-2.71
215.703	-1.91
216.175	-3.61
216.646	-6.01
217.118	-6.31
217.589	-8.51
218.061	4.29
218.532	-5.31
219.004	-3.31
219.475	-2.51
219.946	-2.71
220.418	-9.91
220.889	2.79
221.36	-0.61
221.832	-6.81
222.303	-10.61
222.774	2.09
223.245	-10.41
223.717	-5.41
224.188	-4.21
224.659	-3.81
225.13	-5.41
225.601	-2.61
226.072	-0.01
226.543	0.49
227.014	-5.51
227.485	-5.71
227.956	-8.31
228.427	-3.11
228.898	5.79
229.369	-4.21
229.839	-7.31
230.31	-7.11
230.781	1.39
231.252	-1.01
231.722	-8.11
232.193	-3.41
232.664	-4.71
233.135	-1.51
233.605	-2.81
234.076	-6.41
234.546	0.49
235.017	-0.41
235.487	-4.41
235.958	-3.61
236.428	-4.31
236.899	-7.01
237.369	-4.41
237.84	-11.61
238.31	-3.01
238.78	-7.01
239.251	-15.21
239.721	-9.01
240.191	-5.81
240.662	-2.81
241.132	-2.71
241.602	-2.11
242.072	-2.51
242.542	1.89
243.013	-6.11
243.483	6.99
243.953	-0.21
244.423	-0.41
244.893	-5.51
245.363	-3.91
245.833	1.09
246.303	-7.61
246.773	1.19
247.243	-3.01
247.712	-2.91
248.182	3.29
248.652	1.39
249.122	-6.11
249.592	0.39
250.061	1.49
250.531	8.69
251.001	2.79
251.471	5.19
251.94	5.79
252.41	-3.41
252.879	-10.41
253.349	2.49
253.818	10.49
254.288	3.49
254.757	-0.51
255.227	-10.31
255.696	-1.31
256.166	-1.21
256.635	3.49
257.105	4.99
257.574	-2.41
258.043	-0.71
258.513	-3.71
258.982	2.39
259.451	-1.31
259.92	1.79
260.389	2.49
260.859	6.79
261.328	-0.41
261.797	3.29
262.266	-4.91
262.735	6.79
263.204	1.69
263.673	-3.91
264.142	10.09
264.611	-8.51
265.08	-4.41
265.549	-5.41
266.018	0.69
266.487	-8.61
266.955	-5.21
267.424	-3.91
267.893	2.19
268.362	-4.01
268.83	-3.11
269.299	6.99
269.768	5.99
270.236	-4.11
270.705	-0.51
271.174	0.69
271.642	-1.31
272.111	-2.61
272.579	1.69
273.048	0.89
273.516	4.39
273.985	0.39
274.453	6.89
274.922	6.99
275.39	3.29
275.858	-5.51
276.327	5.09
276.795	10.29
277.263	-3.41
277.731	1.99
278.2	-0.21
278.668	0.39
279.136	0.79
279.604	6.19
280.072	6.89
280.54	1.99
281.008	1.79
281.477	8.79
281.945	2.39
282.413	3.39
282.881	13.29
283.348	4.89
283.816	8.69
284.284	2.49
284.752	11.29
285.22	7.49
285.688	1.29
286.156	9.49
286.623	13.19
287.091	1.99
287.559	4.49
288.026	9.99
288.494	9.49
288.962	-4.01
289.429	0.59
289.897	11.79
290.364	3.89
290.832	7.09
291.3	6.59
291.767	3.49
292.234	7.19
292.702	4.39
293.169	9.09
293.637	13.39
294.104	10.19
294.571	1.59
295.039	4.59
295.506	2.29
295.973	2.49
296.44	0.39
296.908	8.39
297.375	4.69
297.842	6.29
298.309	3.49
298.776	-1.81
299.243	11.49
299.71	4.39
300.177	16.99
300.644	12.79
301.111	6.69
301.578	11.89
302.045	6.69
302.512	11.59
302.979	19.99
303.446	12.49
303.913	15.69
304.379	15.89
304.846	21.29
305.313	14.59
305.78	14.69
306.246	15.19
306.713	12.19
307.18	13.09
307.646	18.49
308.113	18.59
308.579	13.79
309.046	13.09
309.512	18.29
309.979	10.49
310.445	18.69
310.912	19.19
311.378	19.69
311.845	16.79
312.311	24.89
312.777	23.19
313.244	18.59
313.71	25.09
314.176	16.99
314.642	17.89
315.109	15.39
315.575	25.09
316.041	18.99
316.507	12.99
316.973	19.19
317.439	28.19
317.905	27.49
318.371	22.09
318.837	18.19
319.303	27.09
319.769	28.49
320.235	26.09
320.701	22.49
321.167	19.89
321.633	23.29
322.099	25.39
322.564	28.19
323.03	22.49
323.496	27.69
323.962	25.99
324.427	22.79
324.893	28.49
325.359	24.89
325.824	27.79
326.29	22.49
326.755	25.59
327.221	26.89
327.686	29.79
328.152	29.79
328.617	31.59
329.083	30.39
329.548	40.49
330.014	41.79
330.479	28.89
330.944	25.39
331.41	28.69
331.875	33.69
332.34	30.49
332.805	27.29
333.271	31.59
333.736	26.09
334.201	32.29
334.666	34.79
335.131	41.89
335.596	39.29
336.061	36.39
336.526	30.79
336.991	31.19
337.456	36.69
337.921	35.89
338.386	37.49
338.851	33.99
339.316	34.29
339.781	39.29
340.246	38.19
340.711	34.49
341.175	38.29
341.64	28.19
342.105	36.49
342.569	43.89
343.034	44.79
343.499	43.19
343.963	34.29
344.428	48.79
344.893	41.89
345.357	42.09
345.822	48.89
346.286	49.69
346.751	55.19
347.215	50.79
347.679	51.19
348.144	64.09
348.608	63.09
349.073	51.89
349.537	55.09
350.001	63.99
350.465	68.29
350.93	60.49
351.394	65.09
351.858	55.29
352.322	69.29
352.786	67.09
353.25	77.49
353.715	85.59
354.179	71.09
354.643	90.99
355.107	94.79
355.571	74.59
356.035	76.39
356.498	86.59
356.962	80.39
357.426	84.39
357.89	86.29
358.354	72.39
358.818	64.99
359.281	63.39
359.745	64.29
360.209	62.09
360.673	53.79
361.136	63.19
361.6	66.99
362.064	66.79
362.527	63.59
362.991	80.19
363.454	59.29
363.918	58.29
364.381	58.79
364.845	67.69
365.308	68.09
365.772	65.09
366.235	71.09
366.698	65.19
367.162	66.49
367.625	68.99
368.088	67.39
368.552	76.69
369.015	68.69
369.478	77.09
369.941	78.39
370.404	76.19
370.867	78.49
371.331	79.19
371.794	90.69
372.257	72.99
372.72	93.09
373.183	81.59
373.646	72.79
374.109	73.09
374.572	78.09
375.035	82.29
375.497	85.79
375.96	83.49
376.423	90.39
376.886	96.69
377.349	96.19
377.811	92.09
378.274	82.19
378.737	87.49
379.199	87.09
379.662	89.09
380.125	91.29
380.587	88.49
381.05	99.79
381.512	93.29
381.975	101.69
382.437	105.19
382.9	104.39
383.362	108.69
383.825	108.99
384.287	111.39
384.75	101.59
385.212	113.29
385.674	113.09
386.136	116.79
386.599	108.29
387.061	112.39
387.523	108.59
387.985	110.99
388.447	120.09
388.91	104.29
389.372	115.29
389.834	111.59
390.296	118.49
390.758	111.89
391.22	124.19
391.682	131.99
392.144	132.69
392.606	125.69
393.068	121.79
393.529	133.09
393.991	125.99
394.453	114.29
394.915	106.29
395.377	118.19
395.838	120.39
396.3	115.39
396.762	125.19
397.224	117.69
397.685	119.49
398.147	113.89
398.608	115.19
399.07	118.29
399.531	124.99
399.993	126.99
400.454	140.49
400.916	136.09
401.377	127.09
401.839	136.99
402.3	137.39
402.762	151.19
403.223	161.09
403.684	153.79
404.145	148.79
404.607	144.09
405.068	151.49
405.529	154.59
405.99	173.79
406.451	159.29
406.913	165.69
407.374	145.09
407.835	154.19
408.296	161.49
408.757	162.39
409.218	170.69
409.679	166.99
410.14	158.89
410.601	164.99
411.062	165.09
411.522	165.09
411.983	161.99
412.444	162.09
412.905	168.09
413.366	172.69
413.826	187.49
414.287	203.89
414.748	250.79
415.208	239.69
415.669	204.59
416.13	197.89
416.59	194.09
417.051	203.89
417.511	213.99
417.972	227.79
418.432	236.09
418.893	281.29
419.353	245.29
419.814	191.39
420.274	169.69
420.734	172.29
421.195	186.19
421.655	179.09
422.115	182.29
422.576	184.19
423.036	188.19
423.496	204.59
423.956	207.99
424.416	222.39
424.876	251.29
425.336	246.59
425.797	246.59
426.257	241.19
426.717	229.69
427.177	224.09
427.637	213.99
428.097	222.69
428.556	233.89
429.016	252.49
429.476	243.09
429.936	253.59
430.396	257.39
430.856	269.49
431.315	290.79
431.775	331.29
432.235	357.69
432.694	327.29
433.154	343.19
433.614	361.39
434.073	315.99
434.533	269.99
434.993	255.89
435.452	261.09
435.912	271.99
436.371	261.99
436.83	264.49
437.29	250.19
437.749	232.49
438.209	232.49
438.668	259.39
439.127	268.39
439.587	248.89
440.046	236.69
440.505	247.19
440.964	260.49
441.424	301.79
441.883	292.49
442.342	245.39
442.801	219.59
443.26	224.59
443.719	216.79
444.178	213.39
444.637	207.59
445.096	215.39
445.555	221.49
446.014	226.29
446.473	219.39
446.932	229.99
447.391	221.49
447.849	222.99
448.308	213.49
448.767	219.79
449.226	236.49
449.685	235.39
450.143	247.79
450.602	238.39
451.061	221.49
451.519	223.59
451.978	229.29
452.436	225.69
452.895	233.09
453.353	252.09
453.812	231.79
454.27	234.29
454.729	238.19
455.187	230.99
455.646	248.19
456.104	249.39
456.562	255.19
457.021	261.69
457.479	260.99
457.937	266.49
458.395	260.59
458.854	246.59
459.312	247.39
459.77	267.69
460.228	249.89
460.686	247.29
461.144	244.59
461.602	247.49
462.06	240.59
462.518	256.39
462.976	253.89
463.434	257.89
463.892	260.79
464.35	269.29
464.808	289.99
465.266	261.59
465.724	265.49
466.181	271.59
466.639	273.59
467.097	290.19
467.555	302.79
468.012	296.39
468.47	310.39
468.928	326.49
469.385	333.89
469.843	348.29
470.3	334.29
470.758	356.79
471.215	366.99
471.673	396.09
472.13	399.99
472.588	412.59
473.045	369.39
473.503	374.89
473.96	394.19
474.417	394.19
474.875	422.89
475.332	473.09
475.789	455.59
476.246	455.09
476.704	478.09
477.161	492.19
477.618	506.79
478.075	545.69
478.532	597.19
478.989	658.79
479.446	763.29
479.903	732.49
480.36	763.69
480.817	810.19
481.274	890.69
481.731	975.69
482.188	1050.99
482.645	1173.49
483.102	1252.19
483.558	1367.79
484.015	1406.29
484.472	1381.59
484.929	1345.79
485.385	1302.79
485.842	1271.29
486.299	1225.69
486.755	1178.29
487.212	1006.99
487.668	872.79
488.125	811.89
488.582	742.39
489.038	712.09
489.494	674.29
489.951	664.69
490.407	642.79
490.864	631.59
491.32	633.69
491.776	621.29
492.233	635.89
492.689	602.19
493.145	595.49
493.602	589.59
494.058	607.99
494.514	602.79
494.97	626.49
495.426	634.09
495.882	608.59
496.338	603.89
496.794	608.19
497.251	603.29
497.707	621.79
498.163	623.99
498.618	630.39
499.074	627.49
499.53	665.69
499.986	654.49
500.442	631.59
500.898	617.29
501.354	607.79
501.809	613.19
502.265	620.29
502.721	632.09
503.177	628.19
503.632	634.89
504.088	632.79
504.543	666.89
504.999	684.59
505.455	653.79
505.91	638.79
506.366	632.79
506.821	625.99
507.277	624.09
507.732	624.59
508.187	624.69
508.643	638.69
509.098	632.69
509.553	657.69
510.009	670.49
510.464	666.99
510.919	686.69
511.375	696.99
511.83	708.79
512.285	721.39
512.74	743.19
513.195	772.29
513.65	774.29
514.105	758.39
514.56	748.99
515.015	783.79
515.47	788.99
515.925	774.79
516.38	773.79
516.835	789.19
517.29	781.19
517.745	775.49
518.2	753.99
518.655	751.59
519.109	740.79
519.564	744.99
520.019	733.09
520.474	720.19
520.928	727.39
521.383	720.19
521.838	704.39
522.292	706.39
522.747	717.09
523.201	703.09
523.656	697.79
524.11	697.69
524.565	696.59
525.019	691.49
525.474	702.09
525.928	692.19
526.382	701.49
526.837	703.29
527.291	702.69
527.745	701.79
528.2	697.89
528.654	689.29
529.108	682.89
529.562	697.59
530.016	687.69
530.47	688.19
530.925	688.69
531.379	693.99
531.833	691.89
532.287	701.69
532.741	695.69
533.195	702.89
533.649	713.19
534.103	713.79
534.556	707.29
535.01	716.09
535.464	701.99
535.918	720.09
536.372	713.49
536.826	701.49
537.279	713.79
537.733	711.29
538.187	714.59
538.64	716.59
539.094	720.99
539.548	735.29
540.001	720.89
540.455	721.09
540.908	731.49
541.362	739.59
541.815	754.89
542.269	767.39
542.722	762.79
543.175	773.19
543.629	774.69
544.082	791.89
544.536	789.89
544.989	786.69
545.442	797.89
545.895	796.09
546.349	794.39
546.802	790.29
547.255	793.89
547.708	819.29
548.161	822.19
548.614	826.79
549.067	832.09
549.52	829.19
549.973	817.39
550.426	813.29
550.879	808.69
551.332	810.79
551.785	809.29
552.238	820.09
552.691	833.29
553.144	839.49
553.596	866.69
554.049	878.09
554.502	897.29
554.955	913.59
555.407	914.89
555.86	901.89
556.313	903.09
556.765	894.49
557.218	889.09
557.67	883.19
558.123	875.89
558.576	882.19
559.028	883.69
559.48	892.69
559.933	882.49
560.385	852.29
560.838	820.89
561.29	803.99
561.742	799.59
562.195	782.29
562.647	778.49
563.099	782.99
563.551	774.39
564.004	786.69
564.456	789.19
564.908	769.49
565.36	754.49
565.812	730.09
566.264	735.49
566.716	722.79
567.168	712.09
567.62	722.59
568.072	709.49
568.524	695.19
568.976	692.89
569.428	689.49
569.88	684.39
570.332	692.39
570.784	700.89
571.235	696.39
571.687	703.89
572.139	709.09
572.59	719.49
573.042	728.49
573.494	719.79
573.945	715.09
574.397	691.19
574.849	698.59
575.3	696.79
575.752	689.29
576.203	688.29
576.655	687.29
577.106	696.49
577.557	675.49
578.009	685.49
578.46	665.49
578.912	677.99
579.363	670.49
579.814	676.69
580.265	667.09
580.717	675.59
581.168	682.39
581.619	683.59
582.07	683.59
582.521	679.39
582.972	677.49
583.423	687.39
583.875	680.19
584.326	693.79
584.777	714.79
585.227	728.49
585.678	737.99
586.129	738.59
586.58	757.09
587.031	784.39
587.482	805.19
587.933	822.59
588.384	816.29
588.834	788.99
589.285	779.99
589.736	780.59
590.186	782.49
590.637	774.69
591.088	759.29
591.538	745.49
591.989	737.19
592.439	731.99
592.89	726.69
593.34	724.39
593.791	716.09
594.241	704.29
594.692	716.19
595.142	699.59
595.593	706.09
596.043	714.69
596.493	709.89
596.943	713.59
597.394	735.19
597.844	724.19
598.294	748.59
598.744	769.99
599.195	792.49
599.645	836.09
600.095	877.09
600.545	931.19
600.995	982.79
601.445	1048.09
601.895	1108.09
602.345	1146.79
602.795	1135.69
603.245	1080.49
603.695	1026.59
604.145	979.69
604.594	925.19
605.044	880.19
605.494	818.39
605.944	759.29
606.393	755.29
606.843	747.39
607.293	745.69
607.743	736.19
608.192	753.59
608.642	759.29
609.091	766.09
609.541	776.99
609.99	764.29
610.44	773.39
610.889	721.79
611.339	709.39
611.788	687.89
612.238	703.09
612.687	717.99
613.136	702.39
613.586	723.99
614.035	705.89
614.484	720.39
614.933	720.69
615.383	714.69
615.832	715.49
616.281	714.59
616.73	678.59
617.179	665.99
617.628	652.39
618.077	652.79
618.526	638.79
618.975	630.09
619.424	626.79
619.873	623.59
620.322	633.39
620.771	622.59
621.22	612.19
621.669	608.49
622.118	600.19
622.567	592.49
623.015	576.39
623.464	574.99
623.913	563.09
624.361	566.39
624.81	560.69
625.259	562.39
625.707	566.99
626.156	571.99
626.604	582.29
627.053	569.69
627.501	575.79
627.95	582.19
628.398	584.49
628.847	582.89
629.295	585.49
629.744	588.39
630.192	584.59
630.64	577.09
631.089	558.79
631.537	549.39
631.985	540.69
632.433	541.29
632.881	534.99
633.33	537.69
633.778	537.09
634.226	540.19
634.674	541.19
635.122	553.49
635.57	561.49
636.018	572.29
636.466	570.89
636.914	561.99
637.362	577.29
637.81	585.69
638.258	590.59
638.705	586.79
639.153	626.89
639.601	633.39
640.049	663.19
640.497	686.99
640.944	710.29
641.392	656.79
641.84	629.69
642.287	599.59
642.735	572.19
643.182	571.69
643.63	571.89
644.078	572.49
644.525	590.09
644.973	590.19
645.42	602.19
645.867	632.89
646.315	638.89
646.762	661.09
647.21	689.19
647.657	717.79
648.104	749.89
648.551	755.99
648.999	830.69
649.446	893.69
649.893	981.49
650.34	1117.89
650.787	1340.39
651.234	1654.79
651.682	2137.89
652.129	2897.49
652.576	4114.39
653.023	5999.49
653.47	8090.09
653.917	9961.99
654.363	11371.79
654.81	12477.59
655.257	11827.99
655.704	7829.09
656.151	4709.99
656.598	3108.79
657.044	2235.49
657.491	1742.39
657.938	1396.19
658.385	1189.69
658.831	1032.29
659.278	921.59
659.724	838.99
660.171	766.69
660.618	718.19
661.064	683.89
661.511	666.79
661.957	645.89
662.404	640.69
662.85	647.79
663.296	618.49
663.743	567.29
664.189	548.09
664.635	542.49
665.082	538.59
665.528	534.19
665.974	526.79
666.42	520.59
666.867	525.59
667.313	492.39
667.759	479.49
668.205	460.79
668.651	457.39
669.097	455.49
669.543	453.29
669.989	448.39
670.435	451.09
670.881	455.59
671.327	455.59
671.773	487.89
672.219	513.69
672.665	567.59
673.11	608.49
673.556	651.99
674.002	688.39
674.448	675.79
674.893	566.59
675.339	488.69
675.785	458.59
676.23	433.89
676.676	403.99
677.122	399.69
677.567	388.19
678.013	380.99
678.458	373.19
678.904	375.59
679.349	366.69
679.794	376.69
680.24	364.39
680.685	356.69
681.131	365.49
681.576	364.39
682.021	368.19
682.466	367.49
682.912	363.79
683.357	371.09
683.802	399.69
684.247	426.49
684.692	472.79
685.137	511.69
685.583	559.29
686.028	582.39
686.473	531.59
686.918	466.19
687.363	437.79
687.807	414.49
688.252	382.39
688.697	358.49
689.142	349.29
689.587	347.49
690.032	335.29
690.477	357.19
690.921	369.79
691.366	397.99
691.811	426.09
692.255	451.29
692.7	475.29
693.145	533.99
693.589	754.09
694.034	1226.69
694.478	1641.39
694.923	1788.39
695.367	2317.49
695.812	1240.19
696.256	523.69
696.701	391.29
697.145	350.19
697.59	341.49
698.034	331.89
698.478	335.39
698.922	333.69
699.367	331.29
699.811	340.69
700.255	365.99
700.699	394.39
701.143	443.39
701.588	486.89
702.032	525.99
702.476	537.19
702.92	514.69
703.364	519.39
703.808	698.19
704.252	1120.19
704.696	1546.09
705.14	1734.19
705.584	2214.49
706.027	1116.29
706.471	539.69
706.915	419.19
707.359	370.09
707.803	336.19
708.246	325.99
708.69	321.69
709.134	325.79
709.577	321.79
710.021	324.29
710.465	324.49
710.908	317.39
711.352	314.09
711.795	331.29
712.239	366.79
712.682	400.59
713.126	423.59
713.569	475.39
714.012	374.69
714.456	320.89
714.899	293.69
715.342	282.79
715.786	271.59
716.229	266.89
716.672	263.59
717.115	253.09
717.558	262.39
718.002	263.59
718.445	274.89
718.888	301.49
719.331	303.79
719.774	321.99
720.217	310.59
720.66	302.29
721.103	279.79
721.546	267.59
721.989	261.29
722.432	240.29
722.874	244.99
723.317	236.09
723.76	249.29
724.203	270.39
724.645	335.79
725.088	477.89
725.531	595.79
725.974	659.59
726.416	573.09
726.859	320.69
727.301	253.09
727.744	246.19
728.187	235.39
728.629	248.79
729.071	248.39
729.514	268.29
729.956	291.49
730.399	302.09
730.841	308.69
731.283	291.99
731.726	279.99
732.168	270.99
732.61	278.59
733.053	300.29
733.495	335.59
733.937	369.99
734.379	417.09
734.821	464.09
735.263	577.49
735.705	915.39
736.148	1733.39
736.59	2775.69
737.032	3142.29
737.474	2573.39
737.916	865.39
738.357	463.39
738.799	346.49
739.241	307.29
739.683	295.19
740.125	308.09
740.567	315.59
741.008	327.79
741.45	333.19
741.892	338.69
742.334	367.29
742.775	377.39
743.217	355.69
743.658	280.69
744.1	259.39
744.542	278.59
744.983	333.59
745.425	362.69
745.866	356.19
746.307	298.19
746.749	289.09
747.19	350.29
747.632	504.39
748.073	990.89
748.514	2051.19
748.956	3019.39
749.397	3803.69
749.838	3155.09
750.279	3046.79
750.72	1573.49
751.162	587.19
751.603	347.49
752.044	264.19
752.485	226.29
752.926	223.49
753.367	211.09
753.808	202.79
754.249	198.19
754.69	195.39
755.131	198.09
755.572	186.09
756.013	195.79
756.453	188.99
756.894	192.39
757.335	195.59
757.776	203.39
758.216	201.89
758.657	213.89
759.098	220.19
759.538	240.29
759.979	284.39
760.42	409.29
760.86	788.69
761.301	2088.39
761.741	4855.49
762.182	6607.29
762.622	4687.39
763.063	1401.39
763.503	571.09
763.943	333.99
764.384	283.89
764.824	246.59
765.264	236.19
765.705	208.99
766.145	192.19
766.585	179.39
767.025	173.99
767.465	165.69
767.906	182.49
768.346	188.29
768.786	198.89
769.226	230.49
769.666	336.79
770.106	688.49
770.546	1733.59
770.986	2762.29
771.426	2439.49
771.866	828.39
772.306	352.09
772.745	214.69
773.185	175.99
773.625	164.69
774.065	157.89
774.505	174.49
774.944	219.59
775.384	372.09
775.824	583.49
776.263	560.69
776.703	282.79
777.142	158.19
777.582	140.69
778.021	131.49
778.461	125.89
778.9	129.29
779.34	133.79
779.779	118.49
780.219	112.79
780.658	115.29
781.097	113.89
781.537	112.79
781.976	111.79
782.415	115.69
782.855	103.09
783.294	102.59
783.733	106.89
784.172	111.49
784.611	99.99
785.05	110.49
785.489	113.39
785.928	131.19
786.367	126.89
786.806	123.99
787.245	134.89
787.684	132.89
788.123	156.19
788.562	143.39
789.001	134.39
789.44	131.69
789.879	127.39
790.317	125.19
790.756	139.59
791.195	139.09
791.634	157.49
792.072	219.29
792.511	410.59
792.95	1123.79
793.388	2228.29
793.827	1945.99
794.265	699.19
794.704	294.99
795.142	191.19
795.581	164.79
796.019	138.59
796.458	133.89
796.896	127.39
797.334	135.39
797.773	166.09
798.211	238.29
798.649	497.39
799.087	1109.29
799.526	1703.49
799.964	2168.69
800.402	2058.99
800.84	796.59
801.278	321.39
801.716	199.09
802.154	152.99
802.592	156.29
803.03	144.49
803.468	137.89
803.906	154.39
804.344	152.99
804.782	150.69
805.22	141.39
805.658	137.09
806.096	155.69
806.533	168.19
806.971	181.99
807.409	237.59
807.847	354.59
808.284	752.79
808.722	2074.29
809.16	3453.19
809.597	3469.69
810.035	5848.59
810.472	5939.39
810.91	2199.99
811.347	856.19
811.785	441.59
812.222	283.29
812.66	207.59
813.097	177.09
813.535	152.69
813.972	136.09
814.409	120.39
814.846	114.19
815.284	113.19
815.721	105.89
816.158	109.09
816.595	117.49
817.032	160.29
817.47	181.69
817.907	123.59
818.344	103.09
818.781	102.29
819.218	97.69
819.655	131.49
820.092	201.29
820.529	221.09
820.966	178.39
821.403	128.39
821.839	101.69
822.276	99.19
822.713	130.59
823.15	136.99
823.587	129.09
824.023	156.89
824.46	338.29
824.897	974.99
825.333	1393.39
825.77	607.09
826.206	247.29
826.643	143.59
827.08	107.09
827.516	91.09
827.953	84.19
828.389	81.39
828.825	75.39
829.262	78.19
829.698	63.69
830.135	65.69
830.571	67.29
831.007	70.09
831.443	67.49
831.88	64.69
832.316	64.69
832.752	65.69
833.188	64.79
833.624	65.89
834.06	72.09
834.497	74.29
834.933	79.59
835.369	79.79
835.805	73.39
836.241	82.09
836.677	85.09
837.112	91.49
837.548	114.69
837.984	140.49
838.42	222.59
838.856	558.69
839.292	1655.49
839.727	2383.89
840.163	1135.69
840.599	1027.59
841.034	2192.39
841.47	2189.09
841.906	816.09
842.341	348.79
842.777	214.19
843.212	209.69
843.648	185.99
844.083	114.89
844.519	81.19
844.954	72.19
845.39	57.19
845.825	60.09
846.261	59.79
846.696	61.99
847.131	60.99
847.566	59.79
848.002	54.09
848.437	58.39
848.872	63.29
849.307	64.59
849.742	98.29
850.177	199.09
850.613	615.19
851.048	905.29
851.483	391.19
851.918	166.59
852.353	85.39
852.788	59.59
853.223	58.59
853.657	57.89
854.092	51.89
854.527	45.59
854.962	40.29
855.397	49.19
855.832	52.99
856.266	42.29
856.701	44.19
857.136	37.69
857.57	45.39
858.005	57.29
858.44	60.59
858.874	47.59
859.309	56.09
859.743	44.59
860.178	54.49
860.612	50.59
861.047	54.29
861.481	74.19
861.915	77.49
862.35	55.89
862.784	38.89
863.218	42.09
863.653	31.29
864.087	47.69
864.521	51.39
864.955	74.49
865.39	163.19
865.824	177.99
866.258	117.59
866.692	180.39
867.126	180.69
867.56	113.59
867.994	56.59
868.428	38.59
868.862	48.19
869.296	54.79
869.73	62.89
870.164	55.09
870.598	53.29
871.031	35.19
871.465	36.19
871.899	31.69
872.333	26.09
872.766	23.39
873.2	19.19
873.634	21.79
874.067	30.79
874.501	26.89
874.935	34.99
875.368	39.49
875.802	25.09
876.235	29.99
876.669	26.69
877.102	26.99
877.535	33.49
877.969	26.69
878.402	25.79
878.836	17.39
879.269	24.09
879.702	23.59
880.135	21.59
880.569	22.29
881.002	25.39
881.435	20.79
881.868	15.89
882.301	19.39
882.734	17.79
883.167	22.79
883.601	16.19
884.034	22.79
884.467	19.39
884.899	20.99
885.332	17.39
885.765	16.39
886.198	21.29
886.631	23.39
887.064	16.39
887.497	22.69
887.929	26.79
888.362	12.09
888.795	16.99
889.228	19.69
889.66	17.29
890.093	19.29
890.526	16.99
890.958	18.69
891.391	18.39
891.823	24.19
892.256	16.19
892.688	13.59
893.121	17.89
893.553	11.79
893.985	22.99
894.418	20.89
894.85	13.89
895.282	12.09
895.715	18.49
896.147	16.39
896.579	15.09
897.011	17.69
897.444	19.29
897.876	9.19
898.308	18.49
898.74	10.99
899.172	11.49
899.604	24.09
900.036	19.59
900.468	16.59
900.9	13.79
901.332	22.89
901.764	14.39
902.196	13.49
902.628	24.79
903.06	17.09
903.491	35.39
903.923	25.49
904.355	26.39
904.787	25.49
905.218	25.99
905.65	19.49
906.082	12.29
906.513	14.29
906.945	15.19
907.376	10.19
907.808	17.69
908.239	21.89
908.671	21.29
909.102	25.99
909.534	27.39
909.965	48.79
910.397	102.89
910.828	338.49
911.259	495.99
911.691	227.39
912.122	112.79
912.553	52.89
912.984	38.89
913.415	26.69
913.847	20.49
914.278	12.59
914.709	20.39
915.14	19.39
915.571	18.29
916.002	17.69
916.433	14.39
916.864	14.79
917.295	13.79
917.726	20.49
918.157	20.19
918.587	33.09
919.018	22.99
919.449	29.79
919.88	26.79
920.311	33.39
920.741	55.49
921.172	176.49
921.603	154.19
922.033	71.99
922.464	43.19
922.895	24.39
923.325	20.89
923.756	19.09
924.186	12.69
924.617	18.69
925.047	20.09
925.478	24.69
925.908	26.59
926.338	13.39
926.769	9.49
927.199	18.99
927.629	8.19
928.06	15.39
928.49	17.19
928.92	9.79
929.35	11.49
929.78	10.59
930.21	6.69
930.641	11.29
931.071	8.29
931.501	4.79
931.931	6.39
932.361	10.59
932.791	2.59
933.221	2.59
933.651	8.29
934.08	21.99
934.51	34.99
934.94	4.89
935.37	14.29
935.8	13.09
936.229	9.49
936.659	8.29
937.089	1.29
937.519	14.39
937.948	22.49
938.378	15.59
938.807	3.29
939.237	3.69
939.666	5.09
940.096	0.29
940.525	3.69
940.955	-1.51
941.384	2.49
941.814	-4.71
942.243	-1.71
942.672	1.29
943.102	0.99
943.531	0.59
943.96	3.29
944.39	6.29
944.819	2.29
945.248	6.39
945.677	5.99
946.106	6.89
946.535	4.09
946.964	-3.51
947.393	0.59
947.822	3.29
948.251	-4.91
948.68	-0.51
949.109	5.29
949.538	3.99
949.967	2.69
950.396	-0.11
950.825	1.39
951.254	7.99
951.682	-3.11
952.111	0.79
952.54	0.99
952.969	-1.11
953.397	-7.31
953.826	-0.71
954.254	-2.11
954.683	3.19
955.112	0.59
955.54	4.79
955.969	2.59
956.397	1.69
956.826	-6.71
957.254	3.39
957.682	1.49
958.111	5.39
958.539	0.39
958.967	1.09
959.396	2.79
959.824	5.29
960.252	8.79
960.68	-0.91
961.109	2.89
961.537	-6.81
961.965	4.79
962.393	1.39
962.821	-4.21
963.249	-2.31
963.677	7.49
964.105	2.19
964.533	43.59
964.961	48.09
965.389	23.89
965.817	10.99
966.245	0.19
966.672	-1.91
967.1	-3.11
967.528	-0.71
967.956	4.59
968.383	5.49
968.811	-1.21
969.239	1.29
969.666	-1.81
970.094	1.39
970.522	-1.11
970.949	-2.11
971.377	-3.91
971.804	3.69
972.232	-1.81
972.659	2.49
973.087	-6.71
973.514	-2.91
973.941	-5.31
974.369	5.09
974.796	5.39
975.223	-1.31
975.651	-0.71
976.078	4.19
976.505	-5.71
976.932	4.79
977.359	20.09
977.786	13.69
978.214	2.29
978.641	-0.91
979.068	-1.81
979.495	-5.61
979.922	-0.31
980.349	-4.31
980.776	-3.81
981.202	-1.91
981.629	4.69
982.056	2.09
982.483	-0.21
982.91	0.39
983.337	-1.51
983.763	7.49
984.19	0.59
984.617	-4.01
985.043	-4.71
985.47	-1.81
985.897	-6.91
986.323	-7.01
986.75	-4.51
987.176	-4.11
987.603	-5.41
988.029	3.49
988.456	-3.31
988.882	2.99
989.308	-5.51
989.735	-0.91
990.161	5.49
990.587	-2.11
991.014	4.19
991.44	4.09
991.866	0.79
992.292	-4.81
992.719	-1.31
993.145	2.79
993.571	-10.81
993.997	-7.51
994.423	-2.51
994.849	-5.01
995.275	0.89
995.701	2.79
996.127	-4.21
996.553	5.89
996.979	-5.81
997.405	0.29
997.83	-9.01
998.256	-4.21
998.682	-5.71
999.108	-11.01
999.534	-1.71
999.959	-1.71
1000.385	-4.91
1000.811	5.59
1001.236	-8.21
1001.662	-4.81
1002.087	-11.91
1002.513	4.09
1002.938	5.39
1003.364	-0.91
1003.789	2.59
1004.215	2.69
1004.64	-1.81
1005.066	0.59
1005.491	-0.61
1005.916	0.29
1006.342	2.69
1006.767	-10.01
1007.192	4.99
1007.617	-7.01
1008.042	-1.91
1008.468	-5.11
1008.893	-4.91
1009.318	1.99
1009.743	-4.31
1010.168	2.89
1010.593	2.19
1011.018	-3.41
1011.443	-5.51
1011.868	-1.41
1012.293	-1.71
1012.718	-6.41
1013.143	-0.71
1013.567	-1.81
1013.992	-3.81
1014.417	-11.71
1014.842	3.19
1015.267	-4.51
1015.691	-0.61
1016.116	3.49
1016.541	-5.91
1016.965	1.19
1017.39	1.19
1017.814	-1.51
1018.239	-3.31
1018.663	-0.81
1019.088	-9.61
1019.512	2.19
1019.937	4.39
1020.361	-5.21
1020.785	-5.41
1021.21	-2.81
1021.634	-4.51
1022.058	0.49
1022.483	3.29
1022.907	2.89
1023.331	-1.41
1023.755	-4.21
1024.179	-0.51
1024.604	-4.61
1025.028	-8.81
1025.452	-4.61
1025.876	-6.61
1026.3	7.49
1026.724	-7.31
1027.148	-7.31
1027.572	-8.61
1027.996	-5.21
1028.42	-0.91
1028.843	0.99
1029.267	0.09
1029.691	-2.81
1030.115	-4.01
1030.539	-12.11
1030.962	-6.11
1031.386	-11.41
1031.81	1.89
1032.233	3.99
1032.657	-2.41
1033.08	-3.31
1033.504	-2.11
1033.927	0.39
1034.351	5.49
1034.774	-1.31
1035.198	-3.51
1035.621	-5.91
1036.045	-6.31
1036.468	3.29
1036.891	-1.61
1037.315	-12.21
1037.738	-7.81
1038.161	-1.81
1038.584	-7.21
1039.008	-0.81
1039.431	-7.61
1039.854	-3.81
1040.277	-11.51
1040.7	-16.61
1041.123	0.89
1041.546	-5.71
1041.969	-5.31
1042.392	-7.11
1042.815	-3.01
1043.238	5.99
1043.661	6.89
1044.084	-1.81
1044.507	-1.31
1044.93	-4.81
1045.352	-0.01
1045.775	0.19
1046.198	2.79
1046.621	-2.11
1047.043	1.79
1047.466	9.09
1047.889	-1.71
1048.311	-0.61
1048.734	-3.11
1049.156	-0.81
1049.579	-8.11
1050.001	-4.41
1050.424	-2.51
1050.846	-4.61
1051.269	-4.61
1051.691	-8.31
1052.113	-2.91
1052.536	2.29
1052.958	-3.61
1053.38	-0.51
1053.802	-11.91
1054.225	1.49
1054.647	-8.31
1055.069	-4.01
1055.491	-0.81
1055.913	-8.01
1056.335	-3.91
1056.757	-0.21
1057.179	-0.41
1057.601	-1.61
1058.023	-1.21
1058.445	-8.51
1058.867	-4.21
1059.289	-2.61
1059.711	-5.81
1060.133	-4.91
1060.555	-1.31
1060.976	-12.91
1061.398	-3.31
1061.82	-9.51
1062.241	-8.31
1062.663	-11.81
1063.085	-7.51
1063.506	-0.21
1063.928	-3.51
1064.35	0.99
1064.771	-5.11
1065.193	-0.21
1065.614	-7.91
1066.035	-4.01
1066.457	-2.01
1066.878	-2.31
1067.3	-7.01
1067.721	-3.31
1068.142	-2.11
1068.564	-0.81
1068.985	-1.11
1069.406	-6.51
1069.827	-6.21
1070.248	2.19
1070.67	-5.61
1071.091	-4.21
1071.512	-8.41
1071.933	-2.01
1072.354	-7.91
1072.775	-4.81
1073.196	-11.31
1073.617	-8.61
1074.038	-7.61
1074.459	-4.11
1074.88	-7.31
1075.3	-1.61
1075.721	-5.71
1076.142	1.69
1076.563	-2.91
1076.983	-12.81
1077.404	-6.51
1077.825	-10.81
1078.246	-7.81
1078.666	-12.01
1079.087	-8.31
1079.507	-10.51
1079.928	-1.11
1080.348	-4.41
1080.769	-4.11
1081.189	2.19
1081.61	-2.51
1082.03	-3.11
1082.451	-5.01
1082.871	-6.31
1083.291	-6.61
1083.711	-9.61
1084.132	-5.21
1084.552	-6.21
1084.972	-1.61
1085.392	-10.41
1085.813	-13.71
1086.233	-7.21
1086.653	-8.31
1087.073	-2.71
1087.493	-6.41
1087.913	-5.11
1088.333	-4.41
1088.753	-3.41
1089.173	3.49
1089.593	-3.01
1090.013	4.79
1090.433	5.79
1090.852	-2.61
1091.272	0.09
1091.692	3.29
1092.112	-4.61
1092.531	-12.11
1092.951	-10.21
1093.371	-0.11
1093.79	-4.01
1094.21	-3.41
1094.63	0.29
1095.049	-6.91
1095.469	-0.91
1095.888	-7.51
1096.308	5.19
1096.727	3.59
1097.146	-7.61
1097.566	0.29
1097.985	-3.71
1098.405	2.29
1098.824	-8.31
1099.243	-3.81
1099.662	-13.31
1100.082	-0.01
1100.501	-5.41
1100.92	-5.81
1101.339	-6.01
1101.758	-3.31
