Data from 20171114-ORNL-Ar_H_NY_Subt18_08-07-07-959.txt Node
Date: Tue Nov 14 08:07:07 EST 2017
User: Ender
Spectrometer: HR+D1039
Trigger mode: 0
Integration Time (sec): 2.730000E-2
Scans to average: 10
Electric dark correction enabled: true
Nonlinearity correction enabled: false
Boxcar width: 0
XAxis mode: Wavelengths
Number of Pixels in Spectrum: 2048
>>>>>Begin Spectral Data<<<<<
187.836	-6.04
188.309	-6.04
188.782	-6.04
189.255	-3.84
189.728	-2.14
190.201	4.26
190.674	3.96
191.147	5.86
191.619	-7.44
192.092	3.46
192.565	6.76
193.038	-2.94
193.511	0.26
193.984	0.46
194.456	0.86
194.929	3.36
195.402	-2.94
195.874	-3.94
196.347	-2.14
196.82	-10.54
197.292	-0.74
197.765	-4.64
198.237	-2.04
198.71	2.86
199.182	-5.84
199.655	4.66
200.127	4.76
200.6	-6.54
201.072	-1.74
201.544	-6.64
202.017	-4.24
202.489	2.86
202.961	-6.04
203.433	-5.84
203.906	-9.34
204.378	-4.24
204.85	-5.34
205.322	-13.34
205.794	-5.94
206.266	-6.04
206.739	-0.44
207.211	-2.34
207.683	-9.84
208.155	-1.64
208.627	-4.34
209.099	-5.54
209.57	-13.14
210.042	-6.24
210.514	-3.74
210.986	-3.24
211.458	-13.84
211.93	-5.34
212.402	-0.44
212.873	-4.14
213.345	-10.04
213.817	-9.04
214.288	-0.64
214.76	-9.14
215.232	-3.54
215.703	-5.24
216.175	-6.14
216.646	-2.74
217.118	-10.14
217.589	-1.84
218.061	0.76
218.532	-3.14
219.004	-0.54
219.475	-7.24
219.946	-2.84
220.418	-5.54
220.889	-2.64
221.36	-3.14
221.832	-7.14
222.303	-6.84
222.774	0.86
223.245	-5.74
223.717	-5.44
224.188	-4.04
224.659	-9.74
225.13	-5.74
225.601	-1.34
226.072	0.76
226.543	-2.44
227.014	-2.34
227.485	-6.34
227.956	-5.34
228.427	-4.44
228.898	-6.24
229.369	0.56
229.839	-6.84
230.31	-6.44
230.781	-5.44
231.252	-3.74
231.722	-9.04
232.193	-11.24
232.664	-2.34
233.135	-4.14
233.605	-3.14
234.076	-9.14
234.546	-1.14
235.017	3.06
235.487	-6.34
235.958	-3.34
236.428	-3.24
236.899	-2.74
237.369	-2.24
237.84	-10.74
238.31	-2.04
238.78	-5.04
239.251	-4.74
239.721	-4.94
240.191	-4.14
240.662	-3.04
241.132	-4.54
241.602	-8.04
242.072	-8.64
242.542	3.06
243.013	1.46
243.483	0.96
243.953	-6.74
244.423	-4.64
244.893	-4.94
245.363	-3.74
245.833	0.46
246.303	-8.34
246.773	1.06
247.243	-1.74
247.712	-0.34
248.182	5.96
248.652	7.86
249.122	-8.64
249.592	-0.24
250.061	1.86
250.531	4.96
251.001	-5.04
251.471	6.46
251.94	5.76
252.41	-0.84
252.879	-6.84
253.349	5.96
253.818	5.26
254.288	-0.24
254.757	1.76
255.227	-0.64
255.696	-1.44
256.166	3.16
256.635	-2.14
257.105	0.46
257.574	-3.94
258.043	-1.04
258.513	-5.64
258.982	-4.14
259.451	-5.94
259.92	-4.64
260.389	-0.44
260.859	4.06
261.328	0.96
261.797	-0.74
262.266	-4.14
262.735	-3.24
263.204	0.86
263.673	-5.44
264.142	5.76
264.611	-2.84
265.08	-2.74
265.549	-5.64
266.018	2.06
266.487	-5.74
266.955	-8.34
267.424	-5.54
267.893	5.26
268.362	-1.44
268.83	-2.84
269.299	7.36
269.768	-0.84
270.236	5.16
270.705	1.06
271.174	5.16
271.642	0.76
272.111	0.46
272.579	1.56
273.048	-1.64
273.516	2.96
273.985	4.36
274.453	1.36
274.922	11.76
275.39	6.06
275.858	-2.44
276.327	1.96
276.795	12.86
277.263	1.46
277.731	5.66
278.2	11.86
278.668	2.06
279.136	8.96
279.604	5.66
280.072	7.86
280.54	9.46
281.008	5.46
281.477	5.86
281.945	3.36
282.413	6.36
282.881	8.16
283.348	4.86
283.816	6.46
284.284	10.66
284.752	12.26
285.22	5.06
285.688	2.36
286.156	5.26
286.623	11.66
287.091	8.16
287.559	7.56
288.026	6.96
288.494	7.56
288.962	-0.04
289.429	-3.84
289.897	9.96
290.364	4.06
290.832	10.96
291.3	10.36
291.767	12.16
292.234	10.66
292.702	10.86
293.169	12.96
293.637	13.56
294.104	16.16
294.571	-2.94
295.039	7.66
295.506	2.76
295.973	9.26
296.44	7.36
296.908	9.76
297.375	6.06
297.842	13.16
298.309	13.46
298.776	9.26
299.243	14.36
299.71	10.76
300.177	15.16
300.644	13.86
301.111	18.46
301.578	14.56
302.045	9.46
302.512	14.26
302.979	22.76
303.446	14.46
303.913	7.96
304.379	13.86
304.846	20.36
305.313	20.56
305.78	18.56
306.246	21.56
306.713	17.26
307.18	15.36
307.646	19.16
308.113	26.56
308.579	17.46
309.046	20.16
309.512	24.16
309.979	8.66
310.445	19.66
310.912	17.26
311.378	26.06
311.845	20.66
312.311	19.76
312.777	20.26
313.244	17.86
313.71	30.46
314.176	23.66
314.642	19.66
315.109	19.96
315.575	28.16
316.041	30.26
316.507	26.86
316.973	30.66
317.439	20.96
317.905	29.26
318.371	26.96
318.837	19.16
319.303	23.76
319.769	27.96
320.235	24.96
320.701	23.36
321.167	27.36
321.633	23.26
322.099	28.26
322.564	28.26
323.03	29.76
323.496	32.56
323.962	30.66
324.427	28.66
324.893	36.26
325.359	26.66
325.824	31.66
326.29	24.66
326.755	27.06
327.221	33.46
327.686	28.56
328.152	39.96
328.617	30.76
329.083	38.66
329.548	40.36
330.014	45.76
330.479	36.86
330.944	34.56
331.41	37.06
331.875	38.96
332.34	39.16
332.805	37.06
333.271	35.06
333.736	30.86
334.201	43.66
334.666	37.36
335.131	45.06
335.596	44.16
336.061	45.36
336.526	34.86
336.991	43.86
337.456	49.96
337.921	41.86
338.386	30.06
338.851	36.36
339.316	33.76
339.781	39.96
340.246	44.06
340.711	37.96
341.175	42.56
341.64	36.26
342.105	44.76
342.569	45.56
343.034	52.66
343.499	50.16
343.963	47.36
344.428	50.46
344.893	51.26
345.357	54.66
345.822	52.56
346.286	54.26
346.751	61.36
347.215	55.86
347.679	58.36
348.144	73.46
348.608	68.76
349.073	60.66
349.537	64.96
350.001	59.66
350.465	62.56
350.93	68.36
351.394	74.76
351.858	58.66
352.322	72.86
352.786	69.96
353.25	79.46
353.715	88.36
354.179	81.06
354.643	100.46
355.107	105.06
355.571	85.66
356.035	77.06
356.498	93.16
356.962	95.06
357.426	103.76
357.89	89.96
358.354	84.06
358.818	71.66
359.281	65.26
359.745	64.96
360.209	71.06
360.673	66.96
361.136	66.76
361.6	74.56
362.064	66.16
362.527	73.56
362.991	81.96
363.454	74.06
363.918	66.16
364.381	76.16
364.845	76.26
365.308	79.76
365.772	80.16
366.235	78.16
366.698	78.86
367.162	77.36
367.625	77.96
368.088	78.16
368.552	73.46
369.015	77.56
369.478	86.26
369.941	85.36
370.404	83.16
370.867	90.96
371.331	92.26
371.794	92.26
372.257	85.96
372.72	92.96
373.183	99.36
373.646	86.36
374.109	90.06
374.572	81.56
375.035	89.26
375.497	85.16
375.96	93.26
376.423	91.86
376.886	98.36
377.349	95.06
377.811	90.06
378.274	97.46
378.737	93.36
379.199	103.46
379.662	94.06
380.125	98.16
380.587	95.86
381.05	93.56
381.512	104.26
381.975	113.16
382.437	105.76
382.9	106.86
383.362	113.16
383.825	120.76
384.287	110.66
384.75	105.66
385.212	120.16
385.674	126.86
386.136	122.76
386.599	108.66
387.061	110.86
387.523	113.66
387.985	116.36
388.447	126.56
388.91	115.76
389.372	115.96
389.834	116.66
390.296	118.96
390.758	127.16
391.22	131.86
391.682	132.66
392.144	133.06
392.606	138.46
393.068	135.96
393.529	142.46
393.991	133.06
394.453	123.96
394.915	125.86
395.377	128.46
395.838	130.96
396.3	124.96
396.762	134.56
397.224	128.86
397.685	120.66
398.147	129.86
398.608	129.96
399.07	123.96
399.531	121.86
399.993	140.36
400.454	146.06
400.916	139.06
401.377	143.86
401.839	145.56
402.3	144.06
402.762	163.46
403.223	166.56
403.684	165.06
404.145	153.16
404.607	151.36
405.068	151.16
405.529	159.76
405.99	173.96
406.451	162.36
406.913	166.36
407.374	163.36
407.835	159.86
408.296	155.16
408.757	166.46
409.218	180.56
409.679	174.36
410.14	166.16
410.601	169.86
411.062	176.56
411.522	177.76
411.983	168.66
412.444	170.36
412.905	179.16
413.366	177.66
413.826	200.26
414.287	219.56
414.748	265.46
415.208	247.86
415.669	207.66
416.13	197.46
416.59	199.26
417.051	212.36
417.511	215.06
417.972	238.66
418.432	248.56
418.893	289.16
419.353	251.26
419.814	195.76
420.274	182.26
420.734	188.96
421.195	194.66
421.655	188.56
422.115	197.96
422.576	189.96
423.036	197.76
423.496	210.46
423.956	213.56
424.416	230.86
424.876	265.56
425.336	252.56
425.797	257.56
426.257	257.46
426.717	236.76
427.177	236.56
427.637	221.46
428.097	228.96
428.556	241.76
429.016	266.36
429.476	250.66
429.936	273.66
430.396	269.86
430.856	286.76
431.315	301.76
431.775	338.06
432.235	372.36
432.694	331.86
433.154	345.96
433.614	372.36
434.073	320.36
434.533	273.46
434.993	264.86
435.452	273.06
435.912	283.16
436.371	279.56
436.83	276.16
437.29	263.16
437.749	245.86
438.209	238.76
438.668	267.96
439.127	282.86
439.587	261.66
440.046	251.16
440.505	256.26
440.964	276.56
441.424	317.46
441.883	303.66
442.342	254.56
442.801	228.66
443.26	227.76
443.719	224.06
444.178	225.06
444.637	223.36
445.096	227.66
445.555	230.96
446.014	231.26
446.473	229.36
446.932	238.86
447.391	232.16
447.849	234.56
448.308	215.56
448.767	228.26
449.226	243.16
449.685	239.36
450.143	251.26
450.602	244.76
451.061	234.16
451.519	242.26
451.978	238.96
452.436	250.46
452.895	248.56
453.353	256.36
453.812	247.06
454.27	248.96
454.729	244.96
455.187	250.16
455.646	255.06
456.104	260.36
456.562	271.96
457.021	271.66
457.479	267.16
457.937	277.36
458.395	271.26
458.854	257.16
459.312	262.26
459.77	282.66
460.228	269.96
460.686	251.26
461.144	262.86
461.602	259.36
462.06	256.06
462.518	262.16
462.976	262.96
463.434	273.96
463.892	276.66
464.35	295.26
464.808	300.16
465.266	280.96
465.724	285.56
466.181	288.36
466.639	283.26
467.097	316.66
467.555	313.36
468.012	311.06
468.47	325.36
468.928	338.06
469.385	347.36
469.843	359.46
470.3	363.96
470.758	364.36
471.215	395.96
471.673	414.46
472.13	410.46
472.588	429.56
473.045	386.86
473.503	390.66
473.96	398.16
474.417	415.26
474.875	444.26
475.332	487.36
475.789	478.56
476.246	470.46
476.704	502.66
477.161	521.16
477.618	539.96
478.075	574.56
478.532	626.56
478.989	688.46
479.446	808.26
479.903	764.86
480.36	790.36
480.817	845.56
481.274	936.96
481.731	1034.96
482.188	1103.66
482.645	1232.36
483.102	1308.56
483.558	1440.26
484.015	1478.36
484.472	1454.46
484.929	1413.46
485.385	1366.46
485.842	1336.76
486.299	1286.16
486.755	1236.66
487.212	1062.86
487.668	910.36
488.125	844.56
488.582	769.86
489.038	746.66
489.494	719.36
489.951	690.66
490.407	686.16
490.864	663.06
491.32	652.26
491.776	665.66
492.233	665.96
492.689	632.06
493.145	617.46
493.602	619.16
494.058	629.36
494.514	630.26
494.97	652.96
495.426	667.46
495.882	646.06
496.338	627.56
496.794	643.06
497.251	630.56
497.707	651.96
498.163	648.76
498.618	660.56
499.074	665.16
499.53	687.06
499.986	695.56
500.442	666.06
500.898	648.26
501.354	645.16
501.809	644.26
502.265	640.26
502.721	646.36
503.177	660.76
503.632	666.96
504.088	662.16
504.543	690.56
504.999	720.66
505.455	683.36
505.91	659.86
506.366	664.96
506.821	662.56
507.277	652.96
507.732	652.26
508.187	654.66
508.643	665.16
509.098	669.76
509.553	685.36
510.009	692.66
510.464	698.16
510.919	725.46
511.375	727.76
511.83	741.56
512.285	749.26
512.74	782.16
513.195	808.66
513.65	797.16
514.105	795.16
514.56	807.66
515.015	809.26
515.47	824.56
515.925	808.56
516.38	818.76
516.835	822.96
517.29	801.36
517.745	801.56
518.2	809.06
518.655	782.16
519.109	770.36
519.564	769.86
520.019	761.16
520.474	761.26
520.928	761.76
521.383	749.26
521.838	734.26
522.292	742.86
522.747	738.26
523.201	733.66
523.656	720.56
524.11	722.76
524.565	726.86
525.019	720.26
525.474	722.16
525.928	727.76
526.382	733.56
526.837	728.36
527.291	741.36
527.745	726.36
528.2	732.86
528.654	717.76
529.108	720.26
529.562	713.76
530.016	720.26
530.47	716.56
530.925	714.76
531.379	719.76
531.833	723.86
532.287	728.96
532.741	735.36
533.195	738.56
533.649	735.16
534.103	736.26
534.556	740.86
535.01	728.36
535.464	733.16
535.918	741.46
536.372	749.26
536.826	751.26
537.279	736.26
537.733	745.96
538.187	742.96
538.64	741.76
539.094	749.56
539.548	757.16
540.001	747.66
540.455	762.56
540.908	761.36
541.362	765.26
541.815	785.26
542.269	797.26
542.722	797.36
543.175	802.36
543.629	806.06
544.082	815.36
544.536	821.16
544.989	819.56
545.442	825.46
545.895	824.56
546.349	824.16
546.802	835.16
547.255	832.46
547.708	843.06
548.161	855.16
548.614	860.16
549.067	874.96
549.52	854.76
549.973	849.76
550.426	843.06
550.879	838.96
551.332	836.66
551.785	837.66
552.238	838.36
552.691	858.06
553.144	877.76
553.596	889.46
554.049	901.56
554.502	929.96
554.955	956.26
555.407	956.76
555.86	945.46
556.313	934.16
556.765	925.16
557.218	932.46
557.67	927.16
558.123	921.86
558.576	912.76
559.028	915.46
559.48	930.06
559.933	918.46
560.385	883.76
560.838	855.16
561.29	828.36
561.742	828.16
562.195	801.06
562.647	798.16
563.099	810.66
563.551	804.16
564.004	818.46
564.456	793.96
564.908	794.96
565.36	770.66
565.812	754.76
566.264	757.46
566.716	747.56
567.168	743.76
567.62	741.96
568.072	724.16
568.524	721.26
568.976	724.16
569.428	704.76
569.88	710.16
570.332	713.56
570.784	718.66
571.235	718.16
571.687	727.86
572.139	735.66
572.59	752.86
573.042	745.66
573.494	742.46
573.945	740.96
574.397	725.76
574.849	722.86
575.3	733.06
575.752	729.36
576.203	715.96
576.655	721.86
577.106	700.86
577.557	701.96
578.009	707.56
578.46	694.76
578.912	695.96
579.363	696.16
579.814	687.96
580.265	695.36
580.717	685.86
581.168	704.26
581.619	708.86
582.07	709.96
582.521	702.36
582.972	699.06
583.423	698.26
583.875	697.46
584.326	712.06
584.777	732.26
585.227	742.16
585.678	751.06
586.129	764.56
586.58	788.26
587.031	807.66
587.482	816.56
587.933	846.36
588.384	836.76
588.834	816.66
589.285	808.16
589.736	799.26
590.186	801.26
590.637	785.86
591.088	773.56
591.538	772.46
591.989	763.46
592.439	747.86
592.89	751.26
593.34	750.26
593.791	739.16
594.241	718.66
594.692	719.06
595.142	721.86
595.593	720.46
596.043	731.26
596.493	734.36
596.943	719.66
597.394	751.56
597.844	731.16
598.294	765.66
598.744	788.26
599.195	815.76
599.645	853.96
600.095	889.56
600.545	949.46
600.995	1008.46
601.445	1072.36
601.895	1121.96
602.345	1176.16
602.795	1164.06
603.245	1122.76
603.695	1047.36
604.145	991.16
604.594	952.26
605.044	904.66
605.494	837.56
605.944	779.96
606.393	777.56
606.843	757.26
607.293	761.66
607.743	761.96
608.192	766.66
608.642	776.46
609.091	779.36
609.541	784.86
609.99	797.36
610.44	782.16
610.889	744.06
611.339	728.16
611.788	709.26
612.238	712.76
612.687	741.06
613.136	707.76
613.586	736.36
614.035	723.86
614.484	736.86
614.933	731.26
615.383	728.26
615.832	725.96
616.281	727.76
616.73	692.16
617.179	674.66
617.628	649.86
618.077	653.16
618.526	641.46
618.975	643.36
619.424	636.26
619.873	632.96
620.322	633.16
620.771	627.66
621.22	625.56
621.669	609.06
622.118	604.46
622.567	608.86
623.015	590.46
623.464	580.06
623.913	582.86
624.361	572.16
624.81	569.46
625.259	569.06
625.707	578.46
626.156	569.86
626.604	584.96
627.053	575.06
627.501	584.56
627.95	578.96
628.398	600.96
628.847	587.96
629.295	588.36
629.744	588.26
630.192	587.06
630.64	581.36
631.089	565.86
631.537	560.96
631.985	549.16
632.433	555.66
632.881	543.06
633.33	539.76
633.778	546.16
634.226	537.76
634.674	560.76
635.122	560.16
635.57	574.26
636.018	576.76
636.466	575.26
636.914	567.56
637.362	590.16
637.81	586.06
638.258	597.46
638.705	597.86
639.153	623.86
639.601	643.86
640.049	659.26
640.497	703.46
640.944	715.16
641.392	673.26
641.84	638.56
642.287	598.56
642.735	579.26
643.182	587.36
643.63	581.26
644.078	571.86
644.525	590.46
644.973	590.36
645.42	607.66
645.867	641.56
646.315	651.26
646.762	670.36
647.21	697.76
647.657	707.56
648.104	744.76
648.551	768.76
648.999	838.96
649.446	904.66
649.893	998.86
650.34	1133.26
650.787	1340.76
651.234	1643.46
651.682	2132.96
652.129	2864.56
652.576	4070.16
653.023	5937.56
653.47	8046.86
653.917	9974.96
654.363	11502.46
654.81	12679.96
655.257	12007.96
655.704	7961.86
656.151	4810.76
656.598	3155.56
657.044	2243.76
657.491	1752.46
657.938	1433.46
658.385	1206.06
658.831	1053.96
659.278	940.76
659.724	842.46
660.171	777.96
660.618	712.96
661.064	688.66
661.511	677.56
661.957	657.36
662.404	651.56
662.85	654.86
663.296	623.96
663.743	573.96
664.189	551.56
664.635	544.96
665.082	541.06
665.528	534.46
665.974	527.16
666.42	518.66
666.867	513.46
667.313	499.76
667.759	485.46
668.205	455.76
668.651	465.06
669.097	463.06
669.543	446.86
669.989	445.36
670.435	456.26
670.881	458.36
671.327	461.46
671.773	484.96
672.219	504.96
672.665	560.76
673.11	607.66
673.556	659.76
674.002	698.06
674.448	671.46
674.893	576.26
675.339	498.76
675.785	450.66
676.23	438.66
676.676	406.66
677.122	390.46
677.567	384.66
678.013	384.46
678.458	373.16
678.904	374.36
679.349	357.16
679.794	362.96
680.24	361.46
680.685	365.06
681.131	358.06
681.576	367.76
682.021	370.56
682.466	355.26
682.912	355.76
683.357	360.16
683.802	397.66
684.247	424.66
684.692	471.06
685.137	512.26
685.583	555.46
686.028	584.26
686.473	540.46
686.918	463.46
687.363	432.66
687.807	407.86
688.252	383.36
688.697	369.56
689.142	354.76
689.587	344.46
690.032	333.96
690.477	351.36
690.921	362.16
691.366	399.26
691.811	407.96
692.255	439.36
692.7	470.96
693.145	519.36
693.589	727.36
694.034	1189.86
694.478	1596.46
694.923	1815.46
695.367	2340.56
695.812	1241.36
696.256	512.26
696.701	391.96
697.145	353.66
697.59	346.56
698.034	336.26
698.478	334.96
698.922	327.46
699.367	342.26
699.811	355.66
700.255	367.16
700.699	402.66
701.143	438.86
701.588	492.46
702.032	522.66
702.476	531.26
702.92	507.46
703.364	510.16
703.808	661.36
704.252	1073.06
704.696	1520.06
705.14	1745.96
705.584	2235.86
706.027	1104.46
706.471	551.86
706.915	417.76
707.359	369.16
707.803	338.56
708.246	323.86
708.69	321.96
709.134	319.06
709.577	313.86
710.021	325.66
710.465	321.36
710.908	305.36
711.352	302.56
711.795	314.36
712.239	370.56
712.682	398.86
713.126	422.36
713.569	467.56
714.012	371.86
714.456	312.66
714.899	296.76
715.342	280.76
715.786	268.66
716.229	260.66
716.672	257.66
717.115	247.16
717.558	257.66
718.002	259.46
718.445	273.66
718.888	298.96
719.331	314.46
719.774	320.96
720.217	316.96
720.66	295.86
721.103	276.36
721.546	268.76
721.989	253.76
722.432	240.56
722.874	248.06
723.317	230.56
723.76	244.86
724.203	257.16
724.645	326.86
725.088	458.56
725.531	597.36
725.974	665.16
726.416	567.26
726.859	318.56
727.301	257.26
727.744	237.56
728.187	245.06
728.629	246.46
729.071	252.56
729.514	270.26
729.956	280.06
730.399	292.96
730.841	293.96
731.283	287.36
731.726	283.46
732.168	268.16
732.61	270.26
733.053	297.06
733.495	324.96
733.937	365.56
734.379	413.56
734.821	462.76
735.263	569.36
735.705	881.86
736.148	1662.96
736.59	2726.96
737.032	3188.16
737.474	2611.36
737.916	846.06
738.357	448.36
738.799	343.36
739.241	309.76
739.683	290.86
740.125	304.86
740.567	310.76
741.008	327.56
741.45	326.26
741.892	333.66
742.334	367.36
742.775	372.56
743.217	367.66
743.658	285.46
744.1	265.66
744.542	273.86
744.983	323.86
745.425	363.96
745.866	362.76
746.307	287.66
746.749	293.56
747.19	335.96
747.632	475.76
748.073	937.86
748.514	1960.26
748.956	3000.36
749.397	3753.26
749.838	3108.66
750.279	3083.86
750.72	1570.86
751.162	571.56
751.603	335.86
752.044	263.96
752.485	225.46
752.926	212.06
753.367	210.06
753.808	197.96
754.249	199.66
754.69	191.26
755.131	185.06
755.572	191.36
756.013	191.26
756.453	201.26
756.894	190.26
757.335	197.56
757.776	201.06
758.216	205.86
758.657	203.66
759.098	208.96
759.538	232.76
759.979	280.66
760.42	394.76
760.86	737.86
761.301	1949.76
761.741	4672.96
762.182	6704.86
762.622	4744.06
763.063	1375.96
763.503	557.66
763.943	340.76
764.384	279.46
764.824	243.66
765.264	225.46
765.705	207.66
766.145	190.46
766.585	178.86
767.025	177.66
767.465	161.86
767.906	185.56
768.346	188.16
768.786	195.56
769.226	217.96
769.666	322.16
770.106	651.86
770.546	1636.56
770.986	2768.26
771.426	2465.16
771.866	822.66
772.306	340.56
772.745	213.46
773.185	173.06
773.625	170.66
774.065	153.86
774.505	163.76
774.944	212.36
775.384	369.56
775.824	595.96
776.263	576.06
776.703	284.16
777.142	167.96
777.582	138.96
778.021	125.46
778.461	120.56
778.9	122.76
779.34	123.76
779.779	113.76
780.219	114.16
780.658	109.16
781.097	117.66
781.537	111.16
781.976	111.56
782.415	105.96
782.855	105.96
783.294	108.36
783.733	106.86
784.172	114.06
784.611	107.06
785.05	110.26
785.489	112.56
785.928	118.66
786.367	125.26
786.806	127.46
787.245	132.16
787.684	136.86
788.123	143.76
788.562	142.46
789.001	126.26
789.44	130.36
789.879	123.66
790.317	121.26
790.756	138.56
791.195	132.26
791.634	158.56
792.072	216.36
792.511	383.86
792.95	1061.06
793.388	2208.66
793.827	1992.26
794.265	696.16
794.704	294.66
795.142	185.86
795.581	156.56
796.019	140.66
796.458	131.76
796.896	131.46
797.334	137.66
797.773	164.46
798.211	226.56
798.649	471.76
799.087	1070.76
799.526	1681.66
799.964	2123.16
800.402	2093.36
800.84	798.86
801.278	313.66
801.716	192.26
802.154	159.96
802.592	154.76
803.03	144.06
803.468	142.46
803.906	148.66
804.344	157.96
804.782	146.16
805.22	138.86
805.658	137.56
806.096	156.56
806.533	160.56
806.971	183.96
807.409	220.36
807.847	328.46
808.284	713.76
808.722	1978.26
809.16	3463.26
809.597	3316.46
810.035	5703.16
810.472	6045.06
810.91	2191.86
811.347	841.66
811.785	419.06
812.222	271.76
812.66	208.96
813.097	174.66
813.535	148.26
813.972	132.96
814.409	127.66
814.846	116.76
815.284	108.36
815.721	100.76
816.158	112.76
816.595	114.66
817.032	158.56
817.47	183.16
817.907	146.56
818.344	104.26
818.781	99.66
819.218	100.86
819.655	127.26
820.092	196.86
820.529	227.76
820.966	181.16
821.403	136.76
821.839	100.56
822.276	100.66
822.713	120.46
823.15	140.46
823.587	124.36
824.023	157.36
824.46	318.56
824.897	948.86
825.333	1407.66
825.77	613.06
826.206	241.96
826.643	140.26
827.08	104.26
827.516	89.36
827.953	81.66
828.389	81.36
828.825	75.86
829.262	63.26
829.698	68.96
830.135	72.46
830.571	66.86
831.007	64.86
831.443	64.26
831.88	58.56
832.316	64.16
832.752	65.96
833.188	70.66
833.624	65.66
834.06	72.36
834.497	69.66
834.933	68.96
835.369	74.56
835.805	71.66
836.241	81.46
836.677	85.86
837.112	93.16
837.548	113.26
837.984	145.56
838.42	209.36
838.856	526.96
839.292	1590.06
839.727	2408.86
840.163	1135.66
840.599	971.76
841.034	2145.06
841.47	2217.16
841.906	813.96
842.341	347.96
842.777	206.46
843.212	207.96
843.648	191.26
844.083	110.76
844.519	87.56
844.954	73.76
845.39	61.36
845.825	56.76
846.261	60.06
846.696	63.16
847.131	57.16
847.566	61.66
848.002	54.46
848.437	55.66
848.872	67.06
849.307	67.46
849.742	88.96
850.177	191.36
850.613	588.96
851.048	917.36
851.483	403.86
851.918	158.96
852.353	93.36
852.788	58.46
853.223	51.26
853.657	59.26
854.092	55.76
854.527	44.16
854.962	39.76
855.397	46.26
855.832	52.26
856.266	43.66
856.701	45.06
857.136	39.06
857.57	39.46
858.005	54.36
858.44	59.66
858.874	46.56
859.309	55.46
859.743	41.76
860.178	47.16
860.612	39.06
861.047	55.46
861.481	68.46
861.915	78.86
862.35	53.56
862.784	34.56
863.218	38.86
863.653	31.06
864.087	48.46
864.521	56.06
864.955	73.56
865.39	162.76
865.824	184.16
866.258	118.86
866.692	181.16
867.126	191.36
867.56	112.26
867.994	52.26
868.428	40.46
868.862	49.36
869.296	55.16
869.73	59.46
870.164	53.26
870.598	46.26
871.031	41.96
871.465	30.36
871.899	29.76
872.333	23.26
872.766	33.26
873.2	26.56
873.634	32.06
874.067	28.86
874.501	25.46
874.935	36.86
875.368	33.16
875.802	25.76
876.235	22.96
876.669	25.66
877.102	24.86
877.535	29.96
877.969	19.06
878.402	26.76
878.836	20.46
879.269	24.36
879.702	18.46
880.135	27.36
880.569	22.86
881.002	32.56
881.435	25.06
881.868	17.06
882.301	19.86
882.734	16.06
883.167	20.56
883.601	15.66
884.034	25.36
884.467	16.16
884.899	21.76
885.332	14.16
885.765	22.56
886.198	15.36
886.631	19.36
887.064	17.66
887.497	24.56
887.929	21.76
888.362	17.36
888.795	12.96
889.228	11.26
889.66	23.96
890.093	20.76
890.526	16.56
890.958	17.86
891.391	19.56
891.823	21.26
892.256	15.56
892.688	13.46
893.121	17.56
893.553	11.76
893.985	25.56
894.418	21.56
894.85	19.36
895.282	16.56
895.715	12.46
896.147	16.66
896.579	18.36
897.011	16.56
897.444	18.96
897.876	13.06
898.308	17.56
898.74	15.56
899.172	18.76
899.604	19.26
900.036	15.86
900.468	16.76
900.9	19.36
901.332	18.36
901.764	21.06
902.196	17.06
902.628	19.86
903.06	21.06
903.491	34.96
903.923	23.36
904.355	20.86
904.787	26.26
905.218	27.76
905.65	20.86
906.082	10.76
906.513	7.86
906.945	14.96
907.376	12.46
907.808	15.66
908.239	21.06
908.671	16.16
909.102	18.06
909.534	25.86
909.965	46.46
910.397	97.86
910.828	329.36
911.259	486.06
911.691	225.76
912.122	106.26
912.553	60.06
912.984	33.76
913.415	29.96
913.847	24.76
914.278	14.06
914.709	12.16
915.14	18.26
915.571	20.96
916.002	8.86
916.433	20.86
916.864	13.26
917.295	13.36
917.726	18.06
918.157	16.36
918.587	30.56
919.018	24.36
919.449	19.36
919.88	22.26
920.311	28.96
920.741	52.66
921.172	171.16
921.603	154.36
922.033	69.86
922.464	42.96
922.895	28.06
923.325	18.36
923.756	11.46
924.186	15.66
924.617	19.46
925.047	20.16
925.478	21.76
925.908	22.66
926.338	11.96
926.769	13.16
927.199	17.36
927.629	5.96
928.06	16.96
928.49	15.66
928.92	14.06
929.35	8.96
929.78	3.66
930.21	7.66
930.641	5.36
931.071	8.86
931.501	4.26
931.931	7.26
932.361	7.66
932.791	3.16
933.221	5.16
933.651	11.26
934.08	29.16
934.51	32.36
934.94	8.96
935.37	13.76
935.8	6.26
936.229	9.16
936.659	8.96
937.089	4.16
937.519	18.76
937.948	24.16
938.378	14.26
938.807	1.66
939.237	9.16
939.666	3.86
940.096	-2.64
940.525	0.56
940.955	0.06
941.384	5.16
941.814	-5.84
942.243	-2.94
942.672	4.66
943.102	-5.24
943.531	5.86
943.96	4.96
944.39	5.56
944.819	-0.84
945.248	7.56
945.677	2.06
946.106	3.76
946.535	6.96
946.964	-1.24
947.393	6.06
947.822	-3.44
948.251	2.66
948.68	1.06
949.109	5.76
949.538	5.06
949.967	2.86
950.396	0.36
950.825	-2.64
951.254	1.86
951.682	-3.04
952.111	3.76
952.54	2.66
952.969	-2.54
953.397	-5.94
953.826	2.86
954.254	-7.04
954.683	2.46
955.112	-3.84
955.54	-2.94
955.969	0.36
956.397	-0.94
956.826	-1.34
957.254	3.16
957.682	6.16
958.111	3.36
958.539	-3.74
958.967	3.96
959.396	-5.44
959.824	2.96
960.252	2.36
960.68	-3.74
961.109	-0.14
961.537	-5.84
961.965	1.26
962.393	-3.64
962.821	-1.54
963.249	-3.64
963.677	9.86
964.105	6.66
964.533	49.46
964.961	34.16
965.389	27.46
965.817	12.46
966.245	1.36
966.672	-2.44
967.1	-3.54
967.528	0.16
967.956	-8.04
968.383	6.16
968.811	1.96
969.239	-2.64
969.666	-2.64
970.094	1.16
970.522	6.26
970.949	1.96
971.377	-4.44
971.804	-1.94
972.232	0.96
972.659	-3.04
973.087	-6.34
973.514	-5.64
973.941	-8.84
974.369	2.16
974.796	4.26
975.223	0.56
975.651	-2.44
976.078	1.66
976.505	-0.04
976.932	1.76
977.359	17.56
977.786	18.66
978.214	3.56
978.641	-1.44
979.068	-1.34
979.495	-3.94
979.922	-1.34
980.349	-4.34
980.776	4.16
981.202	1.86
981.629	9.86
982.056	5.46
982.483	1.26
982.91	2.36
983.337	-6.54
983.763	-1.14
984.19	-5.34
984.617	-8.14
985.043	-9.84
985.47	-1.44
985.897	-2.84
986.323	-3.14
986.75	1.06
987.176	-0.64
987.603	4.36
988.029	-3.64
988.456	-8.44
988.882	-0.74
989.308	-5.84
989.735	-5.04
990.161	-2.34
990.587	-7.04
991.014	4.76
991.44	8.26
991.866	4.06
992.292	-3.54
992.719	-4.54
993.145	7.06
993.571	-9.14
993.997	-2.54
994.423	2.96
994.849	-6.14
995.275	-0.94
995.701	1.56
996.127	-6.34
996.553	4.26
996.979	2.16
997.405	0.76
997.83	-4.84
998.256	0.56
998.682	-9.14
999.108	-11.04
999.534	-0.44
999.959	1.86
1000.385	-3.84
1000.811	-2.74
1001.236	-7.44
1001.662	-9.04
1002.087	-9.14
1002.513	-2.34
1002.938	0.96
1003.364	-0.84
1003.789	-3.04
1004.215	1.56
1004.64	2.26
1005.066	2.66
1005.491	-4.24
1005.916	-0.34
1006.342	-4.24
1006.767	-1.74
1007.192	2.46
1007.617	-2.24
1008.042	-1.14
1008.468	-6.54
1008.893	-6.64
1009.318	-0.34
1009.743	-5.24
1010.168	3.96
1010.593	1.56
1011.018	-4.34
1011.443	-6.04
1011.868	1.96
1012.293	-7.24
1012.718	-6.74
1013.143	-1.64
1013.567	-0.84
1013.992	-3.04
1014.417	-12.54
1014.842	0.96
1015.267	-4.64
1015.691	-1.34
1016.116	10.06
1016.541	-7.74
1016.965	-1.74
1017.39	1.56
1017.814	-5.04
1018.239	1.06
1018.663	-4.74
1019.088	-9.74
1019.512	-8.94
1019.937	-0.14
1020.361	-6.84
1020.785	-7.94
1021.21	-5.84
1021.634	2.76
1022.058	-0.94
1022.483	7.06
1022.907	-1.74
1023.331	-0.54
1023.755	1.36
1024.179	-0.44
1024.604	-3.74
1025.028	-5.04
1025.452	-2.64
1025.876	2.76
1026.3	-5.74
1026.724	-11.74
1027.148	-2.54
1027.572	-7.74
1027.996	-4.34
1028.42	2.96
1028.843	-5.34
1029.267	-7.94
1029.691	-1.34
1030.115	1.06
1030.539	-6.44
1030.962	-8.64
1031.386	-10.84
1031.81	-4.04
1032.233	-1.64
1032.657	0.96
1033.08	-2.24
1033.504	0.96
1033.927	-5.64
1034.351	-2.44
1034.774	-5.34
1035.198	-2.14
1035.621	-7.74
1036.045	-6.14
1036.468	-4.34
1036.891	-12.94
1037.315	-11.04
1037.738	-10.54
1038.161	0.76
1038.584	-5.34
1039.008	-0.54
1039.431	-4.94
1039.854	-2.44
1040.277	-11.94
1040.7	-12.84
1041.123	0.26
1041.546	-9.04
1041.969	-3.84
1042.392	-1.14
1042.815	-2.94
1043.238	-0.84
1043.661	0.96
1044.084	-4.64
1044.507	-4.04
1044.93	-3.14
1045.352	-7.54
1045.775	1.96
1046.198	-2.14
1046.621	-4.34
1047.043	0.86
1047.466	8.96
1047.889	-5.94
1048.311	-7.94
1048.734	-5.44
1049.156	-9.24
1049.579	-4.24
1050.001	-8.14
1050.424	-2.74
1050.846	-9.84
1051.269	-2.74
1051.691	-9.74
1052.113	-13.54
1052.536	-4.24
1052.958	-10.74
1053.38	-2.84
1053.802	-13.84
1054.225	2.96
1054.647	-6.84
1055.069	-0.04
1055.491	1.66
1055.913	-11.74
1056.335	-4.44
1056.757	-2.04
1057.179	-6.14
1057.601	-7.44
1058.023	-7.04
1058.445	-5.84
1058.867	-4.04
1059.289	-5.44
1059.711	-8.74
1060.133	-6.54
1060.555	-1.84
1060.976	-8.04
1061.398	-2.84
1061.82	-6.64
1062.241	-2.04
1062.663	-9.54
1063.085	-2.44
1063.506	-3.74
1063.928	-5.74
1064.35	-1.84
1064.771	-9.64
1065.193	-4.84
1065.614	-4.84
1066.035	-1.14
1066.457	-2.64
1066.878	2.76
1067.3	-2.24
1067.721	-2.84
1068.142	-10.34
1068.564	-4.14
1068.985	-3.64
1069.406	-1.34
1069.827	-3.94
1070.248	-0.14
1070.67	-9.44
1071.091	-4.14
1071.512	-4.74
1071.933	-6.34
1072.354	-6.44
1072.775	-3.54
1073.196	-7.64
1073.617	-6.34
1074.038	-11.94
1074.459	0.76
1074.88	-9.74
1075.3	-2.14
1075.721	-5.64
1076.142	-0.64
1076.563	-4.34
1076.983	-11.34
1077.404	-6.34
1077.825	-8.14
1078.246	-3.34
1078.666	-8.84
1079.087	-0.84
1079.507	-10.24
1079.928	-0.14
1080.348	-4.74
1080.769	-4.74
1081.189	-3.44
1081.61	-3.64
1082.03	-7.94
1082.451	-4.24
1082.871	-9.74
1083.291	-10.34
1083.711	-16.44
1084.132	-5.84
1084.552	-6.54
1084.972	0.06
1085.392	-5.84
1085.813	-11.04
1086.233	-8.84
1086.653	-14.34
1087.073	-5.64
1087.493	-5.84
1087.913	-9.04
1088.333	-3.84
1088.753	-3.74
1089.173	-0.94
1089.593	-4.74
1090.013	-0.24
1090.433	2.06
1090.852	-5.84
1091.272	-1.44
1091.692	-5.14
1092.112	-4.34
1092.531	-8.74
1092.951	-14.94
1093.371	-3.14
1093.79	2.76
1094.21	-7.14
1094.63	-3.84
1095.049	-8.74
1095.469	-1.44
1095.888	-1.74
1096.308	5.06
1096.727	2.16
1097.146	-8.14
1097.566	2.86
1097.985	-3.24
1098.405	-1.94
1098.824	-13.64
1099.243	-5.94
1099.662	-8.14
1100.082	-1.64
1100.501	-3.94
1100.92	-6.54
1101.339	-7.74
1101.758	-7.84
