Data from 20171114-ORNL-Ar_H_NY_Subt18_08-07-10-689.txt Node
Date: Tue Nov 14 08:07:10 EST 2017
User: Ender
Spectrometer: HR+D1039
Trigger mode: 0
Integration Time (sec): 2.730000E-2
Scans to average: 10
Electric dark correction enabled: true
Nonlinearity correction enabled: false
Boxcar width: 0
XAxis mode: Wavelengths
Number of Pixels in Spectrum: 2048
>>>>>Begin Spectral Data<<<<<
187.836	-8.17
188.309	-8.17
188.782	-8.17
189.255	-4.87
189.728	-1.67
190.201	3.83
190.674	5.43
191.147	3.93
191.619	-11.17
192.092	1.33
192.565	3.13
193.038	4.73
193.511	0.13
193.984	1.53
194.456	1.13
194.929	2.93
195.402	-2.27
195.874	0.03
196.347	1.03
196.82	-7.07
197.292	3.33
197.765	-3.17
198.237	-6.47
198.71	2.43
199.182	-5.07
199.655	-4.37
200.127	4.03
200.6	-5.27
201.072	-0.97
201.544	-5.77
202.017	0.43
202.489	5.53
202.961	2.13
203.433	0.13
203.906	-4.07
204.378	-8.37
204.85	-8.67
205.322	-7.57
205.794	0.03
206.266	0.23
206.739	-6.57
207.211	-1.87
207.683	-3.57
208.155	-7.77
208.627	-9.57
209.099	0.73
209.57	-7.67
210.042	-6.87
210.514	-5.97
210.986	-8.07
211.458	-8.57
211.93	1.73
212.402	3.13
212.873	-8.17
213.345	-6.47
213.817	-8.17
214.288	-4.27
214.76	-13.77
215.232	1.53
215.703	-2.27
216.175	-0.57
216.646	-7.77
217.118	-8.97
217.589	-5.87
218.061	-1.97
218.532	-6.07
219.004	-1.27
219.475	-1.17
219.946	-10.37
220.418	-13.17
220.889	3.13
221.36	-0.87
221.832	-5.47
222.303	-8.97
222.774	0.03
223.245	-15.17
223.717	-6.97
224.188	-0.27
224.659	-12.07
225.13	-2.57
225.601	-2.27
226.072	3.73
226.543	-2.07
227.014	-6.37
227.485	-2.27
227.956	0.83
228.427	1.23
228.898	1.03
229.369	5.53
229.839	-3.87
230.31	-11.57
230.781	-1.27
231.252	-6.67
231.722	-5.47
232.193	-2.57
232.664	-1.17
233.135	-7.27
233.605	-2.97
234.076	-12.77
234.546	3.63
235.017	2.33
235.487	-0.57
235.958	-5.87
236.428	-6.87
236.899	-0.97
237.369	-7.37
237.84	-5.57
238.31	1.03
238.78	-4.77
239.251	-8.77
239.721	-1.27
240.191	-10.37
240.662	-3.97
241.132	-5.87
241.602	-10.27
242.072	-6.67
242.542	3.03
243.013	-8.27
243.483	-1.57
243.953	0.33
244.423	-5.87
244.893	-5.77
245.363	-2.47
245.833	1.23
246.303	-7.37
246.773	2.43
247.243	-1.87
247.712	-7.47
248.182	-6.07
248.652	-0.97
249.122	-11.27
249.592	-0.47
250.061	-0.67
250.531	3.83
251.001	-6.07
251.471	7.13
251.94	4.23
252.41	-1.77
252.879	-11.57
253.349	4.83
253.818	1.93
254.288	1.43
254.757	-1.27
255.227	-10.37
255.696	-2.97
256.166	4.63
256.635	1.63
257.105	-3.17
257.574	-2.67
258.043	1.83
258.513	-5.37
258.982	2.13
259.451	-8.07
259.92	-3.57
260.389	-3.87
260.859	1.03
261.328	0.23
261.797	0.93
262.266	-7.67
262.735	11.13
263.204	3.73
263.673	-0.07
264.142	1.23
264.611	-7.67
265.08	-5.87
265.549	-5.17
266.018	3.03
266.487	-8.87
266.955	-3.37
267.424	-10.07
267.893	3.23
268.362	-2.87
268.83	0.33
269.299	6.43
269.768	-0.77
270.236	1.63
270.705	-6.87
271.174	-1.47
271.642	5.53
272.111	0.63
272.579	0.83
273.048	2.03
273.516	1.03
273.985	-1.07
274.453	2.23
274.922	3.03
275.39	4.43
275.858	-9.57
276.327	5.13
276.795	11.93
277.263	-2.57
277.731	4.93
278.2	3.13
278.668	5.43
279.136	0.23
279.604	1.53
280.072	5.13
280.54	2.43
281.008	1.13
281.477	6.03
281.945	4.83
282.413	4.73
282.881	6.53
283.348	3.63
283.816	13.73
284.284	7.13
284.752	12.23
285.22	9.63
285.688	10.33
286.156	8.13
286.623	11.73
287.091	7.03
287.559	5.03
288.026	5.73
288.494	10.33
288.962	4.73
289.429	8.23
289.897	10.83
290.364	11.03
290.832	11.33
291.3	6.53
291.767	8.73
292.234	9.03
292.702	7.03
293.169	9.13
293.637	16.43
294.104	14.43
294.571	1.63
295.039	8.53
295.506	8.53
295.973	6.23
296.44	10.43
296.908	10.73
297.375	12.53
297.842	13.23
298.309	6.43
298.776	12.13
299.243	10.93
299.71	4.63
300.177	17.43
300.644	20.03
301.111	10.63
301.578	20.43
302.045	11.43
302.512	18.23
302.979	17.63
303.446	17.03
303.913	10.83
304.379	6.93
304.846	17.73
305.313	13.63
305.78	12.83
306.246	14.23
306.713	20.43
307.18	18.43
307.646	15.83
308.113	19.93
308.579	13.73
309.046	18.53
309.512	18.03
309.979	16.83
310.445	22.13
310.912	20.83
311.378	20.53
311.845	23.03
312.311	24.03
312.777	25.53
313.244	22.53
313.71	31.93
314.176	22.53
314.642	18.03
315.109	18.43
315.575	26.83
316.041	29.93
316.507	21.43
316.973	28.23
317.439	30.53
317.905	24.83
318.371	22.43
318.837	18.23
319.303	27.23
319.769	21.93
320.235	26.83
320.701	24.63
321.167	23.83
321.633	29.43
322.099	29.33
322.564	32.93
323.03	24.53
323.496	25.13
323.962	30.43
324.427	23.53
324.893	36.03
325.359	30.33
325.824	33.73
326.29	28.13
326.755	32.43
327.221	29.13
327.686	28.03
328.152	37.03
328.617	34.13
329.083	39.63
329.548	39.93
330.014	36.93
330.479	29.03
330.944	35.03
331.41	31.13
331.875	36.03
332.34	40.23
332.805	31.43
333.271	36.73
333.736	26.23
334.201	40.33
334.666	41.63
335.131	41.73
335.596	41.13
336.061	39.43
336.526	30.33
336.991	43.23
337.456	50.13
337.921	40.23
338.386	34.93
338.851	39.83
339.316	42.73
339.781	42.13
340.246	46.83
340.711	37.43
341.175	44.43
341.64	38.63
342.105	47.13
342.569	50.63
343.034	49.73
343.499	49.63
343.963	43.93
344.428	49.53
344.893	48.23
345.357	48.93
345.822	48.13
346.286	55.43
346.751	63.83
347.215	54.53
347.679	59.93
348.144	80.53
348.608	68.23
349.073	59.33
349.537	61.83
350.001	70.73
350.465	72.03
350.93	70.13
351.394	66.23
351.858	66.63
352.322	71.33
352.786	72.03
353.25	91.33
353.715	86.93
354.179	90.53
354.643	101.73
355.107	96.83
355.571	87.83
356.035	87.43
356.498	88.93
356.962	92.13
357.426	103.83
357.89	94.13
358.354	73.23
358.818	66.53
359.281	77.73
359.745	63.33
360.209	67.23
360.673	60.43
361.136	70.93
361.6	74.93
362.064	75.83
362.527	74.23
362.991	74.43
363.454	69.73
363.918	69.43
364.381	69.13
364.845	69.73
365.308	78.53
365.772	78.03
366.235	78.63
366.698	74.43
367.162	71.03
367.625	75.43
368.088	76.83
368.552	77.63
369.015	80.83
369.478	89.23
369.941	87.83
370.404	80.23
370.867	83.73
371.331	94.63
371.794	100.93
372.257	85.53
372.72	98.63
373.183	93.73
373.646	86.63
374.109	83.03
374.572	88.63
375.035	92.83
375.497	96.83
375.96	93.03
376.423	93.33
376.886	103.73
377.349	101.43
377.811	95.83
378.274	95.03
378.737	98.73
379.199	104.33
379.662	104.33
380.125	98.93
380.587	100.03
381.05	99.23
381.512	108.23
381.975	114.73
382.437	112.23
382.9	107.93
383.362	115.13
383.825	122.33
384.287	115.73
384.75	107.83
385.212	122.43
385.674	128.73
386.136	124.93
386.599	117.33
387.061	120.03
387.523	114.23
387.985	117.93
388.447	119.73
388.91	117.93
389.372	124.23
389.834	118.73
390.296	114.83
390.758	123.33
391.22	128.63
391.682	138.33
392.144	138.63
392.606	129.63
393.068	130.43
393.529	141.23
393.991	128.83
394.453	126.43
394.915	129.43
395.377	136.33
395.838	127.23
396.3	125.83
396.762	134.33
397.224	125.73
397.685	131.33
398.147	124.53
398.608	133.93
399.07	128.03
399.531	131.43
399.993	140.33
400.454	150.93
400.916	148.73
401.377	144.63
401.839	142.53
402.3	146.93
402.762	164.03
403.223	172.23
403.684	168.53
404.145	161.33
404.607	161.43
405.068	165.73
405.529	163.43
405.99	175.93
406.451	166.33
406.913	167.33
407.374	156.23
407.835	156.83
408.296	161.83
408.757	171.33
409.218	180.73
409.679	178.73
410.14	170.43
410.601	169.23
411.062	175.03
411.522	176.23
411.983	178.03
412.444	169.93
412.905	181.13
413.366	186.83
413.826	200.63
414.287	215.73
414.748	269.53
415.208	259.73
415.669	216.43
416.13	212.03
416.59	201.53
417.051	216.63
417.511	217.93
417.972	242.93
418.432	248.73
418.893	305.23
419.353	257.03
419.814	201.93
420.274	186.53
420.734	187.23
421.195	200.33
421.655	188.43
422.115	197.23
422.576	196.73
423.036	210.13
423.496	214.43
423.956	215.93
424.416	232.53
424.876	266.53
425.336	268.33
425.797	263.43
426.257	258.43
426.717	244.83
427.177	237.63
427.637	224.63
428.097	234.33
428.556	247.23
429.016	270.23
429.476	261.33
429.936	273.53
430.396	273.03
430.856	290.73
431.315	307.53
431.775	336.53
432.235	371.13
432.694	348.33
433.154	358.93
433.614	381.73
434.073	326.23
434.533	281.03
434.993	273.03
435.452	283.73
435.912	292.43
436.371	277.43
436.83	270.33
437.29	264.23
437.749	248.33
438.209	242.13
438.668	270.53
439.127	290.83
439.587	262.93
440.046	252.23
440.505	267.53
440.964	277.33
441.424	325.63
441.883	310.53
442.342	270.73
442.801	236.13
443.26	230.43
443.719	231.83
444.178	229.33
444.637	220.93
445.096	233.03
445.555	234.53
446.014	229.73
446.473	233.43
446.932	242.23
447.391	236.93
447.849	237.03
448.308	232.23
448.767	239.13
449.226	246.23
449.685	247.13
450.143	266.53
450.602	245.93
451.061	240.73
451.519	251.93
451.978	236.43
452.436	242.63
452.895	255.03
453.353	263.53
453.812	251.83
454.27	248.83
454.729	248.83
455.187	258.43
455.646	263.23
456.104	260.73
456.562	267.63
457.021	275.13
457.479	277.63
457.937	287.73
458.395	283.43
458.854	269.03
459.312	268.43
459.77	283.43
460.228	261.33
460.686	253.53
461.144	265.63
461.602	260.73
462.06	255.23
462.518	268.43
462.976	271.03
463.434	271.53
463.892	270.93
464.35	285.73
464.808	302.33
465.266	286.73
465.724	292.23
466.181	288.13
466.639	285.83
467.097	300.83
467.555	318.23
468.012	314.13
468.47	317.33
468.928	347.73
469.385	356.03
469.843	363.93
470.3	364.83
470.758	376.53
471.215	395.33
471.673	425.53
472.13	418.73
472.588	429.13
473.045	393.93
473.503	402.93
473.96	416.53
474.417	423.33
474.875	457.63
475.332	492.53
475.789	481.23
476.246	485.73
476.704	502.33
477.161	536.23
477.618	539.93
478.075	574.33
478.532	636.63
478.989	706.03
479.446	804.53
479.903	779.93
480.36	809.43
480.817	856.63
481.274	950.43
481.731	1039.93
482.188	1119.03
482.645	1229.53
483.102	1342.93
483.558	1451.03
484.015	1491.33
484.472	1452.73
484.929	1420.23
485.385	1389.23
485.842	1351.53
486.299	1312.33
486.755	1250.83
487.212	1080.93
487.668	918.83
488.125	851.63
488.582	791.43
489.038	755.63
489.494	731.43
489.951	705.13
490.407	685.83
490.864	665.13
491.32	663.43
491.776	666.03
492.233	671.23
492.689	624.53
493.145	635.63
493.602	621.63
494.058	638.23
494.514	637.43
494.97	656.13
495.426	672.43
495.882	641.63
496.338	635.23
496.794	647.33
497.251	638.73
497.707	661.93
498.163	663.73
498.618	670.03
499.074	671.73
499.53	699.83
499.986	690.43
500.442	665.23
500.898	644.33
501.354	646.03
501.809	650.93
502.265	646.03
502.721	667.13
503.177	665.03
503.632	664.53
504.088	674.93
504.543	707.33
504.999	719.73
505.455	689.33
505.91	671.33
506.366	670.73
506.821	655.33
507.277	661.13
507.732	663.33
508.187	662.13
508.643	672.23
509.098	676.83
509.553	693.73
510.009	708.03
510.464	703.13
510.919	730.73
511.375	735.13
511.83	754.73
512.285	757.13
512.74	788.43
513.195	827.73
513.65	809.13
514.105	796.63
514.56	804.13
515.015	820.73
515.47	837.63
515.925	817.33
516.38	823.33
516.835	829.53
517.29	815.03
517.745	808.03
518.2	793.33
518.655	785.43
519.109	786.13
519.564	787.23
520.019	766.23
520.474	764.23
520.928	763.63
521.383	749.73
521.838	743.33
522.292	742.83
522.747	745.93
523.201	735.33
523.656	733.23
524.11	732.33
524.565	731.83
525.019	716.33
525.474	738.33
525.928	732.13
526.382	730.83
526.837	739.33
527.291	736.93
527.745	735.93
528.2	740.03
528.654	721.93
529.108	716.13
529.562	728.53
530.016	721.13
530.47	725.23
530.925	724.43
531.379	727.63
531.833	736.93
532.287	727.33
532.741	722.43
533.195	738.43
533.649	734.93
534.103	749.43
534.556	737.63
535.01	740.53
535.464	743.13
535.918	750.13
536.372	755.23
536.826	754.13
537.279	740.43
537.733	750.93
538.187	755.43
538.64	742.23
539.094	753.63
539.548	761.33
540.001	758.33
540.455	759.93
540.908	770.13
541.362	783.03
541.815	781.23
542.269	793.93
542.722	802.73
543.175	813.33
543.629	798.63
544.082	824.63
544.536	823.43
544.989	824.53
545.442	842.03
545.895	825.63
546.349	833.73
546.802	834.43
547.255	838.63
547.708	849.33
548.161	860.63
548.614	868.13
549.067	874.73
549.52	859.83
549.973	850.03
550.426	852.83
550.879	836.63
551.332	846.23
551.785	853.23
552.238	843.83
552.691	862.83
553.144	880.23
553.596	893.73
554.049	914.23
554.502	942.13
554.955	964.03
555.407	956.33
555.86	935.53
556.313	937.63
556.765	921.83
557.218	923.43
557.67	925.23
558.123	920.43
558.576	911.63
559.028	924.53
559.48	926.63
559.933	924.93
560.385	884.23
560.838	862.13
561.29	835.63
561.742	819.43
562.195	815.93
562.647	809.73
563.099	819.93
563.551	820.43
564.004	822.53
564.456	817.73
564.908	791.23
565.36	778.73
565.812	763.03
566.264	759.83
566.716	759.33
567.168	736.73
567.62	752.83
568.072	730.93
568.524	732.33
568.976	716.73
569.428	719.13
569.88	709.23
570.332	724.83
570.784	730.43
571.235	725.43
571.687	736.03
572.139	737.53
572.59	746.43
573.042	744.93
573.494	744.73
573.945	741.33
574.397	714.53
574.849	721.23
575.3	720.43
575.752	717.63
576.203	708.03
576.655	721.23
577.106	715.43
577.557	697.23
578.009	693.53
578.46	706.83
578.912	699.23
579.363	700.43
579.814	703.33
580.265	704.33
580.717	701.83
581.168	703.33
581.619	710.03
582.07	723.93
582.521	709.83
582.972	702.53
583.423	716.03
583.875	713.53
584.326	714.63
584.777	733.03
585.227	738.63
585.678	754.93
586.129	763.63
586.58	790.63
587.031	798.03
587.482	829.23
587.933	843.93
588.384	840.53
588.834	816.63
589.285	802.73
589.736	814.73
590.186	808.53
590.637	795.33
591.088	788.63
591.538	765.53
591.989	763.53
592.439	755.03
592.89	750.93
593.34	742.03
593.791	736.83
594.241	723.13
594.692	727.63
595.142	733.03
595.593	725.43
596.043	733.33
596.493	739.43
596.943	737.73
597.394	740.13
597.844	735.33
598.294	776.73
598.744	791.03
599.195	820.93
599.645	864.33
600.095	907.73
600.545	959.53
600.995	1013.93
601.445	1074.23
601.895	1140.83
602.345	1186.13
602.795	1166.63
603.245	1120.23
603.695	1075.93
604.145	1005.63
604.594	958.33
605.044	913.43
605.494	840.43
605.944	788.03
606.393	770.23
606.843	756.33
607.293	769.03
607.743	749.63
608.192	766.33
608.642	782.63
609.091	786.13
609.541	786.03
609.99	801.53
610.44	791.43
610.889	740.63
611.339	734.93
611.788	710.43
612.238	717.73
612.687	731.03
613.136	720.93
613.586	732.43
614.035	728.43
614.484	732.43
614.933	743.63
615.383	729.33
615.832	731.23
616.281	727.73
616.73	695.43
617.179	674.93
617.628	662.03
618.077	655.63
618.526	649.03
618.975	633.13
619.424	645.23
619.873	633.83
620.322	643.43
620.771	631.23
621.22	626.63
621.669	618.43
622.118	609.03
622.567	603.13
623.015	586.23
623.464	583.63
623.913	578.43
624.361	572.13
624.81	564.73
625.259	570.13
625.707	582.33
626.156	573.23
626.604	589.13
627.053	576.53
627.501	583.43
627.95	593.13
628.398	601.83
628.847	588.53
629.295	592.93
629.744	594.63
630.192	582.83
630.64	580.63
631.089	570.43
631.537	561.73
631.985	559.83
632.433	546.43
632.881	539.63
633.33	545.03
633.778	537.63
634.226	547.23
634.674	557.83
635.122	556.53
635.57	559.03
636.018	572.23
636.466	580.63
636.914	569.73
637.362	593.13
637.81	594.93
638.258	604.23
638.705	603.13
639.153	628.53
639.601	632.63
640.049	673.13
640.497	694.63
640.944	714.43
641.392	664.83
641.84	644.93
642.287	610.53
642.735	579.13
643.182	580.43
643.63	584.03
644.078	577.73
644.525	597.43
644.973	597.33
645.42	605.53
645.867	631.13
646.315	646.63
646.762	669.93
647.21	687.53
647.657	716.53
648.104	749.03
648.551	769.03
648.999	827.83
649.446	902.93
649.893	988.23
650.34	1130.83
650.787	1337.93
651.234	1637.53
651.682	2133.93
652.129	2884.63
652.576	4084.53
653.023	5973.43
653.47	8054.63
653.917	9995.83
654.363	11495.43
654.81	12687.33
655.257	12032.83
655.704	7936.33
656.151	4789.03
656.598	3163.03
657.044	2263.63
657.491	1761.83
657.938	1424.83
658.385	1194.93
658.831	1051.43
659.278	942.83
659.724	844.43
660.171	784.63
660.618	711.23
661.064	687.23
661.511	674.23
661.957	660.23
662.404	646.43
662.85	654.53
663.296	630.03
663.743	574.83
664.189	554.33
664.635	544.23
665.082	542.13
665.528	540.83
665.974	530.33
666.42	520.23
666.867	525.43
667.313	507.93
667.759	475.43
668.205	465.53
668.651	465.23
669.097	467.63
669.543	456.43
669.989	455.33
670.435	460.33
670.881	463.03
671.327	460.93
671.773	487.23
672.219	507.23
672.665	572.03
673.11	614.33
673.556	646.33
674.002	702.63
674.448	685.23
674.893	575.73
675.339	488.63
675.785	454.03
676.23	431.53
676.676	403.23
677.122	399.13
677.567	379.13
678.013	370.23
678.458	377.33
678.904	372.83
679.349	358.63
679.794	367.53
680.24	369.23
680.685	361.63
681.131	361.23
681.576	364.83
682.021	366.93
682.466	360.13
682.912	364.33
683.357	370.43
683.802	388.33
684.247	424.13
684.692	475.23
685.137	522.43
685.583	563.23
686.028	584.13
686.473	547.23
686.918	468.23
687.363	431.93
687.807	402.83
688.252	381.43
688.697	365.43
689.142	355.13
689.587	338.73
690.032	342.13
690.477	353.83
690.921	371.03
691.366	398.13
691.811	426.73
692.255	450.53
692.7	481.33
693.145	527.13
693.589	728.13
694.034	1189.93
694.478	1603.03
694.923	1824.33
695.367	2368.63
695.812	1250.83
696.256	524.43
696.701	382.53
697.145	361.03
697.59	341.23
698.034	330.23
698.478	326.33
698.922	336.43
699.367	337.93
699.811	346.63
700.255	370.53
700.699	395.23
701.143	441.33
701.588	490.23
702.032	530.53
702.476	526.23
702.92	509.13
703.364	517.63
703.808	678.03
704.252	1101.73
704.696	1519.13
705.14	1745.03
705.584	2213.23
706.027	1112.33
706.471	542.23
706.915	421.73
707.359	375.73
707.803	333.13
708.246	324.13
708.69	328.33
709.134	318.23
709.577	321.53
710.021	330.13
710.465	317.03
710.908	313.13
711.352	310.43
711.795	320.83
712.239	366.73
712.682	399.63
713.126	428.83
713.569	469.33
714.012	364.13
714.456	315.03
714.899	296.63
715.342	279.93
715.786	268.83
716.229	264.73
716.672	264.13
717.115	256.33
717.558	263.93
718.002	268.43
718.445	268.73
718.888	302.53
719.331	307.63
719.774	322.63
720.217	307.33
720.66	297.63
721.103	277.13
721.546	257.33
721.989	254.03
722.432	241.23
722.874	242.73
723.317	240.03
723.76	244.33
724.203	265.73
724.645	324.03
725.088	465.03
725.531	601.73
725.974	673.43
726.416	558.53
726.859	309.83
727.301	261.03
727.744	244.73
728.187	242.13
728.629	246.13
729.071	249.63
729.514	264.03
729.956	282.03
730.399	290.83
730.841	298.43
731.283	283.73
731.726	276.83
732.168	277.43
732.61	282.43
733.053	297.43
733.495	325.63
733.937	361.93
734.379	413.03
734.821	460.73
735.263	578.13
735.705	881.93
736.148	1680.63
736.59	2738.43
737.032	3202.03
737.474	2602.83
737.916	853.93
738.357	445.73
738.799	340.83
739.241	306.43
739.683	297.23
740.125	307.03
740.567	311.73
741.008	332.53
741.45	324.43
741.892	330.73
742.334	370.63
742.775	378.13
743.217	360.53
743.658	288.53
744.1	266.03
744.542	276.23
744.983	339.83
745.425	367.33
745.866	360.13
746.307	289.53
746.749	294.63
747.19	336.83
747.632	481.83
748.073	935.03
748.514	1978.83
748.956	3005.93
749.397	3778.73
749.838	3116.43
750.279	3102.33
750.72	1573.43
751.162	581.93
751.603	347.33
752.044	265.53
752.485	225.73
752.926	218.53
753.367	207.23
753.808	205.43
754.249	197.63
754.69	193.13
755.131	190.33
755.572	189.53
756.013	190.83
756.453	190.23
756.894	195.83
757.335	203.63
757.776	202.13
758.216	202.53
758.657	207.43
759.098	208.83
759.538	230.93
759.979	275.93
760.42	393.33
760.86	758.03
761.301	1953.53
761.741	4691.83
762.182	6767.03
762.622	4774.83
763.063	1384.13
763.503	558.33
763.943	334.13
764.384	279.33
764.824	249.03
765.264	228.33
765.705	215.93
766.145	189.03
766.585	183.33
767.025	174.43
767.465	169.33
767.906	183.53
768.346	194.73
768.786	199.63
769.226	218.33
769.666	319.63
770.106	661.73
770.546	1648.33
770.986	2779.63
771.426	2484.23
771.866	827.23
772.306	340.03
772.745	213.53
773.185	174.83
773.625	164.13
774.065	155.43
774.505	168.13
774.944	205.33
775.384	365.63
775.824	591.03
776.263	571.93
776.703	288.83
777.142	168.53
777.582	139.43
778.021	121.63
778.461	129.33
778.9	124.83
779.34	129.13
779.779	112.93
780.219	108.93
780.658	112.53
781.097	111.63
781.537	115.63
781.976	109.23
782.415	106.93
782.855	103.33
783.294	107.33
783.733	105.43
784.172	114.53
784.611	106.73
785.05	109.43
785.489	113.43
785.928	121.43
786.367	122.73
786.806	114.93
787.245	128.73
787.684	134.83
788.123	152.93
788.562	140.73
789.001	127.23
789.44	126.73
789.879	114.03
790.317	120.83
790.756	131.03
791.195	136.43
791.634	152.23
792.072	210.13
792.511	381.13
792.95	1057.23
793.388	2220.73
793.827	1999.73
794.265	702.13
794.704	290.53
795.142	185.53
795.581	159.63
796.019	138.23
796.458	134.03
796.896	131.03
797.334	134.33
797.773	157.83
798.211	227.93
798.649	475.43
799.087	1088.83
799.526	1679.83
799.964	2123.13
800.402	2094.43
800.84	788.23
801.278	317.63
801.716	194.33
802.154	161.43
802.592	147.13
803.03	140.63
803.468	141.03
803.906	153.33
804.344	154.73
804.782	148.23
805.22	140.43
805.658	133.93
806.096	154.63
806.533	162.83
806.971	181.13
807.409	225.23
807.847	335.23
808.284	706.53
808.722	1981.33
809.16	3464.83
809.597	3331.53
810.035	5712.93
810.472	6067.53
810.91	2202.13
811.347	846.73
811.785	423.73
812.222	269.23
812.66	206.73
813.097	166.33
813.535	152.33
813.972	137.03
814.409	124.43
814.846	114.63
815.284	113.03
815.721	104.73
816.158	109.03
816.595	115.53
817.032	156.63
817.47	182.53
817.907	145.13
818.344	102.53
818.781	99.13
819.218	98.23
819.655	123.73
820.092	197.93
820.529	228.63
820.966	180.33
821.403	127.53
821.839	100.33
822.276	103.23
822.713	126.83
823.15	142.53
823.587	121.33
824.023	149.33
824.46	315.63
824.897	942.53
825.333	1425.33
825.77	610.83
826.206	239.03
826.643	141.43
827.08	104.73
827.516	90.63
827.953	81.23
828.389	80.43
828.825	77.83
829.262	72.43
829.698	66.13
830.135	73.03
830.571	70.73
831.007	71.03
831.443	64.93
831.88	60.03
832.316	60.73
832.752	63.93
833.188	62.23
833.624	67.63
834.06	67.53
834.497	71.33
834.933	71.73
835.369	75.63
835.805	68.73
836.241	78.63
836.677	83.43
837.112	89.53
837.548	113.13
837.984	140.63
838.42	205.63
838.856	527.93
839.292	1594.53
839.727	2420.23
840.163	1133.73
840.599	972.93
841.034	2139.53
841.47	2230.43
841.906	812.43
842.341	342.83
842.777	212.13
843.212	207.83
843.648	188.63
844.083	116.83
844.519	85.33
844.954	74.03
845.39	63.23
845.825	52.83
846.261	56.63
846.696	55.53
847.131	58.03
847.566	58.13
848.002	49.53
848.437	56.23
848.872	64.73
849.307	63.33
849.742	93.13
850.177	196.73
850.613	589.13
851.048	921.13
851.483	393.43
851.918	161.03
852.353	86.93
852.788	56.53
853.223	49.73
853.657	54.33
854.092	53.33
854.527	41.63
854.962	45.03
855.397	42.93
855.832	49.53
856.266	45.63
856.701	44.23
857.136	40.53
857.57	46.43
858.005	54.73
858.44	57.43
858.874	46.53
859.309	59.73
859.743	40.33
860.178	46.13
860.612	44.23
861.047	57.43
861.481	72.53
861.915	75.43
862.35	58.33
862.784	39.53
863.218	39.93
863.653	34.53
864.087	43.03
864.521	57.63
864.955	63.93
865.39	167.03
865.824	180.43
866.258	118.03
866.692	174.33
867.126	189.33
867.56	113.73
867.994	53.33
868.428	41.33
868.862	49.53
869.296	60.03
869.73	64.43
870.164	59.93
870.598	50.43
871.031	44.63
871.465	30.43
871.899	30.13
872.333	26.23
872.766	32.13
873.2	31.33
873.634	30.13
874.067	24.93
874.501	20.03
874.935	30.83
875.368	34.23
875.802	30.93
876.235	26.03
876.669	15.73
877.102	23.13
877.535	28.53
877.969	26.43
878.402	26.83
878.836	19.53
879.269	26.33
879.702	24.63
880.135	18.93
880.569	21.03
881.002	23.23
881.435	11.13
881.868	16.03
882.301	28.53
882.734	15.13
883.167	21.73
883.601	17.93
884.034	22.83
884.467	14.53
884.899	14.23
885.332	13.43
885.765	18.13
886.198	18.53
886.631	18.23
887.064	18.93
887.497	18.53
887.929	28.23
888.362	11.83
888.795	19.23
889.228	18.33
889.66	23.83
890.093	17.03
890.526	13.83
890.958	17.93
891.391	20.33
891.823	22.93
892.256	14.23
892.688	12.23
893.121	17.63
893.553	11.63
893.985	18.03
894.418	16.33
894.85	10.63
895.282	7.23
895.715	14.23
896.147	16.83
896.579	21.83
897.011	14.53
897.444	14.53
897.876	8.83
898.308	13.13
898.74	18.03
899.172	11.63
899.604	22.73
900.036	19.43
900.468	18.33
900.9	17.13
901.332	14.33
901.764	18.33
902.196	13.83
902.628	15.53
903.06	16.83
903.491	34.23
903.923	24.73
904.355	19.83
904.787	26.63
905.218	26.73
905.65	20.93
906.082	10.83
906.513	18.13
906.945	18.13
907.376	13.53
907.808	13.33
908.239	20.83
908.671	17.93
909.102	19.73
909.534	24.93
909.965	50.73
910.397	94.23
910.828	324.93
911.259	498.53
911.691	227.73
912.122	109.93
912.553	50.13
912.984	37.53
913.415	24.23
913.847	21.33
914.278	13.03
914.709	7.73
915.14	11.73
915.571	16.03
916.002	4.83
916.433	14.13
916.864	16.83
917.295	13.33
917.726	23.53
918.157	10.93
918.587	25.03
919.018	27.23
919.449	21.73
919.88	23.83
920.311	30.03
920.741	51.63
921.172	170.93
921.603	164.03
922.033	78.93
922.464	44.83
922.895	21.13
923.325	14.83
923.756	14.83
924.186	11.63
924.617	19.53
925.047	18.93
925.478	20.73
925.908	20.53
926.338	9.23
926.769	10.53
927.199	19.63
927.629	12.23
928.06	14.43
928.49	11.73
928.92	16.13
929.35	8.03
929.78	7.13
930.21	9.83
930.641	10.33
931.071	1.13
931.501	0.23
931.931	3.33
932.361	10.63
932.791	0.73
933.221	9.23
933.651	0.73
934.08	17.93
934.51	29.93
934.94	13.33
935.37	9.03
935.8	5.43
936.229	1.93
936.659	2.23
937.089	8.23
937.519	17.93
937.948	26.73
938.378	18.53
938.807	2.53
939.237	1.53
939.666	6.93
940.096	-0.77
940.525	-2.17
940.955	-0.67
941.384	-3.17
941.814	-3.27
942.243	-3.27
942.672	4.63
943.102	-4.07
943.531	-1.77
943.96	5.53
944.39	0.73
944.819	2.53
945.248	2.93
945.677	-1.67
946.106	5.33
946.535	0.13
946.964	1.53
947.393	2.13
947.822	4.53
948.251	-6.77
948.68	2.93
949.109	2.33
949.538	2.23
949.967	-0.67
950.396	-3.47
950.825	-4.17
951.254	1.83
951.682	-10.87
952.111	-0.07
952.54	5.13
952.969	-6.37
953.397	-5.37
953.826	2.93
954.254	-1.17
954.683	-0.87
955.112	-2.97
955.54	0.63
955.969	-2.87
956.397	1.93
956.826	-4.47
957.254	-0.07
957.682	1.93
958.111	0.13
958.539	2.73
958.967	4.23
959.396	0.43
959.824	-1.77
960.252	3.43
960.68	-6.57
961.109	0.23
961.537	-5.67
961.965	-2.07
962.393	-0.47
962.821	-4.87
963.249	7.63
963.677	-1.87
964.105	6.13
964.533	44.33
964.961	44.83
965.389	22.53
965.817	2.83
966.245	5.03
966.672	1.73
967.1	-6.77
967.528	-3.37
967.956	-6.27
968.383	0.23
968.811	2.23
969.239	0.43
969.666	-3.07
970.094	-1.27
970.522	6.23
970.949	-3.77
971.377	-6.17
971.804	1.93
972.232	-8.87
972.659	-1.47
973.087	-5.87
973.514	-5.17
973.941	-2.67
974.369	2.53
974.796	0.33
975.223	-2.97
975.651	0.73
976.078	6.13
976.505	-1.87
976.932	-3.17
977.359	16.33
977.786	16.33
978.214	4.33
978.641	1.33
979.068	-8.67
979.495	-7.27
979.922	-2.07
980.349	-4.97
980.776	1.23
981.202	-6.67
981.629	6.13
982.056	1.93
982.483	2.43
982.91	2.93
983.337	-8.67
983.763	-3.07
984.19	-5.07
984.617	-4.17
985.043	-4.27
985.47	-1.97
985.897	-6.77
986.323	-8.27
986.75	2.63
987.176	-2.17
987.603	2.03
988.029	2.33
988.456	-4.77
988.882	-0.67
989.308	-6.97
989.735	-1.57
990.161	2.03
990.587	-8.47
991.014	-0.77
991.44	2.73
991.866	1.63
992.292	-6.37
992.719	1.13
993.145	5.33
993.571	-6.87
993.997	1.73
994.423	-1.47
994.849	-8.67
995.275	1.83
995.701	1.93
996.127	-2.67
996.553	-1.37
996.979	-6.07
997.405	-7.67
997.83	-0.67
998.256	-7.77
998.682	-4.47
999.108	-10.87
999.534	-4.47
999.959	-1.17
1000.385	-2.17
1000.811	-1.17
1001.236	-10.17
1001.662	-4.17
1002.087	-9.47
1002.513	6.73
1002.938	2.63
1003.364	-3.17
1003.789	-1.87
1004.215	0.53
1004.64	-8.37
1005.066	-1.97
1005.491	-2.07
1005.916	0.33
1006.342	-2.77
1006.767	-6.77
1007.192	3.83
1007.617	-5.77
1008.042	-2.47
1008.468	-9.57
1008.893	-3.37
1009.318	-6.97
1009.743	-6.07
1010.168	4.03
1010.593	0.43
1011.018	-4.87
1011.443	0.53
1011.868	2.03
1012.293	-2.97
1012.718	-9.37
1013.143	-1.57
1013.567	0.73
1013.992	-7.77
1014.417	-9.47
1014.842	4.13
1015.267	-6.17
1015.691	-2.67
1016.116	2.83
1016.541	0.03
1016.965	0.13
1017.39	-1.37
1017.814	-5.97
1018.239	-0.17
1018.663	-12.97
1019.088	-17.07
1019.512	-4.87
1019.937	-1.27
1020.361	-10.67
1020.785	-6.17
1021.21	-6.97
1021.634	-0.17
1022.058	-4.37
1022.483	2.73
1022.907	-3.97
1023.331	-3.37
1023.755	-3.77
1024.179	-1.17
1024.604	-8.27
1025.028	-5.67
1025.452	-7.57
1025.876	-1.67
1026.3	-2.77
1026.724	-9.77
1027.148	-6.37
1027.572	-6.37
1027.996	-2.27
1028.42	1.33
1028.843	-3.67
1029.267	-5.77
1029.691	-9.37
1030.115	-4.47
1030.539	-5.47
1030.962	-5.57
1031.386	-14.27
1031.81	1.43
1032.233	-2.17
1032.657	1.43
1033.08	0.13
1033.504	-3.57
1033.927	-2.07
1034.351	-8.77
1034.774	-5.67
1035.198	-4.67
1035.621	-4.47
1036.045	-10.87
1036.468	-0.47
1036.891	-7.37
1037.315	-14.97
1037.738	-5.87
1038.161	-4.87
1038.584	-6.87
1039.008	-11.27
1039.431	-5.37
1039.854	-3.77
1040.277	-11.27
1040.7	-12.47
1041.123	-3.67
1041.546	-8.07
1041.969	-2.87
1042.392	-6.07
1042.815	-3.87
1043.238	-0.07
1043.661	2.63
1044.084	-4.27
1044.507	0.13
1044.93	-3.17
1045.352	-2.67
1045.775	-2.07
1046.198	-1.47
1046.621	-1.57
1047.043	-1.17
1047.466	8.63
1047.889	-1.77
1048.311	-9.87
1048.734	-3.47
1049.156	-4.17
1049.579	1.23
1050.001	0.33
1050.424	2.73
1050.846	-4.07
1051.269	-4.67
1051.691	-1.57
1052.113	-11.77
1052.536	-0.17
1052.958	-5.17
1053.38	-12.87
1053.802	-10.77
1054.225	-3.57
1054.647	-5.57
1055.069	-4.67
1055.491	3.93
1055.913	-5.57
1056.335	-2.57
1056.757	-7.57
1057.179	-6.27
1057.601	-2.27
1058.023	-3.87
1058.445	-7.17
1058.867	-2.77
1059.289	-5.27
1059.711	-10.67
1060.133	-3.97
1060.555	-9.87
1060.976	-6.57
1061.398	-7.67
1061.82	-7.47
1062.241	-9.57
1062.663	-12.77
1063.085	-5.07
1063.506	-1.17
1063.928	2.23
1064.35	0.13
1064.771	-9.37
1065.193	-5.57
1065.614	-13.67
1066.035	-3.67
1066.457	-0.67
1066.878	0.93
1067.3	-4.57
1067.721	-3.17
1068.142	-7.17
1068.564	-5.27
1068.985	-6.47
1069.406	-8.37
1069.827	-2.87
1070.248	-1.57
1070.67	-3.87
1071.091	-7.97
1071.512	-5.17
1071.933	-4.17
1072.354	-8.77
1072.775	-4.07
1073.196	-9.87
1073.617	-3.27
1074.038	-7.37
1074.459	-5.47
1074.88	-8.87
1075.3	-0.27
1075.721	-1.87
1076.142	1.33
1076.563	1.43
1076.983	-12.37
1077.404	-10.37
1077.825	-8.67
1078.246	-2.27
1078.666	-5.87
1079.087	-2.67
1079.507	-5.67
1079.928	-0.77
1080.348	-4.27
1080.769	0.33
1081.189	-2.97
1081.61	-6.87
1082.03	-3.87
1082.451	-7.97
1082.871	-3.27
1083.291	-7.37
1083.711	-10.87
1084.132	-2.17
1084.552	-9.07
1084.972	-2.87
1085.392	-10.47
1085.813	-9.67
1086.233	-8.37
1086.653	-6.67
1087.073	-1.57
1087.493	-8.07
1087.913	-8.37
1088.333	-6.87
1088.753	-6.17
1089.173	-2.57
1089.593	-7.77
1090.013	-0.77
1090.433	-1.67
1090.852	1.03
1091.272	-9.67
1091.692	-5.17
1092.112	-9.77
1092.531	-7.67
1092.951	-16.27
1093.371	-0.37
1093.79	-1.07
1094.21	-4.37
1094.63	-4.77
1095.049	-10.97
1095.469	-0.77
1095.888	-4.37
1096.308	-0.27
1096.727	3.83
1097.146	-6.17
1097.566	-2.07
1097.985	-6.27
1098.405	-1.27
1098.824	-11.97
1099.243	-5.17
1099.662	-9.87
1100.082	-4.37
1100.501	-1.37
1100.92	-4.87
1101.339	-7.27
1101.758	-3.17
