Data from 20171114-ORNL-Ar_H_NY_Subt18_08-06-22-645.txt Node
Date: Tue Nov 14 08:06:22 EST 2017
User: Ender
Spectrometer: HR+D1039
Trigger mode: 0
Integration Time (sec): 2.730000E-2
Scans to average: 10
Electric dark correction enabled: true
Nonlinearity correction enabled: false
Boxcar width: 0
XAxis mode: Wavelengths
Number of Pixels in Spectrum: 2048
>>>>>Begin Spectral Data<<<<<
187.836	-2.07
188.309	-2.07
188.782	-2.07
189.255	2.73
189.728	2.03
190.201	6.03
190.674	0.13
191.147	1.33
191.619	-6.87
192.092	-0.97
192.565	2.73
193.038	-2.27
193.511	2.83
193.984	5.53
194.456	-1.37
194.929	-0.37
195.402	-6.87
195.874	-2.57
196.347	-1.07
196.82	-5.07
197.292	2.23
197.765	-5.77
198.237	-8.97
198.71	1.83
199.182	-4.27
199.655	2.23
200.127	4.43
200.6	-3.77
201.072	-3.97
201.544	-7.97
202.017	-0.57
202.489	3.93
202.961	2.63
203.433	-2.07
203.906	-10.27
204.378	-6.07
204.85	-1.87
205.322	-5.17
205.794	-2.97
206.266	-3.47
206.739	-10.27
207.211	1.33
207.683	-7.87
208.155	-4.47
208.627	-5.57
209.099	-4.07
209.57	-9.47
210.042	-8.17
210.514	-0.67
210.986	-8.57
211.458	-9.67
211.93	-4.67
212.402	6.03
212.873	-5.67
213.345	-7.27
213.817	-10.37
214.288	-4.97
214.76	-10.57
215.232	-4.77
215.703	-6.47
216.175	-2.37
216.646	-3.97
217.118	-12.17
217.589	-2.47
218.061	1.93
218.532	-5.57
219.004	-3.77
219.475	-5.47
219.946	-1.37
220.418	-7.97
220.889	-1.87
221.36	-3.47
221.832	-9.17
222.303	-4.47
222.774	0.13
223.245	-9.87
223.717	-4.57
224.188	-4.67
224.659	-10.87
225.13	-4.77
225.601	-1.77
226.072	0.03
226.543	-2.07
227.014	0.13
227.485	-3.97
227.956	-4.87
228.427	-3.67
228.898	3.93
229.369	9.23
229.839	-4.27
230.31	-2.77
230.781	8.83
231.252	-3.37
231.722	-2.57
232.193	0.63
232.664	2.63
233.135	2.73
233.605	0.43
234.076	-3.07
234.546	3.43
235.017	0.53
235.487	-2.87
235.958	-4.17
236.428	-3.97
236.899	5.53
237.369	1.53
237.84	2.93
238.31	2.13
238.78	2.63
239.251	-2.57
239.721	0.83
240.191	1.13
240.662	-6.37
241.132	0.83
241.602	-1.87
242.072	-0.47
242.542	4.23
243.013	-4.77
243.483	1.13
243.953	5.13
244.423	-2.17
244.893	-7.67
245.363	5.33
245.833	8.33
246.303	-7.17
246.773	4.43
247.243	8.33
247.712	3.73
248.182	6.33
248.652	7.83
249.122	-4.57
249.592	11.03
250.061	19.33
250.531	34.33
251.001	17.73
251.471	17.53
251.94	17.43
252.41	4.33
252.879	2.53
253.349	16.83
253.818	8.33
254.288	5.43
254.757	1.23
255.227	4.53
255.696	3.63
256.166	9.33
256.635	8.03
257.105	10.33
257.574	4.83
258.043	9.63
258.513	12.93
258.982	9.03
259.451	8.93
259.92	12.83
260.389	9.53
260.859	14.13
261.328	13.33
261.797	13.73
262.266	8.63
262.735	11.83
263.204	4.53
263.673	-2.77
264.142	6.73
264.611	1.83
265.08	2.73
265.549	-3.57
266.018	3.83
266.487	-3.67
266.955	1.03
267.424	3.83
267.893	4.03
268.362	-1.27
268.83	3.03
269.299	11.73
269.768	5.73
270.236	8.43
270.705	4.43
271.174	7.33
271.642	13.93
272.111	9.33
272.579	20.53
273.048	22.03
273.516	24.23
273.985	29.03
274.453	23.93
274.922	15.23
275.39	12.23
275.858	3.63
276.327	8.63
276.795	19.13
277.263	12.73
277.731	27.43
278.2	52.53
278.668	60.13
279.136	47.83
279.604	21.43
280.072	8.23
280.54	5.53
281.008	7.83
281.477	13.13
281.945	9.73
282.413	16.83
282.881	13.23
283.348	8.63
283.816	16.53
284.284	12.23
284.752	12.93
285.22	12.73
285.688	18.03
286.156	17.13
286.623	46.93
287.091	47.03
287.559	25.83
288.026	14.73
288.494	20.53
288.962	7.23
289.429	7.53
289.897	20.93
290.364	12.33
290.832	15.33
291.3	13.13
291.767	21.73
292.234	17.03
292.702	17.23
293.169	23.13
293.637	18.03
294.104	25.33
294.571	6.73
295.039	11.93
295.506	8.53
295.973	18.03
296.44	17.03
296.908	19.73
297.375	19.73
297.842	13.73
298.309	16.33
298.776	19.13
299.243	18.83
299.71	13.43
300.177	20.73
300.644	18.33
301.111	19.63
301.578	26.83
302.045	21.03
302.512	23.23
302.979	25.43
303.446	25.23
303.913	21.53
304.379	19.03
304.846	30.63
305.313	29.83
305.78	24.33
306.246	27.13
306.713	28.73
307.18	23.53
307.646	26.63
308.113	31.93
308.579	19.43
309.046	24.83
309.512	24.33
309.979	20.23
310.445	29.03
310.912	29.53
311.378	35.93
311.845	27.33
312.311	30.93
312.777	31.83
313.244	34.63
313.71	35.43
314.176	30.93
314.642	31.83
315.109	32.63
315.575	40.43
316.041	38.03
316.507	32.63
316.973	42.93
317.439	36.23
317.905	40.23
318.371	37.13
318.837	34.43
319.303	28.83
319.769	36.23
320.235	35.63
320.701	36.23
321.167	40.93
321.633	34.73
322.099	40.23
322.564	50.83
323.03	40.93
323.496	37.83
323.962	37.13
324.427	38.13
324.893	47.13
325.359	44.83
325.824	38.13
326.29	32.53
326.755	37.83
327.221	43.23
327.686	35.73
328.152	46.13
328.617	41.63
329.083	59.03
329.548	48.03
330.014	52.73
330.479	41.23
330.944	44.53
331.41	41.33
331.875	43.73
332.34	43.23
332.805	47.53
333.271	48.43
333.736	40.93
334.201	58.03
334.666	54.03
335.131	52.83
335.596	54.23
336.061	48.93
336.526	40.63
336.991	46.03
337.456	59.03
337.921	45.23
338.386	37.83
338.851	45.23
339.316	42.73
339.781	44.23
340.246	47.93
340.711	48.43
341.175	47.53
341.64	46.03
342.105	52.13
342.569	55.13
343.034	57.93
343.499	56.43
343.963	53.53
344.428	66.73
344.893	58.63
345.357	65.13
345.822	63.63
346.286	65.33
346.751	73.33
347.215	72.23
347.679	80.43
348.144	94.53
348.608	79.43
349.073	72.33
349.537	74.03
350.001	76.83
350.465	90.33
350.93	76.63
351.394	84.93
351.858	75.83
352.322	87.33
352.786	82.13
353.25	104.93
353.715	120.13
354.179	103.73
354.643	126.53
355.107	124.33
355.571	107.73
356.035	106.43
356.498	123.53
356.962	133.83
357.426	138.43
357.89	117.83
358.354	97.93
358.818	81.43
359.281	81.03
359.745	79.83
360.209	72.63
360.673	75.53
361.136	82.43
361.6	87.03
362.064	89.13
362.527	87.03
362.991	92.03
363.454	81.93
363.918	77.33
364.381	78.83
364.845	84.53
365.308	87.63
365.772	87.73
366.235	91.43
366.698	84.73
367.162	91.83
367.625	93.73
368.088	89.13
368.552	97.03
369.015	92.93
369.478	100.53
369.941	100.53
370.404	92.33
370.867	110.93
371.331	113.03
371.794	121.73
372.257	115.73
372.72	119.93
373.183	113.83
373.646	109.23
374.109	98.83
374.572	110.93
375.035	109.13
375.497	112.73
375.96	113.13
376.423	111.73
376.886	110.13
377.349	109.03
377.811	106.83
378.274	117.43
378.737	102.83
379.199	124.03
379.662	112.93
380.125	117.33
380.587	120.53
381.05	125.93
381.512	125.03
381.975	131.33
382.437	130.63
382.9	126.13
383.362	134.93
383.825	142.03
384.287	153.23
384.75	142.73
385.212	150.13
385.674	140.53
386.136	139.83
386.599	129.23
387.061	128.93
387.523	133.33
387.985	133.33
388.447	147.63
388.91	147.63
389.372	157.53
389.834	160.73
390.296	151.03
390.758	157.63
391.22	169.43
391.682	200.53
392.144	300.63
392.606	226.53
393.068	168.93
393.529	175.23
393.991	163.03
394.453	150.23
394.915	161.83
395.377	201.63
395.838	211.33
396.3	153.73
396.762	148.73
397.224	140.93
397.685	133.03
398.147	130.63
398.608	134.63
399.07	135.43
399.531	137.83
399.993	148.23
400.454	161.83
400.916	148.43
401.377	147.83
401.839	152.33
402.3	157.43
402.762	173.13
403.223	183.03
403.684	176.53
404.145	171.83
404.607	165.43
405.068	173.13
405.529	176.03
405.99	196.53
406.451	180.23
406.913	180.63
407.374	169.03
407.835	169.43
408.296	174.33
408.757	178.43
409.218	190.53
409.679	179.43
410.14	176.13
410.601	179.33
411.062	190.93
411.522	205.33
411.983	198.03
412.444	178.73
412.905	183.53
413.366	193.03
413.826	206.33
414.287	222.33
414.748	272.03
415.208	247.73
415.669	221.53
416.13	208.73
416.59	206.23
417.051	224.03
417.511	225.53
417.972	246.23
418.432	267.73
418.893	301.63
419.353	256.53
419.814	204.93
420.274	187.23
420.734	185.73
421.195	198.93
421.655	202.23
422.115	203.13
422.576	203.63
423.036	204.93
423.496	213.23
423.956	220.13
424.416	239.93
424.876	275.73
425.336	275.93
425.797	269.13
426.257	264.03
426.717	247.93
427.177	234.13
427.637	226.03
428.097	245.93
428.556	257.23
429.016	278.13
429.476	267.43
429.936	278.03
430.396	279.43
430.856	300.23
431.315	328.93
431.775	355.33
432.235	400.13
432.694	359.03
433.154	378.63
433.614	407.83
434.073	359.13
434.533	305.43
434.993	280.53
435.452	295.33
435.912	305.93
436.371	297.33
436.83	291.23
437.29	276.23
437.749	251.33
438.209	259.03
438.668	280.33
439.127	304.83
439.587	273.83
440.046	256.33
440.505	268.33
440.964	285.13
441.424	338.13
441.883	324.63
442.342	268.63
442.801	226.43
443.26	226.13
443.719	228.13
444.178	223.03
444.637	215.43
445.096	230.73
445.555	234.73
446.014	230.83
446.473	240.33
446.932	241.83
447.391	239.33
447.849	231.23
448.308	226.03
448.767	226.63
449.226	245.03
449.685	245.13
450.143	255.13
450.602	253.53
451.061	237.73
451.519	236.93
451.978	237.43
452.436	244.43
452.895	249.13
453.353	260.43
453.812	246.83
454.27	241.33
454.729	247.33
455.187	252.93
455.646	256.13
456.104	270.73
456.562	271.73
457.021	276.93
457.479	267.83
457.937	281.63
458.395	263.53
458.854	261.33
459.312	260.13
459.77	286.13
460.228	258.83
460.686	254.93
461.144	254.73
461.602	262.13
462.06	252.53
462.518	261.53
462.976	268.83
463.434	270.23
463.892	275.83
464.35	288.63
464.808	302.33
465.266	274.83
465.724	277.83
466.181	285.83
466.639	282.23
467.097	298.83
467.555	307.83
468.012	308.93
468.47	317.13
468.928	340.13
469.385	353.23
469.843	357.33
470.3	360.93
470.758	381.83
471.215	400.23
471.673	422.53
472.13	418.43
472.588	438.93
473.045	382.33
473.503	395.43
473.96	408.23
474.417	419.63
474.875	450.53
475.332	497.53
475.789	476.23
476.246	486.13
476.704	497.43
477.161	524.63
477.618	539.33
478.075	577.23
478.532	638.13
478.989	710.63
479.446	848.53
479.903	795.03
480.36	842.13
480.817	899.13
481.274	1003.23
481.731	1102.13
482.188	1210.83
482.645	1344.13
483.102	1452.43
483.558	1584.13
484.015	1658.63
484.472	1621.93
484.929	1557.63
485.385	1522.43
485.842	1470.53
486.299	1395.03
486.755	1334.43
487.212	1146.83
487.668	949.93
488.125	885.63
488.582	805.43
489.038	780.03
489.494	735.33
489.951	704.53
490.407	688.13
490.864	669.73
491.32	672.83
491.776	661.43
492.233	672.93
492.689	638.83
493.145	628.43
493.602	619.73
494.058	631.63
494.514	633.83
494.97	662.23
495.426	673.33
495.882	640.13
496.338	639.83
496.794	648.43
497.251	644.63
497.707	662.13
498.163	657.43
498.618	662.03
499.074	669.03
499.53	709.43
499.986	702.93
500.442	681.63
500.898	651.73
501.354	638.63
501.809	662.93
502.265	665.33
502.721	686.03
503.177	695.53
503.632	684.93
504.088	700.93
504.543	741.83
504.999	736.33
505.455	684.43
505.91	666.23
506.366	654.93
506.821	654.03
507.277	645.53
507.732	645.33
508.187	647.13
508.643	651.43
509.098	654.53
509.553	668.93
510.009	685.33
510.464	692.43
510.919	712.63
511.375	722.53
511.83	734.93
512.285	752.33
512.74	787.03
513.195	821.33
513.65	801.83
514.105	793.73
514.56	799.93
515.015	827.53
515.47	839.63
515.925	822.33
516.38	815.83
516.835	818.53
517.29	803.53
517.745	805.53
518.2	796.43
518.655	772.03
519.109	768.73
519.564	762.53
520.019	760.43
520.474	754.13
520.928	744.23
521.383	743.83
521.838	740.23
522.292	739.43
522.747	729.13
523.201	732.23
523.656	719.83
524.11	723.73
524.565	723.03
525.019	717.33
525.474	729.63
525.928	727.43
526.382	723.73
526.837	717.63
527.291	730.83
527.745	715.53
528.2	719.73
528.654	702.33
529.108	715.83
529.562	715.73
530.016	716.83
530.47	718.03
530.925	717.33
531.379	719.03
531.833	727.53
532.287	725.73
532.741	726.43
533.195	726.43
533.649	738.53
534.103	747.13
534.556	743.13
535.01	738.03
535.464	723.53
535.918	748.03
536.372	740.73
536.826	745.73
537.279	722.53
537.733	740.43
538.187	741.53
538.64	741.83
539.094	752.23
539.548	753.83
540.001	756.03
540.455	749.03
540.908	760.43
541.362	768.43
541.815	767.73
542.269	792.83
542.722	790.03
543.175	793.43
543.629	788.43
544.082	814.03
544.536	819.93
544.989	809.73
545.442	821.43
545.895	818.53
546.349	804.43
546.802	823.03
547.255	826.43
547.708	829.13
548.161	842.73
548.614	837.93
549.067	864.03
549.52	852.63
549.973	836.93
550.426	842.93
550.879	830.23
551.332	826.03
551.785	831.13
552.238	824.53
552.691	849.53
553.144	859.03
553.596	878.73
554.049	895.63
554.502	927.93
554.955	953.13
555.407	934.53
555.86	929.03
556.313	922.43
556.765	912.43
557.218	912.43
557.67	914.03
558.123	904.03
558.576	912.73
559.028	910.93
559.48	917.03
559.933	902.33
560.385	871.63
560.838	840.63
561.29	807.23
561.742	809.63
562.195	801.13
562.647	791.53
563.099	805.93
563.551	799.33
564.004	817.13
564.456	796.03
564.908	785.53
565.36	768.83
565.812	752.83
566.264	760.33
566.716	747.63
567.168	738.53
567.62	747.63
568.072	726.73
568.524	716.03
568.976	706.13
569.428	694.53
569.88	696.03
570.332	703.13
570.784	714.43
571.235	713.73
571.687	722.43
572.139	718.43
572.59	729.13
573.042	730.63
573.494	734.13
573.945	735.23
574.397	708.03
574.849	711.13
575.3	712.13
575.752	710.53
576.203	703.63
576.655	705.53
577.106	691.93
577.557	690.83
578.009	692.83
578.46	687.83
578.912	682.03
579.363	675.53
579.814	691.13
580.265	677.53
580.717	693.23
581.168	694.03
581.619	709.13
582.07	700.93
582.521	693.43
582.972	695.33
583.423	701.83
583.875	703.23
584.326	723.53
584.777	761.93
585.227	847.03
585.678	926.03
586.129	1005.63
586.58	1086.33
587.031	1160.23
587.482	1308.53
587.933	1488.13
588.384	1300.43
588.834	975.83
589.285	825.63
589.736	807.63
590.186	796.73
590.637	782.33
591.088	770.83
591.538	764.23
591.989	748.33
592.439	753.83
592.89	734.83
593.34	737.83
593.791	731.63
594.241	719.83
594.692	733.73
595.142	723.13
595.593	728.83
596.043	730.03
596.493	736.03
596.943	735.33
597.394	732.73
597.844	733.33
598.294	753.53
598.744	773.13
599.195	808.13
599.645	845.13
600.095	885.03
600.545	935.23
600.995	1000.33
601.445	1064.93
601.895	1121.33
602.345	1165.33
602.795	1135.83
603.245	1096.83
603.695	1034.83
604.145	974.83
604.594	937.73
605.044	881.13
605.494	812.53
605.944	777.63
606.393	776.33
606.843	746.73
607.293	748.93
607.743	750.83
608.192	755.73
608.642	770.03
609.091	783.33
609.541	794.93
609.99	789.73
610.44	779.43
610.889	743.73
611.339	714.03
611.788	706.53
612.238	714.83
612.687	732.23
613.136	738.93
613.586	756.53
614.035	752.53
614.484	767.53
614.933	772.63
615.383	770.63
615.832	750.93
616.281	743.23
616.73	703.13
617.179	681.83
617.628	671.53
618.077	653.73
618.526	636.13
618.975	638.83
619.424	635.93
619.873	631.53
620.322	631.43
620.771	621.03
621.22	622.13
621.669	606.33
622.118	609.03
622.567	597.53
623.015	594.33
623.464	584.43
623.913	569.93
624.361	558.83
624.81	571.93
625.259	572.33
625.707	561.03
626.156	573.63
626.604	582.63
627.053	571.13
627.501	581.33
627.95	577.53
628.398	597.83
628.847	586.53
629.295	587.23
629.744	587.73
630.192	580.53
630.64	582.83
631.089	582.43
631.537	580.33
631.985	597.43
632.433	606.03
632.881	620.93
633.33	682.63
633.778	647.63
634.226	585.53
634.674	575.03
635.122	586.33
635.57	607.93
636.018	626.63
636.466	597.43
636.914	571.13
637.362	577.63
637.81	592.83
638.258	593.33
638.705	594.23
639.153	626.33
639.601	624.73
640.049	648.43
640.497	692.43
640.944	700.33
641.392	655.83
641.84	618.13
642.287	599.03
642.735	579.93
643.182	596.93
643.63	586.93
644.078	580.43
644.525	595.73
644.973	612.93
645.42	619.23
645.867	639.53
646.315	654.93
646.762	677.93
647.21	706.93
647.657	734.03
648.104	764.23
648.551	788.13
648.999	858.13
649.446	933.73
649.893	1026.13
650.34	1168.13
650.787	1419.33
651.234	1756.73
651.682	2286.73
652.129	3148.43
652.576	4522.13
653.023	6674.53
653.47	9155.03
653.917	11387.23
654.363	13178.33
654.81	14517.33
655.257	13815.63
655.704	9078.53
656.151	5364.73
656.598	3482.43
657.044	2469.63
657.491	1892.43
657.938	1520.13
658.385	1270.73
658.831	1105.73
659.278	985.33
659.724	873.83
660.171	809.83
660.618	729.33
661.064	699.33
661.511	671.03
661.957	664.43
662.404	657.13
662.85	666.63
663.296	639.63
663.743	569.53
664.189	551.43
664.635	543.53
665.082	536.93
665.528	535.53
665.974	528.93
666.42	522.03
666.867	513.63
667.313	499.63
667.759	485.63
668.205	488.83
668.651	485.83
669.097	489.43
669.543	503.03
669.989	478.13
670.435	460.13
670.881	454.43
671.327	458.03
671.773	477.43
672.219	506.03
672.665	543.03
673.11	588.73
673.556	640.13
674.002	680.53
674.448	661.73
674.893	555.73
675.339	478.53
675.785	451.83
676.23	416.43
676.676	401.13
677.122	396.93
677.567	387.53
678.013	372.53
678.458	377.93
678.904	371.23
679.349	359.13
679.794	354.73
680.24	356.83
680.685	356.03
681.131	356.23
681.576	353.73
682.021	359.93
682.466	362.43
682.912	355.33
683.357	359.43
683.802	380.93
684.247	423.93
684.692	457.43
685.137	507.23
685.583	539.93
686.028	568.33
686.473	520.23
686.918	451.33
687.363	421.33
687.807	398.03
688.252	368.93
688.697	364.33
689.142	342.53
689.587	347.33
690.032	337.73
690.477	347.63
690.921	360.13
691.366	389.03
691.811	403.63
692.255	442.23
692.7	469.43
693.145	508.43
693.589	709.53
694.034	1148.43
694.478	1563.53
694.923	1769.93
695.367	2304.53
695.812	1198.73
696.256	510.73
696.701	373.23
697.145	351.43
697.59	330.73
698.034	323.03
698.478	334.03
698.922	334.73
699.367	332.13
699.811	340.13
700.255	355.93
700.699	387.93
701.143	426.43
701.588	478.13
702.032	528.73
702.476	519.73
702.92	507.03
703.364	493.33
703.808	647.83
704.252	1053.43
704.696	1462.63
705.14	1694.93
705.584	2152.93
706.027	1065.93
706.471	533.33
706.915	403.33
707.359	357.43
707.803	330.93
708.246	314.73
708.69	322.23
709.134	319.13
709.577	313.33
710.021	313.43
710.465	309.63
710.908	303.33
711.352	310.33
711.795	320.13
712.239	356.53
712.682	390.53
713.126	420.93
713.569	472.23
714.012	378.23
714.456	329.83
714.899	298.43
715.342	279.83
715.786	265.63
716.229	263.63
716.672	260.83
717.115	256.23
717.558	254.33
718.002	251.83
718.445	268.33
718.888	291.23
719.331	298.93
719.774	313.43
720.217	307.63
720.66	287.33
721.103	269.53
721.546	251.13
721.989	250.53
722.432	236.53
722.874	244.03
723.317	225.93
723.76	237.43
724.203	261.03
724.645	323.23
725.088	452.93
725.531	566.33
725.974	642.33
726.416	549.33
726.859	310.13
727.301	253.53
727.744	237.23
728.187	231.63
728.629	238.13
729.071	246.33
729.514	265.43
729.956	272.43
730.399	286.23
730.841	290.73
731.283	277.33
731.726	269.63
732.168	264.13
732.61	265.83
733.053	286.73
733.495	314.83
733.937	351.63
734.379	406.83
734.821	445.53
735.263	543.73
735.705	840.33
736.148	1581.33
736.59	2605.43
737.032	3099.43
737.474	2512.93
737.916	812.33
738.357	424.93
738.799	333.63
739.241	304.53
739.683	288.83
740.125	300.03
740.567	301.73
741.008	317.43
741.45	312.33
741.892	322.23
742.334	348.93
742.775	368.83
743.217	349.83
743.658	271.43
744.1	258.13
744.542	262.83
744.983	315.43
745.425	348.23
745.866	348.73
746.307	292.13
746.749	286.83
747.19	330.73
747.632	457.33
748.073	886.93
748.514	1876.63
748.956	2880.93
749.397	3598.13
749.838	2997.53
750.279	2992.23
750.72	1513.03
751.162	551.03
751.603	320.53
752.044	252.53
752.485	218.33
752.926	214.13
753.367	206.73
753.808	199.43
754.249	188.63
754.69	192.43
755.131	175.83
755.572	184.13
756.013	179.03
756.453	188.33
756.894	195.53
757.335	190.73
757.776	203.73
758.216	198.13
758.657	195.33
759.098	202.63
759.538	229.83
759.979	261.43
760.42	375.03
760.86	708.43
761.301	1826.23
761.741	4458.63
762.182	6511.03
762.622	4581.23
763.063	1319.33
763.503	545.03
763.943	353.23
764.384	337.83
764.824	397.63
765.264	436.23
765.705	301.53
766.145	206.73
766.585	191.43
767.025	186.73
767.465	185.23
767.906	229.53
768.346	306.93
768.786	331.13
769.226	260.03
769.666	324.13
770.106	618.33
770.546	1565.23
770.986	2687.83
771.426	2395.23
771.866	797.63
772.306	338.03
772.745	208.43
773.185	179.33
773.625	171.13
774.065	168.53
774.505	193.83
774.944	298.83
775.384	653.83
775.824	1188.53
776.263	1153.93
776.703	490.43
777.142	216.83
777.582	150.33
778.021	130.83
778.461	143.03
778.9	137.13
779.34	135.93
779.779	118.53
780.219	108.03
780.658	106.43
781.097	110.03
781.537	109.13
781.976	116.93
782.415	114.33
782.855	112.13
783.294	107.63
783.733	102.53
784.172	112.43
784.611	100.93
785.05	110.63
785.489	116.53
785.928	121.83
786.367	124.13
786.806	121.03
787.245	132.03
787.684	134.83
788.123	152.73
788.562	132.33
789.001	128.33
789.44	122.43
789.879	115.23
790.317	116.43
790.756	124.33
791.195	132.13
791.634	148.03
792.072	203.43
792.511	365.33
792.95	1015.33
793.388	2161.03
793.827	1960.03
794.265	670.93
794.704	275.33
795.142	182.53
795.581	147.83
796.019	141.33
796.458	130.63
796.896	127.53
797.334	128.93
797.773	155.93
798.211	223.43
798.649	435.63
799.087	1027.23
799.526	1584.23
799.964	2020.13
800.402	2021.73
800.84	754.83
801.278	308.13
801.716	184.63
802.154	158.13
802.592	145.03
803.03	143.83
803.468	138.13
803.906	145.23
804.344	154.23
804.782	144.43
805.22	135.53
805.658	132.23
806.096	147.83
806.533	156.83
806.971	178.43
807.409	219.03
807.847	324.13
808.284	666.53
808.722	1871.73
809.16	3333.83
809.597	3125.33
810.035	5435.63
810.472	5864.03
810.91	2089.03
811.347	800.33
811.785	414.73
812.222	246.53
812.66	204.23
813.097	162.43
813.535	145.33
813.972	134.43
814.409	121.93
814.846	113.13
815.284	104.63
815.721	102.53
816.158	105.53
816.595	117.73
817.032	177.43
817.47	196.43
817.907	173.93
818.344	154.63
818.781	114.33
819.218	99.43
819.655	122.33
820.092	181.53
820.529	219.33
820.966	177.73
821.403	127.93
821.839	107.83
822.276	98.23
822.713	129.73
823.15	135.03
823.587	120.93
824.023	148.23
824.46	297.93
824.897	906.23
825.333	1385.23
825.77	593.33
826.206	233.63
826.643	139.73
827.08	103.73
827.516	78.03
827.953	79.43
828.389	81.63
828.825	69.53
829.262	72.43
829.698	66.63
830.135	62.53
830.571	57.83
831.007	60.53
831.443	64.53
831.88	57.13
832.316	59.53
832.752	58.13
833.188	65.53
833.624	71.93
834.06	60.43
834.497	72.73
834.933	67.03
835.369	72.83
835.805	63.73
836.241	79.63
836.677	84.63
837.112	89.73
837.548	103.13
837.984	132.63
838.42	205.43
838.856	490.63
839.292	1524.03
839.727	2319.03
840.163	1079.63
840.599	918.03
841.034	2029.43
841.47	2144.33
841.906	779.63
842.341	343.23
842.777	232.43
843.212	319.13
843.648	310.13
844.083	150.73
844.519	96.23
844.954	78.53
845.39	55.73
845.825	56.43
846.261	62.83
846.696	55.63
847.131	53.83
847.566	62.43
848.002	56.73
848.437	60.83
848.872	60.93
849.307	62.03
849.742	89.33
850.177	184.53
850.613	560.53
851.048	881.53
851.483	383.53
851.918	162.43
852.353	88.23
852.788	63.13
853.223	53.63
853.657	51.03
854.092	48.33
854.527	44.43
854.962	41.63
855.397	49.13
855.832	54.93
856.266	49.03
856.701	42.33
857.136	34.73
857.57	40.73
858.005	46.43
858.44	63.83
858.874	48.83
859.309	53.73
859.743	40.13
860.178	46.13
860.612	45.53
861.047	54.73
861.481	70.83
861.915	69.63
862.35	51.03
862.784	33.03
863.218	42.13
863.653	37.23
864.087	52.13
864.521	51.53
864.955	67.73
865.39	158.33
865.824	178.43
866.258	115.23
866.692	168.43
867.126	175.13
867.56	104.53
867.994	56.43
868.428	41.13
868.862	47.63
869.296	57.03
869.73	56.23
870.164	53.53
870.598	49.23
871.031	40.93
871.465	31.23
871.899	25.73
872.333	23.93
872.766	24.03
873.2	24.73
873.634	29.33
874.067	27.43
874.501	28.83
874.935	34.93
875.368	26.53
875.802	26.53
876.235	23.83
876.669	21.53
877.102	20.03
877.535	30.13
877.969	27.13
878.402	32.13
878.836	18.03
879.269	23.63
879.702	25.23
880.135	29.03
880.569	25.03
881.002	29.63
881.435	22.33
881.868	16.13
882.301	18.93
882.734	22.73
883.167	23.43
883.601	19.33
884.034	26.33
884.467	11.33
884.899	23.73
885.332	14.23
885.765	20.13
886.198	22.13
886.631	19.83
887.064	18.23
887.497	19.53
887.929	28.03
888.362	14.03
888.795	10.83
889.228	16.03
889.66	16.93
890.093	15.53
890.526	18.13
890.958	21.33
891.391	23.73
891.823	21.03
892.256	13.93
892.688	11.23
893.121	11.83
893.553	11.53
893.985	23.93
894.418	22.73
894.85	14.43
895.282	12.93
895.715	18.93
896.147	14.23
896.579	19.53
897.011	10.93
897.444	18.83
897.876	13.73
898.308	16.13
898.74	14.13
899.172	9.93
899.604	25.23
900.036	17.13
900.468	18.33
900.9	11.83
901.332	22.43
901.764	12.73
902.196	17.23
902.628	19.43
903.06	19.13
903.491	25.23
903.923	28.63
904.355	18.23
904.787	21.93
905.218	22.23
905.65	18.33
906.082	15.33
906.513	12.53
906.945	16.03
907.376	15.83
907.808	15.33
908.239	18.73
908.671	18.93
909.102	23.13
909.534	28.13
909.965	47.43
910.397	100.13
910.828	317.63
911.259	481.43
911.691	222.33
912.122	108.03
912.553	53.03
912.984	35.93
913.415	30.83
913.847	29.13
914.278	20.53
914.709	17.33
915.14	19.63
915.571	18.83
916.002	14.53
916.433	24.33
916.864	20.63
917.295	5.93
917.726	19.43
918.157	18.13
918.587	32.63
919.018	19.93
919.449	18.93
919.88	29.23
920.311	31.63
920.741	45.63
921.172	169.93
921.603	153.43
922.033	72.03
922.464	48.03
922.895	24.73
923.325	22.83
923.756	17.33
924.186	20.03
924.617	28.43
925.047	40.23
925.478	56.13
925.908	44.33
926.338	28.13
926.769	20.03
927.199	20.83
927.629	11.63
928.06	12.03
928.49	12.93
928.92	18.53
929.35	10.83
929.78	15.53
930.21	9.73
930.641	13.93
931.071	9.33
931.501	2.23
931.931	10.33
932.361	9.93
932.791	0.83
933.221	6.83
933.651	2.03
934.08	23.93
934.51	30.33
934.94	6.63
935.37	15.83
935.8	9.93
936.229	9.83
936.659	10.73
937.089	11.73
937.519	8.23
937.948	19.03
938.378	18.23
938.807	6.93
939.237	7.13
939.666	3.93
940.096	-3.57
940.525	2.73
940.955	3.53
941.384	3.03
941.814	2.73
942.243	0.23
942.672	2.63
943.102	3.93
943.531	-0.27
943.96	4.53
944.39	2.93
944.819	1.53
945.248	3.73
945.677	0.23
946.106	2.63
946.535	7.73
946.964	1.33
947.393	2.93
947.822	9.83
948.251	-3.87
948.68	3.03
949.109	6.33
949.538	5.03
949.967	-4.57
950.396	2.83
950.825	4.83
951.254	0.63
951.682	-2.87
952.111	-1.57
952.54	7.73
952.969	-3.67
953.397	-6.37
953.826	1.13
954.254	-2.37
954.683	-2.57
955.112	-3.27
955.54	1.53
955.969	4.73
956.397	-1.27
956.826	-4.77
957.254	-1.37
957.682	5.13
958.111	-0.37
958.539	2.23
958.967	3.13
959.396	0.83
959.824	2.63
960.252	2.53
960.68	-1.17
961.109	-3.57
961.537	-2.17
961.965	-3.67
962.393	-0.57
962.821	0.83
963.249	-0.17
963.677	3.33
964.105	5.03
964.533	46.43
964.961	42.43
965.389	26.33
965.817	3.93
966.245	-1.07
966.672	-0.47
967.1	-3.07
967.528	0.63
967.956	-4.07
968.383	-3.07
968.811	-4.47
969.239	-2.67
969.666	-4.97
970.094	-6.87
970.522	-0.77
970.949	-5.87
971.377	-7.17
971.804	-3.87
972.232	-1.37
972.659	0.33
973.087	-3.27
973.514	1.43
973.941	-4.87
974.369	6.93
974.796	1.43
975.223	0.83
975.651	-0.37
976.078	-1.07
976.505	0.43
976.932	0.43
977.359	13.83
977.786	17.63
978.214	-0.07
978.641	-5.07
979.068	0.73
979.495	-4.07
979.922	-4.17
980.349	-2.97
980.776	7.43
981.202	-2.57
981.629	9.43
982.056	5.33
982.483	-3.27
982.91	2.03
983.337	-5.27
983.763	0.93
984.19	-6.77
984.617	-9.67
985.043	-8.77
985.47	-7.17
985.897	-6.27
986.323	-7.87
986.75	-3.57
987.176	-1.47
987.603	-8.57
988.029	-1.27
988.456	-0.47
988.882	3.23
989.308	-6.47
989.735	-5.47
990.161	3.93
990.587	-5.87
991.014	0.73
991.44	9.63
991.866	-0.67
992.292	-6.87
992.719	-3.77
993.145	-1.57
993.571	-10.67
993.997	-3.27
994.423	-0.37
994.849	-6.07
995.275	-3.37
995.701	0.93
996.127	1.93
996.553	2.43
996.979	2.33
997.405	-0.37
997.83	-5.77
998.256	-5.47
998.682	-2.67
999.108	-4.17
999.534	-0.87
999.959	2.53
1000.385	0.23
1000.811	3.03
1001.236	-4.07
1001.662	-5.37
1002.087	-4.57
1002.513	-0.37
1002.938	1.83
1003.364	-5.37
1003.789	1.33
1004.215	9.33
1004.64	-6.27
1005.066	-4.57
1005.491	-0.17
1005.916	-3.37
1006.342	-7.47
1006.767	-9.67
1007.192	4.23
1007.617	-3.47
1008.042	-3.27
1008.468	-5.97
1008.893	-5.77
1009.318	-2.67
1009.743	-1.17
1010.168	-0.07
1010.593	3.33
1011.018	-7.67
1011.443	0.13
1011.868	-1.27
1012.293	-4.17
1012.718	-7.07
1013.143	-3.47
1013.567	-0.57
1013.992	-0.27
1014.417	-12.77
1014.842	-0.27
1015.267	-10.27
1015.691	-6.07
1016.116	4.63
1016.541	-5.07
1016.965	1.73
1017.39	-4.67
1017.814	-6.17
1018.239	-6.47
1018.663	-5.77
1019.088	-15.07
1019.512	-0.67
1019.937	-3.67
1020.361	-3.37
1020.785	-9.47
1021.21	-4.27
1021.634	-3.27
1022.058	-2.97
1022.483	6.73
1022.907	-3.37
1023.331	-6.27
1023.755	-3.17
1024.179	-4.67
1024.604	-5.07
1025.028	-5.17
1025.452	-10.07
1025.876	-1.57
1026.3	1.03
1026.724	-8.97
1027.148	-0.77
1027.572	-8.37
1027.996	-5.47
1028.42	1.13
1028.843	-2.57
1029.267	-1.47
1029.691	-1.47
1030.115	-5.27
1030.539	-5.97
1030.962	-8.37
1031.386	-14.47
1031.81	-5.07
1032.233	-0.37
1032.657	2.53
1033.08	-5.57
1033.504	-1.07
1033.927	-4.77
1034.351	-6.07
1034.774	-7.17
1035.198	0.43
1035.621	-9.47
1036.045	-10.07
1036.468	2.43
1036.891	-14.47
1037.315	-9.77
1037.738	-16.07
1038.161	-4.07
1038.584	-9.87
1039.008	-10.47
1039.431	-3.87
1039.854	-1.07
1040.277	-7.57
1040.7	-6.97
1041.123	-2.17
1041.546	-6.97
1041.969	-11.17
1042.392	-8.17
1042.815	-7.07
1043.238	-2.77
1043.661	7.33
1044.084	-10.17
1044.507	-4.77
1044.93	-4.37
1045.352	-14.77
1045.775	-1.27
1046.198	-2.87
1046.621	-2.97
1047.043	-1.77
1047.466	1.63
1047.889	-3.07
1048.311	-6.87
1048.734	-6.67
1049.156	-1.17
1049.579	-0.37
1050.001	-6.97
1050.424	-1.47
1050.846	-4.57
1051.269	-7.47
1051.691	-6.47
1052.113	-1.57
1052.536	3.03
1052.958	0.43
1053.38	0.53
1053.802	-8.77
1054.225	-1.47
1054.647	-4.87
1055.069	-3.17
1055.491	3.43
1055.913	-5.57
1056.335	-1.37
1056.757	-5.07
1057.179	-10.57
1057.601	-5.17
1058.023	-3.97
1058.445	-1.27
1058.867	-4.17
1059.289	0.13
1059.711	-3.27
1060.133	-7.37
1060.555	-6.27
1060.976	-5.67
1061.398	-4.77
1061.82	-3.77
1062.241	-3.17
1062.663	-3.77
1063.085	-1.17
1063.506	-2.87
1063.928	0.93
1064.35	-0.77
1064.771	-13.37
1065.193	1.93
1065.614	-6.67
1066.035	-1.77
1066.457	-3.87
1066.878	3.63
1067.3	-6.87
1067.721	-0.87
1068.142	-6.27
1068.564	-3.07
1068.985	-1.37
1069.406	-1.27
1069.827	-9.87
1070.248	1.23
1070.67	-4.37
1071.091	-5.97
1071.512	-4.27
1071.933	-6.47
1072.354	-4.87
1072.775	-5.87
1073.196	-7.27
1073.617	-3.77
1074.038	-9.07
1074.459	-3.77
1074.88	-4.17
1075.3	2.63
1075.721	-6.37
1076.142	0.83
1076.563	-2.77
1076.983	-10.87
1077.404	-9.37
1077.825	-8.57
1078.246	-11.17
1078.666	-15.17
1079.087	-4.57
1079.507	-13.07
1079.928	3.13
1080.348	-2.27
1080.769	-7.37
1081.189	0.53
1081.61	-6.67
1082.03	-2.97
1082.451	-3.67
1082.871	-2.67
1083.291	-7.17
1083.711	-9.87
1084.132	-3.07
1084.552	-11.17
1084.972	2.93
1085.392	-12.07
1085.813	-12.37
1086.233	-2.37
1086.653	-3.67
1087.073	4.13
1087.493	0.73
1087.913	-16.17
1088.333	-9.67
1088.753	-5.77
1089.173	1.33
1089.593	-5.67
1090.013	-4.57
1090.433	0.13
1090.852	-1.67
1091.272	0.73
1091.692	-1.27
1092.112	-4.77
1092.531	-3.37
1092.951	-13.17
1093.371	0.83
1093.79	2.33
1094.21	-4.47
1094.63	-0.07
1095.049	-5.67
1095.469	3.43
1095.888	-7.07
1096.308	-1.47
1096.727	0.73
1097.146	-5.57
1097.566	-1.27
1097.985	-10.87
1098.405	-7.67
1098.824	-7.57
1099.243	-7.97
1099.662	-5.07
1100.082	-4.97
1100.501	-1.77
1100.92	-9.17
1101.339	-11.37
1101.758	-7.07
