Data from 20171114-ORNL-Ar_H_NY_Subt18_08-06-52-399.txt Node
Date: Tue Nov 14 08:06:52 EST 2017
User: Ender
Spectrometer: HR+D1039
Trigger mode: 0
Integration Time (sec): 2.730000E-2
Scans to average: 10
Electric dark correction enabled: true
Nonlinearity correction enabled: false
Boxcar width: 0
XAxis mode: Wavelengths
Number of Pixels in Spectrum: 2048
>>>>>Begin Spectral Data<<<<<
187.836	-7.78
188.309	-7.78
188.782	-7.78
189.255	0.92
189.728	-4.48
190.201	5.82
190.674	3.12
191.147	1.52
191.619	-3.68
192.092	3.22
192.565	4.62
193.038	-1.68
193.511	-0.28
193.984	4.72
194.456	-0.98
194.929	-3.38
195.402	-2.18
195.874	0.42
196.347	-4.88
196.82	-11.58
197.292	2.02
197.765	-1.78
198.237	-6.78
198.71	8.92
199.182	-4.78
199.655	4.62
200.127	5.62
200.6	-3.78
201.072	-2.98
201.544	-5.28
202.017	1.32
202.489	2.42
202.961	-6.98
203.433	-7.08
203.906	-5.68
204.378	-5.78
204.85	-6.48
205.322	-6.58
205.794	-2.08
206.266	-5.68
206.739	-11.08
207.211	-0.68
207.683	-13.08
208.155	-5.38
208.627	-11.08
209.099	-0.38
209.57	-6.18
210.042	-10.08
210.514	-6.08
210.986	-4.68
211.458	-12.18
211.93	-3.88
212.402	2.62
212.873	-7.68
213.345	-5.28
213.817	-12.38
214.288	-4.38
214.76	-7.08
215.232	-5.58
215.703	-3.98
216.175	-0.78
216.646	-2.38
217.118	-8.38
217.589	-8.58
218.061	3.22
218.532	-6.48
219.004	-4.08
219.475	-7.08
219.946	-6.58
220.418	-9.18
220.889	-2.38
221.36	1.52
221.832	-4.28
222.303	-4.88
222.774	1.12
223.245	-6.98
223.717	-9.98
224.188	-10.28
224.659	-9.38
225.13	-5.38
225.601	-2.88
226.072	-0.68
226.543	1.62
227.014	-9.48
227.485	-3.88
227.956	-3.18
228.427	-2.18
228.898	2.32
229.369	6.12
229.839	-6.48
230.31	-7.78
230.781	-4.58
231.252	-2.08
231.722	-0.28
232.193	0.42
232.664	-1.68
233.135	-8.48
233.605	-7.18
234.076	-9.18
234.546	-5.38
235.017	0.82
235.487	-5.38
235.958	-7.58
236.428	-4.28
236.899	-2.28
237.369	-8.08
237.84	-0.28
238.31	-3.58
238.78	-2.28
239.251	-10.48
239.721	-8.08
240.191	-3.48
240.662	-4.48
241.132	0.52
241.602	-5.68
242.072	-8.08
242.542	1.42
243.013	-4.28
243.483	-0.08
243.953	-2.28
244.423	3.02
244.893	-7.28
245.363	-4.18
245.833	7.02
246.303	-6.68
246.773	-0.98
247.243	0.32
247.712	-2.78
248.182	0.42
248.652	1.02
249.122	-9.38
249.592	0.82
250.061	4.22
250.531	8.02
251.001	-2.28
251.471	7.32
251.94	1.32
252.41	-7.88
252.879	-11.78
253.349	5.82
253.818	10.12
254.288	1.72
254.757	0.62
255.227	-0.88
255.696	-0.88
256.166	3.12
256.635	2.12
257.105	1.22
257.574	-4.98
258.043	-2.88
258.513	-12.38
258.982	9.22
259.451	-3.48
259.92	7.12
260.389	1.62
260.859	5.62
261.328	1.52
261.797	0.62
262.266	0.52
262.735	6.12
263.204	2.22
263.673	-4.88
264.142	4.02
264.611	-3.58
265.08	-2.18
265.549	-0.18
266.018	5.62
266.487	-8.48
266.955	-5.38
267.424	-1.88
267.893	9.22
268.362	6.22
268.83	5.12
269.299	-1.08
269.768	-3.08
270.236	4.02
270.705	1.82
271.174	0.72
271.642	3.12
272.111	5.32
272.579	0.62
273.048	2.52
273.516	3.52
273.985	3.62
274.453	9.42
274.922	12.52
275.39	3.02
275.858	-1.28
276.327	7.52
276.795	13.22
277.263	4.82
277.731	10.72
278.2	11.52
278.668	0.52
279.136	9.92
279.604	3.32
280.072	6.52
280.54	4.72
281.008	4.32
281.477	6.32
281.945	7.82
282.413	6.62
282.881	11.32
283.348	-0.28
283.816	13.92
284.284	11.42
284.752	19.92
285.22	12.72
285.688	7.62
286.156	11.22
286.623	18.32
287.091	9.92
287.559	13.72
288.026	14.52
288.494	11.22
288.962	0.02
289.429	11.32
289.897	15.82
290.364	12.42
290.832	14.82
291.3	12.42
291.767	14.92
292.234	13.22
292.702	10.22
293.169	9.32
293.637	20.52
294.104	15.22
294.571	1.82
295.039	12.12
295.506	11.92
295.973	15.42
296.44	11.52
296.908	13.12
297.375	9.72
297.842	13.32
298.309	11.92
298.776	12.72
299.243	13.22
299.71	7.82
300.177	13.12
300.644	14.72
301.111	10.62
301.578	20.72
302.045	15.62
302.512	20.52
302.979	21.42
303.446	21.32
303.913	16.22
304.379	15.22
304.846	25.52
305.313	18.02
305.78	18.52
306.246	19.62
306.713	19.72
307.18	24.72
307.646	20.12
308.113	26.92
308.579	16.02
309.046	16.42
309.512	26.72
309.979	13.42
310.445	25.12
310.912	25.92
311.378	22.42
311.845	24.32
312.311	27.52
312.777	30.22
313.244	20.92
313.71	35.12
314.176	27.32
314.642	29.92
315.109	22.62
315.575	32.72
316.041	31.52
316.507	28.82
316.973	32.72
317.439	26.42
317.905	24.52
318.371	28.32
318.837	32.22
319.303	31.02
319.769	31.72
320.235	26.02
320.701	32.72
321.167	26.62
321.633	32.52
322.099	33.72
322.564	41.32
323.03	32.32
323.496	34.82
323.962	37.02
324.427	28.72
324.893	40.52
325.359	29.92
325.824	32.22
326.29	30.02
326.755	31.22
327.221	33.22
327.686	33.72
328.152	36.22
328.617	39.62
329.083	43.02
329.548	47.22
330.014	45.12
330.479	37.82
330.944	40.22
331.41	40.52
331.875	43.02
332.34	44.92
332.805	36.92
333.271	42.52
333.736	36.72
334.201	45.32
334.666	45.72
335.131	47.82
335.596	44.02
336.061	52.22
336.526	38.32
336.991	44.42
337.456	53.02
337.921	46.02
338.386	43.72
338.851	38.02
339.316	43.92
339.781	45.12
340.246	42.32
340.711	48.12
341.175	46.32
341.64	40.22
342.105	47.82
342.569	50.52
343.034	50.52
343.499	47.92
343.963	45.22
344.428	60.42
344.893	62.12
345.357	58.62
345.822	60.22
346.286	60.22
346.751	70.12
347.215	62.42
347.679	61.32
348.144	88.12
348.608	77.22
349.073	63.12
349.537	70.82
350.001	65.32
350.465	84.02
350.93	74.32
351.394	73.22
351.858	68.52
352.322	78.62
352.786	74.22
353.25	94.42
353.715	98.92
354.179	91.82
354.643	107.92
355.107	113.22
355.571	92.12
356.035	91.32
356.498	104.72
356.962	107.52
357.426	111.32
357.89	101.22
358.354	86.12
358.818	75.22
359.281	75.82
359.745	72.42
360.209	70.82
360.673	74.52
361.136	71.72
361.6	83.92
362.064	75.82
362.527	81.42
362.991	84.92
363.454	75.52
363.918	70.02
364.381	71.12
364.845	76.22
365.308	78.32
365.772	76.22
366.235	80.32
366.698	79.22
367.162	79.52
367.625	79.72
368.088	78.32
368.552	81.02
369.015	87.42
369.478	88.52
369.941	96.42
370.404	94.72
370.867	97.82
371.331	94.02
371.794	101.82
372.257	87.32
372.72	101.32
373.183	93.52
373.646	89.62
374.109	94.32
374.572	97.22
375.035	100.52
375.497	96.12
375.96	100.22
376.423	106.52
376.886	108.52
377.349	107.12
377.811	102.72
378.274	102.72
378.737	97.32
379.199	110.42
379.662	102.22
380.125	104.62
380.587	106.12
381.05	101.22
381.512	115.72
381.975	124.02
382.437	118.02
382.9	111.02
383.362	121.52
383.825	121.22
384.287	120.72
384.75	117.92
385.212	128.22
385.674	127.82
386.136	127.62
386.599	125.92
387.061	114.92
387.523	112.02
387.985	124.32
388.447	128.72
388.91	121.52
389.372	131.22
389.834	130.32
390.296	120.52
390.758	127.82
391.22	129.82
391.682	138.92
392.144	145.22
392.606	138.72
393.068	140.32
393.529	149.02
393.991	134.72
394.453	129.62
394.915	130.32
395.377	135.92
395.838	140.92
396.3	133.92
396.762	141.22
397.224	129.52
397.685	128.32
398.147	137.72
398.608	124.12
399.07	131.12
399.531	143.02
399.993	149.82
400.454	157.72
400.916	145.12
401.377	147.62
401.839	150.92
402.3	157.32
402.762	163.52
403.223	170.82
403.684	163.62
404.145	164.02
404.607	167.22
405.068	158.22
405.529	162.92
405.99	189.12
406.451	179.92
406.913	178.62
407.374	168.42
407.835	165.02
408.296	170.12
408.757	167.32
409.218	186.32
409.679	172.92
410.14	172.22
410.601	172.32
411.062	183.82
411.522	174.92
411.983	177.32
412.444	172.32
412.905	181.82
413.366	186.32
413.826	192.02
414.287	229.32
414.748	268.52
415.208	251.02
415.669	218.32
416.13	210.32
416.59	206.42
417.051	222.82
417.511	225.72
417.972	248.12
418.432	257.42
418.893	289.22
419.353	261.42
419.814	206.72
420.274	187.92
420.734	192.02
421.195	200.12
421.655	192.52
422.115	194.82
422.576	205.72
423.036	205.82
423.496	209.72
423.956	218.32
424.416	238.72
424.876	276.52
425.336	268.42
425.797	276.72
426.257	265.22
426.717	242.52
427.177	236.92
427.637	223.52
428.097	241.62
428.556	252.92
429.016	272.02
429.476	264.12
429.936	280.52
430.396	278.42
430.856	299.82
431.315	317.52
431.775	345.22
432.235	384.72
432.694	353.42
433.154	356.92
433.614	385.22
434.073	340.32
434.533	292.62
434.993	275.12
435.452	284.52
435.912	296.92
436.371	293.82
436.83	285.62
437.29	263.92
437.749	253.02
438.209	258.02
438.668	275.02
439.127	296.92
439.587	275.12
440.046	249.92
440.505	266.72
440.964	286.22
441.424	325.32
441.883	318.12
442.342	272.02
442.801	232.72
443.26	234.22
443.719	239.42
444.178	231.72
444.637	214.92
445.096	226.72
445.555	232.02
446.014	235.12
446.473	239.82
446.932	250.52
447.391	242.02
447.849	244.52
448.308	232.62
448.767	232.82
449.226	252.02
449.685	249.62
450.143	263.12
450.602	254.22
451.061	243.92
451.519	254.92
451.978	249.92
452.436	248.12
452.895	249.72
453.353	263.12
453.812	252.52
454.27	252.22
454.729	257.42
455.187	254.02
455.646	261.12
456.104	256.52
456.562	278.62
457.021	285.02
457.479	277.42
457.937	289.82
458.395	273.22
458.854	260.62
459.312	268.22
459.77	286.02
460.228	269.22
460.686	259.82
461.144	267.42
461.602	265.42
462.06	260.52
462.518	269.22
462.976	273.62
463.434	269.82
463.892	277.42
464.35	287.72
464.808	300.32
465.266	288.82
465.724	285.02
466.181	283.92
466.639	293.12
467.097	309.42
467.555	327.72
468.012	323.52
468.47	321.62
468.928	346.62
469.385	362.42
469.843	365.52
470.3	361.72
470.758	389.22
471.215	410.12
471.673	437.62
472.13	424.52
472.588	438.22
473.045	401.52
473.503	399.12
473.96	414.42
474.417	424.42
474.875	458.52
475.332	501.12
475.789	487.82
476.246	496.42
476.704	503.62
477.161	527.32
477.618	551.32
478.075	582.32
478.532	642.32
478.989	707.92
479.446	819.92
479.903	790.32
480.36	816.72
480.817	850.52
481.274	958.32
481.731	1052.92
482.188	1130.02
482.645	1255.53
483.102	1344.72
483.558	1477.32
484.015	1509.93
484.472	1477.22
484.929	1436.92
485.385	1389.02
485.842	1362.32
486.299	1321.72
486.755	1270.83
487.212	1080.02
487.668	925.62
488.125	864.82
488.582	793.02
489.038	763.22
489.494	731.32
489.951	708.92
490.407	700.32
490.864	679.82
491.32	681.42
491.776	662.02
492.233	677.02
492.689	645.82
493.145	643.52
493.602	642.22
494.058	654.12
494.514	645.42
494.97	670.82
495.426	685.52
495.882	661.52
496.338	640.22
496.794	658.32
497.251	650.82
497.707	662.42
498.163	666.12
498.618	687.82
499.074	678.52
499.53	718.62
499.986	698.02
500.442	678.52
500.898	663.62
501.354	649.92
501.809	661.72
502.265	653.72
502.721	666.72
503.177	664.52
503.632	674.42
504.088	679.52
504.543	706.82
504.999	729.12
505.455	696.12
505.91	667.72
506.366	674.42
506.821	675.32
507.277	673.92
507.732	670.62
508.187	666.62
508.643	671.02
509.098	680.32
509.553	690.22
510.009	705.72
510.464	720.62
510.919	731.92
511.375	740.22
511.83	745.02
512.285	757.52
512.74	809.02
513.195	829.12
513.65	815.52
514.105	806.32
514.56	811.42
515.015	836.52
515.47	837.92
515.925	829.32
516.38	822.72
516.835	841.92
517.29	824.32
517.745	824.42
518.2	805.92
518.655	796.12
519.109	785.32
519.564	787.72
520.019	776.52
520.474	774.62
520.928	772.82
521.383	761.92
521.838	760.42
522.292	746.22
522.747	748.52
523.201	751.62
523.656	741.72
524.11	734.02
524.565	738.72
525.019	731.72
525.474	728.22
525.928	745.72
526.382	741.92
526.837	737.02
527.291	754.02
527.745	753.42
528.2	739.82
528.654	734.12
529.108	733.72
529.562	720.92
530.016	733.52
530.47	734.52
530.925	735.32
531.379	721.22
531.833	739.22
532.287	732.92
532.741	740.72
533.195	739.72
533.649	754.02
534.103	756.52
534.556	744.32
535.01	747.22
535.464	747.32
535.918	763.32
536.372	769.52
536.826	756.82
537.279	746.32
537.733	756.72
538.187	753.72
538.64	750.72
539.094	771.82
539.548	777.52
540.001	766.42
540.455	761.52
540.908	768.02
541.362	782.42
541.815	785.42
542.269	802.72
542.722	808.32
543.175	806.72
543.629	816.42
544.082	834.52
544.536	829.52
544.989	842.12
545.442	847.72
545.895	842.32
546.349	849.72
546.802	835.62
547.255	845.62
547.708	849.82
548.161	866.52
548.614	865.12
549.067	879.42
549.52	867.72
549.973	861.72
550.426	866.32
550.879	850.02
551.332	854.32
551.785	853.32
552.238	860.52
552.691	873.22
553.144	888.62
553.596	908.32
554.049	909.92
554.502	959.92
554.955	972.42
555.407	969.12
555.86	962.62
556.313	947.73
556.765	937.72
557.218	937.52
557.67	937.32
558.123	922.02
558.576	937.02
559.028	927.72
559.48	930.82
559.933	927.82
560.385	888.52
560.838	870.02
561.29	833.52
561.742	830.22
562.195	820.22
562.647	816.72
563.099	828.42
563.551	825.12
564.004	828.82
564.456	811.22
564.908	809.42
565.36	783.92
565.812	777.02
566.264	756.72
566.716	772.52
567.168	734.72
567.62	740.42
568.072	741.12
568.524	737.42
568.976	728.92
569.428	712.42
569.88	720.62
570.332	720.72
570.784	714.02
571.235	723.62
571.687	743.02
572.139	744.32
572.59	755.62
573.042	763.02
573.494	758.92
573.945	752.62
574.397	722.72
574.849	739.62
575.3	720.92
575.752	727.32
576.203	722.22
576.655	733.52
577.106	716.42
577.557	706.92
578.009	716.02
578.46	704.22
578.912	706.12
579.363	703.02
579.814	715.22
580.265	696.32
580.717	710.62
581.168	710.92
581.619	708.22
582.07	717.42
582.521	719.02
582.972	711.82
583.423	721.12
583.875	715.12
584.326	723.22
584.777	742.22
585.227	751.12
585.678	774.82
586.129	787.92
586.58	801.02
587.031	823.02
587.482	861.32
587.933	868.22
588.384	847.42
588.834	826.92
589.285	808.32
589.736	801.92
590.186	804.52
590.637	802.42
591.088	781.52
591.538	770.62
591.989	783.12
592.439	768.52
592.89	758.02
593.34	742.82
593.791	745.72
594.241	732.62
594.692	735.42
595.142	733.22
595.593	728.62
596.043	741.22
596.493	740.42
596.943	741.12
597.394	760.92
597.844	759.62
598.294	772.62
598.744	801.32
599.195	827.02
599.645	861.62
600.095	911.72
600.545	961.82
600.995	1017.62
601.445	1072.92
601.895	1148.12
602.345	1198.02
602.795	1170.82
603.245	1124.52
603.695	1074.52
604.145	1014.12
604.594	960.52
605.044	906.42
605.494	849.12
605.944	803.02
606.393	779.72
606.843	760.42
607.293	763.42
607.743	758.42
608.192	782.62
608.642	785.42
609.091	803.82
609.541	801.82
609.99	800.82
610.44	802.42
610.889	754.02
611.339	724.92
611.788	709.62
612.238	723.42
612.687	740.72
613.136	731.02
613.586	736.82
614.035	723.82
614.484	744.52
614.933	737.32
615.383	741.42
615.832	737.42
616.281	737.62
616.73	699.92
617.179	690.42
617.628	677.22
618.077	651.62
618.526	650.92
618.975	643.72
619.424	650.72
619.873	641.62
620.322	646.52
620.771	645.52
621.22	628.22
621.669	625.72
622.118	608.72
622.567	609.92
623.015	591.62
623.464	598.42
623.913	583.02
624.361	579.92
624.81	570.12
625.259	585.32
625.707	581.12
626.156	579.02
626.604	587.52
627.053	595.42
627.501	586.32
627.95	599.52
628.398	608.12
628.847	587.82
629.295	593.22
629.744	610.12
630.192	589.52
630.64	587.42
631.089	574.12
631.537	556.42
631.985	547.82
632.433	560.22
632.881	556.12
633.33	549.42
633.778	537.72
634.226	548.72
634.674	560.02
635.122	567.32
635.57	576.42
636.018	589.92
636.466	593.62
636.914	587.32
637.362	597.82
637.81	597.92
638.258	611.82
638.705	607.52
639.153	637.92
639.601	643.92
640.049	666.22
640.497	689.82
640.944	722.12
641.392	668.32
641.84	645.42
642.287	612.92
642.735	591.72
643.182	584.82
643.63	582.82
644.078	572.92
644.525	594.72
644.973	595.92
645.42	617.12
645.867	636.62
646.315	663.92
646.762	677.42
647.21	704.62
647.657	726.62
648.104	765.22
648.551	779.72
648.999	835.72
649.446	911.12
649.893	991.42
650.34	1143.22
650.787	1357.52
651.234	1664.03
651.682	2155.22
652.129	2898.72
652.576	4102.32
653.023	5998.52
653.47	8122.12
653.917	10084.23
654.363	11622.73
654.81	12837.02
655.257	12159.52
655.704	8039.22
656.151	4852.22
656.598	3194.53
657.044	2286.72
657.491	1779.72
657.938	1435.62
658.385	1222.02
658.831	1072.92
659.278	955.92
659.724	853.52
660.171	789.12
660.618	732.42
661.064	695.32
661.511	685.62
661.957	672.52
662.404	658.52
662.85	670.62
663.296	646.72
663.743	578.02
664.189	558.32
664.635	546.92
665.082	536.92
665.528	546.92
665.974	539.12
666.42	536.82
666.867	533.32
667.313	511.32
667.759	488.52
668.205	472.32
668.651	477.12
669.097	471.02
669.543	457.72
669.989	464.42
670.435	467.42
670.881	458.22
671.327	479.12
671.773	495.42
672.219	524.72
672.665	566.52
673.11	608.02
673.556	652.52
674.002	702.12
674.448	685.42
674.893	577.62
675.339	499.32
675.785	459.82
676.23	437.02
676.676	413.32
677.122	406.72
677.567	391.22
678.013	389.82
678.458	375.92
678.904	387.02
679.349	372.72
679.794	367.52
680.24	370.42
680.685	370.02
681.131	366.42
681.576	359.52
682.021	369.32
682.466	368.92
682.912	359.52
683.357	368.22
683.802	400.12
684.247	433.42
684.692	476.12
685.137	519.52
685.583	562.22
686.028	587.22
686.473	545.42
686.918	462.82
687.363	440.52
687.807	410.02
688.252	384.02
688.697	370.92
689.142	359.12
689.587	350.92
690.032	336.42
690.477	356.82
690.921	363.12
691.366	395.72
691.811	415.62
692.255	448.52
692.7	478.42
693.145	518.72
693.589	739.72
694.034	1202.53
694.478	1626.92
694.923	1820.62
695.367	2388.53
695.812	1255.53
696.256	523.42
696.701	388.22
697.145	358.52
697.59	349.02
698.034	334.22
698.478	341.52
698.922	336.52
699.367	335.92
699.811	348.22
700.255	364.62
700.699	396.82
701.143	435.92
701.588	500.12
702.032	537.92
702.476	539.12
702.92	512.72
703.364	525.92
703.808	679.42
704.252	1103.42
704.696	1542.33
705.14	1770.42
705.584	2262.12
706.027	1114.02
706.471	547.52
706.915	420.82
707.359	372.02
707.803	332.02
708.246	328.82
708.69	331.02
709.134	326.02
709.577	320.32
710.021	326.52
710.465	318.42
710.908	310.32
711.352	313.02
711.795	322.02
712.239	367.82
712.682	390.82
713.126	432.02
713.569	475.52
714.012	379.02
714.456	316.72
714.899	304.42
715.342	283.42
715.786	276.02
716.229	268.12
716.672	268.82
717.115	260.62
717.558	258.12
718.002	263.82
718.445	273.62
718.888	296.92
719.331	314.62
719.774	322.42
720.217	317.82
720.66	294.82
721.103	277.52
721.546	268.32
721.989	258.32
722.432	238.32
722.874	247.12
723.317	235.62
723.76	243.22
724.203	270.72
724.645	326.62
725.088	464.62
725.531	588.92
725.974	684.22
726.416	578.62
726.859	316.92
727.301	259.52
727.744	247.32
728.187	247.22
728.629	242.92
729.071	256.92
729.514	268.32
729.956	287.22
730.399	299.32
730.841	301.52
731.283	287.22
731.726	274.32
732.168	270.32
732.61	280.52
733.053	304.32
733.495	329.82
733.937	368.42
734.379	423.32
734.821	461.02
735.263	571.22
735.705	883.92
736.148	1686.32
736.59	2734.72
737.032	3216.62
737.474	2617.12
737.916	861.72
738.357	460.12
738.799	348.22
739.241	311.42
739.683	300.62
740.125	308.02
740.567	310.72
741.008	326.02
741.45	325.22
741.892	331.12
742.334	367.72
742.775	383.22
743.217	365.92
743.658	288.32
744.1	269.72
744.542	271.52
744.983	328.52
745.425	369.52
745.866	358.02
746.307	297.42
746.749	290.62
747.19	341.72
747.632	474.42
748.073	939.82
748.514	2001.12
748.956	3030.03
749.397	3783.92
749.838	3155.73
750.279	3141.82
750.72	1592.62
751.162	579.22
751.603	336.92
752.044	265.12
752.485	226.12
752.926	227.22
753.367	210.92
753.808	198.72
754.249	201.52
754.69	197.32
755.131	191.92
755.572	187.42
756.013	191.62
756.453	191.42
756.894	200.32
757.335	198.52
757.776	200.72
758.216	203.42
758.657	208.72
759.098	212.62
759.538	237.62
759.979	276.52
760.42	395.02
760.86	744.82
761.301	1945.32
761.741	4698.52
762.182	6775.92
762.622	4810.52
763.063	1395.62
763.503	566.52
763.943	349.62
764.384	280.12
764.824	256.22
765.264	240.22
765.705	222.82
766.145	187.92
766.585	184.92
767.025	175.62
767.465	170.42
767.906	187.52
768.346	205.42
768.786	213.12
769.226	227.02
769.666	320.92
770.106	652.32
770.546	1634.32
770.986	2791.62
771.426	2502.62
771.866	839.52
772.306	345.52
772.745	218.02
773.185	172.92
773.625	163.42
774.065	157.62
774.505	173.42
774.944	210.02
775.384	374.32
775.824	605.12
776.263	588.82
776.703	292.22
777.142	165.22
777.582	138.42
778.021	130.02
778.461	136.52
778.9	129.82
779.34	132.62
779.779	116.72
780.219	106.42
780.658	108.42
781.097	109.52
781.537	119.22
781.976	111.72
782.415	115.92
782.855	112.92
783.294	104.52
783.733	109.12
784.172	109.62
784.611	102.32
785.05	107.92
785.489	110.32
785.928	120.62
786.367	124.22
786.806	115.92
787.245	137.22
787.684	143.02
788.123	154.22
788.562	144.42
789.001	129.42
789.44	125.72
789.879	124.32
790.317	120.42
790.756	129.12
791.195	131.22
791.634	147.72
792.072	211.62
792.511	382.42
792.95	1050.32
793.388	2239.42
793.827	2017.03
794.265	702.72
794.704	288.32
795.142	191.72
795.581	159.62
796.019	134.02
796.458	135.62
796.896	131.42
797.334	136.92
797.773	165.12
798.211	231.12
798.649	473.22
799.087	1072.72
799.526	1683.62
799.964	2116.62
800.402	2122.72
800.84	802.32
801.278	314.82
801.716	190.02
802.154	157.82
802.592	155.42
803.03	150.92
803.468	141.02
803.906	150.62
804.344	157.72
804.782	147.92
805.22	137.92
805.658	133.42
806.096	159.42
806.533	165.12
806.971	189.42
807.409	226.82
807.847	334.82
808.284	709.12
808.722	1976.92
809.16	3490.82
809.597	3325.03
810.035	5731.02
810.472	6097.62
810.91	2214.03
811.347	842.12
811.785	428.62
812.222	274.32
812.66	207.72
813.097	173.12
813.535	147.12
813.972	138.92
814.409	128.22
814.846	113.52
815.284	112.82
815.721	105.42
816.158	105.92
816.595	113.32
817.032	161.62
817.47	184.02
817.907	141.82
818.344	103.62
818.781	108.02
819.218	96.22
819.655	125.82
820.092	199.62
820.529	225.82
820.966	181.52
821.403	133.22
821.839	106.72
822.276	103.42
822.713	130.72
823.15	142.72
823.587	124.42
824.023	157.72
824.46	311.52
824.897	947.12
825.333	1425.03
825.77	616.92
826.206	239.62
826.643	137.82
827.08	107.72
827.516	81.92
827.953	82.72
828.389	84.72
828.825	75.92
829.262	72.62
829.698	62.62
830.135	65.42
830.571	62.92
831.007	66.82
831.443	64.92
831.88	61.92
832.316	60.52
832.752	65.02
833.188	69.42
833.624	73.42
834.06	63.02
834.497	68.22
834.933	78.12
835.369	82.22
835.805	71.52
836.241	76.02
836.677	84.72
837.112	96.52
837.548	104.42
837.984	144.52
838.42	211.62
838.856	517.82
839.292	1593.22
839.727	2432.32
840.163	1128.02
840.599	983.92
841.034	2143.82
841.47	2255.32
841.906	821.62
842.341	343.02
842.777	201.52
843.212	210.52
843.648	192.42
844.083	113.82
844.519	86.12
844.954	76.22
845.39	63.22
845.825	63.02
846.261	53.32
846.696	55.72
847.131	52.62
847.566	58.52
848.002	52.32
848.437	56.02
848.872	58.62
849.307	61.92
849.742	88.12
850.177	189.42
850.613	583.62
851.048	923.92
851.483	407.32
851.918	162.02
852.353	90.52
852.788	54.52
853.223	54.62
853.657	50.52
854.092	54.22
854.527	44.02
854.962	47.52
855.397	39.92
855.832	54.92
856.266	44.82
856.701	41.12
857.136	37.52
857.57	42.12
858.005	55.32
858.44	64.02
858.874	51.22
859.309	49.02
859.743	42.92
860.178	46.42
860.612	37.82
861.047	57.72
861.481	70.62
861.915	74.32
862.35	50.72
862.784	37.52
863.218	38.82
863.653	34.12
864.087	45.72
864.521	56.72
864.955	69.22
865.39	165.42
865.824	183.92
866.258	119.42
866.692	180.32
867.126	187.12
867.56	114.72
867.994	57.22
868.428	38.62
868.862	49.92
869.296	61.42
869.73	63.62
870.164	58.02
870.598	49.12
871.031	41.82
871.465	36.82
871.899	34.62
872.333	26.82
872.766	23.72
873.2	29.42
873.634	35.92
874.067	24.62
874.501	29.62
874.935	37.02
875.368	35.22
875.802	28.62
876.235	25.62
876.669	23.52
877.102	28.72
877.535	30.82
877.969	23.62
878.402	29.02
878.836	17.42
879.269	24.42
879.702	27.72
880.135	17.72
880.569	21.72
881.002	27.52
881.435	28.02
881.868	16.12
882.301	22.22
882.734	13.12
883.167	27.52
883.601	13.12
884.034	21.02
884.467	13.62
884.899	18.82
885.332	19.12
885.765	19.52
886.198	13.72
886.631	14.22
887.064	17.52
887.497	21.02
887.929	24.02
888.362	13.32
888.795	12.42
889.228	13.92
889.66	25.52
890.093	22.02
890.526	19.72
890.958	14.92
891.391	19.12
891.823	26.62
892.256	15.82
892.688	13.52
893.121	21.02
893.553	15.92
893.985	24.72
894.418	22.82
894.85	17.32
895.282	19.82
895.715	12.22
896.147	21.12
896.579	17.82
897.011	13.82
897.444	18.12
897.876	16.22
898.308	15.12
898.74	14.62
899.172	12.02
899.604	22.32
900.036	18.02
900.468	12.42
900.9	19.22
901.332	17.72
901.764	17.82
902.196	19.92
902.628	20.82
903.06	16.72
903.491	35.62
903.923	23.52
904.355	14.62
904.787	30.92
905.218	21.52
905.65	23.02
906.082	10.92
906.513	8.52
906.945	13.52
907.376	17.82
907.808	24.32
908.239	21.92
908.671	21.62
909.102	20.32
909.534	27.32
909.965	44.42
910.397	97.42
910.828	328.02
911.259	491.12
911.691	226.42
912.122	116.82
912.553	55.02
912.984	37.02
913.415	25.82
913.847	23.52
914.278	14.82
914.709	13.52
915.14	20.42
915.571	20.12
916.002	9.52
916.433	19.22
916.864	16.22
917.295	13.62
917.726	21.22
918.157	19.92
918.587	26.62
919.018	24.92
919.449	24.52
919.88	25.32
920.311	34.42
920.741	49.42
921.172	179.02
921.603	156.82
922.033	72.32
922.464	46.82
922.895	23.82
923.325	22.72
923.756	14.52
924.186	10.52
924.617	17.62
925.047	20.72
925.478	22.42
925.908	22.12
926.338	10.12
926.769	10.32
927.199	14.32
927.629	13.72
928.06	14.62
928.49	12.02
928.92	15.02
929.35	8.22
929.78	10.32
930.21	5.72
930.641	11.22
931.071	10.22
931.501	6.62
931.931	8.52
932.361	8.82
932.791	2.52
933.221	6.92
933.651	7.02
934.08	19.72
934.51	32.32
934.94	7.72
935.37	6.92
935.8	14.82
936.229	11.22
936.659	8.12
937.089	5.92
937.519	9.82
937.948	19.62
938.378	16.82
938.807	10.42
939.237	6.52
939.666	6.72
940.096	-1.28
940.525	1.32
940.955	-4.38
941.384	0.12
941.814	-3.38
942.243	-5.08
942.672	3.72
943.102	-5.28
943.531	3.22
943.96	3.62
944.39	7.72
944.819	-2.78
945.248	1.72
945.677	3.82
946.106	7.02
946.535	3.92
946.964	4.72
947.393	4.22
947.822	1.82
948.251	-6.88
948.68	12.52
949.109	4.92
949.538	7.12
949.967	3.32
950.396	3.12
950.825	-0.68
951.254	-0.88
951.682	-4.08
952.111	1.92
952.54	3.02
952.969	-4.78
953.397	-1.58
953.826	3.52
954.254	-11.38
954.683	2.02
955.112	-6.28
955.54	-0.88
955.969	-0.68
956.397	-1.48
956.826	-4.38
957.254	3.42
957.682	3.52
958.111	1.22
958.539	-2.38
958.967	-1.98
959.396	-0.78
959.824	-1.08
960.252	-0.68
960.68	0.72
961.109	-5.28
961.537	-1.58
961.965	-4.98
962.393	-2.98
962.821	-4.48
963.249	3.72
963.677	0.22
964.105	5.62
964.533	48.62
964.961	41.72
965.389	21.12
965.817	7.22
966.245	1.62
966.672	3.52
967.1	-6.88
967.528	0.02
967.956	-6.68
968.383	1.12
968.811	-5.88
969.239	-2.28
969.666	-8.08
970.094	3.82
970.522	-1.38
970.949	-0.28
971.377	-1.68
971.804	-3.68
972.232	-1.68
972.659	3.52
973.087	-3.98
973.514	1.32
973.941	-2.98
974.369	2.22
974.796	1.32
975.223	1.22
975.651	0.12
976.078	2.72
976.505	0.82
976.932	3.82
977.359	13.92
977.786	16.72
978.214	-2.28
978.641	1.72
979.068	-4.28
979.495	-4.58
979.922	0.22
980.349	-0.88
980.776	3.12
981.202	2.02
981.629	5.02
982.056	4.92
982.483	-2.88
982.91	-0.08
983.337	-7.98
983.763	-3.98
984.19	2.92
984.617	-2.38
985.043	-7.48
985.47	-6.58
985.897	-7.18
986.323	-2.68
986.75	1.12
987.176	2.22
987.603	0.52
988.029	0.22
988.456	-0.88
988.882	-1.18
989.308	-8.88
989.735	-0.28
990.161	-3.08
990.587	-8.18
991.014	-1.38
991.44	7.52
991.866	4.72
992.292	2.22
992.719	-5.58
993.145	5.42
993.571	-10.88
993.997	-4.58
994.423	1.12
994.849	-4.98
995.275	2.02
995.701	1.52
996.127	-5.28
996.553	-1.48
996.979	-2.38
997.405	-5.78
997.83	-7.48
998.256	-6.38
998.682	-2.78
999.108	-7.18
999.534	-6.98
999.959	-0.88
1000.385	-5.78
1000.811	-4.08
1001.236	-9.98
1001.662	-8.28
1002.087	-9.08
1002.513	-3.38
1002.938	0.22
1003.364	0.22
1003.789	-1.48
1004.215	-0.58
1004.64	5.92
1005.066	4.42
1005.491	-3.08
1005.916	-5.88
1006.342	-6.48
1006.767	-3.68
1007.192	2.52
1007.617	-6.98
1008.042	-7.78
1008.468	-6.48
1008.893	-3.48
1009.318	-5.18
1009.743	-2.38
1010.168	4.92
1010.593	-0.78
1011.018	-3.78
1011.443	0.62
1011.868	0.02
1012.293	-3.38
1012.718	-4.28
1013.143	5.02
1013.567	-0.28
1013.992	-1.38
1014.417	-14.28
1014.842	3.32
1015.267	-4.78
1015.691	-4.08
1016.116	3.02
1016.541	-3.98
1016.965	6.62
1017.39	-2.28
1017.814	-5.38
1018.239	0.72
1018.663	-6.88
1019.088	-13.88
1019.512	2.12
1019.937	-2.18
1020.361	-5.98
1020.785	-9.38
1021.21	-2.38
1021.634	-2.08
1022.058	1.52
1022.483	0.32
1022.907	-3.88
1023.331	-3.58
1023.755	-0.78
1024.179	-3.98
1024.604	-4.78
1025.028	-3.18
1025.452	-1.88
1025.876	-3.68
1026.3	-4.78
1026.724	-9.38
1027.148	-8.38
1027.572	-5.58
1027.996	-10.98
1028.42	-1.68
1028.843	-5.08
1029.267	2.92
1029.691	-3.68
1030.115	-5.98
1030.539	-6.08
1030.962	-3.08
1031.386	-5.58
1031.81	0.62
1032.233	5.72
1032.657	-5.18
1033.08	-0.38
1033.504	3.52
1033.927	-4.08
1034.351	-2.38
1034.774	-3.48
1035.198	1.22
1035.621	-10.38
1036.045	-12.28
1036.468	-1.98
1036.891	-8.08
1037.315	-11.18
1037.738	-13.98
1038.161	-2.58
1038.584	-11.18
1039.008	-4.78
1039.431	-6.08
1039.854	3.92
1040.277	-6.68
1040.7	-10.28
1041.123	-3.78
1041.546	-6.38
1041.969	-7.58
1042.392	-12.68
1042.815	-3.38
1043.238	-4.98
1043.661	0.22
1044.084	-7.38
1044.507	-4.98
1044.93	-10.18
1045.352	-9.48
1045.775	-5.58
1046.198	-1.98
1046.621	-3.58
1047.043	-1.98
1047.466	8.12
1047.889	-4.48
1048.311	-5.18
1048.734	-4.78
1049.156	-0.88
1049.579	-2.38
1050.001	0.22
1050.424	-0.28
1050.846	-3.58
1051.269	-5.18
1051.691	-11.78
1052.113	-3.38
1052.536	-1.98
1052.958	0.92
1053.38	-0.98
1053.802	-8.68
1054.225	0.02
1054.647	-8.18
1055.069	-5.08
1055.491	-4.58
1055.913	-9.18
1056.335	-4.38
1056.757	-6.58
1057.179	-6.38
1057.601	-10.68
1058.023	-6.58
1058.445	-3.28
1058.867	-5.08
1059.289	-5.28
1059.711	-10.98
1060.133	-1.68
1060.555	-3.58
1060.976	-5.88
1061.398	-9.48
1061.82	-3.88
1062.241	-6.58
1062.663	-9.78
1063.085	-7.88
1063.506	-5.18
1063.928	-3.58
1064.35	-0.28
1064.771	-13.18
1065.193	-4.18
1065.614	-13.68
1066.035	-5.38
1066.457	-1.68
1066.878	0.22
1067.3	-5.68
1067.721	-6.88
1068.142	-5.38
1068.564	-4.68
1068.985	-2.58
1069.406	-4.68
1069.827	-3.98
1070.248	-2.88
1070.67	-13.18
1071.091	-3.58
1071.512	-5.98
1071.933	-2.88
1072.354	-6.78
1072.775	-4.38
1073.196	-9.98
1073.617	-0.18
1074.038	-14.98
1074.459	0.62
1074.88	-7.88
1075.3	0.62
1075.721	-4.88
1076.142	-3.98
1076.563	-3.28
1076.983	-9.98
1077.404	-1.98
1077.825	-12.28
1078.246	-12.48
1078.666	-8.38
1079.087	-1.78
1079.507	-5.58
1079.928	0.32
1080.348	-3.38
1080.769	-10.38
1081.189	-4.48
1081.61	2.72
1082.03	-8.78
1082.451	-4.18
1082.871	-6.28
1083.291	-2.98
1083.711	-8.78
1084.132	-4.08
1084.552	-5.38
1084.972	-1.58
1085.392	-8.08
1085.813	-15.78
1086.233	-3.08
1086.653	-4.48
1087.073	0.42
1087.493	-5.08
1087.913	-10.48
1088.333	-10.58
1088.753	-7.78
1089.173	1.82
1089.593	-5.58
1090.013	-0.28
1090.433	3.32
1090.852	-3.08
1091.272	-2.28
1091.692	-6.28
1092.112	-2.78
1092.531	-8.78
1092.951	-18.38
1093.371	-4.68
1093.79	-0.88
1094.21	-4.48
1094.63	-9.48
1095.049	-3.28
1095.469	1.12
1095.888	-8.38
1096.308	-3.88
1096.727	0.12
1097.146	-5.58
1097.566	-3.08
1097.985	-1.38
1098.405	-0.88
1098.824	-5.68
1099.243	-6.58
1099.662	-8.18
1100.082	-3.88
1100.501	-7.68
1100.92	-4.28
1101.339	-7.38
1101.758	-6.48
