Data from 20171114-ORNL-Ar_H_NY_Subt18_08-07-05-229.txt Node
Date: Tue Nov 14 08:07:05 EST 2017
User: Ender
Spectrometer: HR+D1039
Trigger mode: 0
Integration Time (sec): 2.730000E-2
Scans to average: 10
Electric dark correction enabled: true
Nonlinearity correction enabled: false
Boxcar width: 0
XAxis mode: Wavelengths
Number of Pixels in Spectrum: 2048
>>>>>Begin Spectral Data<<<<<
187.836	-4.49
188.309	-4.49
188.782	-4.49
189.255	2.51
189.728	-3.39
190.201	5.01
190.674	-4.89
191.147	3.51
191.619	-4.49
192.092	-0.99
192.565	7.41
193.038	-0.59
193.511	1.31
193.984	-2.29
194.456	0.21
194.929	-1.49
195.402	-1.79
195.874	4.41
196.347	-2.29
196.82	-6.19
197.292	0.61
197.765	-1.29
198.237	-8.89
198.71	3.61
199.182	-8.19
199.655	1.41
200.127	2.81
200.6	-3.29
201.072	-3.99
201.544	-5.49
202.017	0.71
202.489	-2.09
202.961	-4.29
203.433	-4.89
203.906	-0.09
204.378	-6.99
204.85	-3.79
205.322	-7.99
205.794	-7.29
206.266	-0.09
206.739	-6.09
207.211	-1.49
207.683	-8.99
208.155	-2.99
208.627	-7.69
209.099	-4.39
209.57	-5.89
210.042	-4.19
210.514	-3.19
210.986	-2.49
211.458	-11.69
211.93	-2.39
212.402	2.31
212.873	-6.09
213.345	-14.79
213.817	-12.39
214.288	-7.09
214.76	-10.09
215.232	-1.79
215.703	-1.99
216.175	-7.79
216.646	-5.79
217.118	-2.89
217.589	-7.59
218.061	-2.69
218.532	-8.09
219.004	-4.59
219.475	-3.19
219.946	-0.79
220.418	-6.79
220.889	-0.69
221.36	-1.89
221.832	-5.49
222.303	-9.29
222.774	-6.39
223.245	-10.09
223.717	-2.99
224.188	-6.29
224.659	-9.39
225.13	-0.69
225.601	-2.79
226.072	3.41
226.543	1.21
227.014	0.01
227.485	3.71
227.956	-5.29
228.427	0.01
228.898	-2.19
229.369	10.51
229.839	-0.19
230.31	-7.99
230.781	-2.49
231.252	-4.89
231.722	-7.09
232.193	-7.09
232.664	-2.69
233.135	-1.29
233.605	-0.29
234.076	-5.69
234.546	-1.19
235.017	4.21
235.487	-0.19
235.958	-2.39
236.428	-5.59
236.899	4.51
237.369	-8.99
237.84	0.11
238.31	-2.39
238.78	-2.19
239.251	-6.59
239.721	-3.49
240.191	-7.99
240.662	-7.89
241.132	2.51
241.602	-5.69
242.072	4.41
242.542	-3.19
243.013	-0.79
243.483	2.11
243.953	-2.09
244.423	-6.79
244.893	-7.49
245.363	0.91
245.833	-4.09
246.303	-3.49
246.773	-0.49
247.243	1.61
247.712	1.31
248.182	-0.39
248.652	-0.29
249.122	-16.39
249.592	-0.39
250.061	-1.89
250.531	6.01
251.001	-4.89
251.471	12.11
251.94	5.91
252.41	-5.19
252.879	-11.19
253.349	8.91
253.818	6.31
254.288	-0.49
254.757	-2.49
255.227	-5.79
255.696	-0.09
256.166	4.81
256.635	5.21
257.105	-2.49
257.574	-1.79
258.043	-3.39
258.513	-4.59
258.982	10.21
259.451	-1.39
259.92	6.61
260.389	-2.29
260.859	5.61
261.328	2.91
261.797	-2.09
262.266	5.91
262.735	6.31
263.204	5.41
263.673	3.41
264.142	4.31
264.611	-7.39
265.08	1.11
265.549	-2.39
266.018	2.41
266.487	-1.59
266.955	-7.29
267.424	-2.39
267.893	-0.19
268.362	-2.59
268.83	-0.69
269.299	10.11
269.768	8.21
270.236	6.91
270.705	-0.69
271.174	4.71
271.642	4.41
272.111	1.11
272.579	7.01
273.048	0.11
273.516	6.61
273.985	3.31
274.453	0.11
274.922	9.81
275.39	1.81
275.858	0.21
276.327	3.01
276.795	15.51
277.263	3.21
277.731	10.71
278.2	12.91
278.668	9.21
279.136	11.51
279.604	3.21
280.072	8.21
280.54	2.81
281.008	6.51
281.477	8.11
281.945	6.31
282.413	14.11
282.881	5.11
283.348	4.51
283.816	11.01
284.284	17.11
284.752	16.31
285.22	7.61
285.688	8.81
286.156	7.71
286.623	9.61
287.091	5.91
287.559	14.41
288.026	12.51
288.494	9.91
288.962	-2.09
289.429	7.11
289.897	17.51
290.364	8.91
290.832	11.61
291.3	9.71
291.767	9.11
292.234	10.01
292.702	7.11
293.169	6.51
293.637	22.91
294.104	16.21
294.571	6.31
295.039	8.11
295.506	4.41
295.973	15.41
296.44	9.11
296.908	17.41
297.375	12.51
297.842	14.31
298.309	10.61
298.776	7.61
299.243	10.31
299.71	8.81
300.177	20.01
300.644	15.61
301.111	16.51
301.578	17.91
302.045	17.11
302.512	21.71
302.979	21.91
303.446	13.31
303.913	14.41
304.379	11.61
304.846	21.81
305.313	17.11
305.78	15.91
306.246	15.31
306.713	22.11
307.18	18.51
307.646	22.01
308.113	21.61
308.579	16.71
309.046	17.61
309.512	16.51
309.979	13.41
310.445	27.01
310.912	22.11
311.378	23.01
311.845	30.21
312.311	30.61
312.777	26.41
313.244	23.81
313.71	29.91
314.176	24.91
314.642	22.71
315.109	19.31
315.575	29.31
316.041	30.11
316.507	30.51
316.973	28.71
317.439	24.81
317.905	30.41
318.371	25.71
318.837	24.91
319.303	24.21
319.769	25.21
320.235	26.11
320.701	30.01
321.167	26.31
321.633	22.31
322.099	28.51
322.564	32.41
323.03	28.81
323.496	25.51
323.962	35.21
324.427	31.71
324.893	42.31
325.359	30.51
325.824	30.31
326.29	32.11
326.755	31.81
327.221	34.41
327.686	36.41
328.152	38.91
328.617	35.01
329.083	44.41
329.548	43.41
330.014	37.31
330.479	35.71
330.944	35.51
331.41	38.81
331.875	36.91
332.34	32.71
332.805	33.21
333.271	43.81
333.736	32.91
334.201	46.41
334.666	48.01
335.131	41.01
335.596	40.01
336.061	41.01
336.526	37.71
336.991	38.51
337.456	48.41
337.921	44.41
338.386	36.71
338.851	45.61
339.316	41.21
339.781	40.81
340.246	48.21
340.711	44.31
341.175	46.61
341.64	37.71
342.105	39.11
342.569	48.81
343.034	42.51
343.499	47.31
343.963	46.51
344.428	56.31
344.893	52.11
345.357	50.41
345.822	51.11
346.286	51.71
346.751	60.41
347.215	59.01
347.679	59.81
348.144	80.71
348.608	70.11
349.073	62.11
349.537	62.61
350.001	66.21
350.465	72.01
350.93	67.11
351.394	76.21
351.858	66.41
352.322	73.71
352.786	70.81
353.25	90.61
353.715	85.71
354.179	90.91
354.643	94.41
355.107	103.51
355.571	91.21
356.035	92.31
356.498	97.31
356.962	96.31
357.426	106.31
357.89	95.31
358.354	78.01
358.818	73.41
359.281	81.41
359.745	72.81
360.209	65.41
360.673	61.31
361.136	66.81
361.6	76.01
362.064	78.51
362.527	69.61
362.991	90.21
363.454	74.11
363.918	74.31
364.381	70.01
364.845	78.01
365.308	78.91
365.772	75.71
366.235	82.21
366.698	79.71
367.162	77.41
367.625	83.11
368.088	76.11
368.552	84.41
369.015	80.51
369.478	88.11
369.941	89.51
370.404	86.61
370.867	92.91
371.331	94.51
371.794	101.31
372.257	88.71
372.72	96.41
373.183	97.61
373.646	84.01
374.109	91.41
374.572	98.41
375.035	96.61
375.497	91.21
375.96	103.71
376.423	99.01
376.886	103.11
377.349	99.71
377.811	94.51
378.274	92.51
378.737	97.31
379.199	99.11
379.662	98.31
380.125	106.61
380.587	102.11
381.05	105.21
381.512	111.91
381.975	114.91
382.437	110.91
382.9	112.31
383.362	124.11
383.825	125.71
384.287	118.51
384.75	106.31
385.212	119.91
385.674	124.31
386.136	121.61
386.599	116.41
387.061	113.31
387.523	115.31
387.985	116.61
388.447	130.81
388.91	117.91
389.372	126.11
389.834	122.41
390.296	123.71
390.758	120.31
391.22	127.31
391.682	139.61
392.144	155.01
392.606	148.91
393.068	141.21
393.529	152.21
393.991	137.71
394.453	133.61
394.915	121.51
395.377	130.01
395.838	144.81
396.3	127.61
396.762	136.51
397.224	125.01
397.685	129.51
398.147	130.01
398.608	127.51
399.07	128.61
399.531	133.91
399.993	143.91
400.454	148.71
400.916	134.11
401.377	146.61
401.839	156.61
402.3	147.31
402.762	166.11
403.223	176.61
403.684	168.21
404.145	162.51
404.607	159.81
405.068	166.61
405.529	159.51
405.99	180.91
406.451	167.91
406.913	172.51
407.374	156.21
407.835	154.71
408.296	168.31
408.757	168.71
409.218	183.51
409.679	177.81
410.14	170.81
410.601	171.31
411.062	178.71
411.522	175.51
411.983	177.51
412.444	178.01
412.905	182.21
413.366	189.21
413.826	194.51
414.287	221.61
414.748	271.21
415.208	255.81
415.669	219.81
416.13	210.91
416.59	211.21
417.051	213.51
417.511	217.71
417.972	235.91
418.432	254.51
418.893	292.91
419.353	254.81
419.814	199.11
420.274	200.51
420.734	186.01
421.195	195.91
421.655	193.01
422.115	192.31
422.576	199.41
423.036	202.21
423.496	218.31
423.956	216.41
424.416	228.91
424.876	272.61
425.336	260.41
425.797	264.11
426.257	257.11
426.717	239.51
427.177	237.51
427.637	224.81
428.097	236.91
428.556	244.51
429.016	266.91
429.476	255.51
429.936	274.71
430.396	269.21
430.856	289.21
431.315	303.51
431.775	350.71
432.235	383.11
432.694	342.71
433.154	349.31
433.614	376.01
434.073	331.41
434.533	278.01
434.993	278.11
435.452	278.51
435.912	282.41
436.371	282.71
436.83	276.11
437.29	266.41
437.749	243.41
438.209	248.91
438.668	276.51
439.127	287.81
439.587	262.51
440.046	249.31
440.505	259.81
440.964	287.51
441.424	319.51
441.883	313.61
442.342	265.51
442.801	232.91
443.26	235.21
443.719	231.51
444.178	231.31
444.637	214.91
445.096	229.51
445.555	231.61
446.014	232.61
446.473	237.01
446.932	237.81
447.391	234.71
447.849	237.11
448.308	234.21
448.767	234.31
449.226	249.81
449.685	248.31
450.143	262.01
450.602	247.71
451.061	239.31
451.519	240.61
451.978	234.81
452.436	243.91
452.895	245.81
453.353	266.21
453.812	248.41
454.27	252.31
454.729	242.91
455.187	248.11
455.646	256.51
456.104	261.11
456.562	274.31
457.021	271.61
457.479	270.61
457.937	285.71
458.395	275.21
458.854	263.21
459.312	266.21
459.77	280.31
460.228	264.51
460.686	257.11
461.144	275.21
461.602	263.61
462.06	256.31
462.518	264.91
462.976	274.31
463.434	272.21
463.892	276.91
464.35	290.41
464.808	303.21
465.266	284.11
465.724	284.91
466.181	293.21
466.639	284.01
467.097	302.81
467.555	317.91
468.012	314.91
468.47	318.11
468.928	351.91
469.385	357.91
469.843	368.21
470.3	368.11
470.758	381.01
471.215	401.31
471.673	418.91
472.13	427.71
472.588	433.41
473.045	389.01
473.503	396.41
473.96	410.61
474.417	412.31
474.875	447.71
475.332	490.11
475.789	474.51
476.246	481.71
476.704	499.71
477.161	522.61
477.618	532.01
478.075	575.61
478.532	632.61
478.989	696.11
479.446	799.31
479.903	782.41
480.36	804.41
480.817	862.61
481.274	951.51
481.731	1046.11
482.188	1120.51
482.645	1241.51
483.102	1349.11
483.558	1460.01
484.015	1492.31
484.472	1467.61
484.929	1425.41
485.385	1388.11
485.842	1344.61
486.299	1302.41
486.755	1260.21
487.212	1075.01
487.668	920.31
488.125	842.51
488.582	774.21
489.038	763.91
489.494	726.41
489.951	697.51
490.407	687.41
490.864	668.51
491.32	667.81
491.776	665.01
492.233	666.41
492.689	643.91
493.145	631.01
493.602	616.21
494.058	634.51
494.514	634.21
494.97	649.51
495.426	671.81
495.882	645.61
496.338	635.91
496.794	650.81
497.251	643.51
497.707	655.11
498.163	664.21
498.618	663.71
499.074	662.31
499.53	698.11
499.986	684.81
500.442	665.51
500.898	647.21
501.354	644.91
501.809	652.11
502.265	651.21
502.721	660.51
503.177	661.21
503.632	671.91
504.088	673.61
504.543	695.71
504.999	714.31
505.455	684.11
505.91	665.61
506.366	667.21
506.821	666.61
507.277	661.21
507.732	665.61
508.187	669.31
508.643	671.31
509.098	671.11
509.553	691.71
510.009	701.21
510.464	703.21
510.919	723.61
511.375	721.71
511.83	759.91
512.285	764.01
512.74	803.21
513.195	815.71
513.65	806.01
514.105	801.61
514.56	797.71
515.015	825.51
515.47	834.01
515.925	814.21
516.38	815.71
516.835	831.31
517.29	814.41
517.745	818.11
518.2	801.01
518.655	783.11
519.109	769.51
519.564	779.71
520.019	765.61
520.474	755.51
520.928	773.51
521.383	754.41
521.838	746.51
522.292	744.81
522.747	742.71
523.201	742.21
523.656	727.01
524.11	741.01
524.565	724.51
525.019	731.01
525.474	738.11
525.928	734.91
526.382	729.91
526.837	735.31
527.291	734.91
527.745	725.41
528.2	729.11
528.654	727.11
529.108	714.01
529.562	720.61
530.016	727.71
530.47	724.51
530.925	728.41
531.379	727.51
531.833	727.31
532.287	729.31
532.741	728.71
533.195	735.71
533.649	746.01
534.103	748.51
534.556	737.11
535.01	745.81
535.464	730.61
535.918	754.91
536.372	752.31
536.826	759.21
537.279	740.91
537.733	745.31
538.187	745.21
538.64	757.81
539.094	756.11
539.548	770.41
540.001	758.31
540.455	764.71
540.908	772.31
541.362	768.81
541.815	790.81
542.269	802.81
542.722	802.31
543.175	803.81
543.629	809.21
544.082	821.21
544.536	829.41
544.989	812.31
545.442	841.71
545.895	832.41
546.349	840.01
546.802	846.81
547.255	847.51
547.708	840.91
548.161	852.71
548.614	863.91
549.067	871.81
549.52	862.41
549.973	851.41
550.426	839.11
550.879	842.81
551.332	831.31
551.785	847.71
552.238	852.71
552.691	867.21
553.144	881.81
553.596	902.81
554.049	910.91
554.502	950.11
554.955	959.71
555.407	945.11
555.86	938.51
556.313	929.11
556.765	931.61
557.218	924.01
557.67	924.11
558.123	917.71
558.576	921.11
559.028	926.01
559.48	935.51
559.933	924.21
560.385	877.61
560.838	863.61
561.29	821.61
561.742	828.11
562.195	813.91
562.647	805.31
563.099	816.01
563.551	817.21
564.004	825.01
564.456	816.61
564.908	799.11
565.36	778.91
565.812	761.31
566.264	753.11
566.716	766.51
567.168	740.81
567.62	744.61
568.072	740.21
568.524	731.41
568.976	732.81
569.428	714.81
569.88	700.11
570.332	718.51
570.784	722.91
571.235	722.31
571.687	730.41
572.139	742.01
572.59	750.41
573.042	751.91
573.494	746.71
573.945	740.01
574.397	722.81
574.849	720.21
575.3	728.91
575.752	723.81
576.203	711.31
576.655	723.51
577.106	712.61
577.557	696.61
578.009	702.91
578.46	703.01
578.912	703.31
579.363	694.71
579.814	700.31
580.265	701.21
580.717	706.11
581.168	701.01
581.619	713.31
582.07	716.51
582.521	701.71
582.972	702.71
583.423	716.41
583.875	705.11
584.326	711.21
584.777	725.71
585.227	751.31
585.678	768.31
586.129	792.51
586.58	808.11
587.031	831.01
587.482	863.71
587.933	903.41
588.384	871.71
588.834	836.51
589.285	806.41
589.736	806.11
590.186	805.91
590.637	800.31
591.088	779.61
591.538	775.21
591.989	771.71
592.439	762.21
592.89	749.61
593.34	735.51
593.791	729.61
594.241	741.21
594.692	731.11
595.142	732.71
595.593	730.61
596.043	739.01
596.493	739.91
596.943	728.91
597.394	752.31
597.844	745.21
598.294	771.81
598.744	801.11
599.195	801.31
599.645	858.81
600.095	901.41
600.545	969.31
600.995	1013.41
601.445	1080.31
601.895	1130.31
602.345	1183.81
602.795	1166.71
603.245	1122.21
603.695	1062.81
604.145	1015.21
604.594	968.91
605.044	907.01
605.494	831.51
605.944	788.51
606.393	781.41
606.843	766.01
607.293	771.11
607.743	755.81
608.192	770.01
608.642	779.91
609.091	790.01
609.541	805.11
609.99	800.71
610.44	793.21
610.889	740.51
611.339	731.41
611.788	706.91
612.238	705.01
612.687	735.11
613.136	729.91
613.586	733.21
614.035	731.61
614.484	734.01
614.933	744.21
615.383	739.41
615.832	732.01
616.281	720.81
616.73	690.01
617.179	681.01
617.628	659.91
618.077	651.41
618.526	640.21
618.975	641.31
619.424	639.31
619.873	632.71
620.322	638.81
620.771	619.51
621.22	630.11
621.669	610.91
622.118	611.31
622.567	606.61
623.015	593.11
623.464	592.41
623.913	574.21
624.361	578.31
624.81	567.51
625.259	577.71
625.707	578.31
626.156	583.11
626.604	594.91
627.053	575.71
627.501	585.41
627.95	584.01
628.398	607.71
628.847	596.91
629.295	593.11
629.744	602.21
630.192	574.51
630.64	579.51
631.089	571.81
631.537	566.81
631.985	548.81
632.433	551.91
632.881	545.81
633.33	558.21
633.778	545.01
634.226	543.71
634.674	567.11
635.122	558.01
635.57	566.71
636.018	578.41
636.466	584.31
636.914	571.61
637.362	583.51
637.81	598.61
638.258	611.21
638.705	601.81
639.153	633.01
639.601	645.01
640.049	660.81
640.497	694.21
640.944	714.01
641.392	670.31
641.84	637.31
642.287	606.61
642.735	583.21
643.182	592.91
643.63	582.31
644.078	583.51
644.525	594.01
644.973	600.61
645.42	616.41
645.867	636.01
646.315	653.11
646.762	675.51
647.21	696.21
647.657	726.21
648.104	751.91
648.551	779.31
648.999	848.51
649.446	911.51
649.893	990.61
650.34	1130.71
650.787	1354.31
651.234	1667.31
651.682	2142.01
652.129	2880.31
652.576	4126.61
653.023	6001.11
653.47	8119.21
653.917	10078.81
654.363	11620.11
654.81	12783.91
655.257	12148.11
655.704	8047.11
656.151	4864.81
656.598	3178.31
657.044	2272.01
657.491	1772.41
657.938	1434.61
658.385	1211.81
658.831	1048.81
659.278	950.91
659.724	853.01
660.171	794.01
660.618	717.01
661.064	685.11
661.511	676.01
661.957	655.01
662.404	647.51
662.85	646.11
663.296	641.81
663.743	573.31
664.189	555.51
664.635	547.01
665.082	548.61
665.528	542.61
665.974	535.01
666.42	526.01
666.867	521.01
667.313	494.91
667.759	482.41
668.205	468.81
668.651	464.21
669.097	460.51
669.543	456.41
669.989	458.11
670.435	462.71
670.881	457.91
671.327	475.81
671.773	484.41
672.219	504.41
672.665	565.91
673.11	610.31
673.556	657.21
674.002	692.41
674.448	686.41
674.893	566.81
675.339	497.61
675.785	460.01
676.23	435.51
676.676	415.11
677.122	391.91
677.567	394.61
678.013	383.01
678.458	369.01
678.904	371.11
679.349	366.41
679.794	369.61
680.24	359.41
680.685	367.71
681.131	362.01
681.576	364.01
682.021	372.61
682.466	370.31
682.912	355.31
683.357	370.21
683.802	398.31
684.247	434.21
684.692	474.11
685.137	510.91
685.583	558.31
686.028	587.51
686.473	541.41
686.918	466.71
687.363	440.11
687.807	415.31
688.252	381.81
688.697	366.31
689.142	356.11
689.587	346.81
690.032	335.91
690.477	354.21
690.921	376.81
691.366	390.21
691.811	415.41
692.255	449.01
692.7	478.71
693.145	531.31
693.589	737.11
694.034	1189.71
694.478	1615.71
694.923	1807.61
695.367	2396.41
695.812	1247.91
696.256	526.71
696.701	389.31
697.145	362.61
697.59	339.41
698.034	327.61
698.478	342.51
698.922	333.61
699.367	338.81
699.811	344.71
700.255	363.31
700.699	398.91
701.143	441.61
701.588	489.31
702.032	530.71
702.476	536.61
702.92	506.91
703.364	515.61
703.808	682.91
704.252	1098.11
704.696	1533.21
705.14	1755.11
705.584	2233.31
706.027	1117.31
706.471	559.91
706.915	416.21
707.359	374.61
707.803	338.01
708.246	328.01
708.69	321.91
709.134	325.31
709.577	321.01
710.021	327.61
710.465	326.01
710.908	312.81
711.352	311.31
711.795	325.71
712.239	366.71
712.682	397.01
713.126	426.51
713.569	474.21
714.012	368.81
714.456	313.11
714.899	294.51
715.342	281.81
715.786	276.51
716.229	268.01
716.672	266.31
717.115	264.91
717.558	261.71
718.002	261.61
718.445	283.01
718.888	286.41
719.331	315.01
719.774	315.41
720.217	323.31
720.66	304.51
721.103	275.61
721.546	270.01
721.989	257.31
722.432	243.81
722.874	240.81
723.317	236.51
723.76	239.71
724.203	262.61
724.645	329.51
725.088	464.41
725.531	592.61
725.974	671.41
726.416	570.61
726.859	319.41
727.301	255.81
727.744	246.21
728.187	249.11
728.629	248.01
729.071	251.41
729.514	269.01
729.956	283.51
730.399	292.41
730.841	304.51
731.283	285.51
731.726	275.11
732.168	271.61
732.61	275.61
733.053	300.11
733.495	323.61
733.937	363.01
734.379	418.41
734.821	455.11
735.263	578.81
735.705	888.01
736.148	1675.71
736.59	2734.41
737.032	3210.41
737.474	2603.71
737.916	858.51
738.357	454.31
738.799	339.71
739.241	315.91
739.683	291.11
740.125	311.91
740.567	317.21
741.008	325.41
741.45	335.31
741.892	338.51
742.334	365.71
742.775	375.51
743.217	363.91
743.658	281.01
744.1	270.21
744.542	271.61
744.983	337.51
745.425	366.21
745.866	358.71
746.307	293.71
746.749	296.01
747.19	335.61
747.632	478.51
748.073	932.21
748.514	1973.11
748.956	3007.41
749.397	3771.91
749.838	3136.81
750.279	3112.01
750.72	1579.81
751.162	574.71
751.603	334.11
752.044	266.61
752.485	227.71
752.926	218.61
753.367	208.51
753.808	202.91
754.249	200.21
754.69	196.91
755.131	197.51
755.572	191.31
756.013	192.71
756.453	186.31
756.894	195.51
757.335	199.21
757.776	208.61
758.216	203.41
758.657	214.21
759.098	217.21
759.538	230.51
759.979	280.31
760.42	391.51
760.86	748.41
761.301	1942.31
761.741	4707.71
762.182	6761.21
762.622	4770.41
763.063	1390.41
763.503	569.11
763.943	336.41
764.384	278.01
764.824	256.81
765.264	247.31
765.705	218.31
766.145	194.51
766.585	182.81
767.025	176.81
767.465	167.51
767.906	192.91
768.346	196.11
768.786	208.61
769.226	223.21
769.666	320.11
770.106	647.81
770.546	1647.81
770.986	2775.21
771.426	2475.21
771.866	826.61
772.306	339.41
772.745	221.01
773.185	171.11
773.625	165.91
774.065	163.61
774.505	174.41
774.944	222.01
775.384	382.81
775.824	623.51
776.263	600.81
776.703	296.51
777.142	169.01
777.582	136.81
778.021	129.41
778.461	129.41
778.9	123.81
779.34	129.21
779.779	119.51
780.219	108.31
780.658	107.21
781.097	108.81
781.537	117.41
781.976	113.81
782.415	110.41
782.855	109.61
783.294	103.91
783.733	107.71
784.172	108.21
784.611	105.71
785.05	113.31
785.489	117.21
785.928	120.21
786.367	125.91
786.806	130.41
787.245	138.91
787.684	141.61
788.123	151.91
788.562	145.31
789.001	128.61
789.44	126.11
789.879	124.61
790.317	127.21
790.756	130.41
791.195	134.51
791.634	151.01
792.072	212.31
792.511	381.11
792.95	1053.51
793.388	2234.21
793.827	2009.11
794.265	698.61
794.704	296.31
795.142	192.01
795.581	157.71
796.019	151.51
796.458	140.71
796.896	129.41
797.334	143.51
797.773	157.11
798.211	231.71
798.649	456.21
799.087	1091.91
799.526	1683.71
799.964	2108.61
800.402	2106.91
800.84	792.61
801.278	322.81
801.716	193.11
802.154	169.01
802.592	152.71
803.03	145.01
803.468	147.11
803.906	152.31
804.344	154.61
804.782	148.21
805.22	139.51
805.658	133.51
806.096	160.81
806.533	163.41
806.971	189.71
807.409	235.91
807.847	346.31
808.284	717.51
808.722	1990.71
809.16	3461.01
809.597	3325.41
810.035	5734.91
810.472	6039.41
810.91	2194.61
811.347	842.41
811.785	425.51
812.222	271.11
812.66	202.01
813.097	175.91
813.535	153.31
813.972	132.41
814.409	127.91
814.846	114.91
815.284	115.31
815.721	101.11
816.158	107.61
816.595	114.01
817.032	158.41
817.47	179.11
817.907	143.61
818.344	106.61
818.781	102.51
819.218	95.81
819.655	125.01
820.092	204.11
820.529	218.61
820.966	177.61
821.403	127.61
821.839	104.81
822.276	102.61
822.713	136.71
823.15	148.11
823.587	125.51
824.023	156.71
824.46	317.01
824.897	941.91
825.333	1429.81
825.77	610.61
826.206	240.51
826.643	143.11
827.08	104.61
827.516	91.51
827.953	81.81
828.389	89.11
828.825	75.81
829.262	67.01
829.698	69.01
830.135	67.01
830.571	64.51
831.007	68.51
831.443	67.81
831.88	68.51
832.316	61.41
832.752	65.91
833.188	72.51
833.624	65.51
834.06	70.51
834.497	75.21
834.933	74.81
835.369	81.21
835.805	76.11
836.241	80.01
836.677	85.81
837.112	96.61
837.548	111.61
837.984	144.61
838.42	222.31
838.856	529.91
839.292	1602.01
839.727	2428.71
840.163	1132.01
840.599	977.21
841.034	2131.81
841.47	2235.61
841.906	814.61
842.341	346.51
842.777	198.41
843.212	216.71
843.648	194.01
844.083	114.91
844.519	89.81
844.954	71.01
845.39	64.11
845.825	59.51
846.261	59.31
846.696	61.71
847.131	53.91
847.566	56.71
848.002	54.81
848.437	59.61
848.872	62.51
849.307	69.91
849.742	87.11
850.177	191.61
850.613	575.11
851.048	909.91
851.483	407.71
851.918	163.41
852.353	91.71
852.788	52.01
853.223	52.21
853.657	56.21
854.092	51.61
854.527	36.91
854.962	39.41
855.397	51.61
855.832	55.01
856.266	47.41
856.701	43.41
857.136	44.41
857.57	45.31
858.005	59.61
858.44	63.31
858.874	55.31
859.309	52.51
859.743	43.61
860.178	51.21
860.612	46.41
861.047	62.41
861.481	72.41
861.915	81.41
862.35	53.91
862.784	39.51
863.218	41.51
863.653	34.71
864.087	47.81
864.521	53.51
864.955	72.91
865.39	159.11
865.824	185.51
866.258	129.41
866.692	176.51
867.126	189.31
867.56	116.41
867.994	61.41
868.428	34.81
868.862	50.61
869.296	58.81
869.73	63.11
870.164	52.91
870.598	52.71
871.031	39.31
871.465	31.61
871.899	35.41
872.333	29.31
872.766	26.11
873.2	25.61
873.634	36.41
874.067	26.81
874.501	33.51
874.935	31.21
875.368	32.21
875.802	31.41
876.235	29.31
876.669	29.21
877.102	24.11
877.535	29.41
877.969	21.41
878.402	25.91
878.836	22.11
879.269	26.51
879.702	21.41
880.135	19.91
880.569	25.41
881.002	26.61
881.435	26.51
881.868	21.01
882.301	29.21
882.734	16.81
883.167	26.71
883.601	15.11
884.034	27.61
884.467	15.21
884.899	12.61
885.332	20.81
885.765	21.81
886.198	19.31
886.631	18.71
887.064	20.31
887.497	24.01
887.929	27.81
888.362	9.91
888.795	17.31
889.228	17.91
889.66	23.11
890.093	17.41
890.526	14.51
890.958	22.81
891.391	19.01
891.823	24.11
892.256	18.51
892.688	9.31
893.121	19.31
893.553	15.21
893.985	21.81
894.418	17.61
894.85	18.71
895.282	17.41
895.715	13.21
896.147	15.71
896.579	24.21
897.011	17.71
897.444	20.71
897.876	10.41
898.308	21.91
898.74	17.81
899.172	12.41
899.604	24.21
900.036	20.61
900.468	16.91
900.9	16.91
901.332	21.01
901.764	22.31
902.196	18.91
902.628	19.41
903.06	18.31
903.491	31.01
903.923	21.31
904.355	27.81
904.787	26.41
905.218	17.21
905.65	22.01
906.082	12.31
906.513	12.01
906.945	13.01
907.376	19.21
907.808	23.41
908.239	20.91
908.671	23.31
909.102	19.71
909.534	23.61
909.965	46.61
910.397	99.21
910.828	328.51
911.259	495.21
911.691	230.21
912.122	110.21
912.553	55.11
912.984	30.71
913.415	28.41
913.847	23.91
914.278	27.51
914.709	17.41
915.14	18.91
915.571	24.41
916.002	11.41
916.433	20.51
916.864	15.21
917.295	11.01
917.726	17.11
918.157	16.31
918.587	30.21
919.018	27.61
919.449	21.51
919.88	29.31
920.311	34.31
920.741	48.31
921.172	177.11
921.603	159.31
922.033	78.31
922.464	48.61
922.895	22.81
923.325	24.11
923.756	13.31
924.186	8.01
924.617	16.71
925.047	24.51
925.478	28.51
925.908	26.91
926.338	13.81
926.769	16.71
927.199	18.61
927.629	15.11
928.06	18.91
928.49	18.31
928.92	16.21
929.35	13.71
929.78	15.21
930.21	8.21
930.641	6.81
931.071	7.71
931.501	0.91
931.931	9.91
932.361	12.91
932.791	7.71
933.221	5.91
933.651	5.41
934.08	21.21
934.51	30.31
934.94	0.81
935.37	7.31
935.8	12.21
936.229	4.91
936.659	9.01
937.089	-4.89
937.519	15.91
937.948	25.91
938.378	19.71
938.807	7.31
939.237	5.41
939.666	6.31
940.096	0.41
940.525	-1.59
940.955	0.81
941.384	4.01
941.814	-10.79
942.243	-0.89
942.672	3.51
943.102	1.31
943.531	0.11
943.96	12.51
944.39	3.51
944.819	2.21
945.248	5.61
945.677	2.71
946.106	8.71
946.535	4.71
946.964	4.81
947.393	7.91
947.822	7.51
948.251	-3.99
948.68	2.31
949.109	7.81
949.538	-2.09
949.967	0.11
950.396	5.11
950.825	-0.19
951.254	3.11
951.682	2.01
952.111	6.91
952.54	2.01
952.969	-5.49
953.397	-8.19
953.826	4.91
954.254	-6.89
954.683	3.31
955.112	-2.69
955.54	0.31
955.969	6.11
956.397	3.01
956.826	-3.09
957.254	2.21
957.682	3.51
958.111	3.71
958.539	-0.09
958.967	4.81
959.396	-1.29
959.824	4.31
960.252	2.61
960.68	-6.19
961.109	0.01
961.537	-2.89
961.965	-5.29
962.393	6.71
962.821	-2.39
963.249	1.31
963.677	9.51
964.105	10.11
964.533	45.21
964.961	44.21
965.389	26.21
965.817	12.21
966.245	3.41
966.672	-1.69
967.1	-1.99
967.528	1.51
967.956	-1.29
968.383	4.21
968.811	-1.59
969.239	-0.89
969.666	-5.39
970.094	1.61
970.522	-5.09
970.949	0.41
971.377	-1.19
971.804	-0.89
972.232	-2.09
972.659	-0.49
973.087	-0.39
973.514	-6.69
973.941	-5.59
974.369	4.31
974.796	2.51
975.223	0.81
975.651	-1.99
976.078	-1.39
976.505	0.91
976.932	3.51
977.359	11.11
977.786	13.21
978.214	0.11
978.641	3.31
979.068	-1.29
979.495	-3.39
979.922	-1.59
980.349	-2.39
980.776	4.41
981.202	1.91
981.629	10.31
982.056	2.41
982.483	-7.09
982.91	3.41
983.337	-5.59
983.763	3.01
984.19	-5.79
984.617	-0.29
985.043	-3.59
985.47	5.51
985.897	-2.09
986.323	-4.49
986.75	4.81
987.176	2.41
987.603	2.51
988.029	3.61
988.456	0.61
988.882	5.51
989.308	-4.29
989.735	-5.59
990.161	-1.39
990.587	-2.49
991.014	2.01
991.44	6.01
991.866	-0.39
992.292	1.91
992.719	-5.19
993.145	13.91
993.571	-7.79
993.997	-3.19
994.423	2.71
994.849	-4.69
995.275	1.21
995.701	-0.59
996.127	-5.49
996.553	-0.19
996.979	3.31
997.405	-0.29
997.83	1.91
998.256	-1.29
998.682	0.61
999.108	-6.59
999.534	-1.19
999.959	1.61
1000.385	-4.09
1000.811	-2.79
1001.236	-2.29
1001.662	-6.69
1002.087	-10.59
1002.513	-0.39
1002.938	-0.39
1003.364	2.81
1003.789	-0.59
1004.215	5.61
1004.64	1.01
1005.066	3.51
1005.491	0.01
1005.916	-2.49
1006.342	0.81
1006.767	-8.79
1007.192	4.11
1007.617	1.81
1008.042	-1.99
1008.468	-1.99
1008.893	-3.19
1009.318	-7.29
1009.743	-5.59
1010.168	6.41
1010.593	-1.59
1011.018	-13.59
1011.443	-3.89
1011.868	1.71
1012.293	-0.19
1012.718	-6.99
1013.143	4.81
1013.567	-1.29
1013.992	-5.19
1014.417	-12.59
1014.842	2.21
1015.267	-10.99
1015.691	-2.59
1016.116	9.01
1016.541	2.01
1016.965	9.11
1017.39	0.91
1017.814	0.51
1018.239	-3.39
1018.663	-0.49
1019.088	-6.49
1019.512	-2.99
1019.937	-0.69
1020.361	-8.59
1020.785	-8.99
1021.21	-1.39
1021.634	-4.39
1022.058	-1.79
1022.483	5.91
1022.907	1.31
1023.331	0.91
1023.755	-3.39
1024.179	-4.59
1024.604	-3.79
1025.028	-5.49
1025.452	-5.89
1025.876	-3.79
1026.3	2.01
1026.724	-17.49
1027.148	-0.39
1027.572	-4.19
1027.996	-0.99
1028.42	-1.59
1028.843	-1.89
1029.267	-6.69
1029.691	-1.89
1030.115	-2.69
1030.539	-6.89
1030.962	1.61
1031.386	-4.79
1031.81	-3.99
1032.233	-0.39
1032.657	-1.69
1033.08	1.51
1033.504	-4.19
1033.927	-6.79
1034.351	-5.49
1034.774	-3.09
1035.198	5.11
1035.621	-4.39
1036.045	-8.19
1036.468	-3.29
1036.891	-7.19
1037.315	-13.49
1037.738	-6.39
1038.161	0.31
1038.584	-7.69
1039.008	-0.89
1039.431	-5.19
1039.854	-4.59
1040.277	-4.29
1040.7	-6.89
1041.123	-1.19
1041.546	-2.39
1041.969	-8.39
1042.392	-2.39
1042.815	3.71
1043.238	-1.19
1043.661	1.71
1044.084	-6.09
1044.507	-1.29
1044.93	-5.09
1045.352	-4.09
1045.775	-5.19
1046.198	-2.49
1046.621	-2.49
1047.043	-8.89
1047.466	2.91
1047.889	-4.99
1048.311	2.81
1048.734	-4.99
1049.156	-5.69
1049.579	-2.99
1050.001	-1.59
1050.424	4.01
1050.846	-3.99
1051.269	-3.19
1051.691	-9.09
1052.113	-4.99
1052.536	-3.89
1052.958	-3.09
1053.38	-5.69
1053.802	-9.89
1054.225	2.81
1054.647	-4.29
1055.069	-2.49
1055.491	-2.39
1055.913	-7.39
1056.335	0.01
1056.757	-3.79
1057.179	-6.29
1057.601	-2.89
1058.023	-5.09
1058.445	-10.39
1058.867	-1.29
1059.289	-7.39
1059.711	-4.69
1060.133	-2.69
1060.555	-7.09
1060.976	-9.69
1061.398	-1.59
1061.82	-11.79
1062.241	-3.69
1062.663	-6.79
1063.085	-10.19
1063.506	-2.39
1063.928	3.01
1064.35	-0.69
1064.771	-11.19
1065.193	-5.29
1065.614	-3.29
1066.035	-4.69
1066.457	-1.29
1066.878	-1.99
1067.3	-7.99
1067.721	-8.49
1068.142	-6.49
1068.564	-2.69
1068.985	-6.29
1069.406	-10.09
1069.827	-4.09
1070.248	-0.49
1070.67	-5.39
1071.091	-4.59
1071.512	-6.49
1071.933	-3.29
1072.354	-8.59
1072.775	-5.99
1073.196	-4.69
1073.617	1.91
1074.038	-9.59
1074.459	-1.19
1074.88	-9.09
1075.3	-2.99
1075.721	-5.59
1076.142	-3.19
1076.563	-0.39
1076.983	-5.99
1077.404	-6.09
1077.825	-8.29
1078.246	-7.29
1078.666	-9.69
1079.087	-8.69
1079.507	-6.69
1079.928	-4.19
1080.348	3.31
1080.769	-8.49
1081.189	0.61
1081.61	-1.19
1082.03	-1.09
1082.451	-7.79
1082.871	-5.49
1083.291	-3.69
1083.711	-7.79
1084.132	-2.99
1084.552	-6.59
1084.972	6.21
1085.392	-14.29
1085.813	-14.29
1086.233	-3.19
1086.653	-9.39
1087.073	-2.19
1087.493	-9.29
1087.913	-0.39
1088.333	-14.19
1088.753	-5.29
1089.173	3.31
1089.593	-3.59
1090.013	-0.39
1090.433	-1.39
1090.852	0.81
1091.272	-4.59
1091.692	-1.39
1092.112	-5.29
1092.531	-5.39
1092.951	-10.89
1093.371	-0.99
1093.79	-3.89
1094.21	-8.79
1094.63	-4.49
1095.049	-7.19
1095.469	-0.89
1095.888	-7.89
1096.308	1.51
1096.727	1.91
1097.146	0.91
1097.566	1.71
1097.985	-3.29
1098.405	-2.09
1098.824	-10.39
1099.243	-1.09
1099.662	-9.49
1100.082	-5.49
1100.501	-2.69
1100.92	-8.99
1101.339	-3.79
1101.758	-4.29
