Data from 20171114-ORNL-Ar_H_NY_Subt18_08-06-53-218.txt Node
Date: Tue Nov 14 08:06:53 EST 2017
User: Ender
Spectrometer: HR+D1039
Trigger mode: 0
Integration Time (sec): 2.730000E-2
Scans to average: 10
Electric dark correction enabled: true
Nonlinearity correction enabled: false
Boxcar width: 0
XAxis mode: Wavelengths
Number of Pixels in Spectrum: 2048
>>>>>Begin Spectral Data<<<<<
187.836	-6.07
188.309	-6.07
188.782	-6.07
189.255	-1.67
189.728	-5.47
190.201	8.73
190.674	1.03
191.147	2.53
191.619	-3.27
192.092	2.73
192.565	4.13
193.038	1.73
193.511	-0.07
193.984	-4.27
194.456	0.33
194.929	2.83
195.402	-3.57
195.874	0.33
196.347	-1.37
196.82	-6.07
197.292	4.03
197.765	1.23
198.237	-0.67
198.71	6.53
199.182	-4.17
199.655	-0.37
200.127	1.83
200.6	-6.07
201.072	-2.37
201.544	-4.27
202.017	-4.77
202.489	0.43
202.961	-3.17
203.433	-7.27
203.906	-7.37
204.378	-7.37
204.85	-8.47
205.322	-6.47
205.794	-1.17
206.266	0.33
206.739	-12.17
207.211	2.73
207.683	-6.97
208.155	-5.07
208.627	-5.17
209.099	-5.07
209.57	-9.67
210.042	-6.17
210.514	-3.07
210.986	-1.97
211.458	-5.37
211.93	-5.27
212.402	-2.17
212.873	-9.97
213.345	-11.87
213.817	-13.77
214.288	-8.17
214.76	-11.97
215.232	0.43
215.703	-1.87
216.175	-7.17
216.646	-6.07
217.118	-6.97
217.589	-1.57
218.061	3.03
218.532	1.83
219.004	-4.97
219.475	-6.97
219.946	-10.17
220.418	1.33
220.889	1.83
221.36	-1.87
221.832	-7.67
222.303	-6.77
222.774	-1.27
223.245	-8.57
223.717	-1.97
224.188	-10.17
224.659	-14.27
225.13	-3.97
225.601	-0.37
226.072	0.23
226.543	-5.87
227.014	-1.07
227.485	-2.57
227.956	-2.07
228.427	-6.37
228.898	0.93
229.369	1.93
229.839	-1.37
230.31	-5.67
230.781	1.93
231.252	-11.47
231.722	-10.97
232.193	-2.17
232.664	-1.57
233.135	-0.17
233.605	-0.27
234.076	-4.47
234.546	3.83
235.017	0.93
235.487	-1.37
235.958	-3.27
236.428	-5.27
236.899	-2.17
237.369	-0.77
237.84	-12.67
238.31	-6.47
238.78	-1.17
239.251	-4.77
239.721	2.53
240.191	-4.97
240.662	-3.87
241.132	-0.37
241.602	-2.47
242.072	-1.37
242.542	-3.67
243.013	-6.27
243.483	4.03
243.953	1.53
244.423	0.03
244.893	-8.97
245.363	2.23
245.833	-1.77
246.303	-4.17
246.773	-1.27
247.243	-2.37
247.712	2.13
248.182	0.13
248.652	2.93
249.122	-11.67
249.592	-3.07
250.061	0.93
250.531	4.93
251.001	0.83
251.471	8.33
251.94	9.73
252.41	-1.57
252.879	-7.17
253.349	5.23
253.818	7.13
254.288	-5.07
254.757	-4.17
255.227	-7.57
255.696	2.13
256.166	0.13
256.635	3.73
257.105	4.63
257.574	0.13
258.043	2.73
258.513	1.53
258.982	2.53
259.451	-2.77
259.92	-1.87
260.389	1.43
260.859	4.43
261.328	1.53
261.797	9.73
262.266	4.53
262.735	6.63
263.204	1.33
263.673	-3.87
264.142	5.33
264.611	-5.57
265.08	-2.47
265.549	-1.07
266.018	1.13
266.487	-4.37
266.955	-6.97
267.424	1.33
267.893	7.63
268.362	-2.57
268.83	2.73
269.299	5.03
269.768	-1.57
270.236	-0.67
270.705	-4.87
271.174	0.03
271.642	0.73
272.111	4.83
272.579	2.93
273.048	0.53
273.516	3.43
273.985	7.83
274.453	7.33
274.922	10.43
275.39	4.53
275.858	-0.47
276.327	5.73
276.795	16.03
277.263	5.83
277.731	9.53
278.2	12.73
278.668	11.43
279.136	11.93
279.604	4.43
280.072	13.23
280.54	9.23
281.008	6.13
281.477	12.13
281.945	6.23
282.413	12.13
282.881	11.13
283.348	4.73
283.816	1.13
284.284	8.13
284.752	11.53
285.22	7.43
285.688	6.53
286.156	9.13
286.623	16.33
287.091	6.83
287.559	14.13
288.026	13.93
288.494	13.93
288.962	2.53
289.429	6.13
289.897	14.53
290.364	7.43
290.832	8.13
291.3	7.73
291.767	17.43
292.234	15.43
292.702	12.03
293.169	11.83
293.637	17.83
294.104	18.33
294.571	5.33
295.039	11.83
295.506	15.73
295.973	17.03
296.44	12.43
296.908	13.33
297.375	13.03
297.842	16.23
298.309	20.83
298.776	14.13
299.243	22.43
299.71	9.53
300.177	17.33
300.644	10.43
301.111	14.93
301.578	15.33
302.045	15.93
302.512	20.63
302.979	22.63
303.446	19.63
303.913	12.13
304.379	18.73
304.846	21.13
305.313	22.73
305.78	19.83
306.246	21.23
306.713	18.53
307.18	17.03
307.646	14.53
308.113	15.63
308.579	22.93
309.046	21.33
309.512	27.03
309.979	8.23
310.445	20.73
310.912	25.03
311.378	28.73
311.845	25.23
312.311	26.53
312.777	31.63
313.244	21.83
313.71	34.23
314.176	26.03
314.642	26.53
315.109	22.23
315.575	30.33
316.041	31.03
316.507	27.53
316.973	29.43
317.439	28.83
317.905	30.73
318.371	27.43
318.837	32.83
319.303	24.73
319.769	28.23
320.235	28.13
320.701	28.33
321.167	32.03
321.633	26.53
322.099	31.73
322.564	37.73
323.03	34.63
323.496	32.43
323.962	36.63
324.427	30.13
324.893	41.83
325.359	35.83
325.824	36.53
326.29	32.53
326.755	30.73
327.221	36.93
327.686	41.23
328.152	41.03
328.617	35.93
329.083	43.03
329.548	43.83
330.014	44.33
330.479	32.43
330.944	39.33
331.41	42.13
331.875	38.23
332.34	37.63
332.805	33.13
333.271	40.23
333.736	33.63
334.201	41.63
334.666	46.43
335.131	45.23
335.596	45.83
336.061	46.13
336.526	36.73
336.991	46.63
337.456	50.83
337.921	44.63
338.386	37.13
338.851	43.63
339.316	43.73
339.781	42.63
340.246	42.83
340.711	49.53
341.175	46.73
341.64	37.73
342.105	52.53
342.569	54.53
343.034	53.53
343.499	51.53
343.963	49.83
344.428	65.33
344.893	58.03
345.357	52.93
345.822	55.13
346.286	55.93
346.751	61.93
347.215	59.83
347.679	64.63
348.144	85.23
348.608	79.53
349.073	65.23
349.537	63.53
350.001	71.13
350.465	83.13
350.93	68.33
351.394	79.13
351.858	66.13
352.322	82.43
352.786	78.43
353.25	91.03
353.715	103.23
354.179	92.13
354.643	109.03
355.107	112.13
355.571	96.43
356.035	90.63
356.498	106.73
356.962	102.83
357.426	117.73
357.89	103.83
358.354	80.43
358.818	81.23
359.281	81.13
359.745	71.13
360.209	67.53
360.673	71.63
361.136	77.13
361.6	74.83
362.064	74.93
362.527	84.23
362.991	89.93
363.454	78.73
363.918	75.93
364.381	74.03
364.845	80.23
365.308	83.23
365.772	84.83
366.235	87.33
366.698	76.13
367.162	76.43
367.625	78.73
368.088	83.43
368.552	85.13
369.015	84.03
369.478	92.33
369.941	93.23
370.404	84.63
370.867	99.63
371.331	94.43
371.794	103.33
372.257	98.13
372.72	105.03
373.183	95.63
373.646	87.33
374.109	86.13
374.572	94.13
375.035	94.43
375.497	96.43
375.96	95.63
376.423	97.63
376.886	108.83
377.349	113.53
377.811	94.73
378.274	104.63
378.737	98.43
379.199	100.43
379.662	107.13
380.125	111.33
380.587	105.53
381.05	104.03
381.512	116.63
381.975	116.63
382.437	116.53
382.9	110.03
383.362	125.63
383.825	127.13
384.287	124.93
384.75	115.23
385.212	120.23
385.674	131.83
386.136	126.03
386.599	120.83
387.061	119.63
387.523	120.03
387.985	121.13
388.447	130.23
388.91	121.13
389.372	126.73
389.834	122.73
390.296	119.93
390.758	125.03
391.22	129.13
391.682	150.03
392.144	156.93
392.606	142.83
393.068	142.83
393.529	153.03
393.991	144.03
394.453	133.63
394.915	130.33
395.377	138.73
395.838	133.43
396.3	132.23
396.762	140.03
397.224	132.53
397.685	134.03
398.147	135.23
398.608	123.63
399.07	136.53
399.531	137.43
399.993	141.53
400.454	153.63
400.916	148.83
401.377	150.43
401.839	154.03
402.3	152.93
402.762	168.63
403.223	173.83
403.684	171.03
404.145	162.23
404.607	166.43
405.068	167.93
405.529	169.33
405.99	187.13
406.451	174.63
406.913	172.73
407.374	162.33
407.835	159.53
408.296	167.73
408.757	173.43
409.218	192.93
409.679	175.23
410.14	177.33
410.601	175.83
411.062	180.63
411.522	189.93
411.983	187.03
412.444	180.23
412.905	186.73
413.366	193.73
413.826	198.13
414.287	220.63
414.748	271.23
415.208	261.03
415.669	220.53
416.13	214.33
416.59	210.33
417.051	216.43
417.511	224.83
417.972	247.83
418.432	253.03
418.893	298.03
419.353	264.53
419.814	208.23
420.274	191.33
420.734	182.53
421.195	195.53
421.655	201.43
422.115	194.73
422.576	197.13
423.036	201.83
423.496	215.13
423.956	223.53
424.416	235.73
424.876	270.33
425.336	269.43
425.797	272.63
426.257	261.13
426.717	253.43
427.177	239.23
427.637	227.53
428.097	246.23
428.556	253.53
429.016	281.03
429.476	262.33
429.936	278.63
430.396	284.53
430.856	297.93
431.315	316.23
431.775	348.53
432.235	381.03
432.694	353.43
433.154	355.93
433.614	392.13
434.073	341.83
434.533	287.53
434.993	273.53
435.452	287.63
435.912	301.83
436.371	285.33
436.83	276.53
437.29	270.13
437.749	256.23
438.209	248.33
438.668	277.93
439.127	291.63
439.587	273.63
440.046	255.33
440.505	273.63
440.964	285.13
441.424	333.23
441.883	320.93
442.342	270.13
442.801	240.73
443.26	235.63
443.719	228.83
444.178	229.63
444.637	227.73
445.096	233.43
445.555	231.83
446.014	230.93
446.473	245.23
446.932	237.63
447.391	231.13
447.849	244.93
448.308	230.73
448.767	230.53
449.226	246.93
449.685	251.33
450.143	262.23
450.602	250.63
451.061	237.13
451.519	240.53
451.978	248.43
452.436	243.53
452.895	256.53
453.353	269.53
453.812	262.53
454.27	255.13
454.729	253.83
455.187	252.83
455.646	266.33
456.104	253.43
456.562	279.23
457.021	278.33
457.479	271.83
457.937	281.13
458.395	274.63
458.854	271.83
459.312	272.53
459.77	283.03
460.228	266.23
460.686	262.53
461.144	265.63
461.602	260.13
462.06	253.83
462.518	267.23
462.976	269.33
463.434	269.93
463.892	276.73
464.35	298.93
464.808	299.23
465.266	278.73
465.724	288.43
466.181	293.63
466.639	287.83
467.097	303.53
467.555	326.03
468.012	323.83
468.47	327.13
468.928	350.73
469.385	362.73
469.843	363.43
470.3	370.63
470.758	378.63
471.215	404.63
471.673	428.73
472.13	431.93
472.588	439.33
473.045	395.43
473.503	398.93
473.96	413.43
474.417	430.83
474.875	460.03
475.332	490.93
475.789	474.53
476.246	498.13
476.704	513.53
477.161	535.63
477.618	555.93
478.075	587.43
478.532	638.93
478.989	711.63
479.446	817.83
479.903	780.33
480.36	815.53
480.817	874.03
481.274	965.43
481.731	1068.03
482.188	1131.83
482.645	1261.63
483.102	1349.83
483.558	1474.33
484.015	1525.23
484.472	1504.03
484.929	1456.13
485.385	1406.53
485.842	1366.93
486.299	1315.93
486.755	1283.33
487.212	1098.43
487.668	918.73
488.125	869.03
488.582	794.43
489.038	770.93
489.494	744.23
489.951	713.03
490.407	696.33
490.864	661.83
491.32	666.63
491.776	677.53
492.233	684.53
492.689	647.83
493.145	634.63
493.602	639.93
494.058	649.33
494.514	639.93
494.97	664.83
495.426	690.13
495.882	659.23
496.338	643.53
496.794	658.33
497.251	652.73
497.707	674.93
498.163	667.93
498.618	678.53
499.074	679.23
499.53	712.83
499.986	702.13
500.442	669.23
500.898	654.43
501.354	638.83
501.809	655.43
502.265	652.83
502.721	677.43
503.177	678.13
503.632	677.63
504.088	681.53
504.543	700.03
504.999	726.73
505.455	697.63
505.91	679.23
506.366	673.83
506.821	664.53
507.277	667.63
507.732	668.23
508.187	673.83
508.643	678.23
509.098	681.33
509.553	695.93
510.009	709.63
510.464	721.13
510.919	736.43
511.375	731.83
511.83	743.53
512.285	767.23
512.74	806.63
513.195	827.53
513.65	818.63
514.105	820.13
514.56	817.03
515.015	843.23
515.47	836.43
515.925	826.63
516.38	840.53
516.835	834.23
517.29	819.93
517.745	821.43
518.2	806.03
518.655	805.23
519.109	792.23
519.564	791.13
520.019	785.83
520.474	775.93
520.928	775.73
521.383	766.63
521.838	748.23
522.292	756.93
522.747	752.13
523.201	751.63
523.656	746.43
524.11	732.63
524.565	742.93
525.019	737.33
525.474	746.03
525.928	744.23
526.382	743.63
526.837	748.33
527.291	748.33
527.745	736.93
528.2	745.03
528.654	732.23
529.108	731.03
529.562	732.73
530.016	735.63
530.47	740.93
530.925	738.23
531.379	737.33
531.833	748.33
532.287	745.43
532.741	753.93
533.195	745.93
533.649	755.23
534.103	758.03
534.556	752.33
535.01	745.53
535.464	749.83
535.918	750.93
536.372	766.93
536.826	767.63
537.279	744.83
537.733	755.93
538.187	754.43
538.64	762.73
539.094	770.13
539.548	779.33
540.001	763.13
540.455	773.63
540.908	779.13
541.362	792.33
541.815	793.43
542.269	800.73
542.722	808.73
543.175	821.83
543.629	820.23
544.082	832.83
544.536	844.13
544.989	829.23
545.442	843.53
545.895	835.53
546.349	847.03
546.802	848.13
547.255	859.93
547.708	861.03
548.161	872.93
548.614	869.13
549.067	884.83
549.52	878.33
549.973	857.63
550.426	863.83
550.879	857.43
551.332	857.23
551.785	853.13
552.238	862.43
552.691	884.33
553.144	884.03
553.596	911.43
554.049	927.53
554.502	951.93
554.955	960.23
555.407	957.83
555.86	948.43
556.313	959.83
556.765	945.63
557.218	934.83
557.67	934.83
558.123	940.13
558.576	931.43
559.028	923.33
559.48	949.43
559.933	939.53
560.385	897.83
560.838	862.13
561.29	840.83
561.742	837.03
562.195	820.03
562.647	816.43
563.099	833.93
563.551	816.23
564.004	832.73
564.456	822.53
564.908	818.63
565.36	794.53
565.812	770.63
566.264	761.83
566.716	769.83
567.168	757.83
567.62	753.33
568.072	742.13
568.524	742.83
568.976	731.53
569.428	720.73
569.88	718.63
570.332	735.93
570.784	732.73
571.235	735.33
571.687	744.43
572.139	746.53
572.59	758.63
573.042	758.73
573.494	751.43
573.945	754.13
574.397	739.03
574.849	737.73
575.3	732.93
575.752	725.93
576.203	716.33
576.655	730.83
577.106	716.03
577.557	702.43
578.009	713.53
578.46	706.33
578.912	710.13
579.363	704.13
579.814	719.43
580.265	709.53
580.717	709.13
581.168	707.63
581.619	728.13
582.07	720.73
582.521	724.33
582.972	710.03
583.423	720.33
583.875	715.23
584.326	726.03
584.777	748.33
585.227	762.43
585.678	778.63
586.129	801.23
586.58	822.63
587.031	838.13
587.482	878.73
587.933	918.23
588.384	892.33
588.834	830.63
589.285	815.33
589.736	815.33
590.186	807.53
590.637	814.43
591.088	797.43
591.538	781.83
591.989	780.13
592.439	762.63
592.89	759.43
593.34	748.43
593.791	750.63
594.241	740.33
594.692	738.03
595.142	734.63
595.593	741.33
596.043	735.13
596.493	747.43
596.943	740.53
597.394	766.13
597.844	753.73
598.294	765.83
598.744	801.83
599.195	824.13
599.645	870.73
600.095	912.03
600.545	961.63
600.995	1022.83
601.445	1076.43
601.895	1144.13
602.345	1200.23
602.795	1174.73
603.245	1128.83
603.695	1067.53
604.145	1012.63
604.594	972.43
605.044	909.53
605.494	844.33
605.944	805.03
606.393	789.63
606.843	762.53
607.293	775.93
607.743	755.93
608.192	783.13
608.642	789.33
609.091	806.53
609.541	803.13
609.99	798.73
610.44	801.83
610.889	758.23
611.339	727.63
611.788	715.83
612.238	726.03
612.687	737.43
613.136	743.23
613.586	737.63
614.035	734.43
614.484	744.03
614.933	747.03
615.383	743.33
615.832	744.33
616.281	735.73
616.73	706.73
617.179	685.23
617.628	672.73
618.077	658.63
618.526	656.33
618.975	649.13
619.424	649.93
619.873	638.43
620.322	649.63
620.771	636.63
621.22	636.33
621.669	640.13
622.118	619.73
622.567	614.83
623.015	598.93
623.464	591.23
623.913	579.03
624.361	588.73
624.81	582.83
625.259	584.53
625.707	586.23
626.156	580.03
626.604	595.73
627.053	596.93
627.501	596.83
627.95	604.03
628.398	613.93
628.847	596.53
629.295	600.63
629.744	610.73
630.192	600.13
630.64	586.43
631.089	571.43
631.537	564.63
631.985	551.53
632.433	561.03
632.881	551.33
633.33	552.93
633.778	552.53
634.226	550.43
634.674	569.33
635.122	565.73
635.57	583.63
636.018	587.53
636.466	596.53
636.914	576.43
637.362	600.23
637.81	607.63
638.258	615.23
638.705	607.73
639.153	648.53
639.601	655.03
640.049	669.73
640.497	695.03
640.944	711.93
641.392	674.53
641.84	636.93
642.287	615.83
642.735	584.93
643.182	581.13
643.63	597.13
644.078	593.33
644.525	605.83
644.973	600.33
645.42	614.13
645.867	633.23
646.315	662.13
646.762	680.33
647.21	706.03
647.657	732.63
648.104	761.93
648.551	780.03
648.999	843.73
649.446	914.13
649.893	1003.53
650.34	1149.03
650.787	1369.93
651.234	1667.73
651.682	2156.23
652.129	2920.83
652.576	4145.13
653.023	6054.03
653.47	8211.73
653.917	10184.43
654.363	11734.63
654.81	12963.83
655.257	12288.93
655.704	8129.53
656.151	4922.03
656.598	3220.83
657.044	2298.23
657.491	1792.83
657.938	1452.53
658.385	1227.53
658.831	1070.63
659.278	954.33
659.724	859.53
660.171	787.93
660.618	740.73
661.064	702.43
661.511	682.13
661.957	673.53
662.404	666.53
662.85	671.83
663.296	636.33
663.743	577.03
664.189	558.63
664.635	558.83
665.082	541.53
665.528	548.13
665.974	540.83
666.42	534.93
666.867	526.33
667.313	510.43
667.759	488.63
668.205	465.83
668.651	466.23
669.097	462.83
669.543	454.53
669.989	466.53
670.435	473.73
670.881	468.33
671.327	473.23
671.773	490.83
672.219	520.53
672.665	572.93
673.11	619.63
673.556	675.33
674.002	703.13
674.448	687.63
674.893	572.03
675.339	511.83
675.785	459.43
676.23	443.03
676.676	412.43
677.122	395.73
677.567	402.83
678.013	396.13
678.458	379.63
678.904	383.43
679.349	360.03
679.794	367.53
680.24	370.73
680.685	367.73
681.131	364.63
681.576	367.43
682.021	369.83
682.466	367.03
682.912	364.83
683.357	373.63
683.802	397.13
684.247	437.43
684.692	474.03
685.137	527.13
685.583	563.23
686.028	596.83
686.473	553.23
686.918	464.33
687.363	446.73
687.807	418.63
688.252	384.63
688.697	368.93
689.142	353.23
689.587	350.43
690.032	339.33
690.477	361.03
690.921	377.63
691.366	407.83
691.811	424.23
692.255	450.73
692.7	481.43
693.145	523.93
693.589	734.13
694.034	1201.23
694.478	1627.33
694.923	1826.53
695.367	2395.43
695.812	1274.63
696.256	527.13
696.701	390.73
697.145	359.73
697.59	341.33
698.034	335.73
698.478	344.43
698.922	333.93
699.367	335.63
699.811	350.73
700.255	370.03
700.699	399.33
701.143	450.53
701.588	503.63
702.032	545.13
702.476	545.43
702.92	519.03
703.364	521.23
703.808	681.63
704.252	1099.03
704.696	1543.23
705.14	1770.23
705.584	2253.33
706.027	1112.33
706.471	546.73
706.915	422.53
707.359	367.03
707.803	334.23
708.246	332.23
708.69	328.33
709.134	325.83
709.577	322.53
710.021	333.13
710.465	325.53
710.908	315.63
711.352	309.83
711.795	328.03
712.239	369.43
712.682	402.63
713.126	437.33
713.569	475.53
714.012	373.13
714.456	322.13
714.899	310.33
715.342	287.93
715.786	273.33
716.229	270.13
716.672	259.63
717.115	253.13
717.558	262.13
718.002	261.43
718.445	283.73
718.888	292.53
719.331	303.83
719.774	318.53
720.217	309.63
720.66	297.23
721.103	280.83
721.546	267.63
721.989	256.53
722.432	236.33
722.874	244.63
723.317	249.03
723.76	241.23
724.203	267.03
724.645	336.33
725.088	470.03
725.531	604.83
725.974	684.33
726.416	576.73
726.859	317.23
727.301	256.83
727.744	242.23
728.187	245.43
728.629	248.63
729.071	249.53
729.514	266.03
729.956	278.63
730.399	293.63
730.841	298.33
731.283	286.83
731.726	284.53
732.168	277.23
732.61	272.13
733.053	299.53
733.495	335.53
733.937	377.33
734.379	416.93
734.821	467.33
735.263	567.73
735.705	890.03
736.148	1691.13
736.59	2748.13
737.032	3256.13
737.474	2641.33
737.916	858.63
738.357	447.73
738.799	342.13
739.241	310.93
739.683	303.73
740.125	310.33
740.567	320.33
741.008	336.23
741.45	334.63
741.892	335.93
742.334	368.33
742.775	382.33
743.217	364.23
743.658	286.63
744.1	271.83
744.542	281.73
744.983	336.13
745.425	361.73
745.866	364.63
746.307	293.73
746.749	292.23
747.19	345.53
747.632	478.63
748.073	938.43
748.514	1985.13
748.956	3021.93
749.397	3826.83
749.838	3172.03
750.279	3140.93
750.72	1601.33
751.162	590.83
751.603	341.73
752.044	263.53
752.485	222.33
752.926	216.83
753.367	206.83
753.808	204.13
754.249	203.33
754.69	198.73
755.131	194.13
755.572	195.83
756.013	192.63
756.453	195.23
756.894	191.73
757.335	190.23
757.776	207.33
758.216	207.23
758.657	208.53
759.098	214.93
759.538	240.43
759.979	279.93
760.42	395.53
760.86	740.03
761.301	1960.93
761.741	4713.03
762.182	6816.03
762.622	4805.83
763.063	1397.23
763.503	569.13
763.943	343.83
764.384	287.93
764.824	266.23
765.264	258.23
765.705	221.03
766.145	186.23
766.585	180.03
767.025	177.43
767.465	172.63
767.906	188.53
768.346	210.13
768.786	218.63
769.226	237.63
769.666	317.63
770.106	662.43
770.546	1654.73
770.986	2814.23
771.426	2506.13
771.866	843.63
772.306	339.93
772.745	218.03
773.185	176.43
773.625	167.83
774.065	156.73
774.505	165.33
774.944	211.83
775.384	379.13
775.824	638.43
776.263	602.73
776.703	298.93
777.142	173.53
777.582	138.43
778.021	127.63
778.461	132.83
778.9	136.83
779.34	128.03
779.779	118.13
780.219	112.13
780.658	114.23
781.097	119.33
781.537	116.83
781.976	118.63
782.415	106.73
782.855	112.03
783.294	104.43
783.733	108.93
784.172	106.63
784.611	111.43
785.05	108.23
785.489	119.43
785.928	121.33
786.367	123.83
786.806	122.33
787.245	138.23
787.684	145.33
788.123	154.33
788.562	141.63
789.001	138.63
789.44	129.03
789.879	127.53
790.317	125.53
790.756	130.23
791.195	136.13
791.634	156.93
792.072	214.03
792.511	387.83
792.95	1052.33
793.388	2224.83
793.827	2031.53
794.265	706.33
794.704	297.83
795.142	197.33
795.581	154.73
796.019	143.13
796.458	131.23
796.896	119.83
797.334	133.33
797.773	162.23
798.211	234.83
798.649	464.53
799.087	1084.83
799.526	1706.13
799.964	2129.83
800.402	2113.73
800.84	788.83
801.278	311.13
801.716	194.43
802.154	166.63
802.592	150.53
803.03	139.63
803.468	143.53
803.906	156.53
804.344	153.53
804.782	147.53
805.22	142.33
805.658	141.13
806.096	151.93
806.533	161.73
806.971	186.93
807.409	230.53
807.847	335.63
808.284	713.33
808.722	1981.13
809.16	3488.63
809.597	3323.53
810.035	5794.73
810.472	6122.03
810.91	2235.33
811.347	852.13
811.785	429.63
812.222	271.53
812.66	206.93
813.097	171.53
813.535	152.73
813.972	139.23
814.409	127.03
814.846	116.33
815.284	112.33
815.721	106.23
816.158	108.03
816.595	111.23
817.032	162.33
817.47	187.43
817.907	142.33
818.344	110.63
818.781	109.23
819.218	94.53
819.655	128.03
820.092	201.33
820.529	235.03
820.966	182.73
821.403	127.43
821.839	107.13
822.276	103.33
822.713	128.03
823.15	143.23
823.587	120.93
824.023	159.13
824.46	322.93
824.897	947.13
825.333	1435.13
825.77	617.33
826.206	249.73
826.643	146.83
827.08	107.53
827.516	85.03
827.953	80.53
828.389	81.13
828.825	72.73
829.262	65.73
829.698	66.33
830.135	66.43
830.571	66.13
831.007	60.63
831.443	73.93
831.88	63.43
832.316	63.73
832.752	70.33
833.188	61.93
833.624	66.53
834.06	73.33
834.497	70.63
834.933	74.53
835.369	79.23
835.805	65.23
836.241	82.63
836.677	82.83
837.112	98.53
837.548	110.43
837.984	136.83
838.42	218.43
838.856	523.83
839.292	1598.53
839.727	2442.63
840.163	1151.03
840.599	986.63
841.034	2150.43
841.47	2232.73
841.906	811.33
842.341	345.53
842.777	206.73
843.212	213.73
843.648	200.73
844.083	111.53
844.519	82.83
844.954	79.53
845.39	57.73
845.825	59.93
846.261	60.73
846.696	56.53
847.131	56.23
847.566	62.53
848.002	57.33
848.437	56.83
848.872	60.53
849.307	68.33
849.742	92.83
850.177	193.93
850.613	595.83
851.048	930.13
851.483	402.53
851.918	158.93
852.353	88.83
852.788	56.93
853.223	53.83
853.657	51.73
854.092	52.33
854.527	41.73
854.962	41.03
855.397	41.93
855.832	48.33
856.266	44.13
856.701	34.53
857.136	40.43
857.57	39.13
858.005	51.03
858.44	59.93
858.874	48.93
859.309	59.33
859.743	42.23
860.178	47.13
860.612	42.93
861.047	59.13
861.481	75.33
861.915	75.23
862.35	54.43
862.784	34.03
863.218	44.63
863.653	31.43
864.087	48.83
864.521	52.03
864.955	63.73
865.39	160.73
865.824	183.93
866.258	121.33
866.692	181.73
867.126	190.63
867.56	117.43
867.994	61.23
868.428	42.33
868.862	50.33
869.296	51.73
869.73	63.33
870.164	55.93
870.598	49.93
871.031	34.23
871.465	30.33
871.899	33.13
872.333	28.23
872.766	27.73
873.2	24.03
873.634	30.43
874.067	24.23
874.501	26.33
874.935	34.63
875.368	34.73
875.802	28.33
876.235	24.93
876.669	28.63
877.102	26.73
877.535	28.03
877.969	25.73
878.402	21.73
878.836	24.73
879.269	19.63
879.702	24.93
880.135	21.13
880.569	24.23
881.002	23.73
881.435	19.23
881.868	15.13
882.301	27.03
882.734	20.63
883.167	27.33
883.601	23.43
884.034	16.83
884.467	18.53
884.899	16.63
885.332	15.13
885.765	13.13
886.198	22.03
886.631	17.63
887.064	20.43
887.497	23.23
887.929	27.13
888.362	13.43
888.795	15.63
889.228	19.73
889.66	23.23
890.093	17.13
890.526	15.03
890.958	14.73
891.391	20.33
891.823	22.13
892.256	14.23
892.688	17.23
893.121	18.13
893.553	17.03
893.985	23.53
894.418	19.13
894.85	12.23
895.282	19.43
895.715	20.03
896.147	20.43
896.579	23.13
897.011	16.63
897.444	19.73
897.876	16.33
898.308	16.43
898.74	14.83
899.172	11.43
899.604	26.93
900.036	18.73
900.468	16.03
900.9	11.53
901.332	17.33
901.764	11.53
902.196	13.83
902.628	22.73
903.06	19.33
903.491	34.43
903.923	30.63
904.355	20.33
904.787	27.83
905.218	21.23
905.65	20.33
906.082	13.93
906.513	12.73
906.945	14.73
907.376	15.23
907.808	19.03
908.239	19.93
908.671	22.13
909.102	18.93
909.534	26.73
909.965	47.43
910.397	101.73
910.828	327.63
911.259	501.63
911.691	231.23
912.122	112.93
912.553	55.83
912.984	30.43
913.415	25.63
913.847	28.63
914.278	17.43
914.709	10.53
915.14	15.43
915.571	25.23
916.002	11.43
916.433	22.53
916.864	16.73
917.295	16.03
917.726	25.03
918.157	26.23
918.587	23.13
919.018	18.53
919.449	26.73
919.88	24.73
920.311	25.53
920.741	50.33
921.172	174.83
921.603	157.73
922.033	74.23
922.464	41.13
922.895	27.73
923.325	17.63
923.756	12.13
924.186	12.33
924.617	13.33
925.047	23.83
925.478	24.53
925.908	26.43
926.338	15.03
926.769	11.23
927.199	21.73
927.629	7.93
928.06	16.73
928.49	14.83
928.92	11.73
929.35	13.03
929.78	8.23
930.21	6.23
930.641	11.03
931.071	8.33
931.501	2.73
931.931	11.03
932.361	6.43
932.791	2.43
933.221	9.53
933.651	2.33
934.08	12.63
934.51	27.63
934.94	11.63
935.37	7.03
935.8	12.73
936.229	4.33
936.659	10.93
937.089	4.13
937.519	17.13
937.948	24.53
938.378	16.33
938.807	5.03
939.237	6.23
939.666	8.33
940.096	-7.27
940.525	4.63
940.955	-1.37
941.384	2.63
941.814	-8.07
942.243	-1.97
942.672	4.33
943.102	-0.67
943.531	6.03
943.96	3.83
944.39	2.73
944.819	3.43
945.248	2.13
945.677	3.63
946.106	8.23
946.535	5.83
946.964	4.93
947.393	7.73
947.822	2.33
948.251	-6.07
948.68	-1.07
949.109	5.23
949.538	4.73
949.967	-1.07
950.396	-4.17
950.825	-0.67
951.254	1.93
951.682	-8.27
952.111	1.93
952.54	6.03
952.969	-6.07
953.397	-13.47
953.826	1.83
954.254	-6.57
954.683	-2.47
955.112	0.53
955.54	-2.07
955.969	1.83
956.397	-1.27
956.826	3.53
957.254	4.53
957.682	3.03
958.111	6.33
958.539	-0.67
958.967	0.43
959.396	-1.57
959.824	1.33
960.252	3.03
960.68	-0.37
961.109	-7.37
961.537	0.43
961.965	1.73
962.393	1.53
962.821	-4.97
963.249	1.63
963.677	-0.67
964.105	5.23
964.533	45.13
964.961	43.43
965.389	15.13
965.817	7.83
966.245	1.43
966.672	2.03
967.1	-7.07
967.528	1.93
967.956	-3.27
968.383	-3.97
968.811	-2.97
969.239	-1.17
969.666	-7.57
970.094	1.03
970.522	1.73
970.949	-0.17
971.377	-0.97
971.804	-8.17
972.232	-2.27
972.659	1.73
973.087	-2.17
973.514	-2.07
973.941	-2.47
974.369	3.43
974.796	-0.27
975.223	-1.97
975.651	-2.17
976.078	5.73
976.505	-0.37
976.932	-2.27
977.359	14.63
977.786	16.93
978.214	-1.07
978.641	-6.77
979.068	-0.87
979.495	-2.57
979.922	1.23
980.349	6.73
980.776	3.33
981.202	-1.67
981.629	4.03
982.056	3.73
982.483	-1.57
982.91	1.13
983.337	-9.87
983.763	4.93
984.19	-5.27
984.617	-6.47
985.043	-7.07
985.47	-3.97
985.897	-1.87
986.323	-6.47
986.75	1.33
987.176	-3.27
987.603	-3.67
988.029	1.33
988.456	-2.07
988.882	2.13
989.308	-9.57
989.735	-5.97
990.161	2.73
990.587	-3.47
991.014	0.93
991.44	4.13
991.866	-1.67
992.292	-4.27
992.719	-3.87
993.145	3.63
993.571	-10.47
993.997	-4.87
994.423	-4.57
994.849	-6.37
995.275	-0.37
995.701	-5.87
996.127	-2.87
996.553	-3.87
996.979	-3.37
997.405	-6.37
997.83	-7.67
998.256	-5.17
998.682	-6.67
999.108	-13.27
999.534	0.03
999.959	1.13
1000.385	-2.27
1000.811	-0.87
1001.236	-9.97
1001.662	-1.87
1002.087	-10.67
1002.513	3.43
1002.938	1.63
1003.364	-3.07
1003.789	-5.97
1004.215	3.23
1004.64	-4.67
1005.066	6.33
1005.491	1.93
1005.916	-3.17
1006.342	-3.27
1006.767	-13.47
1007.192	2.73
1007.617	-3.87
1008.042	-12.77
1008.468	-8.47
1008.893	-6.67
1009.318	0.83
1009.743	-1.07
1010.168	-1.77
1010.593	-4.67
1011.018	-5.57
1011.443	0.23
1011.868	-1.57
1012.293	-6.07
1012.718	-7.37
1013.143	-2.07
1013.567	2.63
1013.992	0.13
1014.417	-9.77
1014.842	1.43
1015.267	-2.97
1015.691	-1.37
1016.116	3.23
1016.541	-1.67
1016.965	1.23
1017.39	1.43
1017.814	-5.37
1018.239	-4.27
1018.663	-2.17
1019.088	-11.97
1019.512	-2.37
1019.937	-9.37
1020.361	-4.17
1020.785	-8.17
1021.21	-2.77
1021.634	2.73
1022.058	-6.57
1022.483	3.03
1022.907	-4.77
1023.331	-7.07
1023.755	-1.77
1024.179	-2.57
1024.604	-10.97
1025.028	-8.77
1025.452	-3.87
1025.876	-0.57
1026.3	-0.17
1026.724	-14.67
1027.148	-7.27
1027.572	-6.57
1027.996	-11.97
1028.42	-1.17
1028.843	-5.77
1029.267	-7.07
1029.691	-2.67
1030.115	-12.07
1030.539	-9.67
1030.962	-10.47
1031.386	-11.87
1031.81	-4.77
1032.233	2.13
1032.657	-4.57
1033.08	-2.97
1033.504	-3.97
1033.927	-0.47
1034.351	-4.77
1034.774	-6.47
1035.198	-3.97
1035.621	-3.77
1036.045	-1.47
1036.468	0.63
1036.891	-10.47
1037.315	-15.67
1037.738	-2.57
1038.161	-0.57
1038.584	-5.27
1039.008	-5.57
1039.431	-5.47
1039.854	2.13
1040.277	-11.17
1040.7	-11.67
1041.123	-3.57
1041.546	-8.17
1041.969	-7.57
1042.392	-14.57
1042.815	-3.47
1043.238	1.73
1043.661	4.03
1044.084	-5.87
1044.507	-8.67
1044.93	-2.47
1045.352	-4.57
1045.775	-3.37
1046.198	-2.97
1046.621	-4.67
1047.043	-6.07
1047.466	4.13
1047.889	-4.07
1048.311	-4.87
1048.734	-7.57
1049.156	-8.07
1049.579	-11.07
1050.001	-4.47
1050.424	2.73
1050.846	-0.07
1051.269	-6.77
1051.691	-8.67
1052.113	-4.07
1052.536	-3.97
1052.958	-5.07
1053.38	-3.77
1053.802	-11.97
1054.225	0.53
1054.647	-15.37
1055.069	-7.47
1055.491	-1.97
1055.913	-12.27
1056.335	-2.57
1056.757	-6.27
1057.179	-11.67
1057.601	-4.27
1058.023	-8.07
1058.445	-3.87
1058.867	-7.27
1059.289	-11.67
1059.711	-5.87
1060.133	-5.77
1060.555	-2.17
1060.976	0.83
1061.398	-6.27
1061.82	-8.07
1062.241	-13.67
1062.663	-13.87
1063.085	-10.07
1063.506	-1.27
1063.928	-9.67
1064.35	-2.07
1064.771	-15.47
1065.193	-5.87
1065.614	-6.27
1066.035	-2.07
1066.457	-1.57
1066.878	-7.47
1067.3	-7.57
1067.721	-5.07
1068.142	-6.77
1068.564	-3.87
1068.985	-6.77
1069.406	-7.77
1069.827	-8.07
1070.248	-4.87
1070.67	-10.47
1071.091	-2.37
1071.512	-5.37
1071.933	-6.07
1072.354	-7.27
1072.775	-10.27
1073.196	-11.37
1073.617	-6.37
1074.038	-10.37
1074.459	-10.27
1074.88	-9.17
1075.3	-6.77
1075.721	-4.97
1076.142	-0.67
1076.563	-1.47
1076.983	-17.47
1077.404	-3.37
1077.825	-7.27
1078.246	-5.27
1078.666	-6.37
1079.087	-4.97
1079.507	-10.27
1079.928	-2.97
1080.348	-3.57
1080.769	-7.17
1081.189	-4.57
1081.61	-7.77
1082.03	-8.17
1082.451	-5.17
1082.871	-11.87
1083.291	-7.67
1083.711	-9.17
1084.132	-6.67
1084.552	-7.17
1084.972	-4.97
1085.392	-6.37
1085.813	-9.97
1086.233	-0.57
1086.653	-7.47
1087.073	-2.87
1087.493	-8.27
1087.913	-0.37
1088.333	-9.27
1088.753	-3.47
1089.173	2.73
1089.593	-2.87
1090.013	3.23
1090.433	-1.57
1090.852	-3.27
1091.272	-8.17
1091.692	-4.67
1092.112	-8.37
1092.531	-8.47
1092.951	-15.97
1093.371	-3.67
1093.79	-2.67
1094.21	-4.07
1094.63	-1.37
1095.049	-6.37
1095.469	-8.97
1095.888	-6.17
1096.308	6.93
1096.727	3.43
1097.146	-6.07
1097.566	-3.17
1097.985	-7.57
1098.405	-0.37
1098.824	-10.17
1099.243	-8.07
1099.662	-16.97
1100.082	-3.97
1100.501	-1.87
1100.92	-7.07
1101.339	-5.37
1101.758	-9.77
