Data from 20171114-ORNL-Ar_H_NY_Subt18_08-07-12-326.txt Node
Date: Tue Nov 14 08:07:12 EST 2017
User: Ender
Spectrometer: HR+D1039
Trigger mode: 0
Integration Time (sec): 2.730000E-2
Scans to average: 10
Electric dark correction enabled: true
Nonlinearity correction enabled: false
Boxcar width: 0
XAxis mode: Wavelengths
Number of Pixels in Spectrum: 2048
>>>>>Begin Spectral Data<<<<<
187.836	-3.69
188.309	-3.69
188.782	-3.69
189.255	-0.49
189.728	1.31
190.201	9.01
190.674	1.11
191.147	7.71
191.619	-8.89
192.092	-0.39
192.565	1.21
193.038	0.71
193.511	-4.59
193.984	-0.99
194.456	1.31
194.929	2.31
195.402	-4.69
195.874	-0.89
196.347	-5.89
196.82	-7.29
197.292	2.31
197.765	0.21
198.237	-8.29
198.71	0.21
199.182	-4.19
199.655	-1.39
200.127	2.71
200.6	-5.59
201.072	0.81
201.544	-5.19
202.017	2.11
202.489	3.51
202.961	4.91
203.433	-4.09
203.906	-4.19
204.378	-5.09
204.85	2.71
205.322	-9.09
205.794	-4.89
206.266	-2.59
206.739	-4.69
207.211	1.01
207.683	-10.19
208.155	-7.09
208.627	-8.19
209.099	-3.89
209.57	-4.59
210.042	-7.89
210.514	1.81
210.986	-4.79
211.458	-3.49
211.93	-2.79
212.402	2.21
212.873	-9.29
213.345	-7.09
213.817	-11.59
214.288	-6.29
214.76	-16.89
215.232	-5.19
215.703	-2.89
216.175	-6.69
216.646	0.21
217.118	-4.49
217.589	-9.29
218.061	-1.89
218.532	-0.99
219.004	-1.09
219.475	-6.89
219.946	-2.59
220.418	-7.99
220.889	3.91
221.36	-1.99
221.832	-5.49
222.303	-11.09
222.774	-1.39
223.245	-10.59
223.717	-12.59
224.188	-6.19
224.659	-16.39
225.13	-0.39
225.601	-3.69
226.072	2.51
226.543	0.21
227.014	-2.39
227.485	-1.99
227.956	-9.79
228.427	-2.19
228.898	0.21
229.369	3.61
229.839	-4.19
230.31	-7.99
230.781	-7.99
231.252	-5.19
231.722	-3.59
232.193	-4.19
232.664	-5.19
233.135	-8.99
233.605	-3.39
234.076	-9.49
234.546	1.01
235.017	-5.79
235.487	-5.09
235.958	-5.49
236.428	-8.89
236.899	-0.39
237.369	-9.19
237.84	-3.69
238.31	-0.29
238.78	-1.69
239.251	-8.59
239.721	-3.59
240.191	-0.19
240.662	-5.19
241.132	-1.49
241.602	-5.39
242.072	-1.69
242.542	4.41
243.013	-4.49
243.483	-2.19
243.953	-3.39
244.423	-2.39
244.893	-12.19
245.363	0.21
245.833	-3.99
246.303	-9.09
246.773	2.81
247.243	-6.79
247.712	-2.09
248.182	-0.19
248.652	2.51
249.122	-13.39
249.592	2.91
250.061	-3.19
250.531	10.81
251.001	-9.39
251.471	1.01
251.94	5.51
252.41	0.41
252.879	-11.69
253.349	5.31
253.818	-0.19
254.288	-4.79
254.757	-3.19
255.227	-7.79
255.696	-7.19
256.166	-1.79
256.635	3.21
257.105	1.71
257.574	0.71
258.043	2.21
258.513	-8.39
258.982	2.21
259.451	-9.59
259.92	2.71
260.389	-4.49
260.859	11.71
261.328	0.11
261.797	1.91
262.266	1.21
262.735	1.11
263.204	0.91
263.673	-3.99
264.142	7.51
264.611	-7.69
265.08	-5.49
265.549	-7.39
266.018	-2.39
266.487	-5.39
266.955	-5.19
267.424	-1.19
267.893	-2.29
268.362	-3.49
268.83	-8.59
269.299	7.81
269.768	2.31
270.236	2.81
270.705	-3.39
271.174	-1.09
271.642	-0.39
272.111	-3.99
272.579	2.91
273.048	3.11
273.516	3.41
273.985	0.31
274.453	4.81
274.922	12.01
275.39	5.91
275.858	-2.19
276.327	3.81
276.795	11.91
277.263	5.11
277.731	6.01
278.2	1.81
278.668	-1.19
279.136	3.61
279.604	-4.49
280.072	7.41
280.54	3.51
281.008	2.11
281.477	4.91
281.945	10.51
282.413	5.71
282.881	7.11
283.348	1.61
283.816	6.71
284.284	9.41
284.752	12.21
285.22	7.01
285.688	5.91
286.156	8.41
286.623	15.41
287.091	5.31
287.559	7.81
288.026	8.41
288.494	8.21
288.962	-3.49
289.429	6.21
289.897	10.91
290.364	3.21
290.832	9.71
291.3	11.31
291.767	13.51
292.234	17.61
292.702	9.71
293.169	8.71
293.637	15.31
294.104	7.01
294.571	2.61
295.039	3.71
295.506	6.41
295.973	11.21
296.44	11.51
296.908	11.41
297.375	11.01
297.842	14.71
298.309	9.01
298.776	2.41
299.243	13.11
299.71	9.01
300.177	13.51
300.644	13.21
301.111	9.71
301.578	11.31
302.045	6.41
302.512	10.51
302.979	20.91
303.446	15.01
303.913	21.61
304.379	11.91
304.846	22.21
305.313	16.01
305.78	13.91
306.246	18.41
306.713	12.21
307.18	13.41
307.646	9.51
308.113	21.21
308.579	16.81
309.046	14.21
309.512	14.21
309.979	13.21
310.445	23.91
310.912	22.21
311.378	26.11
311.845	19.81
312.311	25.71
312.777	21.41
313.244	20.11
313.71	29.71
314.176	23.41
314.642	19.31
315.109	16.61
315.575	31.81
316.041	28.61
316.507	18.21
316.973	24.71
317.439	27.61
317.905	25.01
318.371	27.21
318.837	25.31
319.303	18.31
319.769	30.11
320.235	20.91
320.701	29.91
321.167	30.31
321.633	23.21
322.099	31.91
322.564	27.91
323.03	30.91
323.496	31.81
323.962	33.81
324.427	25.91
324.893	41.81
325.359	28.81
325.824	30.61
326.29	27.91
326.755	29.01
327.221	23.91
327.686	33.01
328.152	33.01
328.617	36.61
329.083	38.41
329.548	42.91
330.014	40.21
330.479	27.91
330.944	32.11
331.41	32.61
331.875	39.11
332.34	29.91
332.805	25.61
333.271	36.51
333.736	23.91
334.201	42.81
334.666	41.41
335.131	43.31
335.596	39.21
336.061	38.01
336.526	33.31
336.991	39.91
337.456	41.91
337.921	32.31
338.386	38.11
338.851	36.91
339.316	41.41
339.781	46.31
340.246	43.51
340.711	44.31
341.175	43.31
341.64	33.21
342.105	42.41
342.569	47.11
343.034	49.11
343.499	44.31
343.963	37.01
344.428	52.51
344.893	48.31
345.357	50.21
345.822	49.31
346.286	55.51
346.751	57.91
347.215	47.31
347.679	60.11
348.144	75.51
348.608	64.31
349.073	54.81
349.537	63.31
350.001	64.01
350.465	74.91
350.93	65.01
351.394	65.21
351.858	55.21
352.322	73.11
352.786	67.51
353.25	77.31
353.715	89.31
354.179	80.01
354.643	95.61
355.107	93.51
355.571	84.11
356.035	75.81
356.498	90.71
356.962	84.71
357.426	95.21
357.89	92.21
358.354	76.31
358.818	72.21
359.281	70.61
359.745	63.01
360.209	66.61
360.673	59.71
361.136	67.01
361.6	70.61
362.064	72.21
362.527	73.61
362.991	80.31
363.454	72.91
363.918	66.01
364.381	66.71
364.845	72.31
365.308	80.11
365.772	76.91
366.235	75.51
366.698	73.51
367.162	71.81
367.625	73.41
368.088	73.81
368.552	80.51
369.015	72.11
369.478	78.51
369.941	85.21
370.404	79.71
370.867	89.31
371.331	88.81
371.794	94.81
372.257	83.21
372.72	89.81
373.183	85.11
373.646	73.71
374.109	78.41
374.572	93.51
375.035	92.91
375.497	84.81
375.96	92.41
376.423	90.11
376.886	99.81
377.349	91.11
377.811	89.91
378.274	91.51
378.737	92.01
379.199	93.51
379.662	97.01
380.125	103.21
380.587	89.01
381.05	97.51
381.512	100.31
381.975	114.91
382.437	109.01
382.9	108.01
383.362	114.01
383.825	112.31
384.287	110.61
384.75	103.31
385.212	116.01
385.674	117.01
386.136	119.01
386.599	105.41
387.061	113.21
387.523	109.81
387.985	111.51
388.447	122.11
388.91	110.41
389.372	118.51
389.834	116.31
390.296	108.51
390.758	116.61
391.22	130.01
391.682	135.11
392.144	133.61
392.606	138.61
393.068	132.91
393.529	146.01
393.991	122.91
394.453	120.11
394.915	115.61
395.377	125.91
395.838	128.61
396.3	120.41
396.762	127.21
397.224	121.71
397.685	130.51
398.147	121.51
398.608	121.01
399.07	118.81
399.531	126.11
399.993	136.11
400.454	139.11
400.916	141.01
401.377	143.61
401.839	147.61
402.3	140.61
402.762	161.81
403.223	171.01
403.684	159.91
404.145	153.41
404.607	150.91
405.068	149.11
405.529	161.11
405.99	177.41
406.451	162.71
406.913	162.61
407.374	154.31
407.835	153.81
408.296	165.21
408.757	165.41
409.218	167.71
409.679	175.41
410.14	165.91
410.601	172.41
411.062	181.11
411.522	175.61
411.983	162.01
412.444	167.01
412.905	179.61
413.366	173.51
413.826	181.01
414.287	212.61
414.748	255.91
415.208	237.41
415.669	212.51
416.13	205.31
416.59	199.91
417.051	208.41
417.511	222.21
417.972	233.71
418.432	246.51
418.893	288.11
419.353	248.01
419.814	193.91
420.274	183.31
420.734	179.51
421.195	189.71
421.655	182.01
422.115	187.81
422.576	189.01
423.036	191.41
423.496	208.41
423.956	212.71
424.416	221.21
424.876	263.61
425.336	254.21
425.797	254.81
426.257	253.01
426.717	232.51
427.177	233.91
427.637	219.51
428.097	232.01
428.556	244.31
429.016	260.81
429.476	255.31
429.936	264.61
430.396	263.31
430.856	291.31
431.315	296.11
431.775	335.01
432.235	355.31
432.694	333.01
433.154	345.21
433.614	368.21
434.073	321.31
434.533	274.61
434.993	258.11
435.452	265.91
435.912	280.21
436.371	276.41
436.83	269.01
437.29	257.21
437.749	243.01
438.209	241.21
438.668	273.21
439.127	276.01
439.587	254.41
440.046	249.61
440.505	257.51
440.964	275.51
441.424	316.01
441.883	302.81
442.342	262.11
442.801	225.81
443.26	215.81
443.719	226.31
444.178	217.81
444.637	214.81
445.096	220.91
445.555	226.61
446.014	222.21
446.473	231.31
446.932	234.81
447.391	231.11
447.849	226.01
448.308	219.21
448.767	222.11
449.226	233.41
449.685	240.31
450.143	252.31
450.602	237.01
451.061	231.31
451.519	238.01
451.978	240.21
452.436	240.21
452.895	240.21
453.353	253.01
453.812	241.71
454.27	241.21
454.729	241.11
455.187	239.81
455.646	248.61
456.104	256.11
456.562	263.71
457.021	274.81
457.479	263.51
457.937	270.11
458.395	270.21
458.854	251.01
459.312	252.01
459.77	276.41
460.228	259.71
460.686	251.51
461.144	254.71
461.602	244.81
462.06	249.81
462.518	259.11
462.976	259.21
463.434	268.11
463.892	262.31
464.35	279.71
464.808	295.51
465.266	269.11
465.724	277.11
466.181	281.71
466.639	273.91
467.097	298.81
467.555	299.31
468.012	310.91
468.47	319.41
468.928	333.91
469.385	346.91
469.843	355.21
470.3	353.41
470.758	368.81
471.215	384.01
471.673	407.51
472.13	403.91
472.588	423.11
473.045	376.71
473.503	384.91
473.96	403.21
474.417	414.11
474.875	445.51
475.332	479.41
475.789	462.61
476.246	480.61
476.704	495.01
477.161	514.71
477.618	531.61
478.075	561.31
478.532	615.91
478.989	690.41
479.446	780.51
479.903	750.01
480.36	779.11
480.817	831.51
481.274	925.41
481.731	1010.61
482.188	1095.01
482.645	1205.01
483.102	1304.61
483.558	1415.61
484.015	1460.71
484.472	1435.21
484.929	1394.21
485.385	1350.11
485.842	1302.51
486.299	1268.11
486.755	1235.81
487.212	1044.51
487.668	902.61
488.125	838.01
488.582	766.21
489.038	734.61
489.494	709.31
489.951	695.21
490.407	663.61
490.864	653.91
491.32	651.51
491.776	648.11
492.233	650.21
492.689	623.01
493.145	622.51
493.602	606.71
494.058	621.01
494.514	621.61
494.97	651.31
495.426	660.61
495.882	628.51
496.338	621.91
496.794	626.81
497.251	625.61
497.707	647.71
498.163	645.21
498.618	653.31
499.074	636.81
499.53	682.81
499.986	675.91
500.442	660.31
500.898	631.21
501.354	619.11
501.809	635.91
502.265	629.01
502.721	637.71
503.177	651.01
503.632	654.91
504.088	664.51
504.543	680.61
504.999	700.81
505.455	675.21
505.91	645.81
506.366	654.71
506.821	652.41
507.277	644.91
507.732	657.71
508.187	643.21
508.643	654.61
509.098	664.91
509.553	683.61
510.009	686.51
510.464	688.21
510.919	713.11
511.375	717.01
511.83	731.11
512.285	741.61
512.74	785.91
513.195	802.91
513.65	793.71
514.105	788.21
514.56	777.61
515.015	803.71
515.47	812.91
515.925	802.51
516.38	803.01
516.835	815.11
517.29	802.41
517.745	795.91
518.2	774.61
518.655	757.21
519.109	770.81
519.564	766.51
520.019	742.21
520.474	748.51
520.928	748.21
521.383	742.91
521.838	738.91
522.292	730.31
522.747	736.51
523.201	731.81
523.656	715.61
524.11	719.61
524.565	704.31
525.019	703.61
525.474	711.31
525.928	720.31
526.382	715.71
526.837	724.21
527.291	726.31
527.745	719.61
528.2	729.31
528.654	707.31
529.108	710.81
529.562	706.31
530.016	712.21
530.47	706.41
530.925	701.11
531.379	707.91
531.833	717.01
532.287	726.61
532.741	724.61
533.195	718.91
533.649	724.51
534.103	741.71
534.556	724.51
535.01	726.41
535.464	729.51
535.918	738.91
536.372	733.71
536.826	742.21
537.279	721.91
537.733	736.71
538.187	731.51
538.64	729.91
539.094	741.21
539.548	757.01
540.001	743.51
540.455	751.41
540.908	746.71
541.362	757.21
541.815	763.51
542.269	777.21
542.722	780.61
543.175	791.31
543.629	788.61
544.082	808.01
544.536	806.01
544.989	806.11
545.442	822.41
545.895	818.91
546.349	818.41
546.802	824.91
547.255	822.71
547.708	829.51
548.161	842.01
548.614	833.71
549.067	851.21
549.52	846.01
549.973	840.81
550.426	831.91
550.879	824.41
551.332	824.41
551.785	838.11
552.238	837.81
552.691	843.11
553.144	862.01
553.596	864.01
554.049	893.41
554.502	923.11
554.955	943.81
555.407	932.51
555.86	924.41
556.313	911.41
556.765	903.81
557.218	904.81
557.67	904.51
558.123	904.81
558.576	899.61
559.028	904.41
559.48	919.01
559.933	899.41
560.385	871.91
560.838	842.31
561.29	813.61
561.742	807.81
562.195	791.21
562.647	800.31
563.099	794.91
563.551	799.01
564.004	798.21
564.456	790.81
564.908	782.81
565.36	770.71
565.812	755.71
566.264	742.11
566.716	739.61
567.168	732.11
567.62	741.01
568.072	723.61
568.524	713.91
568.976	714.71
569.428	689.31
569.88	694.31
570.332	699.81
570.784	714.11
571.235	706.81
571.687	720.21
572.139	725.71
572.59	740.91
573.042	733.61
573.494	730.31
573.945	725.81
574.397	710.41
574.849	719.21
575.3	710.81
575.752	701.61
576.203	691.91
576.655	699.81
577.106	687.71
577.557	676.31
578.009	685.01
578.46	683.31
578.912	683.61
579.363	684.71
579.814	694.01
580.265	686.61
580.717	689.51
581.168	691.21
581.619	704.31
582.07	698.81
582.521	695.71
582.972	683.51
583.423	688.81
583.875	690.51
584.326	695.11
584.777	703.91
585.227	734.11
585.678	742.61
586.129	750.11
586.58	766.41
587.031	789.61
587.482	806.51
587.933	833.51
588.384	810.21
588.834	800.41
589.285	794.81
589.736	788.31
590.186	792.51
590.637	781.81
591.088	765.11
591.538	751.41
591.989	747.51
592.439	740.81
592.89	738.41
593.34	728.21
593.791	726.81
594.241	723.11
594.692	713.51
595.142	705.71
595.593	713.61
596.043	726.01
596.493	721.01
596.943	722.91
597.394	738.61
597.844	737.91
598.294	747.21
598.744	766.01
599.195	801.11
599.645	843.31
600.095	885.51
600.545	944.81
600.995	993.51
601.445	1051.71
601.895	1117.81
602.345	1169.41
602.795	1140.71
603.245	1105.01
603.695	1038.61
604.145	985.11
604.594	936.11
605.044	890.91
605.494	823.11
605.944	779.51
606.393	769.31
606.843	735.41
607.293	738.91
607.743	745.81
608.192	753.91
608.642	763.61
609.091	776.01
609.541	779.41
609.99	774.11
610.44	773.91
610.889	726.31
611.339	711.61
611.788	691.91
612.238	710.61
612.687	713.81
613.136	717.81
613.586	723.01
614.035	715.91
614.484	714.81
614.933	710.01
615.383	709.91
615.832	711.21
616.281	723.51
616.73	683.11
617.179	674.91
617.628	653.71
618.077	641.71
618.526	630.01
618.975	628.51
619.424	621.61
619.873	610.41
620.322	620.51
620.771	614.91
621.22	604.21
621.669	602.61
622.118	598.91
622.567	589.71
623.015	580.41
623.464	578.31
623.913	568.71
624.361	562.61
624.81	558.71
625.259	566.11
625.707	563.41
626.156	568.21
626.604	574.31
627.053	575.21
627.501	574.41
627.95	586.41
628.398	602.11
628.847	583.51
629.295	580.21
629.744	591.01
630.192	578.21
630.64	571.01
631.089	561.41
631.537	557.71
631.985	540.11
632.433	548.21
632.881	535.21
633.33	535.01
633.778	534.81
634.226	539.21
634.674	543.41
635.122	552.91
635.57	566.61
636.018	563.51
636.466	563.51
636.914	553.31
637.362	577.91
637.81	584.21
638.258	586.01
638.705	595.41
639.153	622.41
639.601	626.91
640.049	648.81
640.497	687.41
640.944	705.21
641.392	666.11
641.84	623.71
642.287	589.81
642.735	568.41
643.182	579.11
643.63	569.11
644.078	561.41
644.525	582.61
644.973	585.31
645.42	600.81
645.867	618.11
646.315	647.61
646.762	661.01
647.21	689.91
647.657	708.61
648.104	742.01
648.551	767.71
648.999	822.31
649.446	891.21
649.893	973.51
650.34	1118.01
650.787	1324.41
651.234	1629.41
651.682	2098.71
652.129	2831.01
652.576	4015.31
653.023	5861.51
653.47	7926.81
653.917	9868.61
654.363	11359.31
654.81	12553.01
655.257	11871.41
655.704	7881.11
656.151	4733.51
656.598	3118.41
657.044	2243.11
657.491	1735.11
657.938	1404.41
658.385	1190.41
658.831	1033.51
659.278	923.51
659.724	825.51
660.171	770.11
660.618	716.41
661.064	682.31
661.511	663.41
661.957	658.41
662.404	637.21
662.85	641.91
663.296	627.71
663.743	565.21
664.189	542.11
664.635	534.31
665.082	527.51
665.528	526.91
665.974	520.71
666.42	520.11
666.867	510.41
667.313	495.51
667.759	469.61
668.205	459.21
668.651	464.91
669.097	441.41
669.543	442.51
669.989	444.51
670.435	454.81
670.881	447.61
671.327	465.71
671.773	482.31
672.219	508.51
672.665	561.81
673.11	589.91
673.556	646.61
674.002	685.41
674.448	666.61
674.893	570.71
675.339	488.61
675.785	451.81
676.23	431.31
676.676	401.31
677.122	395.91
677.567	374.41
678.013	378.81
678.458	368.01
678.904	364.51
679.349	365.91
679.794	358.31
680.24	358.01
680.685	357.61
681.131	358.71
681.576	357.41
682.021	366.51
682.466	358.21
682.912	356.61
683.357	359.61
683.802	389.41
684.247	419.11
684.692	462.91
685.137	502.81
685.583	548.01
686.028	580.81
686.473	530.71
686.918	455.21
687.363	431.11
687.807	404.81
688.252	374.71
688.697	360.31
689.142	348.31
689.587	339.21
690.032	332.51
690.477	351.31
690.921	359.91
691.366	383.91
691.811	409.21
692.255	433.61
692.7	475.61
693.145	523.61
693.589	722.01
694.034	1170.11
694.478	1583.11
694.923	1793.41
695.367	2343.31
695.812	1224.61
696.256	509.31
696.701	382.01
697.145	348.61
697.59	330.51
698.034	324.81
698.478	330.11
698.922	328.41
699.367	324.71
699.811	336.91
700.255	356.71
700.699	393.01
701.143	432.91
701.588	487.11
702.032	518.61
702.476	524.11
702.92	513.21
703.364	510.81
703.808	662.41
704.252	1065.41
704.696	1494.41
705.14	1734.21
705.584	2176.31
706.027	1092.91
706.471	539.11
706.915	401.61
707.359	367.21
707.803	330.41
708.246	313.31
708.69	320.81
709.134	324.91
709.577	322.31
710.021	319.71
710.465	311.41
710.908	306.81
711.352	305.11
711.795	316.01
712.239	360.81
712.682	390.41
713.126	423.11
713.569	464.11
714.012	365.41
714.456	310.41
714.899	295.11
715.342	278.31
715.786	271.21
716.229	262.31
716.672	254.41
717.115	252.81
717.558	249.11
718.002	259.51
718.445	269.91
718.888	291.31
719.331	302.11
719.774	314.01
720.217	311.31
720.66	289.71
721.103	274.01
721.546	261.01
721.989	255.21
722.432	229.91
722.874	247.01
723.317	240.71
723.76	232.91
724.203	258.21
724.645	334.91
725.088	456.61
725.531	586.31
725.974	649.91
726.416	563.81
726.859	317.21
727.301	247.81
727.744	236.11
728.187	236.71
728.629	245.91
729.071	252.11
729.514	261.41
729.956	278.01
730.399	289.41
730.841	293.51
731.283	272.81
731.726	276.11
732.168	270.11
732.61	273.61
733.053	297.11
733.495	323.11
733.937	369.41
734.379	411.51
734.821	451.71
735.263	559.51
735.705	856.81
736.148	1633.31
736.59	2676.41
737.032	3165.21
737.474	2579.91
737.916	835.71
738.357	436.91
738.799	338.61
739.241	308.71
739.683	289.01
740.125	300.81
740.567	312.11
741.008	327.51
741.45	322.91
741.892	326.81
742.334	357.41
742.775	373.81
743.217	354.21
743.658	271.51
744.1	262.11
744.542	276.21
744.983	328.01
745.425	353.41
745.866	357.31
746.307	282.91
746.749	278.31
747.19	330.51
747.632	465.21
748.073	933.61
748.514	1951.81
748.956	2963.81
749.397	3705.01
749.838	3077.11
750.279	3048.11
750.72	1555.11
751.162	566.91
751.603	330.41
752.044	259.91
752.485	215.11
752.926	216.91
753.367	202.01
753.808	200.51
754.249	189.41
754.69	182.71
755.131	189.71
755.572	185.71
756.013	186.01
756.453	188.91
756.894	187.51
757.335	194.31
757.776	204.41
758.216	192.81
758.657	201.71
759.098	207.61
759.538	224.81
759.979	271.71
760.42	382.91
760.86	746.81
761.301	1938.51
761.741	4621.61
762.182	6631.41
762.622	4685.21
763.063	1362.71
763.503	541.91
763.943	327.81
764.384	269.21
764.824	251.01
765.264	218.61
765.705	208.51
766.145	185.51
766.585	173.21
767.025	173.51
767.465	160.91
767.906	176.81
768.346	188.01
768.786	195.81
769.226	218.31
769.666	311.01
770.106	645.91
770.546	1612.41
770.986	2713.01
771.426	2444.71
771.866	821.71
772.306	334.21
772.745	204.61
773.185	172.01
773.625	162.71
774.065	149.01
774.505	166.41
774.944	204.41
775.384	358.81
775.824	589.51
776.263	564.01
776.703	275.31
777.142	153.71
777.582	137.21
778.021	123.01
778.461	133.61
778.9	121.51
779.34	122.71
779.779	115.01
780.219	109.11
780.658	109.81
781.097	112.81
781.537	114.31
781.976	107.01
782.415	111.21
782.855	101.51
783.294	106.91
783.733	109.31
784.172	108.91
784.611	103.01
785.05	105.91
785.489	114.31
785.928	113.91
786.367	119.11
786.806	119.91
787.245	135.31
787.684	135.31
788.123	147.01
788.562	131.41
789.001	131.41
789.44	125.31
789.879	117.31
790.317	121.71
790.756	132.41
791.195	133.81
791.634	151.71
792.072	210.51
792.511	381.61
792.95	1051.21
793.388	2199.51
793.827	1963.11
794.265	687.61
794.704	286.71
795.142	184.91
795.581	154.51
796.019	139.41
796.458	130.01
796.896	126.21
797.334	139.31
797.773	165.01
798.211	226.51
798.649	457.41
799.087	1056.91
799.526	1651.11
799.964	2089.71
800.402	2077.21
800.84	778.41
801.278	317.01
801.716	187.61
802.154	166.91
802.592	153.11
803.03	149.41
803.468	132.51
803.906	146.61
804.344	146.51
804.782	144.21
805.22	140.71
805.658	135.41
806.096	153.81
806.533	160.81
806.971	179.11
807.409	226.51
807.847	334.51
808.284	702.61
808.722	1958.01
809.16	3397.21
809.597	3284.71
810.035	5654.61
810.472	5972.11
810.91	2169.31
811.347	831.51
811.785	421.11
812.222	265.21
812.66	206.81
813.097	170.21
813.535	147.01
813.972	133.41
814.409	123.21
814.846	111.01
815.284	112.71
815.721	96.91
816.158	109.81
816.595	108.41
817.032	155.21
817.47	186.91
817.907	147.41
818.344	104.21
818.781	94.01
819.218	100.41
819.655	128.51
820.092	195.91
820.529	216.11
820.966	170.61
821.403	123.51
821.839	105.31
822.276	94.91
822.713	122.91
823.15	132.11
823.587	122.31
824.023	147.31
824.46	315.11
824.897	930.71
825.333	1396.91
825.77	598.01
826.206	237.71
826.643	145.21
827.08	98.41
827.516	88.91
827.953	75.51
828.389	80.71
828.825	74.61
829.262	63.61
829.698	68.91
830.135	67.51
830.571	68.91
831.007	66.31
831.443	70.71
831.88	64.61
832.316	69.01
832.752	68.01
833.188	61.81
833.624	66.51
834.06	67.31
834.497	72.21
834.933	73.81
835.369	77.31
835.805	71.71
836.241	80.61
836.677	80.21
837.112	88.41
837.548	108.51
837.984	134.21
838.42	210.51
838.856	523.41
839.292	1582.41
839.727	2368.21
840.163	1108.81
840.599	969.61
841.034	2103.91
841.47	2184.71
841.906	800.31
842.341	340.41
842.777	200.81
843.212	204.31
843.648	182.81
844.083	114.11
844.519	85.51
844.954	70.81
845.39	59.21
845.825	54.41
846.261	56.11
846.696	54.41
847.131	56.21
847.566	58.61
848.002	53.41
848.437	54.41
848.872	60.21
849.307	66.71
849.742	87.71
850.177	192.21
850.613	578.11
851.048	908.61
851.483	392.51
851.918	161.81
852.353	87.31
852.788	56.91
853.223	49.81
853.657	52.81
854.092	45.31
854.527	37.71
854.962	37.11
855.397	44.51
855.832	51.71
856.266	48.21
856.701	46.11
857.136	39.11
857.57	38.01
858.005	51.11
858.44	58.11
858.874	44.71
859.309	52.11
859.743	45.51
860.178	48.41
860.612	45.81
861.047	54.01
861.481	69.21
861.915	75.61
862.35	50.11
862.784	32.31
863.218	39.01
863.653	32.91
864.087	41.21
864.521	47.21
864.955	69.31
865.39	157.61
865.824	184.91
866.258	117.11
866.692	180.51
867.126	187.01
867.56	115.31
867.994	53.11
868.428	47.61
868.862	52.71
869.296	57.21
869.73	64.31
870.164	55.51
870.598	47.61
871.031	42.31
871.465	34.11
871.899	33.21
872.333	23.91
872.766	24.01
873.2	24.41
873.634	33.81
874.067	23.91
874.501	29.81
874.935	36.61
875.368	26.51
875.802	29.81
876.235	22.21
876.669	26.31
877.102	24.11
877.535	27.41
877.969	21.61
878.402	24.81
878.836	15.51
879.269	29.51
879.702	24.71
880.135	22.41
880.569	24.21
881.002	23.01
881.435	18.21
881.868	15.31
882.301	18.71
882.734	14.41
883.167	21.91
883.601	19.11
884.034	25.61
884.467	18.21
884.899	21.91
885.332	18.21
885.765	8.01
886.198	17.91
886.631	10.51
887.064	21.61
887.497	21.41
887.929	29.41
888.362	10.21
888.795	15.51
889.228	17.91
889.66	19.31
890.093	21.01
890.526	12.11
890.958	18.71
891.391	19.21
891.823	21.01
892.256	17.81
892.688	11.61
893.121	16.41
893.553	12.61
893.985	22.61
894.418	10.61
894.85	13.31
895.282	11.61
895.715	16.81
896.147	11.61
896.579	14.01
897.011	20.81
897.444	12.01
897.876	13.71
898.308	10.91
898.74	15.91
899.172	12.61
899.604	19.51
900.036	20.11
900.468	16.51
900.9	14.01
901.332	15.91
901.764	19.61
902.196	11.91
902.628	20.21
903.06	13.11
903.491	30.21
903.923	22.01
904.355	19.81
904.787	25.61
905.218	23.11
905.65	21.91
906.082	6.81
906.513	12.31
906.945	12.71
907.376	14.51
907.808	13.91
908.239	21.01
908.671	18.21
909.102	20.81
909.534	25.61
909.965	51.11
910.397	98.61
910.828	326.51
911.259	487.61
911.691	223.41
912.122	115.61
912.553	52.41
912.984	36.51
913.415	30.91
913.847	21.81
914.278	12.71
914.709	6.11
915.14	23.61
915.571	15.51
916.002	9.81
916.433	13.81
916.864	21.11
917.295	15.61
917.726	18.21
918.157	19.91
918.587	29.21
919.018	24.21
919.449	23.61
919.88	24.71
920.311	33.91
920.741	52.91
921.172	168.11
921.603	159.91
922.033	76.71
922.464	43.21
922.895	27.01
923.325	12.81
923.756	9.91
924.186	16.91
924.617	18.51
925.047	18.01
925.478	25.91
925.908	27.61
926.338	11.11
926.769	13.21
927.199	17.41
927.629	12.81
928.06	14.01
928.49	14.11
928.92	16.41
929.35	7.91
929.78	9.01
930.21	3.91
930.641	7.31
931.071	7.81
931.501	8.61
931.931	8.51
932.361	11.11
932.791	7.51
933.221	1.51
933.651	7.51
934.08	17.21
934.51	25.31
934.94	9.01
935.37	10.21
935.8	7.01
936.229	13.71
936.659	12.51
937.089	0.81
937.519	11.71
937.948	23.21
938.378	17.31
938.807	8.61
939.237	6.41
939.666	5.61
940.096	-4.59
940.525	3.91
940.955	-4.59
941.384	6.91
941.814	-1.09
942.243	0.91
942.672	3.91
943.102	1.71
943.531	-5.39
943.96	1.01
944.39	2.81
944.819	-1.99
945.248	8.41
945.677	1.71
946.106	1.01
946.535	3.21
946.964	0.71
947.393	1.81
947.822	3.21
948.251	-1.49
948.68	-0.29
949.109	3.21
949.538	0.31
949.967	-1.19
950.396	-1.09
950.825	-5.79
951.254	-0.39
951.682	-4.19
952.111	0.81
952.54	0.11
952.969	-7.39
953.397	-5.39
953.826	1.31
954.254	-8.39
954.683	2.51
955.112	-1.89
955.54	3.31
955.969	1.41
956.397	0.91
956.826	-1.49
957.254	1.11
957.682	4.21
958.111	4.11
958.539	2.91
958.967	-2.99
959.396	-0.99
959.824	1.41
960.252	2.31
960.68	-5.49
961.109	-4.19
961.537	-2.69
961.965	0.41
962.393	5.81
962.821	-2.49
963.249	-1.19
963.677	6.31
964.105	4.61
964.533	44.71
964.961	40.71
965.389	27.91
965.817	11.71
966.245	1.61
966.672	3.31
967.1	-5.99
967.528	-1.09
967.956	-4.09
968.383	1.41
968.811	2.01
969.239	-0.29
969.666	-6.69
970.094	2.11
970.522	2.31
970.949	3.21
971.377	-13.49
971.804	-1.09
972.232	-3.59
972.659	-2.29
973.087	-7.69
973.514	-4.89
973.941	-8.09
974.369	0.61
974.796	-0.79
975.223	3.71
975.651	-2.79
976.078	3.31
976.505	-1.39
976.932	1.51
977.359	15.61
977.786	12.81
978.214	0.31
978.641	-6.29
979.068	1.21
979.495	-2.59
979.922	-2.99
980.349	-1.99
980.776	1.81
981.202	-0.69
981.629	1.91
982.056	5.51
982.483	0.91
982.91	5.41
983.337	-8.79
983.763	-0.49
984.19	-5.89
984.617	1.91
985.043	-10.69
985.47	3.51
985.897	-6.19
986.323	-7.49
986.75	-0.79
987.176	-1.29
987.603	-5.39
988.029	0.11
988.456	-2.99
988.882	-1.09
989.308	-8.39
989.735	-2.19
990.161	5.51
990.587	-4.59
991.014	-3.59
991.44	12.21
991.866	1.31
992.292	-4.29
992.719	-5.09
993.145	5.91
993.571	-12.29
993.997	2.81
994.423	-2.89
994.849	-4.29
995.275	2.21
995.701	-0.89
996.127	-3.59
996.553	-0.49
996.979	-1.39
997.405	-3.29
997.83	-5.89
998.256	-7.09
998.682	1.31
999.108	-5.99
999.534	1.11
999.959	-4.19
1000.385	-7.29
1000.811	1.01
1001.236	-4.09
1001.662	-2.89
1002.087	-11.39
1002.513	1.71
1002.938	3.21
1003.364	2.41
1003.789	-1.39
1004.215	3.01
1004.64	-1.09
1005.066	0.61
1005.491	6.11
1005.916	-3.39
1006.342	-3.09
1006.767	-8.19
1007.192	2.61
1007.617	-3.99
1008.042	-3.69
1008.468	-9.29
1008.893	-7.59
1009.318	-0.89
1009.743	-1.79
1010.168	12.21
1010.593	-0.79
1011.018	-1.19
1011.443	-7.19
1011.868	-0.59
1012.293	-5.49
1012.718	-5.89
1013.143	7.51
1013.567	-1.69
1013.992	-5.19
1014.417	-16.49
1014.842	-0.19
1015.267	-3.29
1015.691	-2.09
1016.116	2.51
1016.541	-5.99
1016.965	1.31
1017.39	1.41
1017.814	-3.29
1018.239	0.71
1018.663	-4.19
1019.088	-10.59
1019.512	-8.69
1019.937	-4.89
1020.361	-0.39
1020.785	-7.19
1021.21	-0.99
1021.634	-2.29
1022.058	-0.89
1022.483	5.01
1022.907	-4.89
1023.331	-0.29
1023.755	-2.99
1024.179	-2.29
1024.604	-4.99
1025.028	-6.89
1025.452	-3.79
1025.876	-7.29
1026.3	3.61
1026.724	-9.49
1027.148	-10.09
1027.572	-11.59
1027.996	-7.89
1028.42	-0.09
1028.843	-5.89
1029.267	-5.49
1029.691	-9.09
1030.115	-7.99
1030.539	-7.79
1030.962	-5.99
1031.386	-6.89
1031.81	-3.59
1032.233	2.51
1032.657	1.31
1033.08	-0.49
1033.504	-0.89
1033.927	2.51
1034.351	4.41
1034.774	-7.39
1035.198	-0.49
1035.621	-9.69
1036.045	-4.29
1036.468	-2.79
1036.891	-11.59
1037.315	-13.49
1037.738	-7.19
1038.161	-1.39
1038.584	-6.39
1039.008	-7.79
1039.431	-5.09
1039.854	-3.59
1040.277	-10.19
1040.7	-7.19
1041.123	-4.19
1041.546	-10.59
1041.969	-4.29
1042.392	-6.29
1042.815	-7.79
1043.238	0.01
1043.661	5.11
1044.084	-10.09
1044.507	-11.09
1044.93	-7.69
1045.352	-1.69
1045.775	-4.09
1046.198	1.31
1046.621	-4.99
1047.043	0.21
1047.466	8.91
1047.889	-4.89
1048.311	-3.69
1048.734	-4.99
1049.156	-3.19
1049.579	-0.79
1050.001	-3.49
1050.424	4.11
1050.846	-4.09
1051.269	-5.89
1051.691	-8.69
1052.113	-5.59
1052.536	-4.89
1052.958	-2.29
1053.38	-8.79
1053.802	-13.99
1054.225	1.11
1054.647	-8.19
1055.069	-5.19
1055.491	-0.29
1055.913	-10.29
1056.335	-7.29
1056.757	0.31
1057.179	-5.19
1057.601	-6.89
1058.023	-5.69
1058.445	-3.99
1058.867	-5.09
1059.289	-2.69
1059.711	-11.19
1060.133	-2.09
1060.555	-0.09
1060.976	-5.49
1061.398	-4.49
1061.82	-10.59
1062.241	-3.39
1062.663	-3.79
1063.085	-2.49
1063.506	-0.39
1063.928	-3.69
1064.35	-2.19
1064.771	-14.09
1065.193	-2.59
1065.614	-7.89
1066.035	-0.49
1066.457	-4.49
1066.878	-3.59
1067.3	-9.39
1067.721	-3.29
1068.142	-5.59
1068.564	-3.49
1068.985	-3.19
1069.406	-6.49
1069.827	-5.89
1070.248	-3.89
1070.67	-7.99
1071.091	-9.59
1071.512	-4.19
1071.933	-4.89
1072.354	-8.59
1072.775	-3.59
1073.196	-9.99
1073.617	-3.49
1074.038	-6.39
1074.459	-2.09
1074.88	-4.19
1075.3	-2.69
1075.721	-15.19
1076.142	-0.99
1076.563	3.91
1076.983	-7.79
1077.404	-3.89
1077.825	-8.89
1078.246	-8.59
1078.666	-13.49
1079.087	-3.59
1079.507	-3.19
1079.928	-4.39
1080.348	-4.19
1080.769	-9.49
1081.189	-3.09
1081.61	-5.79
1082.03	-6.39
1082.451	-4.29
1082.871	-7.59
1083.291	-4.59
1083.711	-10.79
1084.132	-5.49
1084.552	-2.59
1084.972	3.31
1085.392	-10.79
1085.813	-3.89
1086.233	-10.49
1086.653	-3.99
1087.073	-5.59
1087.493	-6.19
1087.913	-3.19
1088.333	-4.59
1088.753	-9.19
1089.173	2.01
1089.593	0.21
1090.013	1.61
1090.433	-5.49
1090.852	-8.99
1091.272	-0.09
1091.692	2.41
1092.112	-4.59
1092.531	-8.89
1092.951	-14.79
1093.371	-8.59
1093.79	-2.79
1094.21	-12.89
1094.63	-8.09
1095.049	-8.59
1095.469	0.51
1095.888	2.01
1096.308	5.21
1096.727	1.21
1097.146	-3.29
1097.566	-7.19
1097.985	-5.19
1098.405	-1.69
1098.824	-10.99
1099.243	-3.79
1099.662	-12.99
1100.082	-6.99
1100.501	-2.59
1100.92	-4.69
1101.339	-10.99
1101.758	-11.59
