Data from 20171114-ORNL-Ar_H_NY_Subt18_08-05-16-858.txt Node
Date: Tue Nov 14 08:05:16 EST 2017
User: Ender
Spectrometer: HR+D1039
Trigger mode: 0
Integration Time (sec): 2.730000E-2
Scans to average: 10
Electric dark correction enabled: true
Nonlinearity correction enabled: false
Boxcar width: 0
XAxis mode: Wavelengths
Number of Pixels in Spectrum: 2048
>>>>>Begin Spectral Data<<<<<
187.836	-6.84
188.309	-6.84
188.782	-6.84
189.255	2.06
189.728	0.26
190.201	8.36
190.674	-0.34
191.147	3.56
191.619	-6.84
192.092	3.06
192.565	7.76
193.038	-5.34
193.511	4.76
193.984	-2.24
194.456	0.26
194.929	1.06
195.402	-3.74
195.874	-5.84
196.347	-4.84
196.82	-6.34
197.292	4.16
197.765	0.86
198.237	-9.04
198.71	5.56
199.182	-5.34
199.655	1.06
200.127	-1.54
200.6	-3.34
201.072	-2.04
201.544	-4.74
202.017	-1.54
202.489	-0.44
202.961	-1.84
203.433	-1.14
203.906	-9.04
204.378	-0.64
204.85	-3.14
205.322	-5.74
205.794	1.16
206.266	-1.94
206.739	-5.94
207.211	1.46
207.683	-5.04
208.155	-9.64
208.627	-9.04
209.099	-9.54
209.57	-11.24
210.042	-4.24
210.514	0.06
210.986	-1.74
211.458	-7.04
211.93	-3.14
212.402	1.76
212.873	-8.44
213.345	-3.44
213.817	-10.54
214.288	-8.34
214.76	-15.04
215.232	-7.84
215.703	-3.14
216.175	-3.54
216.646	-0.54
217.118	-3.44
217.589	-1.44
218.061	-2.44
218.532	-2.94
219.004	-2.24
219.475	-4.74
219.946	-6.34
220.418	-5.94
220.889	2.26
221.36	-3.74
221.832	-4.34
222.303	-7.84
222.774	0.06
223.245	-11.84
223.717	-10.14
224.188	-4.94
224.659	-2.24
225.13	-9.24
225.601	-1.74
226.072	-2.94
226.543	1.66
227.014	-1.34
227.485	-5.04
227.956	-3.74
228.427	-4.24
228.898	2.36
229.369	3.56
229.839	0.96
230.31	-4.54
230.781	0.16
231.252	-6.24
231.722	-2.74
232.193	-6.84
232.664	-2.74
233.135	4.66
233.605	0.36
234.076	-12.24
234.546	0.16
235.017	1.66
235.487	7.56
235.958	-1.04
236.428	-5.84
236.899	2.36
237.369	1.86
237.84	-1.64
238.31	7.86
238.78	6.66
239.251	4.66
239.721	-0.24
240.191	3.26
240.662	-0.14
241.132	4.06
241.602	1.76
242.072	6.46
242.542	5.56
243.013	-0.44
243.483	6.76
243.953	-2.54
244.423	-3.64
244.893	0.16
245.363	3.26
245.833	7.66
246.303	-1.44
246.773	10.86
247.243	1.56
247.712	2.26
248.182	6.06
248.652	7.56
249.122	4.26
249.592	13.36
250.061	30.76
250.531	35.16
251.001	18.36
251.471	22.36
251.94	20.96
252.41	10.06
252.879	3.36
253.349	12.16
253.818	7.76
254.288	3.86
254.757	12.16
255.227	0.86
255.696	3.46
256.166	6.96
256.635	6.06
257.105	9.16
257.574	13.26
258.043	10.16
258.513	9.66
258.982	11.26
259.451	8.26
259.92	14.76
260.389	16.96
260.859	14.46
261.328	17.26
261.797	25.06
262.266	13.76
262.735	16.36
263.204	4.16
263.673	0.66
264.142	9.46
264.611	-6.14
265.08	-0.64
265.549	8.46
266.018	5.06
266.487	0.26
266.955	3.66
267.424	-1.14
267.893	8.06
268.362	2.56
268.83	3.56
269.299	13.46
269.768	3.26
270.236	5.56
270.705	0.16
271.174	8.06
271.642	10.26
272.111	10.16
272.579	17.46
273.048	25.36
273.516	25.56
273.985	27.76
274.453	23.36
274.922	14.26
275.39	10.16
275.858	7.46
276.327	10.36
276.795	16.76
277.263	13.16
277.731	28.06
278.2	54.56
278.668	59.36
279.136	44.16
279.604	17.56
280.072	15.46
280.54	13.66
281.008	11.26
281.477	9.86
281.945	10.86
282.413	16.36
282.881	15.06
283.348	12.16
283.816	21.36
284.284	18.76
284.752	19.76
285.22	13.56
285.688	18.36
286.156	18.66
286.623	44.66
287.091	54.96
287.559	31.76
288.026	15.46
288.494	17.16
288.962	7.06
289.429	17.36
289.897	22.56
290.364	17.46
290.832	20.76
291.3	20.66
291.767	22.16
292.234	19.06
292.702	16.46
293.169	23.36
293.637	22.76
294.104	28.56
294.571	5.56
295.039	18.26
295.506	13.76
295.973	18.26
296.44	18.06
296.908	18.56
297.375	20.96
297.842	24.16
298.309	18.66
298.776	14.66
299.243	21.86
299.71	15.96
300.177	20.66
300.644	26.66
301.111	23.76
301.578	26.86
302.045	18.76
302.512	30.06
302.979	31.26
303.446	30.46
303.913	23.96
304.379	22.56
304.846	34.66
305.313	21.76
305.78	21.16
306.246	28.16
306.713	30.76
307.18	32.06
307.646	34.56
308.113	27.16
308.579	25.06
309.046	27.76
309.512	29.86
309.979	22.26
310.445	27.96
310.912	28.96
311.378	33.66
311.845	28.56
312.311	30.56
312.777	33.06
313.244	34.86
313.71	37.16
314.176	33.46
314.642	38.26
315.109	33.86
315.575	35.06
316.041	40.96
316.507	35.56
316.973	41.26
317.439	32.46
317.905	37.16
318.371	40.26
318.837	32.66
319.303	31.36
319.769	36.76
320.235	31.66
320.701	29.26
321.167	38.26
321.633	28.66
322.099	41.96
322.564	50.66
323.03	45.16
323.496	36.76
323.962	36.56
324.427	40.36
324.893	51.06
325.359	40.86
325.824	37.16
326.29	40.76
326.755	41.76
327.221	42.86
327.686	40.26
328.152	47.46
328.617	40.56
329.083	45.36
329.548	52.06
330.014	51.76
330.479	41.76
330.944	44.36
331.41	43.86
331.875	46.96
332.34	43.76
332.805	48.76
333.271	48.96
333.736	55.06
334.201	57.36
334.666	55.66
335.131	59.56
335.596	53.86
336.061	55.96
336.526	41.66
336.991	50.26
337.456	56.26
337.921	51.76
338.386	45.86
338.851	46.56
339.316	52.26
339.781	46.56
340.246	52.36
340.711	47.56
341.175	46.56
341.64	45.06
342.105	53.56
342.569	55.76
343.034	61.26
343.499	54.26
343.963	54.16
344.428	65.86
344.893	62.36
345.357	58.16
345.822	57.66
346.286	72.16
346.751	78.06
347.215	70.96
347.679	71.76
348.144	98.46
348.608	85.66
349.073	73.56
349.537	72.76
350.001	76.66
350.465	86.76
350.93	84.36
351.394	86.36
351.858	78.16
352.322	86.86
352.786	81.96
353.25	98.66
353.715	110.56
354.179	98.96
354.643	124.46
355.107	131.36
355.571	110.06
356.035	99.46
356.498	119.26
356.962	123.66
357.426	135.46
357.89	118.76
358.354	93.46
358.818	86.36
359.281	82.36
359.745	77.76
360.209	76.46
360.673	76.16
361.136	80.26
361.6	83.26
362.064	84.06
362.527	82.76
362.991	93.16
363.454	88.16
363.918	81.86
364.381	83.26
364.845	74.66
365.308	83.56
365.772	89.56
366.235	86.46
366.698	81.26
367.162	86.46
367.625	92.26
368.088	92.16
368.552	90.86
369.015	84.26
369.478	96.16
369.941	100.06
370.404	101.36
370.867	102.56
371.331	110.26
371.794	119.16
372.257	113.36
372.72	116.76
373.183	112.16
373.646	108.66
374.109	111.86
374.572	115.26
375.035	106.66
375.497	109.26
375.96	101.36
376.423	103.06
376.886	114.56
377.349	115.46
377.811	102.56
378.274	103.96
378.737	112.56
379.199	110.66
379.662	110.86
380.125	119.96
380.587	113.06
381.05	119.26
381.512	129.26
381.975	131.66
382.437	126.06
382.9	121.66
383.362	130.76
383.825	140.26
384.287	146.46
384.75	142.56
385.212	141.86
385.674	142.36
386.136	136.66
386.599	124.96
387.061	130.76
387.523	123.16
387.985	131.76
388.447	142.76
388.91	146.36
389.372	154.16
389.834	152.26
390.296	143.16
390.758	156.76
391.22	166.66
391.682	210.56
392.144	292.06
392.606	232.26
393.068	168.66
393.529	163.46
393.991	155.76
394.453	141.06
394.915	154.36
395.377	191.86
395.838	209.16
396.3	148.56
396.762	143.56
397.224	136.76
397.685	125.36
398.147	131.36
398.608	129.46
399.07	132.96
399.531	128.06
399.993	138.46
400.454	149.26
400.916	140.86
401.377	145.56
401.839	150.76
402.3	156.46
402.762	170.76
403.223	183.56
403.684	175.06
404.145	161.66
404.607	161.66
405.068	167.36
405.529	170.16
405.99	182.36
406.451	175.76
406.913	175.56
407.374	162.06
407.835	158.36
408.296	168.56
408.757	169.66
409.218	184.36
409.679	183.46
410.14	174.76
410.601	176.76
411.062	179.76
411.522	188.76
411.983	189.56
412.444	176.16
412.905	179.16
413.366	182.36
413.826	188.36
414.287	212.66
414.748	254.16
415.208	242.56
415.669	206.56
416.13	201.76
416.59	204.66
417.051	210.06
417.511	221.76
417.972	228.16
418.432	240.96
418.893	282.66
419.353	244.16
419.814	189.66
420.274	184.96
420.734	183.06
421.195	190.36
421.655	194.66
422.115	189.36
422.576	188.76
423.036	192.76
423.496	204.56
423.956	212.26
424.416	228.46
424.876	253.16
425.336	253.96
425.797	265.86
426.257	258.36
426.717	243.56
427.177	229.96
427.637	220.76
428.097	232.76
428.556	245.06
429.016	266.36
429.476	266.36
429.936	271.86
430.396	275.66
430.856	290.66
431.315	314.36
431.775	346.46
432.235	371.96
432.694	345.56
433.154	358.96
433.614	391.86
434.073	329.86
434.533	275.46
434.993	265.96
435.452	275.76
435.912	298.26
436.371	282.76
436.83	281.86
437.29	273.06
437.749	244.86
438.209	242.76
438.668	270.26
439.127	286.06
439.587	261.66
440.046	243.86
440.505	257.86
440.964	274.36
441.424	315.66
441.883	309.86
442.342	254.86
442.801	220.86
443.26	206.06
443.719	206.76
444.178	216.96
444.637	207.76
445.096	213.86
445.555	218.56
446.014	217.76
446.473	226.76
446.932	226.36
447.391	226.16
447.849	221.86
448.308	215.36
448.767	222.16
449.226	231.76
449.685	231.66
450.143	247.16
450.602	232.16
451.061	220.36
451.519	230.76
451.978	229.56
452.436	229.56
452.895	235.96
453.353	251.46
453.812	232.06
454.27	237.76
454.729	232.76
455.187	234.36
455.646	242.66
456.104	246.96
456.562	252.76
457.021	259.26
457.479	259.26
457.937	264.66
458.395	258.06
458.854	246.66
459.312	252.26
459.77	265.76
460.228	248.66
460.686	235.16
461.144	247.86
461.602	238.86
462.06	230.46
462.518	244.36
462.976	247.16
463.434	249.86
463.892	264.26
464.35	272.26
464.808	279.86
465.266	260.56
465.724	265.76
466.181	265.06
466.639	268.76
467.097	285.86
467.555	296.06
468.012	297.36
468.47	305.66
468.928	324.56
469.385	331.46
469.843	341.46
470.3	341.86
470.758	355.86
471.215	379.16
471.673	394.76
472.13	394.86
472.588	415.16
473.045	369.36
473.503	373.66
473.96	388.06
474.417	391.66
474.875	423.46
475.332	475.86
475.789	455.06
476.246	458.36
476.704	472.86
477.161	500.06
477.618	526.56
478.075	554.96
478.532	613.16
478.989	689.96
479.446	804.26
479.903	762.56
480.36	797.76
480.817	863.86
481.274	967.16
481.731	1080.56
482.188	1158.56
482.645	1311.06
483.102	1435.76
483.558	1544.86
484.015	1609.26
484.472	1573.16
484.929	1524.06
485.385	1474.36
485.842	1437.46
486.299	1357.76
486.755	1303.76
487.212	1097.46
487.668	919.76
488.125	844.76
488.582	772.86
489.038	746.36
489.494	702.96
489.951	675.66
490.407	667.36
490.864	633.06
491.32	642.86
491.776	635.36
492.233	636.06
492.689	592.56
493.145	591.76
493.602	585.16
494.058	609.66
494.514	609.86
494.97	626.46
495.426	636.46
495.882	611.16
496.338	607.46
496.794	623.76
497.251	615.76
497.707	633.26
498.163	626.36
498.618	645.86
499.074	637.76
499.53	674.66
499.986	666.96
500.442	643.56
500.898	630.36
501.354	617.46
501.809	631.26
502.265	639.86
502.721	649.56
503.177	666.16
503.632	657.56
504.088	662.36
504.543	705.96
504.999	698.96
505.455	648.06
505.91	620.56
506.366	631.56
506.821	619.26
507.277	611.66
507.732	613.66
508.187	612.16
508.643	621.46
509.098	625.96
509.553	641.76
510.009	651.66
510.464	649.76
510.919	673.16
511.375	673.06
511.83	693.26
512.285	717.16
512.74	754.26
513.195	775.96
513.65	766.16
514.105	759.66
514.56	764.36
515.015	783.16
515.47	804.26
515.925	784.96
516.38	774.96
516.835	786.86
517.29	783.76
517.745	770.46
518.2	746.16
518.655	731.06
519.109	731.26
519.564	724.56
520.019	719.46
520.474	715.46
520.928	715.36
521.383	704.76
521.838	693.56
522.292	701.56
522.747	695.66
523.201	688.16
523.656	671.76
524.11	669.96
524.565	683.36
525.019	686.06
525.474	680.16
525.928	684.86
526.382	678.76
526.837	690.56
527.291	697.76
527.745	682.76
528.2	692.56
528.654	680.56
529.108	679.06
529.562	679.46
530.016	675.46
530.47	678.06
530.925	678.36
531.379	687.86
531.833	692.26
532.287	691.26
532.741	688.36
533.195	697.26
533.649	697.36
534.103	704.66
534.556	694.36
535.01	693.46
535.464	692.46
535.918	707.96
536.372	718.26
536.826	700.66
537.279	688.26
537.733	703.76
538.187	708.76
538.64	705.96
539.094	714.16
539.548	715.36
540.001	714.36
540.455	713.56
540.908	719.56
541.362	730.06
541.815	728.96
542.269	737.36
542.722	746.76
543.175	759.96
543.629	748.86
544.082	770.16
544.536	767.76
544.989	766.26
545.442	773.86
545.895	781.16
546.349	777.06
546.802	767.96
547.255	782.86
547.708	777.26
548.161	794.76
548.614	801.26
549.067	812.06
549.52	791.86
549.973	789.06
550.426	783.86
550.879	774.76
551.332	787.46
551.785	790.16
552.238	792.26
552.691	805.86
553.144	815.66
553.596	816.46
554.049	837.16
554.502	863.06
554.955	891.66
555.407	890.86
555.86	881.16
556.313	871.16
556.765	863.66
557.218	866.36
557.67	858.86
558.123	852.86
558.576	854.86
559.028	850.16
559.48	859.86
559.933	853.56
560.385	818.46
560.838	786.86
561.29	757.36
561.742	773.56
562.195	743.26
562.647	740.26
563.099	752.46
563.551	761.06
564.004	763.26
564.456	742.66
564.908	738.86
565.36	727.46
565.812	721.86
566.264	706.16
566.716	706.06
567.168	702.66
567.62	703.86
568.072	684.86
568.524	667.66
568.976	672.56
569.428	656.96
569.88	652.36
570.332	666.66
570.784	666.16
571.235	670.36
571.687	665.76
572.139	674.66
572.59	687.76
573.042	684.76
573.494	692.96
573.945	680.16
574.397	673.46
574.849	670.66
575.3	664.16
575.752	666.46
576.203	650.56
576.655	656.86
577.106	651.06
577.557	642.36
578.009	648.76
578.46	640.56
578.912	646.36
579.363	642.46
579.814	652.16
580.265	646.46
580.717	646.66
581.168	647.96
581.619	661.06
582.07	648.56
582.521	644.26
582.972	642.76
583.423	653.16
583.875	659.76
584.326	686.66
584.777	721.46
585.227	795.26
585.678	889.36
586.129	983.16
586.58	1054.66
587.031	1147.46
587.482	1297.76
587.933	1502.86
588.384	1299.86
588.834	962.56
589.285	775.56
589.736	754.36
590.186	748.16
590.637	737.26
591.088	716.96
591.538	710.86
591.989	698.16
592.439	699.16
592.89	689.56
593.34	684.76
593.791	684.66
594.241	681.86
594.692	676.06
595.142	677.36
595.593	669.96
596.043	675.26
596.493	684.96
596.943	688.16
597.394	697.76
597.844	690.46
598.294	704.66
598.744	716.56
599.195	738.66
599.645	777.56
600.095	817.66
600.545	866.06
600.995	918.96
601.445	979.56
601.895	1050.66
602.345	1089.26
602.795	1056.46
603.245	1027.36
603.695	976.46
604.145	916.96
604.594	870.76
605.044	822.56
605.494	769.26
605.944	719.66
606.393	710.26
606.843	697.26
607.293	704.36
607.743	694.36
608.192	720.76
608.642	724.16
609.091	727.26
609.541	740.66
609.99	732.46
610.44	727.36
610.889	698.16
611.339	661.76
611.788	663.16
612.238	667.06
612.687	682.06
613.136	679.56
613.586	706.76
614.035	696.86
614.484	729.76
614.933	721.36
615.383	728.96
615.832	709.86
616.281	681.96
616.73	644.96
617.179	629.06
617.628	623.36
618.077	607.86
618.526	594.46
618.975	580.56
619.424	588.76
619.873	583.46
620.322	586.86
620.771	574.66
621.22	570.56
621.669	556.76
622.118	560.76
622.567	547.76
623.015	542.36
623.464	538.96
623.913	530.86
624.361	527.16
624.81	524.06
625.259	526.66
625.707	528.46
626.156	523.76
626.604	539.96
627.053	535.86
627.501	534.56
627.95	528.46
628.398	541.86
628.847	535.56
629.295	538.66
629.744	539.16
630.192	541.96
630.64	536.26
631.089	538.66
631.537	541.66
631.985	556.86
632.433	562.26
632.881	579.56
633.33	621.26
633.778	614.56
634.226	528.26
634.674	544.36
635.122	546.06
635.57	574.26
636.018	587.26
636.466	543.56
636.914	524.66
637.362	536.06
637.81	539.86
638.258	550.66
638.705	544.66
639.153	563.96
639.601	584.36
640.049	600.96
640.497	629.46
640.944	661.16
641.392	600.96
641.84	575.96
642.287	551.36
642.735	529.36
643.182	533.56
643.63	535.36
644.078	548.76
644.525	559.96
644.973	560.46
645.42	566.26
645.867	584.56
646.315	594.36
646.762	625.86
647.21	652.76
647.657	675.26
648.104	707.76
648.551	719.96
648.999	793.06
649.446	858.06
649.893	943.06
650.34	1088.76
650.787	1308.16
651.234	1627.96
651.682	2104.16
652.129	2911.36
652.576	4182.36
653.023	6219.96
653.47	8585.26
653.917	10787.26
654.363	12532.66
654.81	13948.36
655.257	13286.76
655.704	8659.66
656.151	5100.26
656.598	3276.76
657.044	2327.36
657.491	1771.36
657.938	1412.06
658.385	1181.66
658.831	1022.16
659.278	912.56
659.724	808.26
660.171	735.46
660.618	679.46
661.064	648.46
661.511	615.66
661.957	610.76
662.404	605.86
662.85	607.66
663.296	585.66
663.743	530.46
664.189	509.26
664.635	502.46
665.082	493.56
665.528	497.56
665.974	488.16
666.42	482.86
666.867	471.66
667.313	460.66
667.759	450.26
668.205	455.56
668.651	458.96
669.097	456.26
669.543	470.76
669.989	434.46
670.435	412.06
670.881	416.16
671.327	413.36
671.773	434.46
672.219	458.56
672.665	505.46
673.11	542.86
673.556	580.96
674.002	630.56
674.448	611.96
674.893	514.06
675.339	444.66
675.785	410.96
676.23	387.86
676.676	362.26
677.122	345.16
677.567	340.86
678.013	340.16
678.458	334.46
678.904	332.16
679.349	320.96
679.794	322.86
680.24	323.56
680.685	323.76
681.131	324.26
681.576	326.96
682.021	330.06
682.466	324.76
682.912	320.76
683.357	326.76
683.802	353.96
684.247	379.56
684.692	417.76
685.137	449.96
685.583	496.26
686.028	521.36
686.473	477.76
686.918	412.36
687.363	394.66
687.807	355.46
688.252	331.16
688.697	321.66
689.142	310.26
689.587	309.46
690.032	296.46
690.477	320.56
690.921	327.16
691.366	353.36
691.811	365.16
692.255	398.26
692.7	422.56
693.145	456.26
693.589	632.76
694.034	1020.66
694.478	1397.06
694.923	1602.46
695.367	2118.56
695.812	1113.86
696.256	463.36
696.701	347.76
697.145	323.56
697.59	307.26
698.034	297.86
698.478	302.26
698.922	311.96
699.367	298.26
699.811	312.96
700.255	334.06
700.699	347.46
701.143	399.26
701.588	437.36
702.032	479.16
702.476	478.96
702.92	450.76
703.364	447.76
703.808	571.66
704.252	929.46
704.696	1340.26
705.14	1542.86
705.584	1986.46
706.027	988.16
706.471	473.26
706.915	360.16
707.359	323.16
707.803	294.16
708.246	277.56
708.69	285.66
709.134	285.66
709.577	286.96
710.021	293.86
710.465	286.06
710.908	271.86
711.352	269.66
711.795	288.76
712.239	323.66
712.682	345.76
713.126	384.26
713.569	429.46
714.012	344.66
714.456	300.36
714.899	270.06
715.342	253.86
715.786	238.76
716.229	236.86
716.672	230.16
717.115	228.66
717.558	226.16
718.002	233.86
718.445	246.16
718.888	267.36
719.331	274.06
719.774	284.16
720.217	282.26
720.66	265.46
721.103	241.46
721.546	236.06
721.989	230.56
722.432	211.26
722.874	210.86
723.317	210.86
723.76	217.86
724.203	242.76
724.645	292.26
725.088	398.16
725.531	523.56
725.974	592.26
726.416	505.16
726.859	286.56
727.301	221.56
727.744	213.36
728.187	210.36
728.629	219.66
729.071	219.26
729.514	234.66
729.956	246.46
730.399	256.26
730.841	263.16
731.283	252.86
731.726	245.06
732.168	232.16
732.61	249.26
733.053	263.76
733.495	287.06
733.937	319.06
734.379	363.26
734.821	397.26
735.263	488.76
735.705	747.16
736.148	1406.16
736.59	2322.26
737.032	2832.96
737.474	2313.16
737.916	747.36
738.357	393.06
738.799	296.26
739.241	275.56
739.683	266.16
740.125	262.36
740.567	269.86
741.008	295.26
741.45	286.86
741.892	292.96
742.334	310.16
742.775	324.36
743.217	308.16
743.658	244.16
744.1	231.96
744.542	241.06
744.983	276.76
745.425	316.66
745.866	316.86
746.307	252.86
746.749	254.36
747.19	291.66
747.632	405.46
748.073	772.06
748.514	1662.56
748.956	2612.46
749.397	3254.66
749.838	2702.96
750.279	2751.46
750.72	1382.86
751.162	506.66
751.603	286.86
752.044	228.16
752.485	195.86
752.926	196.06
753.367	186.26
753.808	174.56
754.249	166.96
754.69	168.16
755.131	171.26
755.572	170.16
756.013	165.46
756.453	167.06
756.894	179.16
757.335	176.46
757.776	176.56
758.216	173.86
758.657	175.36
759.098	179.16
759.538	202.46
759.979	243.66
760.42	335.06
760.86	623.46
761.301	1597.36
761.741	3972.66
762.182	5963.16
762.622	4215.26
763.063	1207.46
763.503	495.86
763.943	311.46
764.384	303.46
764.824	394.86
765.264	420.46
765.705	289.86
766.145	191.96
766.585	167.86
767.025	165.66
767.465	172.26
767.906	223.56
768.346	302.46
768.786	320.06
769.226	234.16
769.666	288.36
770.106	541.16
770.546	1374.96
770.986	2438.96
771.426	2207.76
771.866	731.76
772.306	303.06
772.745	191.66
773.185	157.56
773.625	151.16
774.065	144.66
774.505	180.96
774.944	284.36
775.384	639.16
775.824	1193.06
776.263	1181.36
776.703	493.76
777.142	211.56
777.582	145.86
778.021	123.76
778.461	125.46
778.9	128.16
779.34	121.56
779.779	107.56
780.219	103.86
780.658	95.86
781.097	108.16
781.537	109.26
781.976	102.16
782.415	97.66
782.855	93.16
783.294	94.26
783.733	95.36
784.172	96.96
784.611	92.66
785.05	101.16
785.489	98.36
785.928	107.16
786.367	113.86
786.806	104.06
787.245	116.66
787.684	122.46
788.123	140.96
788.562	125.16
789.001	111.56
789.44	112.16
789.879	105.76
790.317	108.96
790.756	111.56
791.195	114.96
791.634	134.96
792.072	185.16
792.511	322.86
792.95	895.06
793.388	1954.86
793.827	1822.76
794.265	630.26
794.704	254.26
795.142	164.06
795.581	131.16
796.019	126.06
796.458	111.66
796.896	110.96
797.334	115.16
797.773	139.06
798.211	196.16
798.649	389.46
799.087	922.66
799.526	1445.66
799.964	1815.76
800.402	1877.66
800.84	692.56
801.278	273.06
801.716	164.66
802.154	143.46
802.592	138.26
803.03	121.36
803.468	126.66
803.906	129.06
804.344	134.86
804.782	127.36
805.22	118.46
805.658	115.76
806.096	130.46
806.533	145.16
806.971	156.26
807.409	194.36
807.847	284.16
808.284	583.86
808.722	1661.76
809.16	3002.46
809.597	2802.46
810.035	4907.46
810.472	5403.66
810.91	1934.76
811.347	730.96
811.785	360.36
812.222	230.36
812.66	171.96
813.097	142.26
813.535	130.16
813.972	114.86
814.409	109.16
814.846	98.46
815.284	99.46
815.721	95.26
816.158	97.26
816.595	106.36
817.032	165.46
817.47	183.16
817.907	164.76
818.344	137.96
818.781	107.36
819.218	92.36
819.655	113.56
820.092	163.16
820.529	199.06
820.966	165.26
821.403	123.06
821.839	97.06
822.276	97.56
822.713	113.16
823.15	119.66
823.587	100.56
824.023	132.06
824.46	259.96
824.897	803.06
825.333	1263.46
825.77	540.36
826.206	206.96
826.643	123.06
827.08	93.76
827.516	76.36
827.953	74.96
828.389	75.46
828.825	67.56
829.262	58.66
829.698	49.26
830.135	54.66
830.571	57.66
831.007	56.76
831.443	57.06
831.88	53.06
832.316	57.46
832.752	62.06
833.188	62.06
833.624	54.86
834.06	64.46
834.497	59.06
834.933	65.46
835.369	62.96
835.805	62.46
836.241	69.76
836.677	70.76
837.112	84.56
837.548	91.06
837.984	116.06
838.42	176.26
838.856	439.56
839.292	1348.06
839.727	2135.16
840.163	991.96
840.599	827.26
841.034	1841.76
841.47	1978.56
841.906	711.86
842.341	302.66
842.777	216.86
843.212	292.46
843.648	303.56
844.083	144.46
844.519	86.96
844.954	70.36
845.39	56.36
845.825	56.36
846.261	52.76
846.696	48.36
847.131	48.26
847.566	54.86
848.002	50.26
848.437	50.66
848.872	53.56
849.307	59.86
849.742	82.06
850.177	156.26
850.613	493.66
851.048	811.46
851.483	349.66
851.918	139.06
852.353	74.56
852.788	60.96
853.223	47.16
853.657	50.46
854.092	43.46
854.527	37.76
854.962	38.76
855.397	45.96
855.832	43.16
856.266	35.36
856.701	39.26
857.136	35.06
857.57	40.36
858.005	37.86
858.44	55.26
858.874	38.86
859.309	49.06
859.743	30.86
860.178	45.96
860.612	40.56
861.047	45.26
861.481	61.26
861.915	69.96
862.35	45.56
862.784	34.16
863.218	39.26
863.653	27.76
864.087	37.96
864.521	50.36
864.955	65.56
865.39	143.06
865.824	162.56
866.258	104.56
866.692	149.96
867.126	156.16
867.56	90.36
867.994	45.26
868.428	30.46
868.862	35.16
869.296	50.26
869.73	52.06
870.164	49.46
870.598	46.56
871.031	30.26
871.465	30.66
871.899	25.76
872.333	16.76
872.766	19.86
873.2	18.66
873.634	26.56
874.067	19.06
874.501	20.36
874.935	31.86
875.368	27.46
875.802	23.76
876.235	18.56
876.669	24.06
877.102	20.36
877.535	23.46
877.969	16.36
878.402	19.66
878.836	16.06
879.269	22.46
879.702	20.76
880.135	18.26
880.569	19.36
881.002	28.46
881.435	17.66
881.868	13.86
882.301	16.06
882.734	13.66
883.167	22.06
883.601	14.36
884.034	20.86
884.467	10.36
884.899	16.96
885.332	11.86
885.765	15.66
886.198	12.36
886.631	15.46
887.064	16.66
887.497	17.66
887.929	25.06
888.362	15.66
888.795	11.36
889.228	18.26
889.66	18.06
890.093	12.36
890.526	16.96
890.958	11.96
891.391	12.56
891.823	20.56
892.256	16.46
892.688	15.06
893.121	13.56
893.553	18.76
893.985	23.46
894.418	16.06
894.85	12.36
895.282	11.56
895.715	15.16
896.147	16.96
896.579	13.06
897.011	12.26
897.444	13.86
897.876	8.16
898.308	15.26
898.74	13.86
899.172	14.06
899.604	20.46
900.036	20.16
900.468	13.16
900.9	9.86
901.332	7.66
901.764	13.46
902.196	21.76
902.628	15.96
903.06	19.26
903.491	30.66
903.923	23.36
904.355	20.56
904.787	22.66
905.218	17.76
905.65	24.36
906.082	12.06
906.513	12.76
906.945	16.86
907.376	9.86
907.808	16.26
908.239	21.06
908.671	16.96
909.102	18.86
909.534	21.16
909.965	41.36
910.397	80.46
910.828	287.46
911.259	441.86
911.691	198.76
912.122	93.56
912.553	49.16
912.984	35.16
913.415	16.76
913.847	22.86
914.278	12.26
914.709	16.16
915.14	17.96
915.571	17.86
916.002	13.06
916.433	20.06
916.864	18.56
917.295	10.66
917.726	16.86
918.157	15.46
918.587	25.66
919.018	19.56
919.449	19.06
919.88	23.66
920.311	30.76
920.741	41.86
921.172	155.76
921.603	134.66
922.033	66.16
922.464	34.16
922.895	16.96
923.325	20.26
923.756	15.26
924.186	10.06
924.617	24.86
925.047	42.56
925.478	52.26
925.908	41.16
926.338	20.56
926.769	21.26
927.199	18.86
927.629	3.96
928.06	14.76
928.49	12.36
928.92	13.36
929.35	5.26
929.78	7.46
930.21	10.56
930.641	12.06
931.071	7.36
931.501	-2.44
931.931	14.86
932.361	7.56
932.791	2.66
933.221	6.06
933.651	0.76
934.08	17.56
934.51	25.56
934.94	7.46
935.37	6.86
935.8	4.86
936.229	7.76
936.659	7.76
937.089	-0.54
937.519	17.66
937.948	22.76
938.378	11.76
938.807	1.56
939.237	-0.74
939.666	9.06
940.096	-8.24
940.525	8.06
940.955	-4.64
941.384	0.46
941.814	-4.54
942.243	-3.64
942.672	0.96
943.102	-1.84
943.531	-1.14
943.96	6.06
944.39	1.66
944.819	-1.04
945.248	0.86
945.677	-0.44
946.106	6.16
946.535	1.86
946.964	-4.14
947.393	3.76
947.822	-2.34
948.251	-5.04
948.68	8.36
949.109	2.96
949.538	5.56
949.967	4.16
950.396	4.96
950.825	-0.34
951.254	2.66
951.682	-6.04
952.111	3.56
952.54	6.96
952.969	-1.34
953.397	0.56
953.826	-4.64
954.254	-7.24
954.683	-5.74
955.112	-0.34
955.54	-0.24
955.969	-2.64
956.397	-6.14
956.826	-2.24
957.254	5.76
957.682	-4.64
958.111	8.46
958.539	1.26
958.967	-3.04
959.396	2.46
959.824	1.06
960.252	0.36
960.68	-4.24
961.109	3.46
961.537	-5.54
961.965	4.56
962.393	4.36
962.821	-7.94
963.249	-3.94
963.677	0.46
964.105	4.26
964.533	38.96
964.961	42.76
965.389	21.96
965.817	3.46
966.245	-2.14
966.672	-4.14
967.1	-9.84
967.528	-0.74
967.956	-2.94
968.383	0.66
968.811	-4.44
969.239	-2.04
969.666	-0.64
970.094	-2.14
970.522	-2.74
970.949	-1.34
971.377	-0.94
971.804	-4.04
972.232	-2.74
972.659	-0.44
973.087	-8.64
973.514	-1.14
973.941	-6.04
974.369	5.96
974.796	-0.94
975.223	0.66
975.651	0.06
976.078	3.26
976.505	-1.84
976.932	1.26
977.359	12.26
977.786	13.86
978.214	2.06
978.641	-10.24
979.068	-2.04
979.495	-6.24
979.922	-6.14
980.349	-5.24
980.776	6.16
981.202	3.96
981.629	0.56
982.056	0.06
982.483	-4.54
982.91	1.76
983.337	-7.34
983.763	2.96
984.19	-6.44
984.617	-7.84
985.043	-11.04
985.47	-3.84
985.897	-3.44
986.323	-7.74
986.75	-2.04
987.176	-1.64
987.603	1.66
988.029	0.76
988.456	-0.14
988.882	-3.64
989.308	-6.44
989.735	-7.54
990.161	-3.64
990.587	-1.74
991.014	-4.34
991.44	5.26
991.866	-1.74
992.292	-5.54
992.719	-2.24
993.145	-0.84
993.571	-12.44
993.997	-8.84
994.423	-3.04
994.849	-2.04
995.275	-0.44
995.701	-4.84
996.127	-3.34
996.553	0.86
996.979	-2.14
997.405	-4.24
997.83	-5.84
998.256	-4.64
998.682	-1.54
999.108	-9.44
999.534	0.56
999.959	-5.44
1000.385	-4.44
1000.811	4.96
1001.236	-12.24
1001.662	-12.54
1002.087	-12.54
1002.513	0.36
1002.938	-2.44
1003.364	-1.24
1003.789	-1.24
1004.215	3.26
1004.64	-3.04
1005.066	0.06
1005.491	-0.44
1005.916	-4.44
1006.342	-5.84
1006.767	-9.54
1007.192	3.66
1007.617	-3.84
1008.042	-4.14
1008.468	-7.54
1008.893	-5.04
1009.318	1.96
1009.743	2.66
1010.168	-2.14
1010.593	-2.44
1011.018	-10.34
1011.443	-2.34
1011.868	-0.14
1012.293	-4.44
1012.718	-7.34
1013.143	-3.34
1013.567	3.76
1013.992	-5.44
1014.417	-14.44
1014.842	-1.44
1015.267	-1.34
1015.691	-3.74
1016.116	0.46
1016.541	-4.84
1016.965	1.86
1017.39	0.26
1017.814	-5.14
1018.239	1.56
1018.663	-8.24
1019.088	-10.44
1019.512	-5.34
1019.937	-1.84
1020.361	-2.74
1020.785	-13.44
1021.21	-0.14
1021.634	-3.14
1022.058	-1.94
1022.483	0.96
1022.907	-6.44
1023.331	-0.54
1023.755	-3.84
1024.179	-7.04
1024.604	-11.54
1025.028	-7.14
1025.452	-7.14
1025.876	-2.94
1026.3	-5.74
1026.724	-11.34
1027.148	1.66
1027.572	-9.34
1027.996	-5.64
1028.42	-4.44
1028.843	0.66
1029.267	-7.54
1029.691	-2.14
1030.115	-7.34
1030.539	-7.34
1030.962	-5.64
1031.386	-8.64
1031.81	-0.34
1032.233	-1.04
1032.657	-5.54
1033.08	-0.84
1033.504	-1.94
1033.927	-2.54
1034.351	-2.34
1034.774	-6.44
1035.198	0.96
1035.621	-8.64
1036.045	-2.54
1036.468	1.16
1036.891	-11.94
1037.315	-5.34
1037.738	-13.94
1038.161	1.76
1038.584	-6.14
1039.008	-8.04
1039.431	-1.44
1039.854	-7.94
1040.277	-9.94
1040.7	-16.64
1041.123	-2.34
1041.546	-8.24
1041.969	-3.14
1042.392	-5.04
1042.815	-1.34
1043.238	2.16
1043.661	0.96
1044.084	-10.44
1044.507	-9.34
1044.93	-5.04
1045.352	-10.24
1045.775	-0.94
1046.198	-2.54
1046.621	-0.74
1047.043	-0.04
1047.466	7.26
1047.889	-0.34
1048.311	-4.14
1048.734	-6.44
1049.156	-6.14
1049.579	-3.54
1050.001	-7.94
1050.424	1.46
1050.846	-7.14
1051.269	-0.84
1051.691	-9.34
1052.113	-6.04
1052.536	-0.34
1052.958	-4.44
1053.38	-7.54
1053.802	-6.64
1054.225	5.46
1054.647	-10.14
1055.069	-5.44
1055.491	-0.34
1055.913	-7.54
1056.335	-4.34
1056.757	-1.94
1057.179	-6.34
1057.601	-7.54
1058.023	1.46
1058.445	-7.54
1058.867	-7.34
1059.289	-3.04
1059.711	-11.54
1060.133	0.06
1060.555	-4.74
1060.976	-4.34
1061.398	-9.44
1061.82	-10.74
1062.241	-5.34
1062.663	-9.44
1063.085	-3.54
1063.506	0.96
1063.928	-2.54
1064.35	5.86
1064.771	-14.34
1065.193	-3.74
1065.614	-10.34
1066.035	-2.54
1066.457	-3.04
1066.878	0.16
1067.3	-5.54
1067.721	-0.64
1068.142	-4.24
1068.564	0.36
1068.985	-8.84
1069.406	-9.64
1069.827	-11.64
1070.248	0.76
1070.67	-11.54
1071.091	-3.14
1071.512	-3.34
1071.933	-6.54
1072.354	-9.94
1072.775	-3.84
1073.196	-6.04
1073.617	-6.34
1074.038	-9.64
1074.459	-4.84
1074.88	-8.44
1075.3	-2.74
1075.721	-9.64
1076.142	0.06
1076.563	0.16
1076.983	-7.74
1077.404	-9.54
1077.825	-10.04
1078.246	-7.24
1078.666	-13.64
1079.087	-7.24
1079.507	-5.54
1079.928	2.46
1080.348	4.26
1080.769	-7.64
1081.189	-0.84
1081.61	-1.84
1082.03	-3.44
1082.451	-6.54
1082.871	0.66
1083.291	-5.84
1083.711	-9.94
1084.132	-10.84
1084.552	-5.54
1084.972	-5.04
1085.392	-8.14
1085.813	-7.44
1086.233	-4.04
1086.653	-9.84
1087.073	-0.74
1087.493	-10.34
1087.913	-9.54
1088.333	-5.54
1088.753	-9.54
1089.173	-1.94
1089.593	-1.94
1090.013	-6.64
1090.433	1.66
1090.852	-3.44
1091.272	-9.04
1091.692	0.06
1092.112	-2.14
1092.531	-12.14
1092.951	-8.84
1093.371	-5.24
1093.79	-0.44
1094.21	-9.44
1094.63	-11.74
1095.049	-10.84
1095.469	-1.54
1095.888	-7.54
1096.308	2.76
1096.727	2.66
1097.146	-5.34
1097.566	0.36
1097.985	-6.94
1098.405	-0.34
1098.824	-6.04
1099.243	-5.84
1099.662	-7.74
1100.082	-8.34
1100.501	-1.64
1100.92	-12.64
1101.339	-6.94
1101.758	-4.94
