Data from 20171114-ORNL-Ar_H_NY_Subt18_08-04-19-533.txt Node
Date: Tue Nov 14 08:04:19 EST 2017
User: Ender
Spectrometer: HR+D1039
Trigger mode: 0
Integration Time (sec): 2.730000E-2
Scans to average: 10
Electric dark correction enabled: true
Nonlinearity correction enabled: false
Boxcar width: 0
XAxis mode: Wavelengths
Number of Pixels in Spectrum: 2048
>>>>>Begin Spectral Data<<<<<
187.836	-2.93
188.309	-2.93
188.782	-2.93
189.255	-0.13
189.728	1.67
190.201	3.97
190.674	5.87
191.147	2.37
191.619	-4.23
192.092	-4.53
192.565	1.57
193.038	4.77
193.511	1.17
193.984	3.37
194.456	-1.12
194.929	-1.83
195.402	-5.13
195.874	-4.93
196.347	-1.53
196.82	-7.03
197.292	5.17
197.765	0.27
198.237	-3.23
198.71	-1.53
199.182	2.17
199.655	0.67
200.127	6.97
200.6	-5.73
201.072	2.67
201.544	-5.83
202.017	-8.93
202.489	-0.93
202.961	-1.23
203.433	2.67
203.906	-7.23
204.378	-3.52
204.85	-3.33
205.322	-7.63
205.794	-7.43
206.266	-3.03
206.739	-5.93
207.211	0.38
207.683	-2.33
208.155	-5.93
208.627	-8.03
209.099	-2.23
209.57	-8.43
210.042	-2.93
210.514	-0.33
210.986	-3.03
211.458	-8.23
211.93	-1.43
212.402	0.67
212.873	-2.43
213.345	-5.83
213.817	-11.03
214.288	-0.13
214.76	-10.13
215.232	-5.43
215.703	-9.12
216.175	-0.33
216.646	-3.03
217.118	-5.43
217.589	-11.62
218.061	-0.43
218.532	-0.93
219.004	-6.83
219.475	-9.62
219.946	-3.03
220.418	-4.83
220.889	-1.03
221.36	-0.12
221.832	-6.23
222.303	-5.53
222.774	-1.33
223.245	-10.52
223.717	-4.63
224.188	-6.03
224.659	-3.63
225.13	-8.43
225.601	-1.93
226.072	-5.43
226.543	-1.03
227.014	-3.73
227.485	-1.53
227.956	-3.93
228.427	-4.53
228.898	2.27
229.369	4.27
229.839	-0.23
230.31	-5.43
230.781	2.17
231.252	0.67
231.722	-0.33
232.193	-3.23
232.664	0.07
233.135	4.07
233.605	-3.43
234.076	-1.53
234.546	1.57
235.017	5.07
235.487	2.87
235.958	-1.83
236.428	0.87
236.899	2.67
237.369	3.98
237.84	0.87
238.31	3.27
238.78	1.38
239.251	2.48
239.721	1.38
240.191	3.57
240.662	2.57
241.132	-1.43
241.602	-3.23
242.072	-3.93
242.542	11.27
243.013	1.97
243.483	5.17
243.953	2.88
244.423	6.57
244.893	0.87
245.363	5.67
245.833	2.77
246.303	-5.83
246.773	2.27
247.243	1.67
247.712	-0.33
248.182	1.17
248.652	7.27
249.122	-1.23
249.592	12.87
250.061	20.87
250.531	36.38
251.001	17.27
251.471	23.97
251.94	25.67
252.41	6.27
252.879	0.47
253.349	12.07
253.818	12.07
254.288	2.38
254.757	3.77
255.227	0.57
255.696	-2.23
256.166	5.07
256.635	2.47
257.105	13.77
257.574	7.87
258.043	5.98
258.513	15.67
258.982	15.98
259.451	10.17
259.92	16.17
260.389	13.67
260.859	15.97
261.328	10.48
261.797	12.48
262.266	7.77
262.735	9.48
263.204	6.47
263.673	-0.53
264.142	2.27
264.611	0.67
265.08	-4.03
265.549	-2.62
266.018	6.17
266.487	5.37
266.955	5.57
267.424	4.27
267.893	10.07
268.362	-4.23
268.83	2.87
269.299	10.57
269.768	7.17
270.236	12.27
270.705	10.77
271.174	6.88
271.642	6.67
272.111	5.57
272.579	11.57
273.048	21.87
273.516	31.47
273.985	27.07
274.453	25.47
274.922	19.97
275.39	13.27
275.858	5.27
276.327	10.87
276.795	21.27
277.263	10.27
277.731	27.97
278.2	51.57
278.668	56.88
279.136	51.37
279.604	19.07
280.072	15.57
280.54	16.38
281.008	5.27
281.477	20.07
281.945	13.27
282.413	15.77
282.881	21.47
283.348	11.98
283.816	14.57
284.284	9.67
284.752	22.37
285.22	6.07
285.688	14.37
286.156	12.88
286.623	46.07
287.091	48.77
287.559	33.17
288.026	14.97
288.494	17.47
288.962	6.87
289.429	8.97
289.897	18.88
290.364	15.87
290.832	21.27
291.3	13.97
291.767	21.17
292.234	14.77
292.702	15.47
293.169	17.57
293.637	20.47
294.104	13.27
294.571	10.17
295.039	14.67
295.506	11.97
295.973	18.97
296.44	12.27
296.908	22.77
297.375	15.17
297.842	17.17
298.309	17.27
298.776	14.38
299.243	24.77
299.71	8.27
300.177	22.67
300.644	23.67
301.111	20.98
301.578	17.27
302.045	13.47
302.512	25.47
302.979	20.38
303.446	25.97
303.913	16.77
304.379	19.77
304.846	27.48
305.313	28.17
305.78	18.27
306.246	25.37
306.713	19.97
307.18	24.88
307.646	27.37
308.113	23.57
308.579	25.87
309.046	24.17
309.512	22.98
309.979	20.27
310.445	21.47
310.912	25.47
311.378	29.77
311.845	26.88
312.311	23.37
312.777	30.07
313.244	22.98
313.71	29.87
314.176	31.38
314.642	28.37
315.109	25.47
315.575	35.17
316.041	39.57
316.507	31.77
316.973	37.47
317.439	28.27
317.905	34.98
318.371	31.57
318.837	31.57
319.303	35.37
319.769	34.98
320.235	36.67
320.701	35.47
321.167	36.77
321.633	30.07
322.099	34.87
322.564	36.07
323.03	35.57
323.496	37.88
323.962	37.98
324.427	33.97
324.893	35.37
325.359	41.07
325.824	43.27
326.29	35.37
326.755	33.97
327.221	36.57
327.686	37.07
328.152	37.48
328.617	37.97
329.083	43.67
329.548	47.07
330.014	42.07
330.479	42.27
330.944	35.37
331.41	37.97
331.875	40.77
332.34	42.47
332.805	38.27
333.271	47.67
333.736	44.37
334.201	53.77
334.666	53.47
335.131	50.87
335.596	47.37
336.061	39.37
336.526	37.87
336.991	44.07
337.456	51.17
337.921	47.97
338.386	42.77
338.851	45.97
339.316	41.97
339.781	40.57
340.246	45.47
340.711	45.27
341.175	42.27
341.64	39.67
342.105	42.57
342.569	55.17
343.034	51.07
343.499	45.57
343.963	51.17
344.428	59.77
344.893	60.37
345.357	55.37
345.822	60.97
346.286	59.37
346.751	64.98
347.215	59.07
347.679	69.38
348.144	89.47
348.608	77.57
349.073	69.47
349.537	69.07
350.001	69.17
350.465	84.47
350.93	75.37
351.394	75.07
351.858	64.88
352.322	82.27
352.786	77.17
353.25	89.57
353.715	99.47
354.179	97.37
354.643	107.17
355.107	113.27
355.571	98.27
356.035	95.07
356.498	108.57
356.962	110.57
357.426	116.77
357.89	105.77
358.354	81.57
358.818	71.87
359.281	74.48
359.745	71.57
360.209	70.77
360.673	68.57
361.136	66.98
361.6	75.17
362.064	77.88
362.527	78.27
362.991	85.47
363.454	74.97
363.918	76.37
364.381	71.97
364.845	80.87
365.308	78.77
365.772	85.67
366.235	84.17
366.698	77.57
367.162	81.57
367.625	77.57
368.088	78.17
368.552	74.97
369.015	81.47
369.478	88.77
369.941	94.27
370.404	85.27
370.867	100.27
371.331	95.97
371.794	107.27
372.257	97.07
372.72	108.57
373.183	100.77
373.646	92.57
374.109	99.17
374.572	96.57
375.035	91.77
375.497	103.97
375.96	99.27
376.423	95.67
376.886	103.67
377.349	96.47
377.811	89.77
378.274	96.17
378.737	94.47
379.199	99.27
379.662	100.77
380.125	101.67
380.587	104.88
381.05	118.77
381.512	121.47
381.975	118.87
382.437	120.27
382.9	111.87
383.362	120.87
383.825	129.38
384.287	133.87
384.75	130.37
385.212	115.77
385.674	127.07
386.136	125.07
386.599	108.97
387.061	112.17
387.523	121.67
387.985	128.17
388.447	131.87
388.91	128.97
389.372	142.77
389.834	135.97
390.296	133.57
390.758	139.97
391.22	148.87
391.682	190.88
392.144	261.08
392.606	204.97
393.068	143.17
393.529	148.77
393.991	143.97
394.453	136.37
394.915	146.17
395.377	163.47
395.838	194.77
396.3	145.37
396.762	128.17
397.224	122.47
397.685	122.27
398.147	117.48
398.608	121.67
399.07	117.67
399.531	120.67
399.993	131.67
400.454	137.67
400.916	129.47
401.377	126.88
401.839	134.57
402.3	131.37
402.762	146.47
403.223	161.27
403.684	153.77
404.145	154.77
404.607	145.37
405.068	149.77
405.529	151.27
405.99	166.47
406.451	157.77
406.913	155.87
407.374	148.97
407.835	140.07
408.296	153.38
408.757	153.47
409.218	172.67
409.679	158.27
410.14	158.27
410.601	161.07
411.062	169.38
411.522	172.27
411.983	165.77
412.444	155.38
412.905	163.17
413.366	163.67
413.826	177.37
414.287	201.38
414.748	239.17
415.208	228.17
415.669	195.77
416.13	186.47
416.59	180.97
417.051	198.37
417.511	203.07
417.972	217.57
418.432	227.27
418.893	265.58
419.353	230.77
419.814	180.17
420.274	168.47
420.734	165.07
421.195	171.27
421.655	181.57
422.115	175.47
422.576	171.17
423.036	178.77
423.496	189.17
423.956	195.37
424.416	204.87
424.876	245.27
425.336	245.37
425.797	240.07
426.257	229.17
426.717	216.48
427.177	209.88
427.637	207.07
428.097	216.07
428.556	220.27
429.016	245.38
429.476	238.48
429.936	247.77
430.396	246.07
430.856	262.97
431.315	284.57
431.775	317.07
432.235	330.17
432.694	318.48
433.154	328.27
433.614	344.07
434.073	302.17
434.533	253.57
434.993	249.17
435.452	259.88
435.912	262.77
436.371	255.87
436.83	250.07
437.29	234.67
437.749	225.47
438.209	217.77
438.668	240.67
439.127	254.08
439.587	237.98
440.046	222.58
440.505	233.37
440.964	249.87
441.424	282.98
441.883	272.17
442.342	232.68
442.801	200.08
443.26	200.57
443.719	205.58
444.178	202.88
444.637	191.48
445.096	199.48
445.555	200.17
446.014	203.27
446.473	200.77
446.932	202.48
447.391	209.57
447.849	201.57
448.308	196.77
448.767	195.48
449.226	217.98
449.685	210.67
450.143	228.17
450.602	208.47
451.061	200.88
451.519	215.87
451.978	210.17
452.436	213.27
452.895	218.07
453.353	228.37
453.812	217.77
454.27	220.38
454.729	215.27
455.187	212.57
455.646	223.37
456.104	213.38
456.562	231.98
457.021	243.17
457.479	231.27
457.937	245.37
458.395	237.27
458.854	223.08
459.312	223.97
459.77	235.88
460.228	220.77
460.686	219.88
461.144	227.88
461.602	218.17
462.06	218.77
462.518	231.48
462.976	238.17
463.434	236.77
463.892	237.17
464.35	245.77
464.808	262.47
465.266	239.38
465.724	252.77
466.181	247.08
466.639	250.17
467.097	268.88
467.555	268.88
468.012	268.67
468.47	276.47
468.928	297.77
469.385	305.48
469.843	319.67
470.3	317.07
470.758	322.47
471.215	345.27
471.673	363.07
472.13	350.17
472.588	371.17
473.045	319.87
473.503	337.87
473.96	358.38
474.417	358.27
474.875	392.77
475.332	419.88
475.789	414.98
476.246	418.97
476.704	431.07
477.161	457.27
477.618	468.47
478.075	509.57
478.532	542.17
478.989	619.08
479.446	707.68
479.903	696.68
480.36	720.47
480.817	781.67
481.274	884.07
481.731	963.88
482.188	1057.88
482.645	1185.18
483.102	1288.28
483.558	1406.38
484.015	1455.97
484.472	1432.27
484.929	1396.88
485.385	1346.37
485.842	1317.67
486.299	1245.07
486.755	1159.37
487.212	983.78
487.668	835.47
488.125	774.57
488.582	717.18
489.038	683.38
489.494	640.98
489.951	612.97
490.407	608.98
490.864	587.87
491.32	587.47
491.776	579.38
492.233	576.37
492.689	542.97
493.145	543.57
493.602	540.47
494.058	546.97
494.514	546.37
494.97	574.87
495.426	575.97
495.882	555.47
496.338	549.27
496.794	553.97
497.251	566.47
497.707	576.27
498.163	576.57
498.618	578.57
499.074	580.38
499.53	615.48
499.986	610.07
500.442	585.98
500.898	562.98
501.354	568.17
501.809	567.87
502.265	578.97
502.721	591.27
503.177	602.48
503.632	596.88
504.088	600.67
504.543	633.17
504.999	632.08
505.455	588.97
505.91	569.17
506.366	564.67
506.821	565.17
507.277	563.07
507.732	559.27
508.187	564.07
508.643	578.67
509.098	571.77
509.553	586.07
510.009	595.98
510.464	610.17
510.919	627.67
511.375	626.98
511.83	647.37
512.285	663.67
512.74	687.08
513.195	710.38
513.65	696.18
514.105	696.17
514.56	704.87
515.015	720.48
515.47	732.77
515.925	719.87
516.38	719.97
516.835	710.77
517.29	702.87
517.745	701.37
518.2	688.27
518.655	678.37
519.109	664.87
519.564	659.07
520.019	663.77
520.474	657.27
520.928	663.07
521.383	647.57
521.838	641.07
522.292	638.47
522.747	634.67
523.201	623.17
523.656	619.67
524.11	616.68
524.565	616.17
525.019	620.67
525.474	633.07
525.928	630.68
526.382	625.07
526.837	623.67
527.291	626.27
527.745	618.27
528.2	624.17
528.654	624.27
529.108	614.97
529.562	619.57
530.016	610.68
530.47	619.38
530.925	618.97
531.379	621.88
531.833	641.98
532.287	634.87
532.741	629.87
533.195	633.57
533.649	638.67
534.103	642.47
534.556	629.27
535.01	633.07
535.464	628.57
535.918	645.98
536.372	643.57
536.826	648.17
537.279	628.17
537.733	632.38
538.187	642.07
538.64	641.67
539.094	645.17
539.548	645.48
540.001	642.97
540.455	642.47
540.908	641.27
541.362	657.47
541.815	668.17
542.269	667.07
542.722	670.47
543.175	688.88
543.629	685.27
544.082	697.57
544.536	694.58
544.989	695.48
545.442	700.38
545.895	701.77
546.349	706.77
546.802	698.67
547.255	707.38
547.708	705.47
548.161	718.47
548.614	724.87
549.067	739.97
549.52	730.97
549.973	719.88
550.426	716.87
550.879	699.17
551.332	707.77
551.785	715.67
552.238	711.07
552.691	720.87
553.144	727.97
553.596	740.48
554.049	754.77
554.502	786.57
554.955	799.87
555.407	800.47
555.86	801.47
556.313	781.77
556.765	773.27
557.218	777.48
557.67	783.37
558.123	772.87
558.576	766.67
559.028	770.48
559.48	789.57
559.933	765.38
560.385	748.27
560.838	712.37
561.29	686.77
561.742	685.87
562.195	674.27
562.647	669.37
563.099	672.37
563.551	678.58
564.004	690.47
564.456	678.17
564.908	667.87
565.36	658.67
565.812	637.87
566.264	632.77
566.716	633.48
567.168	611.27
567.62	642.27
568.072	611.47
568.524	608.77
568.976	605.07
569.428	588.67
569.88	584.77
570.332	592.98
570.784	584.87
571.235	597.57
571.687	611.88
572.139	607.17
572.59	630.07
573.042	617.77
573.494	618.77
573.945	611.47
574.397	601.97
574.849	593.47
575.3	598.97
575.752	597.38
576.203	592.27
576.655	598.67
577.106	585.38
577.557	576.68
578.009	587.87
578.46	571.48
578.912	581.48
579.363	576.77
579.814	570.47
580.265	569.48
580.717	576.17
581.168	574.67
581.619	579.57
582.07	584.57
582.521	575.07
582.972	582.77
583.423	580.67
583.875	587.77
584.326	604.77
584.777	650.07
585.227	710.57
585.678	787.57
586.129	860.98
586.58	937.48
587.031	1005.77
587.482	1149.37
587.933	1314.27
588.384	1130.57
588.834	836.38
589.285	695.37
589.736	663.57
590.186	663.07
590.637	661.27
591.088	635.57
591.538	630.27
591.989	620.88
592.439	622.98
592.89	613.17
593.34	598.77
593.791	609.97
594.241	605.37
594.692	610.08
595.142	593.27
595.593	596.67
596.043	598.57
596.493	609.08
596.943	617.18
597.394	608.88
597.844	607.67
598.294	618.07
598.744	644.47
599.195	657.17
599.645	698.58
600.095	730.27
600.545	780.57
600.995	823.17
601.445	865.87
601.895	939.48
602.345	970.77
602.795	958.68
603.245	913.07
603.695	864.07
604.145	812.08
604.594	773.07
605.044	728.77
605.494	678.57
605.944	641.47
606.393	640.67
606.843	617.17
607.293	618.87
607.743	614.08
608.192	617.17
608.642	628.08
609.091	642.48
609.541	644.67
609.99	648.27
610.44	639.57
610.889	604.07
611.339	595.27
611.788	574.27
612.238	587.57
612.687	603.17
613.136	612.38
613.586	617.17
614.035	616.68
614.484	635.97
614.933	638.57
615.383	626.38
615.832	624.18
616.281	606.57
616.73	572.08
617.179	560.87
617.628	544.27
618.077	531.47
618.526	517.57
618.975	516.37
619.424	513.37
619.873	515.77
620.322	513.17
620.771	503.27
621.22	502.17
621.669	500.37
622.118	492.07
622.567	483.98
623.015	476.77
623.464	480.17
623.913	469.57
624.361	458.67
624.81	456.97
625.259	452.37
625.707	450.27
626.156	461.77
626.604	477.17
627.053	471.57
627.501	459.17
627.95	463.77
628.398	491.17
628.847	474.57
629.295	479.27
629.744	479.98
630.192	471.48
630.64	465.47
631.089	473.37
631.537	476.27
631.985	481.27
632.433	488.47
632.881	498.57
633.33	537.97
633.778	521.57
634.226	475.27
634.674	473.07
635.122	482.77
635.57	491.37
636.018	504.77
636.466	484.97
636.914	461.58
637.362	474.37
637.81	479.77
638.258	487.27
638.705	471.57
639.153	506.88
639.601	507.67
640.049	532.37
640.497	556.07
640.944	581.87
641.392	526.67
641.84	504.67
642.287	477.27
642.735	466.98
643.182	470.07
643.63	465.77
644.078	471.27
644.525	483.27
644.973	492.97
645.42	496.87
645.867	509.38
646.315	522.68
646.762	536.87
647.21	563.48
647.657	589.37
648.104	613.38
648.551	629.58
648.999	681.38
649.446	745.27
649.893	825.37
650.34	941.57
650.787	1110.47
651.234	1389.17
651.682	1800.17
652.129	2476.77
652.576	3546.58
653.023	5274.57
653.47	7308.48
653.917	9267.67
654.363	10845.08
654.81	12260.18
655.257	11653.08
655.704	7532.88
656.151	4409.38
656.598	2848.78
657.044	2007.27
657.491	1545.38
657.938	1245.88
658.385	1024.98
658.831	893.87
659.278	786.38
659.724	707.48
660.171	647.97
660.618	586.67
661.064	564.07
661.511	535.77
661.957	530.07
662.404	515.17
662.85	513.48
663.296	498.17
663.743	454.27
664.189	436.07
664.635	432.77
665.082	430.38
665.528	433.17
665.974	420.38
666.42	413.67
666.867	409.88
667.313	398.27
667.759	382.48
668.205	401.37
668.651	395.98
669.097	399.87
669.543	410.27
669.989	378.97
670.435	362.07
670.881	355.37
671.327	369.47
671.773	374.97
672.219	393.57
672.665	432.67
673.11	473.27
673.556	502.77
674.002	548.77
674.448	535.27
674.893	448.88
675.339	382.57
675.785	353.88
676.23	336.77
676.676	319.17
677.122	300.98
677.567	301.38
678.013	298.38
678.458	294.08
678.904	294.77
679.349	279.88
679.794	288.88
680.24	276.98
680.685	277.97
681.131	281.17
681.576	279.77
682.021	287.27
682.466	290.67
682.912	276.17
683.357	278.77
683.802	304.87
684.247	329.17
684.692	361.57
685.137	394.47
685.583	432.97
686.028	459.47
686.473	416.87
686.918	364.47
687.363	341.98
687.807	316.98
688.252	290.48
688.697	278.57
689.142	272.97
689.587	269.77
690.032	254.67
690.477	269.87
690.921	279.37
691.366	304.17
691.811	327.67
692.255	353.27
692.7	375.67
693.145	398.27
693.589	542.98
694.034	886.88
694.478	1229.27
694.923	1427.47
695.367	1894.67
695.812	984.88
696.256	412.27
696.701	304.77
697.145	281.88
697.59	268.27
698.034	257.57
698.478	261.98
698.922	267.68
699.367	268.08
699.811	279.27
700.255	280.98
700.699	306.97
701.143	342.27
701.588	379.07
702.032	416.17
702.476	416.77
702.92	402.77
703.364	386.77
703.808	495.87
704.252	806.47
704.696	1156.77
705.14	1368.97
705.584	1779.78
706.027	875.77
706.471	414.27
706.915	324.48
707.359	287.67
707.803	262.77
708.246	257.48
708.69	250.77
709.134	250.47
709.577	245.27
710.021	254.17
710.465	244.98
710.908	232.47
711.352	236.88
711.795	248.57
712.239	281.97
712.682	306.07
713.126	338.07
713.569	386.17
714.012	301.97
714.456	263.37
714.899	235.67
715.342	210.98
715.786	198.88
716.229	213.07
716.672	202.47
717.115	194.97
717.558	203.37
718.002	202.98
718.445	214.27
718.888	233.17
719.331	235.48
719.774	250.77
720.217	248.77
720.66	231.37
721.103	207.98
721.546	208.87
721.989	198.57
722.432	176.77
722.874	193.97
723.317	183.77
723.76	196.27
724.203	208.47
724.645	248.27
725.088	343.07
725.531	453.37
725.974	523.17
726.416	455.67
726.859	248.37
727.301	186.88
727.744	194.48
728.187	183.27
728.629	191.37
729.071	199.77
729.514	211.67
729.956	222.37
730.399	222.17
730.841	230.07
731.283	218.48
731.726	210.87
732.168	205.88
732.61	214.07
733.053	225.07
733.495	256.18
733.937	274.87
734.379	316.47
734.821	346.88
735.263	419.87
735.705	648.17
736.148	1229.67
736.59	2068.77
737.032	2550.97
737.474	2071.97
737.916	654.47
738.357	345.77
738.799	264.38
739.241	236.67
739.683	221.37
740.125	231.57
740.567	237.97
741.008	254.67
741.45	254.88
741.892	250.47
742.334	281.18
742.775	286.67
743.217	273.17
743.658	218.17
744.1	201.27
744.542	209.38
744.983	242.88
745.425	275.67
745.866	276.07
746.307	231.17
746.749	226.97
747.19	254.77
747.632	349.87
748.073	679.67
748.514	1433.47
748.956	2301.97
749.397	2879.07
749.838	2384.38
750.279	2461.97
750.72	1229.77
751.162	436.17
751.603	262.77
752.044	203.07
752.485	172.97
752.926	159.77
753.367	162.17
753.808	152.47
754.249	157.77
754.69	150.57
755.131	141.57
755.572	147.47
756.013	139.67
756.453	140.67
756.894	146.38
757.335	153.88
757.776	158.77
758.216	156.07
758.657	148.27
759.098	166.67
759.538	176.77
759.979	206.47
760.42	294.08
760.86	533.88
761.301	1404.67
761.741	3507.97
762.182	5423.68
762.622	3828.37
763.063	1069.07
763.503	444.77
763.943	272.87
764.384	275.98
764.824	328.77
765.264	357.97
765.705	246.48
766.145	165.27
766.585	147.47
767.025	136.67
767.465	149.17
767.906	201.67
768.346	252.77
768.786	283.57
769.226	210.67
769.666	247.97
770.106	471.27
770.546	1188.68
770.986	2169.07
771.426	1991.27
771.866	649.48
772.306	272.38
772.745	166.57
773.185	138.57
773.625	131.97
774.065	140.67
774.505	154.87
774.944	241.17
775.384	524.37
775.824	998.17
776.263	999.38
776.703	411.67
777.142	179.47
777.582	128.17
778.021	110.38
778.461	106.98
778.9	112.47
779.34	101.77
779.779	89.97
780.219	90.98
780.658	89.77
781.097	92.38
781.537	85.87
781.976	87.27
782.415	76.37
782.855	81.07
783.294	82.98
783.733	85.57
784.172	85.97
784.611	87.47
785.05	88.27
785.489	89.48
785.928	99.37
786.367	94.67
786.806	97.37
787.245	104.17
787.684	105.17
788.123	119.17
788.562	111.67
789.001	100.77
789.44	95.17
789.879	92.87
790.317	91.97
790.756	98.77
791.195	99.57
791.634	110.67
792.072	158.98
792.511	268.68
792.95	780.57
793.388	1743.17
793.827	1636.07
794.265	559.07
794.704	221.88
795.142	145.98
795.581	125.77
796.019	115.67
796.458	101.57
796.896	100.17
797.334	103.27
797.773	124.57
798.211	169.97
798.649	339.37
799.087	798.18
799.526	1268.57
799.964	1629.17
800.402	1700.57
800.84	622.97
801.278	240.08
801.716	146.97
802.154	120.77
802.592	118.38
803.03	108.88
803.468	105.77
803.906	113.17
804.344	118.07
804.782	115.27
805.22	105.37
805.658	103.07
806.096	122.88
806.533	119.57
806.971	137.57
807.409	178.57
807.847	246.67
808.284	507.17
808.722	1473.47
809.16	2720.47
809.597	2505.77
810.035	4453.28
810.472	4954.68
810.91	1760.47
811.347	649.48
811.785	326.98
812.222	206.97
812.66	152.38
813.097	127.97
813.535	115.97
813.972	99.57
814.409	97.27
814.846	85.67
815.284	92.77
815.721	83.67
816.158	83.07
816.595	98.48
817.032	143.27
817.47	168.97
817.907	136.77
818.344	122.27
818.781	93.07
819.218	82.88
819.655	92.77
820.092	148.87
820.529	174.07
820.966	139.88
821.403	109.07
821.839	88.77
822.276	76.38
822.713	96.07
823.15	112.67
823.587	94.97
824.023	116.67
824.46	229.27
824.897	700.47
825.333	1123.18
825.77	474.77
826.206	185.37
826.643	108.17
827.08	83.67
827.516	69.17
827.953	58.67
828.389	63.37
828.825	61.37
829.262	57.07
829.698	49.97
830.135	57.17
830.571	45.47
831.007	51.67
831.443	48.87
831.88	50.77
832.316	42.67
832.752	51.67
833.188	54.07
833.624	44.77
834.06	52.07
834.497	57.47
834.933	57.07
835.369	59.27
835.805	47.17
836.241	66.97
836.677	63.98
837.112	71.77
837.548	79.27
837.984	106.87
838.42	156.57
838.856	391.27
839.292	1196.67
839.727	1946.08
840.163	890.27
840.599	722.08
841.034	1655.47
841.47	1820.47
841.906	660.68
842.341	260.38
842.777	182.48
843.212	255.48
843.648	268.67
844.083	125.97
844.519	80.17
844.954	64.88
845.39	46.38
845.825	43.77
846.261	49.27
846.696	43.87
847.131	39.38
847.566	53.47
848.002	42.07
848.437	38.27
848.872	46.97
849.307	46.57
849.742	64.77
850.177	135.67
850.613	448.68
851.048	725.48
851.483	316.77
851.918	125.07
852.353	65.47
852.788	46.17
853.223	45.67
853.657	38.87
854.092	42.17
854.527	36.57
854.962	26.67
855.397	35.38
855.832	45.37
856.266	31.38
856.701	32.57
857.136	24.88
857.57	32.67
858.005	33.67
858.44	51.17
858.874	27.77
859.309	42.27
859.743	27.47
860.178	37.37
860.612	28.27
861.047	43.07
861.481	47.27
861.915	46.07
862.35	46.27
862.784	26.47
863.218	31.37
863.653	28.07
864.087	42.67
864.521	40.88
864.955	58.88
865.39	130.57
865.824	150.57
866.258	93.77
866.692	133.97
867.126	145.17
867.56	87.47
867.994	44.47
868.428	30.17
868.862	34.98
869.296	44.07
869.73	47.07
870.164	41.17
870.598	39.38
871.031	34.77
871.465	27.37
871.899	25.88
872.333	18.17
872.766	22.88
873.2	22.87
873.634	25.27
874.067	28.77
874.501	13.97
874.935	30.57
875.368	26.07
875.802	23.67
876.235	15.17
876.669	14.97
877.102	19.57
877.535	18.27
877.969	16.57
878.402	14.87
878.836	15.47
879.269	15.27
879.702	24.07
880.135	16.57
880.569	14.57
881.002	18.57
881.435	16.07
881.868	13.47
882.301	18.67
882.734	11.87
883.167	21.97
883.601	13.97
884.034	15.67
884.467	11.57
884.899	18.87
885.332	10.88
885.765	11.98
886.198	10.87
886.631	17.47
887.064	13.77
887.497	17.87
887.929	19.57
888.362	11.47
888.795	10.57
889.228	14.67
889.66	13.87
890.093	15.87
890.526	13.57
890.958	11.38
891.391	20.27
891.823	15.88
892.256	15.17
892.688	6.67
893.121	12.48
893.553	14.57
893.985	17.67
894.418	16.87
894.85	9.17
895.282	9.67
895.715	8.77
896.147	8.57
896.579	9.37
897.011	6.57
897.444	14.47
897.876	13.57
898.308	16.97
898.74	9.48
899.172	10.57
899.604	18.38
900.036	17.77
900.468	10.27
900.9	6.47
901.332	12.27
901.764	11.57
902.196	8.67
902.628	10.17
903.06	13.47
903.491	21.97
903.923	18.27
904.355	11.07
904.787	21.57
905.218	18.27
905.65	12.17
906.082	14.67
906.513	8.07
906.945	14.07
907.376	11.57
907.808	15.47
908.239	12.98
908.671	16.07
909.102	16.47
909.534	20.57
909.965	38.07
910.397	68.37
910.828	258.97
911.259	409.48
911.691	188.17
912.122	83.77
912.553	38.07
912.984	30.17
913.415	27.88
913.847	20.27
914.278	14.67
914.709	9.87
915.14	3.07
915.571	12.87
916.002	8.57
916.433	14.48
916.864	12.97
917.295	11.77
917.726	14.37
918.157	12.07
918.587	16.87
919.018	20.38
919.449	19.98
919.88	13.87
920.311	21.47
920.741	34.27
921.172	139.88
921.603	124.07
922.033	55.67
922.464	35.67
922.895	15.37
923.325	20.17
923.756	12.77
924.186	9.27
924.617	21.98
925.047	37.57
925.478	41.47
925.908	34.27
926.338	20.88
926.769	14.48
927.199	17.48
927.629	5.07
928.06	17.97
928.49	11.57
928.92	13.47
929.35	7.48
929.78	11.87
930.21	11.17
930.641	6.57
931.071	10.07
931.501	-0.93
931.931	9.27
932.361	8.07
932.791	6.67
933.221	3.07
933.651	1.88
934.08	11.47
934.51	32.37
934.94	6.57
935.37	-0.43
935.8	11.37
936.229	8.87
936.659	6.07
937.089	1.88
937.519	11.17
937.948	22.97
938.378	17.47
938.807	3.17
939.237	-0.12
939.666	5.07
940.096	-3.83
940.525	5.97
940.955	3.17
941.384	6.88
941.814	-2.33
942.243	-3.12
942.672	2.97
943.102	-8.33
943.531	-3.33
943.96	1.07
944.39	2.87
944.819	-1.23
945.248	0.47
945.677	-1.43
946.106	4.57
946.535	3.57
946.964	0.47
947.393	-0.83
947.822	0.48
948.251	-4.03
948.68	1.17
949.109	9.67
949.538	3.27
949.967	-1.13
950.396	1.77
950.825	-2.43
951.254	-0.52
951.682	-9.13
952.111	6.47
952.54	3.38
952.969	-7.03
953.397	-5.63
953.826	3.37
954.254	-5.43
954.683	-1.33
955.112	-6.93
955.54	-3.93
955.969	-0.93
956.397	-3.93
956.826	-4.23
957.254	3.27
957.682	4.37
958.111	7.67
958.539	1.17
958.967	4.17
959.396	-0.13
959.824	2.27
960.252	0.67
960.68	1.37
961.109	-4.13
961.537	-2.23
961.965	1.47
962.393	3.67
962.821	-1.52
963.249	-0.53
963.677	5.17
964.105	1.07
964.533	28.98
964.961	29.27
965.389	9.07
965.817	2.57
966.245	-5.03
966.672	-0.23
967.1	-10.02
967.528	1.87
967.956	-4.12
968.383	-3.43
968.811	-6.03
969.239	0.57
969.666	-7.43
970.094	-1.03
970.522	3.87
970.949	-2.03
971.377	-2.62
971.804	-5.23
972.232	-2.43
972.659	-3.03
973.087	-4.33
973.514	-5.13
973.941	-1.63
974.369	-0.53
974.796	2.98
975.223	-6.73
975.651	-8.73
976.078	1.67
976.505	-0.13
976.932	2.17
977.359	9.77
977.786	10.67
978.214	-3.33
978.641	-4.93
979.068	0.97
979.495	-1.93
979.922	0.27
980.349	-4.83
980.776	3.97
981.202	-8.43
981.629	3.47
982.056	0.27
982.483	-6.12
982.91	0.47
983.337	-6.63
983.763	1.37
984.19	-4.73
984.617	-4.93
985.043	-6.93
985.47	-4.12
985.897	-1.53
986.323	-9.23
986.75	2.48
987.176	4.07
987.603	5.47
988.029	-0.03
988.456	1.17
988.882	2.48
989.308	-5.93
989.735	-6.93
990.161	-5.03
990.587	-3.13
991.014	-4.53
991.44	9.67
991.866	1.67
992.292	-2.73
992.719	-5.33
993.145	1.07
993.571	-8.83
993.997	-4.23
994.423	-2.23
994.849	1.67
995.275	-6.12
995.701	-0.83
996.127	-4.83
996.553	0.07
996.979	-5.93
997.405	-4.83
997.83	-6.83
998.256	-6.23
998.682	-3.43
999.108	-7.23
999.534	-4.93
999.959	-1.43
1000.385	-5.83
1000.811	2.07
1001.236	-7.03
1001.662	-3.53
1002.087	-8.43
1002.513	-3.23
1002.938	3.77
1003.364	-3.33
1003.789	-3.93
1004.215	2.77
1004.64	2.57
1005.066	4.67
1005.491	-2.73
1005.916	-5.43
1006.342	-2.23
1006.767	-8.83
1007.192	2.38
1007.617	-8.53
1008.042	-7.43
1008.468	-11.23
1008.893	-0.52
1009.318	-0.73
1009.743	-4.03
1010.168	0.47
1010.593	-1.83
1011.018	-14.43
1011.443	-5.33
1011.868	1.38
1012.293	0.07
1012.718	-8.33
1013.143	-2.33
1013.567	2.67
1013.992	1.57
1014.417	-14.53
1014.842	0.67
1015.267	-12.23
1015.691	-7.03
1016.116	0.87
1016.541	-4.23
1016.965	6.07
1017.39	0.67
1017.814	-0.33
1018.239	-7.23
1018.663	-8.53
1019.088	-6.53
1019.512	-6.43
1019.937	7.07
1020.361	-5.33
1020.785	-8.13
1021.21	-15.33
1021.634	-4.53
1022.058	-2.43
1022.483	4.77
1022.907	-7.63
1023.331	-11.02
1023.755	-2.13
1024.179	-0.43
1024.604	-9.23
1025.028	-4.93
1025.452	-1.43
1025.876	-3.43
1026.3	0.57
1026.724	-12.83
1027.148	-7.62
1027.572	-15.33
1027.996	-3.23
1028.42	1.57
1028.843	-8.03
1029.267	-6.83
1029.691	-3.33
1030.115	-5.63
1030.539	-11.33
1030.962	-8.73
1031.386	-8.52
1031.81	-6.52
1032.233	-6.23
1032.657	-3.62
1033.08	-0.33
1033.504	-7.13
1033.927	-1.33
1034.351	-5.12
1034.774	-12.33
1035.198	-0.73
1035.621	-9.23
1036.045	-7.63
1036.468	-2.33
1036.891	-12.43
1037.315	-9.53
1037.738	-11.73
1038.161	4.97
1038.584	-2.53
1039.008	-9.23
1039.431	-7.93
1039.854	-6.53
1040.277	-12.43
1040.7	-10.62
1041.123	-6.93
1041.546	-6.12
1041.969	-7.33
1042.392	-1.43
1042.815	-3.23
1043.238	-2.33
1043.661	2.87
1044.084	-5.53
1044.507	-10.93
1044.93	-6.73
1045.352	-4.83
1045.775	-3.33
1046.198	-3.93
1046.621	-1.62
1047.043	-3.23
1047.466	5.88
1047.889	-2.93
1048.311	-1.83
1048.734	-0.23
1049.156	2.57
1049.579	-3.03
1050.001	-8.62
1050.424	0.17
1050.846	-9.43
1051.269	-0.02
1051.691	-9.23
1052.113	-7.43
1052.536	-3.23
1052.958	4.47
1053.38	-7.03
1053.802	-11.13
1054.225	-4.03
1054.647	-5.13
1055.069	-2.03
1055.491	4.97
1055.913	-7.13
1056.335	-3.13
1056.757	-2.33
1057.179	-10.03
1057.601	-5.43
1058.023	-1.12
1058.445	-5.83
1058.867	-6.73
1059.289	-4.43
1059.711	-7.93
1060.133	-1.73
1060.555	-5.03
1060.976	-6.83
1061.398	-2.03
1061.82	-4.13
1062.241	-7.23
1062.663	-8.93
1063.085	-9.13
1063.506	4.07
1063.928	-8.33
1064.35	-2.83
1064.771	-13.23
1065.193	-3.83
1065.614	-6.43
1066.035	-4.73
1066.457	-2.53
1066.878	-2.23
1067.3	-4.03
1067.721	-3.63
1068.142	-5.03
1068.564	-7.23
1068.985	-6.43
1069.406	-2.33
1069.827	-6.83
1070.248	-0.73
1070.67	-13.73
1071.091	-2.62
1071.512	-4.43
1071.933	-2.73
1072.354	-12.83
1072.775	-8.62
1073.196	-12.53
1073.617	-7.13
1074.038	-8.62
1074.459	-6.93
1074.88	-8.53
1075.3	0.07
1075.721	-2.83
1076.142	-2.23
1076.563	-3.13
1076.983	-12.93
1077.404	-3.93
1077.825	-7.02
1078.246	-1.73
1078.666	-16.43
1079.087	0.67
1079.507	-6.43
1079.928	-1.23
1080.348	-5.12
1080.769	-4.13
1081.189	-4.33
1081.61	-5.83
1082.03	-10.13
1082.451	-4.13
1082.871	-4.33
1083.291	-9.13
1083.711	-10.23
1084.132	-8.93
1084.552	-4.63
1084.972	-0.23
1085.392	-4.73
1085.813	-15.23
1086.233	-8.03
1086.653	-2.33
1087.073	-4.83
1087.493	-12.93
1087.913	0.47
1088.333	-2.73
1088.753	-0.93
1089.173	-5.23
1089.593	-11.33
1090.013	-0.63
1090.433	-3.63
1090.852	-1.73
1091.272	-3.53
1091.692	1.37
1092.112	0.57
1092.531	-8.53
1092.951	-10.33
1093.371	-4.23
1093.79	4.48
1094.21	-7.12
1094.63	-11.33
1095.049	-4.33
1095.469	-0.63
1095.888	-9.53
1096.308	-2.23
1096.727	-1.62
1097.146	-9.73
1097.566	-0.83
1097.985	-7.83
1098.405	-0.23
1098.824	-9.83
1099.243	-10.12
1099.662	-11.43
1100.082	-4.12
1100.501	-8.63
1100.92	-7.63
1101.339	2.07
1101.758	-5.73
