Data from 20171114-ORNL-Ar_H_NY_Subt18_08-07-50-816.txt Node
Date: Tue Nov 14 08:07:50 EST 2017
User: Ender
Spectrometer: HR+D1039
Trigger mode: 0
Integration Time (sec): 2.730000E-2
Scans to average: 10
Electric dark correction enabled: true
Nonlinearity correction enabled: false
Boxcar width: 0
XAxis mode: Wavelengths
Number of Pixels in Spectrum: 2048
>>>>>Begin Spectral Data<<<<<
187.836	-1.39
188.309	-1.39
188.782	-1.39
189.255	1.41
189.728	0.71
190.201	7.31
190.674	1.61
191.147	4.01
191.619	-3.79
192.092	-0.09
192.565	5.41
193.038	-0.49
193.511	0.01
193.984	-2.39
194.456	-3.49
194.929	1.51
195.402	-6.49
195.874	-3.89
196.347	-0.59
196.82	-2.39
197.292	5.81
197.765	5.71
198.237	-1.09
198.71	2.91
199.182	-3.09
199.655	6.51
200.127	0.31
200.6	-0.49
201.072	-1.09
201.544	-5.69
202.017	0.21
202.489	5.51
202.961	2.91
203.433	-1.69
203.906	-4.19
204.378	-1.69
204.85	-2.69
205.322	-3.79
205.794	-3.19
206.266	2.41
206.739	-5.89
207.211	6.81
207.683	-6.29
208.155	-4.49
208.627	-4.29
209.099	-3.69
209.57	-7.69
210.042	-4.79
210.514	-2.39
210.986	2.61
211.458	-2.39
211.93	6.01
212.402	7.41
212.873	-4.59
213.345	-10.09
213.817	-8.09
214.288	-3.99
214.76	-3.99
215.232	0.11
215.703	1.21
216.175	-1.99
216.646	1.81
217.118	-0.79
217.589	2.31
218.061	-3.19
218.532	-2.29
219.004	0.31
219.475	0.51
219.946	-4.19
220.418	-11.29
220.889	10.91
221.36	0.61
221.832	-3.09
222.303	-1.49
222.774	7.31
223.245	-5.49
223.717	-5.89
224.188	1.81
224.659	-4.19
225.13	0.41
225.601	-3.19
226.072	3.81
226.543	3.11
227.014	2.31
227.485	-0.59
227.956	-6.19
228.427	3.11
228.898	9.31
229.369	5.11
229.839	0.91
230.31	-8.19
230.781	0.31
231.252	-3.09
231.722	-2.09
232.193	4.21
232.664	0.71
233.135	2.21
233.605	4.31
234.076	-5.69
234.546	0.71
235.017	1.91
235.487	3.01
235.958	1.91
236.428	-3.99
236.899	7.81
237.369	1.71
237.84	-1.19
238.31	8.71
238.78	2.21
239.251	1.31
239.721	0.21
240.191	2.91
240.662	-1.59
241.132	5.41
241.602	0.01
242.072	-2.19
242.542	7.11
243.013	3.81
243.483	3.71
243.953	6.31
244.423	2.51
244.893	5.61
245.363	3.51
245.833	3.91
246.303	4.11
246.773	7.61
247.243	2.81
247.712	9.21
248.182	5.01
248.652	6.41
249.122	5.81
249.592	15.71
250.061	12.01
250.531	36.81
251.001	16.71
251.471	21.21
251.94	14.61
252.41	3.61
252.879	-3.69
253.349	15.81
253.818	12.61
254.288	9.81
254.757	9.71
255.227	2.61
255.696	6.91
256.166	7.81
256.635	10.01
257.105	6.61
257.574	7.41
258.043	12.21
258.513	11.81
258.982	17.61
259.451	3.01
259.92	14.41
260.389	9.61
260.859	20.31
261.328	10.11
261.797	15.11
262.266	11.41
262.735	7.41
263.204	8.71
263.673	5.21
264.142	10.81
264.611	0.41
265.08	1.71
265.549	0.21
266.018	5.11
266.487	1.01
266.955	-2.19
267.424	5.11
267.893	2.01
268.362	5.11
268.83	3.41
269.299	12.71
269.768	5.61
270.236	10.01
270.705	2.61
271.174	10.11
271.642	8.51
272.111	6.01
272.579	23.31
273.048	25.51
273.516	31.21
273.985	23.71
274.453	22.31
274.922	19.91
275.39	11.11
275.858	4.71
276.327	8.61
276.795	22.51
277.263	15.51
277.731	29.81
278.2	56.81
278.668	56.11
279.136	48.31
279.604	14.91
280.072	14.91
280.54	13.11
281.008	9.91
281.477	11.71
281.945	11.11
282.413	14.71
282.881	18.71
283.348	7.31
283.816	17.51
284.284	13.21
284.752	17.11
285.22	17.71
285.688	16.41
286.156	24.91
286.623	44.01
287.091	55.61
287.559	31.81
288.026	16.01
288.494	19.51
288.962	1.21
289.429	16.11
289.897	21.91
290.364	15.01
290.832	17.81
291.3	14.11
291.767	16.21
292.234	19.41
292.702	17.01
293.169	18.61
293.637	21.91
294.104	19.61
294.571	12.41
295.039	15.61
295.506	16.91
295.973	21.91
296.44	17.61
296.908	19.41
297.375	18.11
297.842	19.91
298.309	15.01
298.776	13.01
299.243	21.21
299.71	14.61
300.177	19.51
300.644	18.31
301.111	18.61
301.578	26.11
302.045	19.21
302.512	22.71
302.979	27.01
303.446	21.51
303.913	19.11
304.379	19.61
304.846	24.61
305.313	23.21
305.78	19.31
306.246	30.11
306.713	33.61
307.18	25.31
307.646	31.01
308.113	29.31
308.579	19.41
309.046	27.51
309.512	27.21
309.979	16.31
310.445	30.31
310.912	27.41
311.378	35.41
311.845	30.41
312.311	31.61
312.777	32.61
313.244	32.11
313.71	37.61
314.176	31.71
314.642	29.01
315.109	21.91
315.575	36.21
316.041	38.21
316.507	33.31
316.973	33.51
317.439	39.31
317.905	39.01
318.371	32.51
318.837	32.51
319.303	31.81
319.769	34.21
320.235	28.31
320.701	33.11
321.167	31.91
321.633	35.61
322.099	43.11
322.564	40.61
323.03	38.41
323.496	34.71
323.962	37.31
324.427	32.81
324.893	39.71
325.359	35.81
325.824	32.71
326.29	34.21
326.755	37.21
327.221	42.11
327.686	38.51
328.152	46.11
328.617	39.71
329.083	47.81
329.548	50.31
330.014	51.11
330.479	36.71
330.944	46.01
331.41	51.21
331.875	43.51
332.34	45.21
332.805	45.01
333.271	49.51
333.736	45.71
334.201	53.21
334.666	50.41
335.131	54.51
335.596	55.01
336.061	47.81
336.526	42.61
336.991	48.31
337.456	60.51
337.921	44.91
338.386	44.01
338.851	52.91
339.316	50.41
339.781	50.81
340.246	50.81
340.711	50.91
341.175	44.61
341.64	50.41
342.105	49.81
342.569	51.41
343.034	51.31
343.499	51.91
343.963	50.31
344.428	61.31
344.893	68.01
345.357	59.41
345.822	66.61
346.286	63.51
346.751	76.91
347.215	60.91
347.679	69.31
348.144	92.71
348.608	74.51
349.073	64.11
349.537	75.41
350.001	79.21
350.465	88.01
350.93	73.41
351.394	81.81
351.858	66.81
352.322	85.81
352.786	80.61
353.25	97.71
353.715	107.11
354.179	98.11
354.643	117.91
355.107	120.61
355.571	104.21
356.035	101.81
356.498	114.21
356.962	117.61
357.426	126.21
357.89	110.11
358.354	86.41
358.818	76.41
359.281	72.81
359.745	73.61
360.209	72.91
360.673	74.61
361.136	79.31
361.6	82.61
362.064	82.11
362.527	82.51
362.991	89.21
363.454	77.41
363.918	74.41
364.381	80.61
364.845	75.21
365.308	80.91
365.772	86.51
366.235	84.11
366.698	88.81
367.162	83.51
367.625	84.91
368.088	84.81
368.552	82.31
369.015	84.91
369.478	99.81
369.941	100.31
370.404	92.21
370.867	106.31
371.331	103.41
371.794	115.21
372.257	113.81
372.72	117.01
373.183	112.71
373.646	102.01
374.109	100.71
374.572	102.51
375.035	107.71
375.497	108.21
375.96	107.01
376.423	106.11
376.886	108.91
377.349	106.91
377.811	98.31
378.274	104.91
378.737	105.11
379.199	109.71
379.662	113.31
380.125	116.61
380.587	111.51
381.05	121.01
381.512	126.31
381.975	131.11
382.437	126.11
382.9	131.81
383.362	136.41
383.825	144.81
384.287	150.71
384.75	142.61
385.212	151.91
385.674	145.01
386.136	137.91
386.599	128.91
387.061	124.01
387.523	131.51
387.985	139.61
388.447	146.51
388.91	139.51
389.372	162.21
389.834	156.81
390.296	146.71
390.758	153.11
391.22	170.71
391.682	214.61
392.144	294.61
392.606	233.81
393.068	167.61
393.529	168.01
393.991	151.71
394.453	152.01
394.915	156.21
395.377	199.41
395.838	212.11
396.3	153.61
396.762	139.81
397.224	135.21
397.685	129.11
398.147	127.61
398.608	126.71
399.07	128.51
399.531	137.41
399.993	144.61
400.454	150.81
400.916	139.71
401.377	137.51
401.839	150.21
402.3	149.41
402.762	170.41
403.223	180.91
403.684	162.61
404.145	158.81
404.607	154.61
405.068	159.11
405.529	175.31
405.99	184.31
406.451	171.01
406.913	174.61
407.374	163.01
407.835	157.91
408.296	167.21
408.757	173.21
409.218	186.71
409.679	174.61
410.14	179.81
410.601	179.91
411.062	188.21
411.522	193.11
411.983	193.71
412.444	187.81
412.905	177.31
413.366	180.61
413.826	195.41
414.287	219.61
414.748	257.81
415.208	249.81
415.669	220.31
416.13	208.31
416.59	198.71
417.051	215.21
417.511	215.91
417.972	233.41
418.432	245.31
418.893	287.31
419.353	250.81
419.814	199.71
420.274	182.91
420.734	177.91
421.195	197.21
421.655	196.81
422.115	195.21
422.576	196.21
423.036	199.21
423.496	211.11
423.956	217.41
424.416	232.01
424.876	264.41
425.336	252.41
425.797	267.31
426.257	250.71
426.717	236.51
427.177	227.31
427.637	223.01
428.097	237.31
428.556	249.51
429.016	273.71
429.476	274.11
429.936	280.31
430.396	279.31
430.856	293.51
431.315	319.41
431.775	354.61
432.235	381.51
432.694	344.71
433.154	362.31
433.614	393.91
434.073	344.91
434.533	294.71
434.993	277.41
435.452	287.51
435.912	298.61
436.371	283.41
436.83	286.81
437.29	272.11
437.749	250.51
438.209	253.61
438.668	279.21
439.127	294.91
439.587	266.31
440.046	248.61
440.505	256.81
440.964	271.61
441.424	323.21
441.883	315.71
442.342	265.71
442.801	220.91
443.26	232.11
443.719	226.01
444.178	215.91
444.637	210.61
445.096	217.31
445.555	215.01
446.014	226.91
446.473	228.41
446.932	227.61
447.391	231.11
447.849	224.01
448.308	220.71
448.767	220.61
449.226	244.91
449.685	240.31
450.143	249.51
450.602	246.41
451.061	228.91
451.519	228.61
451.978	231.11
452.436	234.91
452.895	230.41
453.353	250.61
453.812	241.71
454.27	237.81
454.729	240.01
455.187	240.31
455.646	239.71
456.104	243.91
456.562	258.81
457.021	264.51
457.479	264.91
457.937	271.21
458.395	264.91
458.854	246.91
459.312	252.01
459.77	281.61
460.228	260.41
460.686	245.41
461.144	245.41
461.602	248.51
462.06	243.31
462.518	253.81
462.976	255.71
463.434	255.01
463.892	263.31
464.35	274.51
464.808	294.21
465.266	260.81
465.724	271.91
466.181	272.81
466.639	274.91
467.097	288.51
467.555	302.91
468.012	307.21
468.47	302.61
468.928	331.81
469.385	335.31
469.843	348.21
470.3	341.31
470.758	354.61
471.215	384.21
471.673	402.21
472.13	403.11
472.588	414.31
473.045	368.21
473.503	379.51
473.96	401.11
474.417	402.51
474.875	435.21
475.332	474.61
475.789	462.81
476.246	466.71
476.704	483.41
477.161	505.81
477.618	523.11
478.075	550.41
478.532	606.31
478.989	696.81
479.446	809.51
479.903	766.41
480.36	802.31
480.817	858.21
481.274	969.21
481.731	1062.91
482.188	1170.01
482.645	1291.31
483.102	1402.11
483.558	1536.71
484.015	1599.31
484.472	1570.81
484.929	1515.01
485.385	1477.11
485.842	1422.81
486.299	1349.51
486.755	1299.81
487.212	1091.31
487.668	921.01
488.125	847.81
488.582	774.11
489.038	743.81
489.494	706.51
489.951	677.71
490.407	656.31
490.864	648.61
491.32	640.91
491.776	641.91
492.233	636.21
492.689	602.51
493.145	598.41
493.602	601.11
494.058	609.31
494.514	610.61
494.97	631.41
495.426	646.01
495.882	619.21
496.338	602.11
496.794	614.01
497.251	613.81
497.707	629.71
498.163	634.81
498.618	645.71
499.074	629.61
499.53	668.81
499.986	666.81
500.442	654.61
500.898	636.51
501.354	615.21
501.809	638.61
502.265	633.71
502.721	655.01
503.177	668.81
503.632	665.61
504.088	676.91
504.543	718.51
504.999	707.21
505.455	650.41
505.91	632.91
506.366	628.71
506.821	629.11
507.277	609.41
507.732	618.11
508.187	620.91
508.643	625.31
509.098	631.41
509.553	656.11
510.009	668.01
510.464	660.61
510.919	686.71
511.375	686.71
511.83	698.81
512.285	715.51
512.74	753.91
513.195	776.61
513.65	759.11
514.105	757.31
514.56	765.01
515.015	783.71
515.47	792.21
515.925	772.61
516.38	781.81
516.835	778.81
517.29	777.71
517.745	777.11
518.2	764.41
518.655	731.91
519.109	732.51
519.564	742.51
520.019	715.41
520.474	713.11
520.928	720.31
521.383	719.11
521.838	705.61
522.292	712.11
522.747	699.11
523.201	696.31
523.656	689.91
524.11	691.51
524.565	695.41
525.019	687.91
525.474	700.01
525.928	698.71
526.382	684.91
526.837	685.41
527.291	696.91
527.745	693.51
528.2	687.81
528.654	687.51
529.108	683.11
529.562	689.71
530.016	682.31
530.47	701.81
530.925	683.91
531.379	686.11
531.833	696.61
532.287	699.11
532.741	695.21
533.195	697.11
533.649	707.91
534.103	704.21
534.556	704.41
535.01	707.91
535.464	701.31
535.918	712.11
536.372	714.81
536.826	706.51
537.279	694.91
537.733	712.41
538.187	712.31
538.64	703.41
539.094	719.31
539.548	722.91
540.001	713.91
540.455	725.31
540.908	721.41
541.362	735.81
541.815	745.31
542.269	750.71
542.722	752.51
543.175	765.91
543.629	776.21
544.082	778.11
544.536	789.71
544.989	775.21
545.442	789.61
545.895	770.81
546.349	786.81
546.802	785.11
547.255	787.41
547.708	800.21
548.161	807.81
548.614	823.01
549.067	818.81
549.52	827.41
549.973	806.91
550.426	804.31
550.879	796.01
551.332	800.71
551.785	805.41
552.238	806.81
552.691	806.41
553.144	843.81
553.596	843.61
554.049	862.01
554.502	883.91
554.955	909.91
555.407	901.51
555.86	895.31
556.313	892.31
556.765	891.41
557.218	869.51
557.67	870.11
558.123	870.41
558.576	857.21
559.028	863.51
559.48	879.61
559.933	869.01
560.385	827.31
560.838	808.01
561.29	784.51
561.742	780.61
562.195	763.71
562.647	765.81
563.099	769.11
563.551	763.61
564.004	780.91
564.456	774.81
564.908	760.21
565.36	741.51
565.812	739.01
566.264	729.01
566.716	725.91
567.168	716.41
567.62	730.31
568.072	705.91
568.524	691.21
568.976	678.71
569.428	677.71
569.88	665.11
570.332	679.31
570.784	677.81
571.235	687.11
571.687	692.21
572.139	704.81
572.59	698.21
573.042	714.41
573.494	713.11
573.945	704.01
574.397	682.21
574.849	689.11
575.3	683.91
575.752	675.41
576.203	680.41
576.655	678.61
577.106	669.61
577.557	664.51
578.009	667.81
578.46	662.71
578.912	668.71
579.363	659.41
579.814	663.61
580.265	662.91
580.717	667.31
581.168	664.81
581.619	672.91
582.07	685.01
582.521	660.51
582.972	676.81
583.423	680.51
583.875	677.81
584.326	708.81
584.777	756.91
585.227	823.81
585.678	918.81
586.129	1015.01
586.58	1097.01
587.031	1177.81
587.482	1328.61
587.933	1523.41
588.384	1325.91
588.834	974.51
589.285	811.91
589.736	787.31
590.186	776.21
590.637	759.41
591.088	757.01
591.538	733.61
591.989	726.21
592.439	730.01
592.89	721.81
593.34	712.71
593.791	708.41
594.241	703.21
594.692	706.11
595.142	711.21
595.593	702.01
596.043	711.01
596.493	710.61
596.943	715.41
597.394	721.61
597.844	717.11
598.294	724.41
598.744	765.41
599.195	777.01
599.645	815.61
600.095	863.11
600.545	919.51
600.995	976.31
601.445	1020.81
601.895	1082.11
602.345	1142.81
602.795	1106.51
603.245	1053.01
603.695	1007.61
604.145	953.21
604.594	919.11
605.044	853.71
605.494	794.41
605.944	749.41
606.393	742.91
606.843	731.41
607.293	728.81
607.743	741.61
608.192	749.01
608.642	761.41
609.091	768.41
609.541	770.61
609.99	763.81
610.44	764.91
610.889	718.51
611.339	698.41
611.788	687.81
612.238	699.91
612.687	726.01
613.136	721.41
613.586	748.61
614.035	744.21
614.484	764.31
614.933	764.71
615.383	765.71
615.832	737.01
616.281	729.81
616.73	695.11
617.179	667.11
617.628	652.11
618.077	642.01
618.526	626.71
618.975	611.61
619.424	619.41
619.873	613.51
620.322	616.51
620.771	603.21
621.22	610.01
621.669	594.71
622.118	594.61
622.567	577.51
623.015	568.01
623.464	572.21
623.913	564.31
624.361	555.01
624.81	550.71
625.259	568.71
625.707	563.11
626.156	566.21
626.604	569.01
627.053	563.21
627.501	558.11
627.95	563.21
628.398	586.21
628.847	577.31
629.295	579.01
629.744	577.91
630.192	576.31
630.64	574.61
631.089	560.81
631.537	589.41
631.985	590.31
632.433	610.71
632.881	622.61
633.33	671.71
633.778	650.31
634.226	567.51
634.674	578.71
635.122	582.41
635.57	599.71
636.018	626.51
636.466	586.21
636.914	563.81
637.362	572.21
637.81	577.31
638.258	577.91
638.705	583.71
639.153	616.61
639.601	626.91
640.049	645.31
640.497	677.51
640.944	691.61
641.392	638.81
641.84	618.51
642.287	590.21
642.735	569.21
643.182	574.21
643.63	575.81
644.078	573.21
644.525	592.51
644.973	604.51
645.42	615.01
645.867	636.61
646.315	644.21
646.762	672.41
647.21	700.51
647.657	712.81
648.104	754.11
648.551	776.11
648.999	848.41
649.446	915.81
649.893	1016.01
650.34	1169.11
650.787	1412.01
651.234	1749.81
651.682	2312.71
652.129	3181.41
652.576	4579.11
653.023	6757.41
653.47	9205.61
653.917	11436.61
654.363	13118.91
654.81	14449.91
655.257	13758.91
655.704	8992.71
656.151	5305.71
656.598	3436.61
657.044	2432.31
657.491	1869.81
657.938	1501.31
658.385	1250.01
658.831	1079.71
659.278	971.91
659.724	855.81
660.171	787.61
660.618	721.41
661.064	695.51
661.511	665.11
661.957	657.71
662.404	646.61
662.85	652.41
663.296	626.71
663.743	562.51
664.189	544.81
664.635	542.41
665.082	527.51
665.528	526.51
665.974	519.01
666.42	514.71
666.867	514.41
667.313	507.31
667.759	493.91
668.205	480.31
668.651	492.51
669.097	489.91
669.543	503.41
669.989	473.91
670.435	454.21
670.881	454.01
671.327	448.51
671.773	469.81
672.219	492.41
672.665	554.11
673.11	585.81
673.556	635.01
674.002	671.41
674.448	654.41
674.893	546.51
675.339	478.51
675.785	453.51
676.23	425.01
676.676	396.81
677.122	381.71
677.567	377.51
678.013	370.71
678.458	356.01
678.904	361.61
679.349	350.61
679.794	361.51
680.24	351.91
680.685	353.41
681.131	352.71
681.576	345.21
682.021	351.01
682.466	352.81
682.912	349.91
683.357	358.21
683.802	386.91
684.247	417.01
684.692	462.51
685.137	501.01
685.583	537.31
686.028	562.11
686.473	517.31
686.918	441.01
687.363	413.11
687.807	387.51
688.252	364.61
688.697	353.51
689.142	335.21
689.587	337.01
690.032	318.41
690.477	346.01
690.921	352.71
691.366	384.81
691.811	402.11
692.255	440.61
692.7	472.31
693.145	503.71
693.589	711.11
694.034	1136.11
694.478	1547.61
694.923	1722.31
695.367	2230.21
695.812	1187.21
696.256	493.71
696.701	376.41
697.145	352.01
697.59	333.11
698.034	328.81
698.478	332.01
698.922	333.61
699.367	321.01
699.811	347.41
700.255	363.01
700.699	398.41
701.143	431.71
701.588	479.71
702.032	516.21
702.476	525.41
702.92	493.31
703.364	495.71
703.808	650.31
704.252	1047.51
704.696	1469.61
705.14	1645.91
705.584	2106.71
706.027	1064.11
706.471	519.21
706.915	399.31
707.359	350.91
707.803	323.91
708.246	316.11
708.69	314.21
709.134	318.21
709.577	306.41
710.021	314.31
710.465	313.61
710.908	306.71
711.352	304.31
711.795	318.61
712.239	357.21
712.682	388.61
713.126	420.61
713.569	467.61
714.012	368.21
714.456	330.61
714.899	298.31
715.342	282.41
715.786	261.91
716.229	266.81
716.672	260.21
717.115	248.81
717.558	253.71
718.002	255.71
718.445	267.41
718.888	290.01
719.331	302.11
719.774	318.71
720.217	303.21
720.66	276.51
721.103	260.41
721.546	261.71
721.989	246.41
722.432	235.31
722.874	238.21
723.317	235.11
723.76	241.01
724.203	267.71
724.645	336.31
725.088	446.31
725.531	580.51
725.974	633.31
726.416	549.61
726.859	305.91
727.301	250.11
727.744	237.81
728.187	241.31
728.629	238.21
729.071	243.71
729.514	259.91
729.956	269.51
730.399	285.71
730.841	286.91
731.283	274.41
731.726	261.11
732.168	260.71
732.61	264.71
733.053	281.51
733.495	319.31
733.937	358.71
734.379	399.81
734.821	443.61
735.263	547.81
735.705	851.81
736.148	1611.31
736.59	2589.71
737.032	3022.11
737.474	2447.31
737.916	801.01
738.357	420.91
738.799	325.71
739.241	309.61
739.683	282.91
740.125	299.71
740.567	299.61
741.008	306.91
741.45	318.51
741.892	316.11
742.334	351.61
742.775	359.31
743.217	340.41
743.658	262.01
744.1	252.91
744.542	259.21
744.983	316.01
745.425	338.41
745.866	337.81
746.307	289.31
746.749	281.21
747.19	325.81
747.632	464.51
748.073	908.41
748.514	1906.61
748.956	2847.21
749.397	3557.51
749.838	2968.11
750.279	2918.61
750.72	1478.21
751.162	550.71
751.603	323.51
752.044	253.01
752.485	219.41
752.926	212.11
753.367	207.71
753.808	197.41
754.249	191.61
754.69	181.61
755.131	188.71
755.572	183.91
756.013	182.31
756.453	186.71
756.894	189.21
757.335	198.81
757.776	199.21
758.216	200.11
758.657	204.81
759.098	210.51
759.538	222.91
759.979	271.01
760.42	381.71
760.86	721.71
761.301	1883.61
761.741	4480.91
762.182	6326.71
762.622	4423.51
763.063	1311.11
763.503	536.81
763.943	350.81
764.384	349.81
764.824	417.41
765.264	455.11
765.705	316.01
766.145	215.41
766.585	190.21
767.025	186.41
767.465	192.01
767.906	251.91
768.346	330.01
768.786	349.41
769.226	270.11
769.666	326.11
770.106	640.21
770.546	1590.01
770.986	2628.11
771.426	2328.01
771.866	789.41
772.306	329.11
772.745	206.51
773.185	176.31
773.625	167.31
774.065	176.61
774.505	200.21
774.944	326.51
775.384	715.81
775.824	1260.71
776.263	1205.11
776.703	521.31
777.142	225.21
777.582	162.61
778.021	138.71
778.461	137.91
778.9	140.51
779.34	133.81
779.779	127.41
780.219	110.31
780.658	108.91
781.097	116.41
781.537	115.61
781.976	115.71
782.415	106.01
782.855	107.71
783.294	100.61
783.733	110.01
784.172	112.91
784.611	106.11
785.05	109.61
785.489	114.41
785.928	115.91
786.367	120.61
786.806	120.21
787.245	127.31
787.684	140.41
788.123	147.61
788.562	143.01
789.001	134.61
789.44	129.71
789.879	122.01
790.317	118.81
790.756	130.61
791.195	131.21
791.634	156.81
792.072	206.31
792.511	375.31
792.95	1047.01
793.388	2139.11
793.827	1915.51
794.265	676.51
794.704	281.71
795.142	185.11
795.581	153.71
796.019	139.21
796.458	126.41
796.896	127.51
797.334	135.51
797.773	157.91
798.211	226.01
798.649	454.01
799.087	1029.41
799.526	1616.61
799.964	2015.51
800.402	1979.71
800.84	749.01
801.278	299.81
801.716	188.51
802.154	157.51
802.592	152.41
803.03	139.61
803.468	140.41
803.906	146.41
804.344	147.21
804.782	146.11
805.22	139.01
805.658	136.21
806.096	146.51
806.533	160.51
806.971	176.91
807.409	222.11
807.847	323.21
808.284	682.21
808.722	1899.31
809.16	3261.11
809.597	3150.21
810.035	5410.31
810.472	5629.81
810.91	2066.41
811.347	787.81
811.785	411.81
812.222	255.91
812.66	201.31
813.097	166.81
813.535	134.11
813.972	128.31
814.409	120.91
814.846	104.11
815.284	111.51
815.721	109.51
816.158	108.91
816.595	119.21
817.032	180.21
817.47	195.51
817.907	164.81
818.344	157.41
818.781	122.61
819.218	106.61
819.655	119.11
820.092	192.91
820.529	208.51
820.966	180.11
821.403	135.91
821.839	114.21
822.276	103.51
822.713	121.51
823.15	137.21
823.587	113.31
824.023	158.41
824.46	316.31
824.897	910.71
825.333	1344.41
825.77	580.01
826.206	235.61
826.643	135.11
827.08	99.61
827.516	93.21
827.953	79.11
828.389	85.71
828.825	75.71
829.262	71.11
829.698	67.71
830.135	66.91
830.571	65.11
831.007	66.81
831.443	64.51
831.88	65.41
832.316	69.11
832.752	67.01
833.188	62.91
833.624	66.71
834.06	69.31
834.497	61.51
834.933	75.61
835.369	67.51
835.805	73.91
836.241	79.31
836.677	90.21
837.112	91.71
837.548	109.31
837.984	140.91
838.42	205.51
838.856	514.31
839.292	1531.91
839.727	2252.61
840.163	1055.61
840.599	945.91
841.034	2045.41
841.47	2089.81
841.906	769.31
842.341	333.71
842.777	237.01
843.212	332.01
843.648	323.21
844.083	156.11
844.519	104.21
844.954	80.81
845.39	66.51
845.825	60.51
846.261	61.51
846.696	54.71
847.131	54.71
847.566	64.41
848.002	57.31
848.437	59.21
848.872	60.21
849.307	61.21
849.742	89.41
850.177	185.91
850.613	564.01
851.048	869.41
851.483	379.41
851.918	153.61
852.353	88.31
852.788	57.21
853.223	58.11
853.657	56.81
854.092	52.71
854.527	45.41
854.962	38.71
855.397	48.81
855.832	45.01
856.266	44.21
856.701	40.41
857.136	37.11
857.57	36.71
858.005	42.91
858.44	61.91
858.874	46.31
859.309	59.41
859.743	40.61
860.178	47.81
860.612	44.11
861.047	50.91
861.481	65.21
861.915	72.91
862.35	51.01
862.784	39.61
863.218	42.41
863.653	36.71
864.087	47.51
864.521	54.61
864.955	71.21
865.39	160.51
865.824	174.31
866.258	123.11
866.692	171.21
867.126	171.61
867.56	99.81
867.994	53.01
868.428	42.11
868.862	52.11
869.296	57.41
869.73	55.61
870.164	59.81
870.598	51.21
871.031	41.51
871.465	31.81
871.899	34.91
872.333	29.61
872.766	28.91
873.2	26.61
873.634	35.61
874.067	26.31
874.501	25.41
874.935	32.51
875.368	27.51
875.802	29.81
876.235	21.31
876.669	24.91
877.102	27.91
877.535	33.41
877.969	27.51
878.402	28.31
878.836	22.21
879.269	24.31
879.702	35.11
880.135	22.31
880.569	27.41
881.002	28.51
881.435	23.51
881.868	21.01
882.301	23.41
882.734	23.31
883.167	25.81
883.601	25.21
884.034	20.91
884.467	19.71
884.899	20.91
885.332	22.41
885.765	17.21
886.198	18.61
886.631	17.81
887.064	19.61
887.497	26.41
887.929	31.11
888.362	15.51
888.795	13.61
889.228	17.31
889.66	23.61
890.093	19.51
890.526	20.11
890.958	13.81
891.391	24.11
891.823	20.31
892.256	17.31
892.688	13.41
893.121	15.61
893.553	17.91
893.985	22.11
894.418	23.71
894.85	7.21
895.282	16.31
895.715	16.71
896.147	21.31
896.579	13.71
897.011	15.41
897.444	20.21
897.876	19.11
898.308	20.01
898.74	18.01
899.172	15.21
899.604	21.61
900.036	21.41
900.468	20.01
900.9	18.51
901.332	18.51
901.764	14.11
902.196	21.21
902.628	15.91
903.06	26.31
903.491	28.81
903.923	21.21
904.355	24.11
904.787	26.01
905.218	21.31
905.65	17.81
906.082	13.31
906.513	17.31
906.945	20.91
907.376	10.21
907.808	26.11
908.239	19.91
908.671	21.91
909.102	21.11
909.534	26.11
909.965	44.91
910.397	86.81
910.828	318.81
911.259	475.71
911.691	221.51
912.122	109.11
912.553	54.01
912.984	33.01
913.415	31.11
913.847	30.71
914.278	19.11
914.709	18.31
915.14	19.71
915.571	20.71
916.002	10.41
916.433	20.61
916.864	19.51
917.295	16.81
917.726	21.71
918.157	14.81
918.587	29.71
919.018	22.01
919.449	20.11
919.88	25.61
920.311	33.91
920.741	49.51
921.172	175.91
921.603	155.71
922.033	69.91
922.464	43.01
922.895	20.21
923.325	29.11
923.756	16.91
924.186	18.71
924.617	28.81
925.047	46.21
925.478	56.01
925.908	50.41
926.338	27.11
926.769	10.41
927.199	25.31
927.629	8.51
928.06	24.81
928.49	15.41
928.92	22.11
929.35	17.11
929.78	17.61
930.21	11.01
930.641	11.21
931.071	14.11
931.501	5.71
931.931	12.71
932.361	11.21
932.791	9.01
933.221	3.51
933.651	9.71
934.08	22.61
934.51	32.71
934.94	11.91
935.37	5.71
935.8	11.61
936.229	8.51
936.659	10.21
937.089	7.71
937.519	21.21
937.948	22.41
938.378	20.91
938.807	9.51
939.237	4.51
939.666	11.41
940.096	3.01
940.525	2.51
940.955	3.71
941.384	2.21
941.814	0.11
942.243	-0.29
942.672	9.61
943.102	-6.89
943.531	-1.69
943.96	4.01
944.39	3.61
944.819	0.51
945.248	3.71
945.677	6.31
946.106	6.61
946.535	8.81
946.964	-0.99
947.393	1.51
947.822	-0.79
948.251	-0.49
948.68	2.31
949.109	5.41
949.538	10.01
949.967	10.11
950.396	2.31
950.825	1.01
951.254	2.11
951.682	-3.49
952.111	10.31
952.54	13.31
952.969	-0.19
953.397	-2.29
953.826	-0.79
954.254	-0.19
954.683	1.51
955.112	-2.29
955.54	-1.99
955.969	2.21
956.397	2.31
956.826	5.21
957.254	4.91
957.682	0.31
958.111	7.21
958.539	0.71
958.967	6.51
959.396	-2.69
959.824	3.61
960.252	-1.79
960.68	-5.19
961.109	-0.19
961.537	-0.29
961.965	-0.39
962.393	-4.29
962.821	-0.09
963.249	2.61
963.677	7.01
964.105	7.21
964.533	43.11
964.961	43.51
965.389	20.41
965.817	11.61
966.245	5.51
966.672	2.21
967.1	-4.49
967.528	2.21
967.956	-5.79
968.383	1.21
968.811	-2.09
969.239	-5.99
969.666	-1.59
970.094	4.21
970.522	5.51
970.949	-2.99
971.377	-3.89
971.804	-0.89
972.232	-2.49
972.659	-0.99
973.087	-4.19
973.514	-1.09
973.941	-5.29
974.369	3.21
974.796	-1.19
975.223	6.61
975.651	4.11
976.078	7.01
976.505	2.91
976.932	4.51
977.359	16.71
977.786	13.81
978.214	4.71
978.641	-0.49
979.068	2.61
979.495	-3.19
979.922	1.81
980.349	1.91
980.776	10.61
981.202	1.31
981.629	6.31
982.056	6.21
982.483	-3.79
982.91	0.81
983.337	-7.39
983.763	3.31
984.19	-2.59
984.617	-2.69
985.043	-6.79
985.47	0.21
985.897	1.61
986.323	-9.39
986.75	-0.39
987.176	5.71
987.603	4.71
988.029	2.41
988.456	-1.29
988.882	-2.99
989.308	-5.69
989.735	0.21
990.161	2.81
990.587	-1.89
991.014	1.31
991.44	9.41
991.866	-1.49
992.292	0.11
992.719	2.61
993.145	2.91
993.571	-5.19
993.997	-3.89
994.423	0.11
994.849	-10.89
995.275	3.31
995.701	1.61
996.127	3.81
996.553	6.01
996.979	-0.49
997.405	-1.19
997.83	-4.09
998.256	0.81
998.682	-4.09
999.108	-6.69
999.534	-2.29
999.959	-0.19
1000.385	-1.09
1000.811	0.21
1001.236	-8.09
1001.662	-8.39
1002.087	-9.19
1002.513	1.31
1002.938	6.11
1003.364	-4.49
1003.789	-0.09
1004.215	8.41
1004.64	-3.99
1005.066	1.61
1005.491	-2.59
1005.916	0.61
1006.342	-6.19
1006.767	-4.09
1007.192	3.71
1007.617	-1.49
1008.042	-2.49
1008.468	-1.69
1008.893	-2.99
1009.318	-1.59
1009.743	5.01
1010.168	5.21
1010.593	4.21
1011.018	-6.39
1011.443	1.91
1011.868	4.21
1012.293	-3.49
1012.718	-3.99
1013.143	1.11
1013.567	6.31
1013.992	0.01
1014.417	-12.69
1014.842	-0.99
1015.267	0.51
1015.691	0.71
1016.116	5.81
1016.541	2.71
1016.965	3.31
1017.39	1.51
1017.814	0.01
1018.239	-1.29
1018.663	-0.89
1019.088	-3.09
1019.512	-5.59
1019.937	3.11
1020.361	1.61
1020.785	-10.59
1021.21	0.41
1021.634	-4.59
1022.058	-0.89
1022.483	3.11
1022.907	0.01
1023.331	-5.19
1023.755	-0.59
1024.179	-1.39
1024.604	-4.49
1025.028	-7.49
1025.452	-0.39
1025.876	1.11
1026.3	2.01
1026.724	-11.29
1027.148	-2.59
1027.572	-7.79
1027.996	3.11
1028.42	-4.09
1028.843	-1.19
1029.267	-6.59
1029.691	-2.69
1030.115	-5.99
1030.539	-7.29
1030.962	-1.69
1031.386	-5.09
1031.81	-4.69
1032.233	-0.69
1032.657	3.41
1033.08	-3.39
1033.504	-1.69
1033.927	-1.09
1034.351	2.11
1034.774	-2.79
1035.198	-3.69
1035.621	-4.79
1036.045	-0.89
1036.468	1.11
1036.891	-6.59
1037.315	-1.09
1037.738	-7.49
1038.161	2.41
1038.584	-6.59
1039.008	-5.89
1039.431	-2.49
1039.854	-3.99
1040.277	-2.99
1040.7	-11.19
1041.123	0.11
1041.546	-12.59
1041.969	-1.69
1042.392	-2.79
1042.815	-0.29
1043.238	-0.89
1043.661	1.11
1044.084	-0.89
1044.507	-6.39
1044.93	-4.89
1045.352	-5.69
1045.775	-2.19
1046.198	4.41
1046.621	-1.09
1047.043	3.41
1047.466	13.41
1047.889	-3.29
1048.311	-2.99
1048.734	1.31
1049.156	-4.49
1049.579	0.91
1050.001	0.21
1050.424	5.31
1050.846	-6.29
1051.269	-4.99
1051.691	-5.09
1052.113	-3.49
1052.536	-6.79
1052.958	-4.39
1053.38	4.11
1053.802	-10.99
1054.225	9.41
1054.647	-7.69
1055.069	-8.49
1055.491	7.01
1055.913	-7.99
1056.335	-3.89
1056.757	-6.99
1057.179	-6.69
1057.601	-6.39
1058.023	-10.49
1058.445	-5.99
1058.867	2.21
1059.289	-8.29
1059.711	-3.49
1060.133	-0.09
1060.555	-1.69
1060.976	-6.79
1061.398	-4.59
1061.82	-10.39
1062.241	-1.99
1062.663	1.71
1063.085	1.81
1063.506	0.81
1063.928	-2.89
1064.35	2.41
1064.771	-7.19
1065.193	0.01
1065.614	-4.79
1066.035	-4.39
1066.457	2.01
1066.878	-1.39
1067.3	-3.29
1067.721	-1.09
1068.142	-4.99
1068.564	0.41
1068.985	-3.79
1069.406	-2.29
1069.827	-5.59
1070.248	0.01
1070.67	-1.39
1071.091	-4.99
1071.512	2.01
1071.933	-6.49
1072.354	-5.09
1072.775	-4.39
1073.196	-7.39
1073.617	-4.69
1074.038	-8.09
1074.459	-5.49
1074.88	-6.49
1075.3	1.71
1075.721	-2.09
1076.142	1.61
1076.563	-2.59
1076.983	-11.49
1077.404	-3.79
1077.825	-7.09
1078.246	-4.09
1078.666	-11.99
1079.087	-5.09
1079.507	-6.59
1079.928	0.41
1080.348	2.41
1080.769	-7.09
1081.189	-2.39
1081.61	-4.09
1082.03	-6.49
1082.451	-4.49
1082.871	-0.19
1083.291	-6.39
1083.711	-3.89
1084.132	-4.69
1084.552	-1.39
1084.972	1.01
1085.392	-9.49
1085.813	-11.89
1086.233	-5.09
1086.653	-5.39
1087.073	-3.29
1087.493	-5.19
1087.913	-6.09
1088.333	1.11
1088.753	-1.29
1089.173	3.31
1089.593	-0.39
1090.013	0.41
1090.433	3.81
1090.852	-2.49
1091.272	0.71
1091.692	-3.39
1092.112	-1.39
1092.531	-5.69
1092.951	-11.39
1093.371	-1.29
1093.79	-1.39
1094.21	-0.79
1094.63	-0.59
1095.049	-2.49
1095.469	-4.09
1095.888	-1.89
1096.308	4.31
1096.727	9.81
1097.146	0.21
1097.566	2.01
1097.985	-0.69
1098.405	-2.69
1098.824	0.11
1099.243	-8.79
1099.662	-3.99
1100.082	-8.89
1100.501	0.71
1100.92	-2.89
1101.339	-5.39
1101.758	-9.09
