Data from 20171114-ORNL-Ar_H_NY_Subt18_08-04-34-546.txt Node
Date: Tue Nov 14 08:04:34 EST 2017
User: Ender
Spectrometer: HR+D1039
Trigger mode: 0
Integration Time (sec): 2.730000E-2
Scans to average: 10
Electric dark correction enabled: true
Nonlinearity correction enabled: false
Boxcar width: 0
XAxis mode: Wavelengths
Number of Pixels in Spectrum: 2048
>>>>>Begin Spectral Data<<<<<
187.836	0.06
188.309	0.06
188.782	0.06
189.255	3.26
189.728	-1.64
190.201	6.66
190.674	1.36
191.147	6.56
191.619	-9.94
192.092	0.96
192.565	3.46
193.038	-0.74
193.511	3.46
193.984	-2.24
194.456	-0.74
194.929	-1.54
195.402	-7.14
195.874	-1.84
196.347	2.86
196.82	-7.04
197.292	5.66
197.765	0.56
198.237	-2.24
198.71	2.66
199.182	-0.54
199.655	0.36
200.127	3.86
200.6	-1.34
201.072	-1.64
201.544	-4.94
202.017	-2.54
202.489	5.46
202.961	5.06
203.433	-0.14
203.906	-4.34
204.378	-9.54
204.85	-6.94
205.322	-7.14
205.794	-3.94
206.266	-10.34
206.739	-9.24
207.211	2.06
207.683	-9.04
208.155	-4.44
208.627	-7.74
209.099	-6.24
209.57	-9.94
210.042	-5.74
210.514	-6.14
210.986	-0.34
211.458	-3.54
211.93	-9.14
212.402	-2.94
212.873	-9.14
213.345	-6.24
213.817	-15.94
214.288	-1.74
214.76	-11.84
215.232	-4.54
215.703	-2.84
216.175	-3.84
216.646	-1.54
217.118	-8.34
217.589	-2.94
218.061	-5.04
218.532	-5.64
219.004	-3.74
219.475	-2.44
219.946	-2.94
220.418	-9.04
220.889	5.76
221.36	-2.74
221.832	-3.14
222.303	-4.74
222.774	0.96
223.245	-9.14
223.717	-3.44
224.188	1.46
224.659	-1.74
225.13	-6.94
225.601	-4.94
226.072	-3.74
226.543	-1.84
227.014	3.16
227.485	-0.84
227.956	-4.74
228.427	1.56
228.898	6.06
229.369	5.76
229.839	-2.74
230.31	-2.34
230.781	-0.34
231.252	0.36
231.722	-6.14
232.193	-1.74
232.664	-3.04
233.135	1.76
233.605	-5.04
234.076	-3.74
234.546	2.96
235.017	0.36
235.487	-4.84
235.958	-0.84
236.428	-4.24
236.899	2.06
237.369	6.56
237.84	-1.64
238.31	7.16
238.78	6.16
239.251	3.76
239.721	5.66
240.191	-2.04
240.662	-5.84
241.132	4.96
241.602	-0.54
242.072	10.06
242.542	8.56
243.013	-5.04
243.483	6.86
243.953	7.66
244.423	-0.54
244.893	-4.44
245.363	9.96
245.833	5.06
246.303	-2.44
246.773	10.96
247.243	7.86
247.712	7.36
248.182	13.06
248.652	3.76
249.122	1.46
249.592	14.26
250.061	26.46
250.531	35.76
251.001	19.86
251.471	26.26
251.94	21.06
252.41	13.16
252.879	7.06
253.349	15.16
253.818	6.36
254.288	7.46
254.757	5.06
255.227	0.86
255.696	4.36
256.166	7.46
256.635	8.66
257.105	9.06
257.574	14.36
258.043	14.86
258.513	11.06
258.982	18.46
259.451	10.86
259.92	13.86
260.389	8.46
260.859	15.56
261.328	15.46
261.797	19.86
262.266	12.86
262.735	14.06
263.204	6.36
263.673	0.66
264.142	6.06
264.611	-0.74
265.08	2.86
265.549	4.26
266.018	4.06
266.487	3.66
266.955	2.96
267.424	2.46
267.893	9.26
268.362	1.76
268.83	1.26
269.299	14.56
269.768	4.06
270.236	12.06
270.705	6.96
271.174	5.16
271.642	10.76
272.111	12.66
272.579	17.76
273.048	27.06
273.516	32.26
273.985	30.76
274.453	27.36
274.922	22.66
275.39	15.56
275.858	5.36
276.327	13.86
276.795	17.56
277.263	12.96
277.731	36.36
278.2	59.36
278.668	61.26
279.136	48.66
279.604	23.46
280.072	15.76
280.54	14.36
281.008	9.06
281.477	10.56
281.945	10.36
282.413	11.96
282.881	15.86
283.348	10.66
283.816	18.46
284.284	18.96
284.752	17.66
285.22	18.16
285.688	18.86
286.156	23.56
286.623	42.06
287.091	61.96
287.559	31.96
288.026	21.06
288.494	18.56
288.962	5.36
289.429	12.46
289.897	21.96
290.364	16.36
290.832	21.16
291.3	15.16
291.767	16.66
292.234	21.16
292.702	19.86
293.169	20.26
293.637	28.56
294.104	21.56
294.571	10.26
295.039	20.36
295.506	15.76
295.973	17.26
296.44	18.46
296.908	18.76
297.375	19.16
297.842	19.36
298.309	22.26
298.776	13.66
299.243	21.26
299.71	12.46
300.177	18.36
300.644	23.46
301.111	22.06
301.578	24.76
302.045	16.56
302.512	23.66
302.979	20.86
303.446	23.96
303.913	20.16
304.379	14.66
304.846	29.46
305.313	26.76
305.78	25.66
306.246	26.96
306.713	29.56
307.18	27.76
307.646	27.66
308.113	30.26
308.579	28.26
309.046	29.26
309.512	22.86
309.979	24.66
310.445	28.26
310.912	28.36
311.378	29.46
311.845	33.26
312.311	32.46
312.777	32.96
313.244	35.86
313.71	37.46
314.176	39.06
314.642	31.56
315.109	31.96
315.575	33.86
316.041	35.56
316.507	32.66
316.973	38.86
317.439	32.26
317.905	37.66
318.371	37.06
318.837	34.26
319.303	36.16
319.769	38.86
320.235	36.66
320.701	37.36
321.167	35.96
321.633	33.06
322.099	40.66
322.564	48.06
323.03	39.26
323.496	32.76
323.962	38.26
324.427	41.96
324.893	41.36
325.359	43.46
325.824	34.56
326.29	36.96
326.755	42.56
327.221	41.86
327.686	40.06
328.152	48.06
328.617	44.16
329.083	42.56
329.548	48.16
330.014	47.46
330.479	45.66
330.944	42.66
331.41	42.36
331.875	42.16
332.34	45.66
332.805	43.96
333.271	48.36
333.736	50.86
334.201	55.26
334.666	54.86
335.131	60.06
335.596	50.46
336.061	54.16
336.526	46.96
336.991	43.06
337.456	53.56
337.921	47.66
338.386	38.96
338.851	41.16
339.316	50.86
339.781	46.26
340.246	49.96
340.711	45.46
341.175	50.96
341.64	38.76
342.105	45.16
342.569	56.56
343.034	61.66
343.499	58.46
343.963	49.86
344.428	60.86
344.893	54.66
345.357	57.66
345.822	57.46
346.286	61.06
346.751	76.76
347.215	68.56
347.679	75.46
348.144	92.96
348.608	84.16
349.073	69.06
349.537	70.96
350.001	71.66
350.465	85.46
350.93	72.86
351.394	75.86
351.858	66.06
352.322	82.66
352.786	79.26
353.25	91.06
353.715	104.36
354.179	97.76
354.643	113.56
355.107	126.76
355.571	102.76
356.035	99.46
356.498	121.26
356.962	111.66
357.426	116.96
357.89	112.66
358.354	80.16
358.818	79.46
359.281	81.16
359.745	79.66
360.209	80.46
360.673	73.56
361.136	81.46
361.6	84.76
362.064	83.76
362.527	83.66
362.991	83.56
363.454	73.66
363.918	72.36
364.381	73.76
364.845	81.16
365.308	82.76
365.772	83.96
366.235	80.36
366.698	80.66
367.162	85.96
367.625	87.06
368.088	85.66
368.552	84.66
369.015	89.36
369.478	93.56
369.941	92.36
370.404	86.36
370.867	103.36
371.331	100.16
371.794	109.76
372.257	101.36
372.72	114.36
373.183	100.76
373.646	107.66
374.109	102.16
374.572	101.86
375.035	102.96
375.497	99.16
375.96	94.76
376.423	97.36
376.886	105.36
377.349	110.36
377.811	95.76
378.274	98.06
378.737	103.86
379.199	99.56
379.662	103.96
380.125	112.96
380.587	115.26
381.05	114.36
381.512	125.66
381.975	125.46
382.437	122.96
382.9	115.46
383.362	121.96
383.825	134.36
384.287	137.76
384.75	128.36
385.212	137.46
385.674	129.26
386.136	126.36
386.599	119.96
387.061	123.96
387.523	123.96
387.985	127.96
388.447	136.06
388.91	134.36
389.372	144.56
389.834	143.56
390.296	139.86
390.758	140.86
391.22	157.16
391.682	193.16
392.144	273.56
392.606	218.06
393.068	154.76
393.529	162.36
393.991	140.36
394.453	135.76
394.915	144.46
395.377	184.46
395.838	200.26
396.3	140.56
396.762	136.26
397.224	122.06
397.685	118.56
398.147	124.66
398.608	121.56
399.07	115.56
399.531	124.36
399.993	135.56
400.454	138.36
400.916	129.66
401.377	131.16
401.839	144.16
402.3	145.36
402.762	154.76
403.223	168.06
403.684	165.16
404.145	151.06
404.607	149.06
405.068	154.76
405.529	165.86
405.99	179.86
406.451	164.16
406.913	157.76
407.374	147.56
407.835	148.66
408.296	152.66
408.757	157.76
409.218	165.56
409.679	160.56
410.14	170.06
410.601	169.56
411.062	170.06
411.522	174.76
411.983	178.36
412.444	164.76
412.905	165.06
413.366	177.16
413.826	178.46
414.287	202.96
414.748	247.86
415.208	229.76
415.669	198.26
416.13	195.76
416.59	187.76
417.051	199.96
417.511	204.26
417.972	222.26
418.432	225.66
418.893	269.06
419.353	234.76
419.814	184.06
420.274	168.56
420.734	166.76
421.195	186.36
421.655	182.56
422.115	175.66
422.576	178.16
423.036	183.76
423.496	191.96
423.956	192.96
424.416	212.76
424.876	249.56
425.336	240.76
425.797	239.46
426.257	240.16
426.717	228.76
427.177	216.06
427.637	209.56
428.097	215.06
428.556	223.76
429.016	251.36
429.476	242.66
429.936	255.26
430.396	255.96
430.856	272.16
431.315	295.46
431.775	315.06
432.235	353.96
432.694	324.36
433.154	333.16
433.614	357.96
434.073	315.16
434.533	260.86
434.993	253.16
435.452	257.36
435.912	271.16
436.371	268.26
436.83	255.86
437.29	247.96
437.749	225.76
438.209	223.66
438.668	245.36
439.127	264.46
439.587	251.66
440.046	233.16
440.505	241.66
440.964	257.26
441.424	292.86
441.883	280.86
442.342	236.76
442.801	206.46
443.26	207.66
443.719	199.86
444.178	204.36
444.637	193.16
445.096	202.66
445.555	201.56
446.014	206.46
446.473	204.96
446.932	208.86
447.391	209.56
447.849	207.66
448.308	198.36
448.767	203.06
449.226	218.66
449.685	214.36
450.143	228.26
450.602	223.46
451.061	211.56
451.519	217.66
451.978	212.06
452.436	216.26
452.895	223.56
453.353	226.26
453.812	222.66
454.27	222.46
454.729	223.06
455.187	222.96
455.646	226.26
456.104	225.76
456.562	231.96
457.021	240.96
457.479	233.36
457.937	250.26
458.395	239.26
458.854	228.66
459.312	236.36
459.77	252.26
460.228	233.06
460.686	215.86
461.144	225.96
461.602	222.36
462.06	219.96
462.518	233.56
462.976	241.16
463.434	237.06
463.892	248.26
464.35	254.56
464.808	264.36
465.266	249.56
465.724	257.16
466.181	251.06
466.639	245.96
467.097	270.46
467.555	277.86
468.012	284.16
468.47	291.16
468.928	304.76
469.385	322.26
469.843	316.46
470.3	322.46
470.758	335.46
471.215	347.16
471.673	376.66
472.13	366.36
472.588	382.46
473.045	348.06
473.503	345.16
473.96	359.16
474.417	368.56
474.875	400.56
475.332	433.56
475.789	425.86
476.246	437.56
476.704	453.96
477.161	472.56
477.618	474.36
478.075	512.16
478.532	562.16
478.989	638.46
479.446	735.16
479.903	707.66
480.36	751.56
480.817	808.36
481.274	908.66
481.731	1006.06
482.188	1090.76
482.645	1227.76
483.102	1323.66
483.558	1454.66
484.015	1502.36
484.472	1470.46
484.929	1439.56
485.385	1399.06
485.842	1350.56
486.299	1293.96
486.755	1217.66
487.212	1019.06
487.668	859.46
488.125	787.36
488.582	724.76
489.038	693.66
489.494	663.16
489.951	640.66
490.407	631.16
490.864	603.26
491.32	604.06
491.776	587.76
492.233	600.16
492.689	568.96
493.145	562.86
493.602	547.36
494.058	559.56
494.514	567.86
494.97	594.26
495.426	601.16
495.882	579.66
496.338	566.46
496.794	588.16
497.251	570.46
497.707	590.26
498.163	596.66
498.618	597.66
499.074	597.26
499.53	623.76
499.986	620.86
500.442	602.86
500.898	589.06
501.354	571.76
501.809	583.46
502.265	602.46
502.721	612.06
503.177	620.16
503.632	606.86
504.088	633.76
504.543	655.26
504.999	649.66
505.455	599.76
505.91	580.36
506.366	585.86
506.821	591.36
507.277	572.06
507.732	569.56
508.187	570.16
508.643	578.76
509.098	587.56
509.553	600.36
510.009	610.76
510.464	607.66
510.919	634.26
511.375	633.86
511.83	654.36
512.285	662.06
512.74	695.96
513.195	729.26
513.65	704.56
514.105	713.76
514.56	718.86
515.015	735.66
515.47	745.66
515.925	736.16
516.38	731.06
516.835	738.16
517.29	724.96
517.745	722.16
518.2	703.66
518.655	690.86
519.109	687.86
519.564	682.46
520.019	683.86
520.474	679.86
520.928	679.26
521.383	652.06
521.838	660.66
522.292	661.86
522.747	650.36
523.201	648.96
523.656	645.46
524.11	637.66
524.565	638.66
525.019	630.56
525.474	647.26
525.928	651.26
526.382	640.26
526.837	641.66
527.291	647.56
527.745	633.46
528.2	643.16
528.654	641.06
529.108	633.26
529.562	639.96
530.016	631.06
530.47	626.26
530.925	627.96
531.379	635.96
531.833	646.66
532.287	642.76
532.741	652.46
533.195	650.56
533.649	649.86
534.103	664.56
534.556	655.96
535.01	655.36
535.464	656.16
535.918	670.26
536.372	666.36
536.826	651.36
537.279	633.86
537.733	643.96
538.187	653.66
538.64	655.16
539.094	663.56
539.548	670.46
540.001	653.76
540.455	664.26
540.908	662.26
541.362	673.96
541.815	676.66
542.269	686.96
542.722	691.86
543.175	705.96
543.629	704.66
544.082	718.46
544.536	719.56
544.989	708.76
545.442	722.96
545.895	714.86
546.349	722.26
546.802	719.56
547.255	720.26
547.708	721.96
548.161	741.86
548.614	743.56
549.067	744.36
549.52	749.16
549.973	739.46
550.426	733.46
550.879	722.46
551.332	726.06
551.785	734.56
552.238	737.86
552.691	736.96
553.144	759.46
553.596	769.96
554.049	781.06
554.502	811.66
554.955	826.16
555.407	820.46
555.86	821.06
556.313	806.96
556.765	799.46
557.218	799.66
557.67	803.46
558.123	798.66
558.576	789.76
559.028	801.86
559.48	805.56
559.933	791.16
560.385	760.06
560.838	730.36
561.29	705.56
561.742	702.86
562.195	689.76
562.647	692.76
563.099	700.26
563.551	703.66
564.004	701.96
564.456	693.16
564.908	684.26
565.36	666.96
565.812	652.96
566.264	650.86
566.716	653.56
567.168	644.56
567.62	644.06
568.072	625.96
568.524	622.06
568.976	611.46
569.428	601.56
569.88	604.66
570.332	608.86
570.784	618.86
571.235	603.16
571.687	622.56
572.139	623.36
572.59	630.86
573.042	636.46
573.494	633.56
573.945	634.46
574.397	607.26
574.849	617.46
575.3	616.46
575.752	614.96
576.203	610.36
576.655	614.56
577.106	603.36
577.557	594.16
578.009	587.86
578.46	598.66
578.912	588.56
579.363	598.76
579.814	601.36
580.265	594.16
580.717	601.16
581.168	594.96
581.619	619.26
582.07	612.86
582.521	601.76
582.972	601.66
583.423	600.76
583.875	602.06
584.326	625.16
584.777	664.96
585.227	743.96
585.678	834.36
586.129	913.76
586.58	977.96
587.031	1062.76
587.482	1228.66
587.933	1402.16
588.384	1210.76
588.834	874.86
589.285	724.76
589.736	689.86
590.186	685.26
590.637	690.76
591.088	647.26
591.538	647.66
591.989	647.36
592.439	639.26
592.89	626.56
593.34	620.36
593.791	623.36
594.241	619.46
594.692	617.26
595.142	621.36
595.593	614.26
596.043	629.46
596.493	634.46
596.943	625.26
597.394	636.96
597.844	626.46
598.294	637.56
598.744	657.66
599.195	676.96
599.645	718.16
600.095	757.46
600.545	794.36
600.995	846.16
601.445	897.36
601.895	958.26
602.345	1000.46
602.795	983.16
603.245	949.96
603.695	898.26
604.145	839.26
604.594	795.86
605.044	748.66
605.494	701.06
605.944	668.46
606.393	648.86
606.843	640.16
607.293	637.26
607.743	637.86
608.192	648.56
608.642	671.66
609.091	667.06
609.541	673.86
609.99	672.06
610.44	665.56
610.889	627.56
611.339	601.16
611.788	595.56
612.238	612.76
612.687	636.16
613.136	631.16
613.586	641.86
614.035	644.46
614.484	672.76
614.933	666.36
615.383	660.16
615.832	634.86
616.281	631.76
616.73	594.96
617.179	584.96
617.628	565.36
618.077	550.86
618.526	539.56
618.975	541.46
619.424	537.16
619.873	535.46
620.322	536.66
620.771	526.36
621.22	522.96
621.669	515.86
622.118	507.06
622.567	501.66
623.015	497.56
623.464	501.26
623.913	486.86
624.361	475.96
624.81	473.56
625.259	489.46
625.707	478.46
626.156	482.86
626.604	489.26
627.053	483.96
627.501	485.26
627.95	489.16
628.398	493.06
628.847	494.76
629.295	487.36
629.744	489.06
630.192	496.96
630.64	499.86
631.089	487.06
631.537	499.66
631.985	503.66
632.433	511.66
632.881	522.56
633.33	565.06
633.778	543.66
634.226	485.96
634.674	497.76
635.122	493.16
635.57	511.76
636.018	532.16
636.466	501.86
636.914	484.76
637.362	494.06
637.81	494.86
638.258	503.76
638.705	492.56
639.153	515.36
639.601	524.86
640.049	546.56
640.497	573.66
640.944	594.86
641.392	557.96
641.84	522.26
642.287	505.96
642.735	489.26
643.182	490.76
643.63	490.96
644.078	499.16
644.525	505.76
644.973	511.46
645.42	521.16
645.867	534.96
646.315	560.36
646.762	565.56
647.21	593.76
647.657	610.16
648.104	639.26
648.551	661.56
648.999	714.26
649.446	778.16
649.893	857.16
650.34	990.26
650.787	1181.46
651.234	1469.06
651.682	1909.06
652.129	2595.56
652.576	3755.66
653.023	5581.86
653.47	7694.56
653.917	9759.66
654.363	11416.66
654.81	12866.76
655.257	12188.96
655.704	7884.46
656.151	4617.66
656.598	2989.46
657.044	2106.56
657.491	1602.96
657.938	1288.76
658.385	1066.86
658.831	934.46
659.278	822.36
659.724	737.56
660.171	676.06
660.618	619.56
661.064	584.16
661.511	562.76
661.957	551.46
662.404	545.56
662.85	548.36
663.296	528.76
663.743	473.06
664.189	451.86
664.635	450.26
665.082	450.96
665.528	451.16
665.974	433.26
666.42	437.56
666.867	433.66
667.313	412.16
667.759	413.36
668.205	409.66
668.651	412.16
669.097	412.26
669.543	427.46
669.989	399.56
670.435	379.96
670.881	374.36
671.327	382.16
671.773	402.66
672.219	422.06
672.665	458.96
673.11	487.66
673.556	527.96
674.002	566.06
674.448	556.96
674.893	466.16
675.339	398.66
675.785	364.56
676.23	354.86
676.676	326.36
677.122	317.66
677.567	307.96
678.013	303.76
678.458	306.56
678.904	300.56
679.349	287.36
679.794	296.16
680.24	292.26
680.685	294.56
681.131	285.56
681.576	289.66
682.021	296.16
682.466	287.46
682.912	296.96
683.357	291.96
683.802	321.76
684.247	340.26
684.692	375.66
685.137	417.86
685.583	453.56
686.028	472.66
686.473	440.66
686.918	373.16
687.363	344.86
687.807	328.96
688.252	306.16
688.697	298.56
689.142	278.16
689.587	281.26
690.032	275.16
690.477	283.46
690.921	291.16
691.366	324.26
691.811	330.86
692.255	356.76
692.7	391.16
693.145	412.66
693.589	567.66
694.034	922.26
694.478	1264.96
694.923	1468.56
695.367	1940.86
695.812	1016.16
696.256	419.66
696.701	312.76
697.145	289.96
697.59	273.16
698.034	260.96
698.478	277.96
698.922	275.16
699.367	272.46
699.811	283.16
700.255	288.36
700.699	318.16
701.143	349.76
701.588	398.86
702.032	434.56
702.476	431.76
702.92	412.96
703.364	397.76
703.808	510.16
704.252	842.76
704.696	1192.56
705.14	1413.16
705.584	1819.16
706.027	896.46
706.471	440.66
706.915	334.36
707.359	296.06
707.803	259.96
708.246	262.06
708.69	263.16
709.134	260.96
709.577	250.36
710.021	260.26
710.465	252.56
710.908	247.66
711.352	249.86
711.795	252.66
712.239	292.36
712.682	319.86
713.126	355.26
713.569	397.56
714.012	306.86
714.456	267.86
714.899	252.66
715.342	227.96
715.786	216.06
716.229	214.06
716.672	205.26
717.115	208.16
717.558	208.56
718.002	198.76
718.445	218.26
718.888	237.06
719.331	241.76
719.774	260.06
720.217	255.16
720.66	242.76
721.103	221.06
721.546	215.26
721.989	208.86
722.432	183.76
722.874	192.96
723.317	188.76
723.76	196.26
724.203	213.66
724.645	263.66
725.088	358.26
725.531	474.16
725.974	546.56
726.416	464.86
726.859	253.06
727.301	209.96
727.744	201.06
728.187	193.66
728.629	200.56
729.071	194.56
729.514	209.86
729.956	224.06
730.399	223.56
730.841	235.96
731.283	226.66
731.726	217.26
732.168	206.86
732.61	221.06
733.053	236.56
733.495	255.56
733.937	284.76
734.379	327.56
734.821	356.76
735.263	446.26
735.705	663.96
736.148	1272.26
736.59	2118.86
737.032	2605.36
737.474	2121.26
737.916	677.76
738.357	349.76
738.799	269.76
739.241	239.86
739.683	228.16
740.125	250.76
740.567	251.16
741.008	259.76
741.45	264.16
741.892	261.16
742.334	290.96
742.775	291.26
743.217	282.76
743.658	230.26
744.1	210.66
744.542	214.56
744.983	257.26
745.425	285.36
745.866	289.06
746.307	240.16
746.749	233.86
747.19	258.96
747.632	360.16
748.073	701.86
748.514	1501.96
748.956	2382.06
749.397	2974.66
749.838	2463.46
750.279	2538.26
750.72	1260.36
751.162	444.96
751.603	261.66
752.044	209.36
752.485	179.26
752.926	167.36
753.367	165.46
753.808	159.86
754.249	155.26
754.69	153.56
755.131	152.36
755.572	150.36
756.013	149.86
756.453	147.96
756.894	155.06
757.335	157.86
757.776	155.46
758.216	160.06
758.657	164.16
759.098	164.76
759.538	186.46
759.979	216.56
760.42	299.36
760.86	554.96
761.301	1456.06
761.741	3608.96
762.182	5553.56
762.622	3873.46
763.063	1106.96
763.503	445.66
763.943	285.06
764.384	295.76
764.824	348.26
765.264	392.66
765.705	266.36
766.145	173.56
766.585	159.06
767.025	145.16
767.465	149.86
767.906	204.86
768.346	273.96
768.786	296.06
769.226	222.36
769.666	260.26
770.106	483.16
770.546	1250.16
770.986	2233.46
771.426	2033.66
771.866	672.56
772.306	271.06
772.745	172.66
773.185	140.76
773.625	145.16
774.065	134.06
774.505	164.06
774.944	252.96
775.384	571.36
775.824	1096.06
776.263	1088.96
776.703	451.16
777.142	184.36
777.582	140.86
778.021	115.16
778.461	118.36
778.9	115.96
779.34	106.36
779.779	99.26
780.219	91.96
780.658	85.56
781.097	90.16
781.537	92.36
781.976	86.16
782.415	86.86
782.855	83.06
783.294	86.46
783.733	92.76
784.172	98.26
784.611	86.76
785.05	96.26
785.489	92.96
785.928	100.56
786.367	97.16
786.806	97.56
787.245	101.96
787.684	113.26
788.123	122.26
788.562	113.16
789.001	108.86
789.44	105.36
789.879	93.96
790.317	92.26
790.756	104.46
791.195	100.86
791.634	122.46
792.072	167.16
792.511	285.06
792.95	789.06
793.388	1797.46
793.827	1665.36
794.265	567.66
794.704	232.76
795.142	151.16
795.581	129.16
796.019	110.76
796.458	107.36
796.896	98.86
797.334	108.66
797.773	120.86
798.211	181.16
798.649	353.56
799.087	838.76
799.526	1328.16
799.964	1668.06
800.402	1722.56
800.84	630.96
801.278	251.56
801.716	152.36
802.154	127.96
802.592	115.16
803.03	109.66
803.468	104.76
803.906	112.26
804.344	122.26
804.782	117.36
805.22	109.96
805.658	110.66
806.096	120.06
806.533	130.66
806.971	137.76
807.409	177.76
807.847	252.06
808.284	527.16
808.722	1508.36
809.16	2797.06
809.597	2551.76
810.035	4525.96
810.472	5034.96
810.91	1787.96
811.347	656.36
811.785	331.16
812.222	211.56
812.66	158.26
813.097	128.06
813.535	109.76
813.972	109.46
814.409	93.26
814.846	92.86
815.284	98.46
815.721	81.86
816.158	87.16
816.595	95.66
817.032	149.96
817.47	174.76
817.907	147.66
818.344	123.06
818.781	100.06
819.218	85.26
819.655	99.56
820.092	155.26
820.529	186.36
820.966	144.56
821.403	115.46
821.839	90.16
822.276	81.66
822.713	102.06
823.15	104.46
823.587	95.06
824.023	121.06
824.46	224.06
824.897	728.06
825.333	1168.36
825.77	491.46
826.206	199.86
826.643	118.66
827.08	86.56
827.516	68.66
827.953	65.66
828.389	67.66
828.825	58.76
829.262	50.36
829.698	51.46
830.135	57.26
830.571	49.66
831.007	55.76
831.443	53.06
831.88	50.06
832.316	49.76
832.752	58.06
833.188	55.66
833.624	57.36
834.06	55.26
834.497	49.16
834.933	57.26
835.369	56.76
835.805	55.56
836.241	58.76
836.677	63.16
837.112	76.86
837.548	79.86
837.984	106.86
838.42	162.96
838.856	394.96
839.292	1251.16
839.727	1977.06
840.163	907.86
840.599	751.36
841.034	1694.56
841.47	1851.96
841.906	659.96
842.341	269.16
842.777	195.96
843.212	273.36
843.648	278.56
844.083	130.46
844.519	82.86
844.954	66.86
845.39	44.06
845.825	48.16
846.261	47.06
846.696	47.36
847.131	40.86
847.566	48.96
848.002	39.26
848.437	44.56
848.872	52.86
849.307	53.46
849.742	61.56
850.177	147.56
850.613	452.66
851.048	749.36
851.483	316.26
851.918	122.96
852.353	69.06
852.788	50.46
853.223	44.66
853.657	43.56
854.092	36.16
854.527	33.16
854.962	34.06
855.397	35.16
855.832	40.36
856.266	31.56
856.701	36.06
857.136	33.86
857.57	27.76
858.005	39.96
858.44	50.26
858.874	39.66
859.309	46.36
859.743	32.56
860.178	41.06
860.612	33.16
861.047	35.96
861.481	54.06
861.915	59.26
862.35	40.46
862.784	22.06
863.218	28.66
863.653	27.66
864.087	42.06
864.521	42.66
864.955	54.26
865.39	125.66
865.824	142.66
866.258	93.66
866.692	135.06
867.126	149.56
867.56	83.56
867.994	47.76
868.428	35.46
868.862	42.86
869.296	43.86
869.73	45.16
870.164	42.36
870.598	38.76
871.031	26.86
871.465	14.46
871.899	24.86
872.333	13.66
872.766	18.26
873.2	16.86
873.634	24.86
874.067	19.96
874.501	22.96
874.935	30.26
875.368	25.46
875.802	19.56
876.235	21.26
876.669	15.66
877.102	22.06
877.535	20.96
877.969	20.86
878.402	15.86
878.836	18.26
879.269	21.26
879.702	18.06
880.135	15.06
880.569	17.26
881.002	23.46
881.435	12.76
881.868	19.06
882.301	17.36
882.734	10.76
883.167	13.66
883.601	11.66
884.034	18.16
884.467	7.66
884.899	13.86
885.332	10.96
885.765	15.06
886.198	8.06
886.631	12.66
887.064	11.46
887.497	14.36
887.929	21.26
888.362	11.56
888.795	8.96
889.228	14.56
889.66	14.16
890.093	19.66
890.526	15.46
890.958	18.36
891.391	18.06
891.823	15.86
892.256	11.16
892.688	6.16
893.121	5.76
893.553	9.16
893.985	15.06
894.418	18.26
894.85	6.36
895.282	13.66
895.715	16.96
896.147	16.66
896.579	11.26
897.011	9.26
897.444	13.86
897.876	10.86
898.308	17.66
898.74	13.76
899.172	9.86
899.604	22.56
900.036	22.26
900.468	10.06
900.9	13.36
901.332	13.56
901.764	11.46
902.196	17.46
902.628	16.56
903.06	12.66
903.491	26.66
903.923	18.06
904.355	18.16
904.787	22.36
905.218	16.16
905.65	18.26
906.082	9.86
906.513	11.06
906.945	14.46
907.376	8.06
907.808	18.36
908.239	13.56
908.671	15.46
909.102	13.16
909.534	20.36
909.965	41.56
910.397	74.86
910.828	269.76
911.259	404.76
911.691	195.16
912.122	86.36
912.553	44.26
912.984	22.96
913.415	17.86
913.847	27.66
914.278	13.06
914.709	12.26
915.14	11.66
915.571	17.06
916.002	6.86
916.433	13.56
916.864	12.66
917.295	5.96
917.726	16.06
918.157	12.56
918.587	21.96
919.018	15.86
919.449	19.16
919.88	18.26
920.311	17.86
920.741	43.76
921.172	136.76
921.603	129.06
922.033	56.46
922.464	41.66
922.895	19.76
923.325	19.26
923.756	9.06
924.186	11.66
924.617	20.06
925.047	33.66
925.478	47.16
925.908	35.86
926.338	21.06
926.769	12.86
927.199	20.56
927.629	13.56
928.06	16.76
928.49	12.36
928.92	10.46
929.35	10.56
929.78	7.06
930.21	8.76
930.641	16.06
931.071	9.86
931.501	2.16
931.931	9.26
932.361	4.46
932.791	2.66
933.221	5.36
933.651	1.56
934.08	15.96
934.51	29.06
934.94	2.36
935.37	10.96
935.8	4.76
936.229	-1.14
936.659	5.96
937.089	4.86
937.519	12.56
937.948	21.46
938.378	20.96
938.807	2.96
939.237	4.66
939.666	4.16
940.096	-9.44
940.525	0.26
940.955	3.16
941.384	-1.84
941.814	-8.84
942.243	-4.84
942.672	1.46
943.102	-1.74
943.531	1.66
943.96	4.56
944.39	0.86
944.819	-2.24
945.248	0.56
945.677	4.06
946.106	8.76
946.535	6.16
946.964	0.46
947.393	-1.64
947.822	1.96
948.251	1.26
948.68	1.26
949.109	1.36
949.538	4.06
949.967	1.56
950.396	0.26
950.825	-2.74
951.254	2.96
951.682	-6.84
952.111	-2.04
952.54	-1.74
952.969	-3.34
953.397	-1.44
953.826	-5.74
954.254	-7.14
954.683	0.06
955.112	-0.34
955.54	-1.14
955.969	4.76
956.397	2.36
956.826	-2.24
957.254	-1.64
957.682	-0.24
958.111	2.06
958.539	-4.64
958.967	-0.24
959.396	-1.04
959.824	0.36
960.252	-0.34
960.68	-8.04
961.109	-0.64
961.537	-2.34
961.965	0.56
962.393	-4.54
962.821	-2.64
963.249	-0.34
963.677	6.86
964.105	2.36
964.533	34.96
964.961	33.86
965.389	22.16
965.817	4.96
966.245	-2.84
966.672	4.76
967.1	-10.84
967.528	3.46
967.956	-9.04
968.383	-5.14
968.811	-2.64
969.239	0.86
969.666	-1.84
970.094	4.06
970.522	0.46
970.949	1.96
971.377	-0.84
971.804	-4.04
972.232	-4.54
972.659	-6.84
973.087	-4.64
973.514	-5.94
973.941	-2.94
974.369	3.66
974.796	-4.44
975.223	1.06
975.651	-6.54
976.078	1.16
976.505	-3.24
976.932	1.26
977.359	5.66
977.786	14.26
978.214	-0.34
978.641	-1.04
979.068	-7.14
979.495	-9.94
979.922	-9.24
980.349	-4.34
980.776	5.56
981.202	-3.64
981.629	3.86
982.056	3.46
982.483	-0.84
982.91	3.46
983.337	-14.24
983.763	-0.74
984.19	-0.74
984.617	-5.14
985.043	-2.94
985.47	-6.74
985.897	-6.14
986.323	-8.74
986.75	-1.94
987.176	-0.34
987.603	1.16
988.029	-0.64
988.456	-3.94
988.882	5.76
989.308	-3.64
989.735	-8.14
990.161	-0.74
990.587	-5.84
991.014	1.36
991.44	7.66
991.866	-0.84
992.292	-7.44
992.719	-1.54
993.145	-1.74
993.571	-10.34
993.997	-8.34
994.423	-0.84
994.849	-1.14
995.275	7.66
995.701	-8.14
996.127	-2.24
996.553	4.76
996.979	-3.14
997.405	-3.44
997.83	-10.54
998.256	-7.04
998.682	-5.14
999.108	-10.04
999.534	-5.84
999.959	-2.84
1000.385	-2.84
1000.811	0.16
1001.236	-8.14
1001.662	-7.44
1002.087	-8.64
1002.513	-4.24
1002.938	2.86
1003.364	2.06
1003.789	-1.04
1004.215	3.36
1004.64	-1.14
1005.066	-5.14
1005.491	-1.94
1005.916	-2.84
1006.342	-5.34
1006.767	-7.44
1007.192	2.76
1007.617	-5.24
1008.042	-5.14
1008.468	-9.04
1008.893	-9.94
1009.318	-9.14
1009.743	2.96
1010.168	5.16
1010.593	-2.04
1011.018	-9.44
1011.443	-1.14
1011.868	-4.04
1012.293	-6.54
1012.718	-9.14
1013.143	4.66
1013.567	1.46
1013.992	-5.64
1014.417	-11.54
1014.842	2.86
1015.267	-6.84
1015.691	-4.84
1016.116	-2.94
1016.541	-1.14
1016.965	-2.74
1017.39	1.06
1017.814	-2.74
1018.239	1.26
1018.663	-5.64
1019.088	-5.44
1019.512	-4.24
1019.937	-4.24
1020.361	-6.64
1020.785	-13.44
1021.21	3.36
1021.634	-0.54
1022.058	-0.34
1022.483	8.26
1022.907	0.36
1023.331	-7.74
1023.755	-0.34
1024.179	2.16
1024.604	-5.64
1025.028	-4.54
1025.452	-5.04
1025.876	-4.54
1026.3	-0.64
1026.724	-7.44
1027.148	-9.94
1027.572	-6.74
1027.996	-2.04
1028.42	-0.84
1028.843	-3.04
1029.267	-1.94
1029.691	-7.44
1030.115	-9.84
1030.539	-10.64
1030.962	-2.84
1031.386	-19.24
1031.81	-1.24
1032.233	-2.64
1032.657	1.36
1033.08	-1.94
1033.504	-2.34
1033.927	-4.64
1034.351	1.06
1034.774	-4.54
1035.198	-8.84
1035.621	-6.74
1036.045	-4.44
1036.468	-1.64
1036.891	-10.84
1037.315	-6.54
1037.738	-9.64
1038.161	0.76
1038.584	-7.54
1039.008	-6.94
1039.431	-6.84
1039.854	-1.14
1040.277	-9.74
1040.7	-11.04
1041.123	1.56
1041.546	-5.94
1041.969	-2.04
1042.392	-11.04
1042.815	-2.04
1043.238	-1.24
1043.661	7.66
1044.084	-7.44
1044.507	-5.74
1044.93	-2.54
1045.352	-5.84
1045.775	-2.24
1046.198	-1.14
1046.621	-1.34
1047.043	-2.54
1047.466	2.76
1047.889	-4.74
1048.311	-7.64
1048.734	-8.34
1049.156	2.36
1049.579	-2.24
1050.001	-4.64
1050.424	-4.14
1050.846	-7.64
1051.269	-5.14
1051.691	-6.34
1052.113	-3.04
1052.536	-3.54
1052.958	-0.84
1053.38	-1.54
1053.802	-4.44
1054.225	1.76
1054.647	-11.14
1055.069	-0.94
1055.491	-0.04
1055.913	-3.74
1056.335	2.86
1056.757	-5.84
1057.179	-1.14
1057.601	-11.54
1058.023	-1.44
1058.445	-2.14
1058.867	-9.04
1059.289	-4.04
1059.711	-4.34
1060.133	-4.74
1060.555	-3.74
1060.976	-6.44
1061.398	-1.84
1061.82	-6.44
1062.241	-1.24
1062.663	-8.54
1063.085	-3.44
1063.506	-6.24
1063.928	-6.94
1064.35	-2.24
1064.771	-7.14
1065.193	-1.24
1065.614	-11.04
1066.035	0.86
1066.457	-1.64
1066.878	3.36
1067.3	-4.44
1067.721	-8.54
1068.142	-4.74
1068.564	-3.44
1068.985	-7.74
1069.406	-6.24
1069.827	-4.84
1070.248	0.66
1070.67	-6.44
1071.091	-9.94
1071.512	-4.54
1071.933	-7.74
1072.354	-7.44
1072.775	-5.74
1073.196	-7.94
1073.617	-5.14
1074.038	-5.84
1074.459	-7.74
1074.88	-9.84
1075.3	1.46
1075.721	-5.34
1076.142	-0.14
1076.563	-3.74
1076.983	-9.54
1077.404	-10.14
1077.825	-5.54
1078.246	-6.14
1078.666	-10.44
1079.087	-0.14
1079.507	-7.14
1079.928	-0.84
1080.348	-2.14
1080.769	-2.24
1081.189	3.96
1081.61	1.56
1082.03	-5.84
1082.451	-8.84
1082.871	-8.74
1083.291	-12.44
1083.711	-10.84
1084.132	-6.14
1084.552	-1.04
1084.972	0.26
1085.392	-13.24
1085.813	-7.74
1086.233	-9.64
1086.653	-6.54
1087.073	-4.64
1087.493	-5.64
1087.913	-4.94
1088.333	-9.14
1088.753	-3.24
1089.173	4.96
1089.593	0.66
1090.013	-1.94
1090.433	-0.44
1090.852	0.76
1091.272	0.86
1091.692	-1.74
1092.112	-3.14
1092.531	-8.44
1092.951	-11.34
1093.371	-1.04
1093.79	4.96
1094.21	-4.44
1094.63	-5.34
1095.049	-8.64
1095.469	-7.04
1095.888	0.96
1096.308	-2.44
1096.727	6.96
1097.146	-6.84
1097.566	2.36
1097.985	-3.44
1098.405	-4.34
1098.824	-4.74
1099.243	-6.74
1099.662	-8.44
1100.082	-2.74
1100.501	-1.84
1100.92	-7.34
1101.339	-2.24
1101.758	-3.54
