Data from 20171114-ORNL-Ar_H_NY_Subt18_08-07-56-549.txt Node
Date: Tue Nov 14 08:07:56 EST 2017
User: Ender
Spectrometer: HR+D1039
Trigger mode: 0
Integration Time (sec): 2.730000E-2
Scans to average: 10
Electric dark correction enabled: true
Nonlinearity correction enabled: false
Boxcar width: 0
XAxis mode: Wavelengths
Number of Pixels in Spectrum: 2048
>>>>>Begin Spectral Data<<<<<
187.836	-4.31
188.309	-4.31
188.782	-4.31
189.255	1.49
189.728	-0.41
190.201	0.89
190.674	2.19
191.147	3.99
191.619	-4.41
192.092	1.39
192.565	4.49
193.038	-1.91
193.511	-5.01
193.984	-1.61
194.456	0.59
194.929	1.39
195.402	-3.61
195.874	4.89
196.347	0.89
196.82	-1.71
197.292	2.89
197.765	3.89
198.237	-3.11
198.71	3.69
199.182	0.49
199.655	1.39
200.127	0.09
200.6	2.59
201.072	-0.31
201.544	-7.21
202.017	0.19
202.489	8.89
202.961	-5.01
203.433	-1.31
203.906	-6.01
204.378	0.99
204.85	0.29
205.322	-3.81
205.794	1.09
206.266	0.09
206.739	-5.51
207.211	6.59
207.683	-5.21
208.155	-9.01
208.627	-7.71
209.099	-3.71
209.57	-8.51
210.042	-6.51
210.514	-1.11
210.986	-2.41
211.458	-2.31
211.93	-3.51
212.402	-0.11
212.873	-3.51
213.345	-4.11
213.817	-10.51
214.288	-3.91
214.76	-4.81
215.232	-4.11
215.703	-5.71
216.175	-5.01
216.646	-5.81
217.118	-11.01
217.589	-6.31
218.061	-4.41
218.532	-0.21
219.004	-1.41
219.475	-5.31
219.946	0.59
220.418	-6.21
220.889	8.09
221.36	3.19
221.832	-7.41
222.303	-7.91
222.774	2.29
223.245	-9.21
223.717	-4.61
224.188	-0.71
224.659	-3.61
225.13	-2.51
225.601	-7.71
226.072	3.49
226.543	-6.31
227.014	-1.61
227.485	0.89
227.956	-6.71
228.427	2.69
228.898	-0.91
229.369	1.79
229.839	-2.51
230.31	-8.21
230.781	2.49
231.252	-3.21
231.722	2.99
232.193	-7.71
232.664	1.29
233.135	-0.11
233.605	3.59
234.076	-4.71
234.546	-0.81
235.017	2.59
235.487	3.79
235.958	1.69
236.428	1.29
236.899	10.99
237.369	6.29
237.84	-0.21
238.31	7.49
238.78	1.39
239.251	0.29
239.721	5.59
240.191	1.19
240.662	-0.61
241.132	2.89
241.602	-5.61
242.072	2.99
242.542	1.99
243.013	1.49
243.483	7.09
243.953	3.09
244.423	2.19
244.893	-1.71
245.363	4.09
245.833	0.49
246.303	0.49
246.773	9.79
247.243	5.19
247.712	-6.31
248.182	6.79
248.652	4.69
249.122	-4.11
249.592	10.19
250.061	17.89
250.531	36.09
251.001	11.39
251.471	19.29
251.94	13.09
252.41	6.09
252.879	0.39
253.349	12.49
253.818	12.09
254.288	3.99
254.757	3.59
255.227	2.79
255.696	1.09
256.166	4.49
256.635	4.69
257.105	7.39
257.574	8.59
258.043	13.59
258.513	11.89
258.982	13.59
259.451	10.99
259.92	11.29
260.389	10.79
260.859	18.19
261.328	11.59
261.797	21.29
262.266	8.99
262.735	12.29
263.204	3.89
263.673	4.69
264.142	2.99
264.611	-5.31
265.08	-0.21
265.549	-0.31
266.018	6.09
266.487	0.89
266.955	-2.71
267.424	3.79
267.893	6.89
268.362	-0.11
268.83	5.99
269.299	9.79
269.768	2.39
270.236	7.79
270.705	11.69
271.174	3.59
271.642	9.89
272.111	8.49
272.579	17.09
273.048	26.69
273.516	24.49
273.985	23.49
274.453	19.69
274.922	16.59
275.39	10.69
275.858	2.99
276.327	8.39
276.795	16.39
277.263	11.29
277.731	28.39
278.2	45.49
278.668	52.29
279.136	47.99
279.604	20.09
280.072	14.89
280.54	7.09
281.008	10.09
281.477	11.79
281.945	10.69
282.413	21.19
282.881	11.89
283.348	4.09
283.816	13.39
284.284	10.99
284.752	16.19
285.22	13.79
285.688	12.59
286.156	14.29
286.623	39.59
287.091	48.59
287.559	28.39
288.026	17.09
288.494	19.49
288.962	4.59
289.429	11.29
289.897	14.89
290.364	13.99
290.832	15.79
291.3	14.49
291.767	13.79
292.234	16.39
292.702	11.69
293.169	17.19
293.637	18.89
294.104	18.89
294.571	12.69
295.039	15.49
295.506	10.99
295.973	18.19
296.44	15.49
296.908	24.49
297.375	11.69
297.842	12.79
298.309	15.29
298.776	6.49
299.243	21.69
299.71	7.19
300.177	19.99
300.644	17.59
301.111	22.59
301.578	21.09
302.045	14.99
302.512	24.79
302.979	18.29
303.446	21.09
303.913	20.29
304.379	22.59
304.846	27.19
305.313	28.99
305.78	20.59
306.246	29.89
306.713	23.69
307.18	24.29
307.646	25.29
308.113	30.89
308.579	23.89
309.046	26.39
309.512	25.19
309.979	21.49
310.445	21.99
310.912	27.89
311.378	28.49
311.845	30.69
312.311	34.29
312.777	33.19
313.244	25.79
313.71	37.49
314.176	25.89
314.642	33.79
315.109	25.29
315.575	34.19
316.041	35.79
316.507	26.79
316.973	31.59
317.439	25.89
317.905	33.19
318.371	37.99
318.837	31.89
319.303	30.19
319.769	29.99
320.235	29.39
320.701	32.09
321.167	34.19
321.633	33.19
322.099	33.39
322.564	38.19
323.03	36.59
323.496	36.89
323.962	45.59
324.427	31.59
324.893	41.29
325.359	29.99
325.824	30.19
326.29	37.79
326.755	36.59
327.221	35.39
327.686	35.09
328.152	44.59
328.617	37.39
329.083	36.29
329.548	46.89
330.014	42.89
330.479	41.89
330.944	38.59
331.41	41.69
331.875	41.59
332.34	43.29
332.805	39.69
333.271	48.49
333.736	44.49
334.201	48.69
334.666	47.99
335.131	49.09
335.596	45.89
336.061	48.29
336.526	41.29
336.991	44.49
337.456	56.79
337.921	48.89
338.386	47.79
338.851	43.79
339.316	47.89
339.781	47.79
340.246	50.39
340.711	37.59
341.175	45.69
341.64	39.19
342.105	48.59
342.569	54.19
343.034	53.99
343.499	54.19
343.963	50.99
344.428	59.19
344.893	61.89
345.357	54.89
345.822	55.99
346.286	64.99
346.751	72.99
347.215	59.29
347.679	70.59
348.144	87.69
348.608	76.39
349.073	69.39
349.537	73.99
350.001	69.89
350.465	77.69
350.93	69.59
351.394	74.89
351.858	68.59
352.322	79.29
352.786	79.19
353.25	100.99
353.715	108.79
354.179	91.29
354.643	117.39
355.107	122.39
355.571	95.69
356.035	92.99
356.498	113.19
356.962	120.39
357.426	129.09
357.89	108.89
358.354	88.39
358.818	76.49
359.281	69.79
359.745	74.69
360.209	72.39
360.673	69.99
361.136	69.29
361.6	87.09
362.064	77.79
362.527	81.99
362.991	85.29
363.454	74.79
363.918	69.99
364.381	75.59
364.845	80.19
365.308	74.79
365.772	78.79
366.235	83.99
366.698	84.59
367.162	87.39
367.625	87.49
368.088	87.09
368.552	83.99
369.015	80.49
369.478	88.09
369.941	96.09
370.404	90.09
370.867	102.89
371.331	103.99
371.794	111.59
372.257	106.29
372.72	106.39
373.183	103.29
373.646	95.49
374.109	98.69
374.572	104.39
375.035	104.29
375.497	104.79
375.96	102.09
376.423	103.59
376.886	109.89
377.349	108.99
377.811	101.79
378.274	102.89
378.737	101.49
379.199	108.39
379.662	103.89
380.125	110.49
380.587	111.89
381.05	123.99
381.512	123.39
381.975	133.09
382.437	128.99
382.9	121.29
383.362	135.29
383.825	140.79
384.287	144.49
384.75	130.49
385.212	139.79
385.674	137.79
386.136	137.09
386.599	118.29
387.061	128.79
387.523	131.09
387.985	128.29
388.447	139.99
388.91	139.59
389.372	155.49
389.834	151.89
390.296	146.79
390.758	152.69
391.22	167.79
391.682	211.59
392.144	298.89
392.606	224.89
393.068	164.29
393.529	165.19
393.991	147.79
394.453	139.99
394.915	152.09
395.377	188.09
395.838	210.49
396.3	150.99
396.762	141.49
397.224	135.39
397.685	124.19
398.147	132.59
398.608	127.49
399.07	121.89
399.531	132.99
399.993	136.59
400.454	150.79
400.916	138.29
401.377	139.49
401.839	143.69
402.3	150.39
402.762	159.39
403.223	172.69
403.684	167.59
404.145	155.59
404.607	151.29
405.068	160.79
405.529	167.39
405.99	185.39
406.451	167.19
406.913	167.89
407.374	157.89
407.835	154.09
408.296	167.69
408.757	172.89
409.218	179.19
409.679	168.99
410.14	170.69
410.601	164.29
411.062	176.89
411.522	189.09
411.983	190.09
412.444	166.89
412.905	170.59
413.366	179.39
413.826	185.69
414.287	208.49
414.748	250.09
415.208	231.89
415.669	200.69
416.13	196.29
416.59	192.99
417.051	205.69
417.511	212.59
417.972	226.49
418.432	240.39
418.893	278.39
419.353	241.29
419.814	192.19
420.274	180.09
420.734	178.89
421.195	194.39
421.655	193.39
422.115	184.39
422.576	188.49
423.036	194.29
423.496	199.79
423.956	211.59
424.416	222.99
424.876	258.49
425.336	249.99
425.797	250.39
426.257	246.69
426.717	231.79
427.177	226.49
427.637	210.59
428.097	229.19
428.556	238.49
429.016	264.29
429.476	260.19
429.936	272.09
430.396	262.29
430.856	285.99
431.315	310.49
431.775	349.09
432.235	372.49
432.694	353.19
433.154	362.19
433.614	387.99
434.073	328.29
434.533	281.49
434.993	265.69
435.452	272.59
435.912	288.89
436.371	284.19
436.83	276.49
437.29	263.39
437.749	242.69
438.209	238.89
438.668	267.59
439.127	285.19
439.587	254.59
440.046	241.59
440.505	252.59
440.964	269.79
441.424	314.49
441.883	302.09
442.342	260.19
442.801	211.69
443.26	215.09
443.719	213.69
444.178	217.59
444.637	196.99
445.096	215.69
445.555	219.19
446.014	212.39
446.473	226.09
446.932	222.59
447.391	223.19
447.849	221.59
448.308	212.59
448.767	213.79
449.226	226.09
449.685	223.39
450.143	243.79
450.602	228.29
451.061	216.69
451.519	229.89
451.978	231.19
452.436	224.59
452.895	239.69
453.353	253.29
453.812	229.59
454.27	233.29
454.729	234.49
455.187	230.29
455.646	238.99
456.104	239.39
456.562	251.09
457.021	262.09
457.479	252.99
457.937	270.39
458.395	258.79
458.854	235.89
459.312	244.79
459.77	273.39
460.228	252.89
460.686	240.09
461.144	244.09
461.602	230.99
462.06	232.69
462.518	249.69
462.976	247.49
463.434	242.09
463.892	260.79
464.35	264.69
464.808	273.69
465.266	255.09
465.724	258.79
466.181	256.89
466.639	260.29
467.097	280.49
467.555	286.39
468.012	295.69
468.47	300.69
468.928	328.19
469.385	335.49
469.843	333.79
470.3	337.49
470.758	353.49
471.215	376.09
471.673	394.69
472.13	391.69
472.588	412.79
473.045	362.39
473.503	360.39
473.96	374.39
474.417	393.09
474.875	420.69
475.332	464.69
475.789	451.29
476.246	455.89
476.704	467.49
477.161	495.99
477.618	504.99
478.075	537.19
478.532	598.39
478.989	671.19
479.446	778.69
479.903	752.29
480.36	783.19
480.817	844.89
481.274	933.69
481.731	1038.29
482.188	1135.19
482.645	1259.19
483.102	1364.69
483.558	1504.09
484.015	1562.19
484.472	1523.39
484.929	1473.59
485.385	1429.39
485.842	1398.69
486.299	1330.39
486.755	1250.49
487.212	1053.69
487.668	901.99
488.125	822.09
488.582	751.59
489.038	717.89
489.494	689.79
489.951	660.09
490.407	641.59
490.864	616.79
491.32	621.79
491.776	615.39
492.233	634.29
492.689	580.39
493.145	572.99
493.602	570.29
494.058	582.49
494.514	597.59
494.97	616.89
495.426	627.49
495.882	601.99
496.338	587.99
496.794	595.39
497.251	604.79
497.707	611.59
498.163	609.99
498.618	611.19
499.074	618.69
499.53	650.69
499.986	654.79
500.442	624.89
500.898	613.09
501.354	600.59
501.809	618.29
502.265	629.69
502.721	638.69
503.177	648.49
503.632	644.09
504.088	653.09
504.543	695.69
504.999	683.69
505.455	634.59
505.91	609.49
506.366	611.39
506.821	603.29
507.277	604.99
507.732	601.19
508.187	612.79
508.643	604.19
509.098	608.29
509.553	621.89
510.009	641.49
510.464	631.79
510.919	661.79
511.375	666.09
511.83	673.99
512.285	688.79
512.74	724.29
513.195	747.69
513.65	742.29
514.105	740.29
514.56	745.39
515.015	762.89
515.47	766.49
515.925	752.79
516.38	761.79
516.835	766.49
517.29	756.09
517.745	746.29
518.2	733.89
518.655	714.39
519.109	717.49
519.564	698.29
520.019	699.29
520.474	687.69
520.928	693.79
521.383	689.79
521.838	676.59
522.292	675.59
522.747	674.69
523.201	681.69
523.656	667.99
524.11	667.59
524.565	660.69
525.019	662.29
525.474	676.69
525.928	678.49
526.382	667.39
526.837	668.59
527.291	677.49
527.745	665.29
528.2	678.89
528.654	661.19
529.108	661.69
529.562	666.49
530.016	661.79
530.47	660.99
530.925	666.09
531.379	664.39
531.833	680.89
532.287	676.69
532.741	665.79
533.195	683.59
533.649	681.79
534.103	674.99
534.556	674.79
535.01	681.39
535.464	686.69
535.918	683.19
536.372	698.29
536.826	690.79
537.279	672.09
537.733	684.69
538.187	689.59
538.64	685.99
539.094	693.89
539.548	700.69
540.001	696.89
540.455	698.59
540.908	702.49
541.362	702.39
541.815	717.09
542.269	732.89
542.722	728.69
543.175	744.29
543.629	748.59
544.082	756.49
544.536	760.69
544.989	755.69
545.442	763.79
545.895	761.79
546.349	754.69
546.802	761.99
547.255	772.09
547.708	767.89
548.161	778.89
548.614	791.79
549.067	794.39
549.52	793.69
549.973	768.09
550.426	769.29
550.879	756.49
551.332	765.29
551.785	769.19
552.238	773.59
552.691	789.59
553.144	797.49
553.596	803.29
554.049	831.39
554.502	853.79
554.955	869.79
555.407	873.89
555.86	858.39
556.313	847.19
556.765	862.69
557.218	851.59
557.67	845.29
558.123	843.29
558.576	836.89
559.028	834.89
559.48	848.19
559.933	826.69
560.385	797.09
560.838	762.29
561.29	752.59
561.742	756.99
562.195	733.09
562.647	728.99
563.099	739.99
563.551	746.49
564.004	749.49
564.456	745.29
564.908	736.29
565.36	716.49
565.812	711.29
566.264	698.99
566.716	695.09
567.168	703.29
567.62	706.29
568.072	685.19
568.524	671.59
568.976	669.19
569.428	653.39
569.88	653.29
570.332	654.29
570.784	652.29
571.235	663.39
571.687	665.29
572.139	681.89
572.59	669.29
573.042	679.29
573.494	684.59
573.945	682.59
574.397	664.29
574.849	669.59
575.3	668.59
575.752	663.09
576.203	654.09
576.655	656.39
577.106	651.39
577.557	636.19
578.009	642.39
578.46	637.09
578.912	643.89
579.363	641.69
579.814	636.99
580.265	628.49
580.717	642.39
581.168	637.99
581.619	649.09
582.07	671.69
582.521	650.69
582.972	650.49
583.423	655.89
583.875	655.59
584.326	685.19
584.777	726.69
585.227	810.19
585.678	913.59
586.129	1002.89
586.58	1070.49
587.031	1167.69
587.482	1321.29
587.933	1507.79
588.384	1300.99
588.834	960.59
589.285	779.09
589.736	752.39
590.186	749.59
590.637	739.09
591.088	723.69
591.538	715.99
591.989	711.99
592.439	704.49
592.89	694.49
593.34	696.59
593.791	685.49
594.241	684.69
594.692	684.39
595.142	672.79
595.593	677.29
596.043	690.69
596.493	690.69
596.943	702.89
597.394	692.49
597.844	693.09
598.294	710.59
598.744	728.49
599.195	765.09
599.645	794.39
600.095	825.69
600.545	892.69
600.995	931.49
601.445	992.39
601.895	1049.79
602.345	1103.79
602.795	1077.59
603.245	1030.99
603.695	970.89
604.145	911.49
604.594	865.29
605.044	837.19
605.494	778.19
605.944	727.59
606.393	719.99
606.843	698.39
607.293	705.29
607.743	708.79
608.192	722.89
608.642	734.29
609.091	743.49
609.541	737.19
609.99	758.19
610.44	745.39
610.889	698.49
611.339	680.79
611.788	677.69
612.238	675.99
612.687	698.99
613.136	699.09
613.586	722.19
614.035	719.59
614.484	735.09
614.933	741.49
615.383	732.49
615.832	720.79
616.281	702.19
616.73	667.79
617.179	640.69
617.628	638.59
618.077	614.59
618.526	611.59
618.975	597.59
619.424	593.89
619.873	591.89
620.322	603.89
620.771	593.69
621.22	580.49
621.669	576.89
622.118	574.59
622.567	562.09
623.015	545.69
623.464	549.59
623.913	536.49
624.361	540.29
624.81	528.99
625.259	536.89
625.707	538.29
626.156	544.89
626.604	554.79
627.053	544.09
627.501	538.59
627.95	550.69
628.398	558.79
628.847	545.39
629.295	552.29
629.744	555.99
630.192	551.49
630.64	550.99
631.089	552.89
631.537	569.19
631.985	579.99
632.433	594.69
632.881	598.39
633.33	662.99
633.778	641.59
634.226	548.59
634.674	565.39
635.122	568.29
635.57	582.09
636.018	620.09
636.466	561.29
636.914	535.89
637.362	555.49
637.81	556.89
638.258	568.39
638.705	560.59
639.153	588.89
639.601	597.49
640.049	627.39
640.497	655.79
640.944	675.69
641.392	623.79
641.84	594.49
642.287	566.79
642.735	552.99
643.182	558.79
643.63	562.59
644.078	564.79
644.525	574.59
644.973	584.99
645.42	580.39
645.867	610.79
646.315	626.99
646.762	646.99
647.21	681.49
647.657	698.89
648.104	728.59
648.551	755.89
648.999	828.59
649.446	898.59
649.893	987.89
650.34	1146.89
650.787	1385.79
651.234	1723.29
651.682	2238.79
652.129	3084.99
652.576	4455.39
653.023	6598.89
653.47	9021.09
653.917	11214.49
654.363	12852.79
654.81	14155.09
655.257	13444.09
655.704	8757.89
656.151	5178.09
656.598	3327.59
657.044	2378.79
657.491	1831.89
657.938	1454.09
658.385	1201.49
658.831	1056.99
659.278	942.49
659.724	831.19
660.171	770.99
660.618	710.89
661.064	674.79
661.511	651.29
661.957	633.59
662.404	623.19
662.85	638.99
663.296	621.89
663.743	548.09
664.189	524.59
664.635	516.09
665.082	509.69
665.528	517.39
665.974	504.69
666.42	490.69
666.867	499.09
667.313	478.29
667.759	473.29
668.205	474.69
668.651	486.29
669.097	482.69
669.543	493.79
669.989	459.39
670.435	435.49
670.881	438.59
671.327	436.79
671.773	462.29
672.219	483.49
672.665	531.49
673.11	566.19
673.556	611.69
674.002	652.09
674.448	638.39
674.893	534.99
675.339	459.19
675.785	426.19
676.23	409.49
676.676	375.69
677.122	373.29
677.567	359.39
678.013	362.79
678.458	346.49
678.904	347.79
679.349	333.89
679.794	338.99
680.24	338.69
680.685	342.59
681.131	339.59
681.576	343.99
682.021	340.99
682.466	344.59
682.912	338.19
683.357	345.89
683.802	368.49
684.247	391.49
684.692	447.99
685.137	483.59
685.583	511.39
686.028	543.19
686.473	499.19
686.918	427.89
687.363	405.79
687.807	377.49
688.252	349.59
688.697	341.19
689.142	326.09
689.587	327.89
690.032	313.19
690.477	337.99
690.921	342.19
691.366	372.99
691.811	389.79
692.255	421.19
692.7	449.59
693.145	490.69
693.589	682.49
694.034	1106.29
694.478	1488.29
694.923	1665.29
695.367	2159.09
695.812	1146.49
696.256	484.19
696.701	358.79
697.145	331.49
697.59	323.19
698.034	305.39
698.478	320.99
698.922	311.49
699.367	320.89
699.811	328.69
700.255	347.49
700.699	382.29
701.143	411.69
701.588	462.49
702.032	497.69
702.476	498.79
702.92	476.59
703.364	477.09
703.808	624.49
704.252	1027.19
704.696	1426.49
705.14	1609.99
705.584	2026.09
706.027	1029.59
706.471	502.59
706.915	376.89
707.359	339.39
707.803	309.89
708.246	301.29
708.69	301.09
709.134	299.19
709.577	297.99
710.021	303.89
710.465	313.19
710.908	299.59
711.352	291.89
711.795	307.79
712.239	349.29
712.682	379.79
713.126	403.29
713.569	457.49
714.012	357.09
714.456	315.99
714.899	295.39
715.342	271.49
715.786	261.29
716.229	250.39
716.672	247.89
717.115	239.09
717.558	239.89
718.002	240.79
718.445	258.99
718.888	276.09
719.331	278.99
719.774	297.79
720.217	291.99
720.66	268.89
721.103	262.89
721.546	246.49
721.989	241.59
722.432	225.99
722.874	234.19
723.317	230.99
723.76	229.49
724.203	256.39
724.645	312.89
725.088	436.99
725.531	556.19
725.974	615.39
726.416	526.69
726.859	298.69
727.301	235.49
727.744	237.09
728.187	230.49
728.629	234.39
729.071	239.79
729.514	250.59
729.956	260.19
730.399	277.09
730.841	275.09
731.283	272.69
731.726	253.99
732.168	250.79
732.61	266.59
733.053	275.99
733.495	311.89
733.937	338.19
734.379	388.99
734.821	421.29
735.263	538.99
735.705	819.69
736.148	1554.79
736.59	2507.99
737.032	2898.09
737.474	2364.49
737.916	787.09
738.357	415.49
738.799	312.89
739.241	286.99
739.683	282.99
740.125	286.99
740.567	288.19
741.008	298.79
741.45	308.09
741.892	313.59
742.334	339.19
742.775	342.69
743.217	332.79
743.658	266.59
744.1	245.29
744.542	259.09
744.983	302.29
745.425	328.19
745.866	328.69
746.307	278.19
746.749	279.49
747.19	312.39
747.632	441.49
748.073	884.59
748.514	1852.69
748.956	2744.89
749.397	3451.99
749.838	2853.09
750.279	2812.69
750.72	1428.69
751.162	536.39
751.603	313.09
752.044	250.19
752.485	211.79
752.926	198.89
753.367	190.69
753.808	193.69
754.249	190.29
754.69	183.89
755.131	185.79
755.572	177.89
756.013	178.99
756.453	176.89
756.894	184.29
757.335	182.39
757.776	186.99
758.216	190.89
758.657	196.69
759.098	199.09
759.538	218.89
759.979	265.49
760.42	367.09
760.86	705.19
761.301	1816.29
761.741	4306.69
762.182	6103.59
762.622	4270.79
763.063	1251.09
763.503	524.39
763.943	341.49
764.384	343.29
764.824	414.59
765.264	448.19
765.705	308.99
766.145	214.59
766.585	186.39
767.025	177.79
767.465	191.79
767.906	248.29
768.346	323.29
768.786	341.79
769.226	261.69
769.666	323.69
770.106	626.79
770.546	1551.49
770.986	2527.19
771.426	2234.79
771.866	772.59
772.306	317.29
772.745	208.49
773.185	171.99
773.625	166.09
774.065	158.39
774.505	198.09
774.944	312.79
775.384	707.99
775.824	1248.69
776.263	1198.79
776.703	511.29
777.142	226.79
777.582	153.79
778.021	141.59
778.461	143.39
778.9	140.99
779.34	129.39
779.779	116.19
780.219	106.29
780.658	113.19
781.097	112.59
781.537	112.19
781.976	112.49
782.415	107.09
782.855	105.09
783.294	99.19
783.733	105.79
784.172	106.59
784.611	93.89
785.05	106.49
785.489	108.49
785.928	115.79
786.367	115.49
786.806	112.19
787.245	128.19
787.684	130.99
788.123	146.69
788.562	127.29
789.001	126.59
789.44	120.09
789.879	117.49
790.317	118.79
790.756	123.39
791.195	129.79
791.634	145.89
792.072	205.69
792.511	355.49
792.95	1010.89
793.388	2060.09
793.827	1834.39
794.265	651.69
794.704	265.69
795.142	185.89
795.581	150.29
796.019	136.29
796.458	122.19
796.896	125.39
797.334	124.99
797.773	155.79
798.211	217.49
798.649	437.89
799.087	1003.59
799.526	1569.39
799.964	1948.49
800.402	1912.69
800.84	722.99
801.278	291.89
801.716	181.29
802.154	147.19
802.592	145.79
803.03	137.79
803.468	134.89
803.906	137.39
804.344	149.39
804.782	133.29
805.22	132.49
805.658	128.69
806.096	145.29
806.533	155.89
806.971	167.59
807.409	216.79
807.847	313.59
808.284	657.09
808.722	1834.79
809.16	3146.99
809.597	3068.79
810.035	5231.69
810.472	5446.09
810.91	1988.29
811.347	768.19
811.785	388.69
812.222	246.69
812.66	187.79
813.097	166.69
813.535	140.99
813.972	123.39
814.409	115.09
814.846	103.99
815.284	108.39
815.721	98.09
816.158	114.59
816.595	126.89
817.032	177.79
817.47	198.79
817.907	170.49
818.344	157.89
818.781	117.39
819.218	102.99
819.655	122.49
820.092	175.79
820.529	203.29
820.966	169.99
821.403	132.69
821.839	114.09
822.276	102.19
822.713	118.39
823.15	130.39
823.587	112.89
824.023	144.99
824.46	301.69
824.897	883.09
825.333	1291.89
825.77	559.29
826.206	222.39
826.643	129.99
827.08	102.29
827.516	77.79
827.953	81.09
828.389	82.79
828.825	66.89
829.262	63.29
829.698	63.09
830.135	64.19
830.571	55.39
831.007	57.79
831.443	63.19
831.88	60.29
832.316	67.29
832.752	67.29
833.188	63.69
833.624	59.39
834.06	68.29
834.497	69.89
834.933	72.59
835.369	76.79
835.805	74.49
836.241	74.89
836.677	75.69
837.112	85.19
837.548	99.09
837.984	132.19
838.42	201.29
838.856	501.49
839.292	1483.19
839.727	2186.69
840.163	1022.49
840.599	921.69
841.034	1977.59
841.47	2021.59
841.906	744.19
842.341	327.19
842.777	228.29
843.212	323.29
843.648	314.49
844.083	155.09
844.519	94.99
844.954	70.19
845.39	63.39
845.825	59.99
846.261	56.29
846.696	58.69
847.131	53.39
847.566	60.69
848.002	50.19
848.437	56.09
848.872	62.29
849.307	59.39
849.742	87.69
850.177	175.59
850.613	548.89
851.048	844.39
851.483	363.19
851.918	148.59
852.353	93.09
852.788	60.29
853.223	63.09
853.657	57.49
854.092	47.79
854.527	43.99
854.962	42.59
855.397	47.49
855.832	55.59
856.266	42.69
856.701	38.09
857.136	47.29
857.57	41.49
858.005	46.39
858.44	55.89
858.874	40.29
859.309	52.19
859.743	36.59
860.178	41.19
860.612	39.99
861.047	55.09
861.481	60.79
861.915	67.39
862.35	46.49
862.784	32.09
863.218	39.69
863.653	32.69
864.087	52.79
864.521	48.09
864.955	74.09
865.39	151.19
865.824	171.99
866.258	113.79
866.692	160.29
867.126	165.19
867.56	99.09
867.994	52.09
868.428	39.49
868.862	47.29
869.296	53.29
869.73	58.39
870.164	54.49
870.598	44.79
871.031	35.89
871.465	29.09
871.899	33.59
872.333	24.99
872.766	26.29
873.2	24.09
873.634	38.59
874.067	24.99
874.501	25.39
874.935	34.99
875.368	28.19
875.802	23.89
876.235	19.99
876.669	27.09
877.102	16.09
877.535	22.49
877.969	19.99
878.402	24.19
878.836	17.09
879.269	24.99
879.702	26.89
880.135	20.89
880.569	23.69
881.002	27.99
881.435	21.39
881.868	14.79
882.301	24.99
882.734	23.19
883.167	25.29
883.601	25.69
884.034	19.99
884.467	13.09
884.899	19.79
885.332	16.89
885.765	16.49
886.198	18.99
886.631	14.69
887.064	18.89
887.497	16.29
887.929	22.09
888.362	17.79
888.795	7.29
889.228	18.89
889.66	18.49
890.093	20.49
890.526	19.09
890.958	18.09
891.391	22.39
891.823	18.99
892.256	18.69
892.688	11.09
893.121	16.09
893.553	18.49
893.985	22.29
894.418	22.49
894.85	15.19
895.282	13.09
895.715	13.59
896.147	19.49
896.579	20.59
897.011	15.89
897.444	15.49
897.876	8.09
898.308	17.49
898.74	16.09
899.172	16.19
899.604	23.39
900.036	24.39
900.468	18.39
900.9	16.99
901.332	22.19
901.764	15.59
902.196	21.49
902.628	16.09
903.06	24.69
903.491	21.09
903.923	23.99
904.355	19.09
904.787	26.49
905.218	22.29
905.65	22.99
906.082	15.39
906.513	10.39
906.945	17.79
907.376	11.99
907.808	22.59
908.239	17.59
908.671	16.19
909.102	23.19
909.534	25.79
909.965	45.89
910.397	95.89
910.828	308.99
911.259	454.99
911.691	214.59
912.122	103.89
912.553	57.49
912.984	33.69
913.415	28.59
913.847	24.09
914.278	13.09
914.709	18.49
915.14	15.99
915.571	18.19
916.002	14.49
916.433	16.19
916.864	16.29
917.295	14.79
917.726	20.29
918.157	16.19
918.587	26.39
919.018	21.79
919.449	27.29
919.88	21.19
920.311	32.49
920.741	40.69
921.172	162.59
921.603	140.39
922.033	69.39
922.464	48.59
922.895	16.89
923.325	19.99
923.756	17.79
924.186	17.79
924.617	28.09
925.047	46.49
925.478	55.99
925.908	48.69
926.338	27.59
926.769	16.19
927.199	18.49
927.629	15.69
928.06	20.39
928.49	13.99
928.92	14.99
929.35	17.19
929.78	12.09
930.21	13.49
930.641	8.39
931.071	7.89
931.501	0.69
931.931	5.69
932.361	10.19
932.791	6.39
933.221	7.09
933.651	2.99
934.08	21.69
934.51	29.39
934.94	16.89
935.37	4.09
935.8	12.99
936.229	4.39
936.659	14.49
937.089	4.49
937.519	13.29
937.948	18.39
938.378	14.29
938.807	7.79
939.237	-0.01
939.666	7.29
940.096	-1.61
940.525	0.39
940.955	-0.11
941.384	8.29
941.814	1.69
942.243	1.29
942.672	4.49
943.102	0.09
943.531	0.39
943.96	1.19
944.39	5.99
944.819	3.79
945.248	5.69
945.677	7.19
946.106	8.29
946.535	9.79
946.964	8.19
947.393	5.09
947.822	5.39
948.251	-2.71
948.68	1.49
949.109	4.79
949.538	7.69
949.967	-5.41
950.396	5.39
950.825	-3.71
951.254	-2.91
951.682	-7.21
952.111	5.29
952.54	4.99
952.969	1.59
953.397	-2.41
953.826	-3.51
954.254	-2.91
954.683	-5.21
955.112	-2.71
955.54	-1.21
955.969	0.29
956.397	1.19
956.826	1.99
957.254	7.69
957.682	-0.61
958.111	4.29
958.539	6.29
958.967	4.79
959.396	-3.01
959.824	5.09
960.252	6.49
960.68	-6.31
961.109	-7.31
961.537	-2.51
961.965	-0.21
962.393	1.59
962.821	1.49
963.249	1.09
963.677	8.59
964.105	6.79
964.533	45.39
964.961	42.19
965.389	18.69
965.817	11.39
966.245	4.79
966.672	2.79
967.1	-6.21
967.528	1.39
967.956	-2.81
968.383	6.79
968.811	-4.81
969.239	-2.61
969.666	-1.31
970.094	-4.31
970.522	-0.01
970.949	2.49
971.377	-0.11
971.804	1.39
972.232	0.39
972.659	-2.31
973.087	1.29
973.514	0.09
973.941	-6.41
974.369	5.79
974.796	2.39
975.223	2.19
975.651	1.89
976.078	1.09
976.505	2.79
976.932	7.49
977.359	11.49
977.786	17.89
978.214	-2.51
978.641	-1.41
979.068	-0.61
979.495	-3.41
979.922	0.29
980.349	4.59
980.776	6.49
981.202	-0.41
981.629	4.39
982.056	4.79
982.483	-6.01
982.91	10.09
983.337	-4.51
983.763	5.29
984.19	-1.31
984.617	1.39
985.043	-3.61
985.47	2.79
985.897	-3.71
986.323	-7.81
986.75	9.09
987.176	0.99
987.603	0.99
988.029	2.59
988.456	-2.91
988.882	3.89
989.308	-1.21
989.735	-3.81
990.161	2.59
990.587	-3.51
991.014	1.09
991.44	7.89
991.866	-3.61
992.292	-8.51
992.719	-3.21
993.145	-0.11
993.571	-3.11
993.997	-3.91
994.423	1.19
994.849	-5.51
995.275	0.09
995.701	3.69
996.127	-3.91
996.553	-7.41
996.979	-0.41
997.405	-0.61
997.83	-1.91
998.256	0.39
998.682	-4.91
999.108	-4.61
999.534	-1.11
999.959	0.49
1000.385	1.69
1000.811	4.79
1001.236	-3.11
1001.662	-7.01
1002.087	-4.31
1002.513	2.99
1002.938	3.19
1003.364	-5.71
1003.789	0.49
1004.215	2.09
1004.64	-3.31
1005.066	4.49
1005.491	4.69
1005.916	-1.51
1006.342	-5.91
1006.767	-0.71
1007.192	4.29
1007.617	-2.91
1008.042	-1.51
1008.468	-8.11
1008.893	-1.51
1009.318	-1.41
1009.743	-2.31
1010.168	2.79
1010.593	1.29
1011.018	-4.81
1011.443	-1.11
1011.868	4.99
1012.293	-2.81
1012.718	-5.11
1013.143	2.19
1013.567	0.19
1013.992	1.49
1014.417	-8.51
1014.842	-3.71
1015.267	0.59
1015.691	1.79
1016.116	0.89
1016.541	1.09
1016.965	-1.81
1017.39	3.39
1017.814	1.99
1018.239	1.39
1018.663	-5.81
1019.088	-6.31
1019.512	-2.81
1019.937	-0.51
1020.361	-2.01
1020.785	-10.21
1021.21	1.69
1021.634	-2.61
1022.058	-0.41
1022.483	5.29
1022.907	-8.61
1023.331	-3.71
1023.755	-0.11
1024.179	-3.11
1024.604	-7.81
1025.028	-4.61
1025.452	-3.51
1025.876	2.69
1026.3	-3.21
1026.724	-10.81
1027.148	-5.61
1027.572	-6.31
1027.996	0.49
1028.42	-1.61
1028.843	-2.31
1029.267	-3.61
1029.691	-1.91
1030.115	-8.41
1030.539	-3.11
1030.962	-5.91
1031.386	-12.41
1031.81	-2.41
1032.233	1.49
1032.657	-0.01
1033.08	0.89
1033.504	0.89
1033.927	-2.71
1034.351	0.69
1034.774	-4.61
1035.198	-0.41
1035.621	-6.11
1036.045	-7.81
1036.468	2.09
1036.891	-8.81
1037.315	-6.81
1037.738	-11.81
1038.161	-2.21
1038.584	-4.31
1039.008	-6.71
1039.431	1.69
1039.854	-6.11
1040.277	-9.21
1040.7	-13.71
1041.123	5.39
1041.546	-7.71
1041.969	0.29
1042.392	-2.01
1042.815	-1.91
1043.238	5.69
1043.661	4.09
1044.084	-5.51
1044.507	-5.71
1044.93	-1.71
1045.352	-2.21
1045.775	0.39
1046.198	1.69
1046.621	2.09
1047.043	-2.51
1047.466	8.59
1047.889	-2.11
1048.311	-6.41
1048.734	-3.31
1049.156	-6.71
1049.579	-1.81
1050.001	-1.51
1050.424	1.59
1050.846	-1.71
1051.269	-0.51
1051.691	-3.71
1052.113	-4.61
1052.536	1.19
1052.958	-5.81
1053.38	-0.31
1053.802	-6.61
1054.225	2.89
1054.647	-9.01
1055.069	-8.61
1055.491	0.69
1055.913	-8.51
1056.335	-1.11
1056.757	-2.31
1057.179	-0.31
1057.601	-4.21
1058.023	-1.21
1058.445	-7.81
1058.867	-3.41
1059.289	-6.21
1059.711	-7.21
1060.133	4.99
1060.555	-0.61
1060.976	-1.81
1061.398	-2.91
1061.82	-8.01
1062.241	-5.81
1062.663	-3.21
1063.085	-5.81
1063.506	-1.91
1063.928	-8.71
1064.35	-3.21
1064.771	-7.51
1065.193	-2.21
1065.614	-6.01
1066.035	-5.41
1066.457	-3.71
1066.878	-2.41
1067.3	-9.51
1067.721	-2.61
1068.142	-4.31
1068.564	-2.31
1068.985	-7.51
1069.406	-2.81
1069.827	-7.91
1070.248	-2.31
1070.67	-4.01
1071.091	-5.21
1071.512	-3.71
1071.933	-7.01
1072.354	2.09
1072.775	-11.71
1073.196	-9.01
1073.617	-5.51
1074.038	-3.81
1074.459	-4.21
1074.88	-5.41
1075.3	0.79
1075.721	-5.61
1076.142	-1.01
1076.563	0.49
1076.983	-7.61
1077.404	-0.91
1077.825	-8.31
1078.246	-1.61
1078.666	-11.21
1079.087	-6.11
1079.507	-13.31
1079.928	0.89
1080.348	-1.01
1080.769	-1.51
1081.189	0.19
1081.61	3.69
1082.03	-9.61
1082.451	-1.91
1082.871	4.49
1083.291	-3.41
1083.711	-3.61
1084.132	-10.21
1084.552	-4.11
1084.972	5.49
1085.392	-9.61
1085.813	-11.81
1086.233	-7.21
1086.653	-3.21
1087.073	-3.51
1087.493	-1.51
1087.913	-6.41
1088.333	-7.51
1088.753	-0.91
1089.173	4.39
1089.593	-1.11
1090.013	-1.91
1090.433	3.79
1090.852	-1.11
1091.272	2.19
1091.692	-0.71
1092.112	0.59
1092.531	-6.91
1092.951	-13.31
1093.371	-2.41
1093.79	1.59
1094.21	-5.41
1094.63	-2.51
1095.049	-5.71
1095.469	-2.71
1095.888	-6.31
1096.308	1.59
1096.727	2.99
1097.146	-3.41
1097.566	2.89
1097.985	-0.71
1098.405	-0.91
1098.824	-1.51
1099.243	-6.11
1099.662	-7.91
1100.082	-7.91
1100.501	-1.01
1100.92	-8.31
1101.339	1.69
1101.758	-7.81
