Data from 20171114-ORNL-Ar_H_NY_Subt18_08-04-33-181.txt Node
Date: Tue Nov 14 08:04:33 EST 2017
User: Ender
Spectrometer: HR+D1039
Trigger mode: 0
Integration Time (sec): 2.730000E-2
Scans to average: 10
Electric dark correction enabled: true
Nonlinearity correction enabled: false
Boxcar width: 0
XAxis mode: Wavelengths
Number of Pixels in Spectrum: 2048
>>>>>Begin Spectral Data<<<<<
187.836	-3.39
188.309	-3.39
188.782	-3.39
189.255	1.61
189.728	-2.19
190.201	2.11
190.674	1.01
191.147	0.51
191.619	-4.09
192.092	1.51
192.565	6.11
193.038	0.01
193.511	-2.49
193.984	5.01
194.456	-4.89
194.929	2.01
195.402	-4.09
195.874	1.21
196.347	0.91
196.82	-9.69
197.292	7.21
197.765	0.71
198.237	-11.09
198.71	1.91
199.182	-0.89
199.655	7.01
200.127	3.61
200.6	-1.19
201.072	-1.99
201.544	-3.29
202.017	0.51
202.489	4.81
202.961	-3.09
203.433	-10.59
203.906	-5.99
204.378	-10.19
204.85	-2.59
205.322	-7.59
205.794	-3.49
206.266	-0.69
206.739	-10.29
207.211	2.31
207.683	2.11
208.155	-5.29
208.627	-8.79
209.099	-2.59
209.57	-8.79
210.042	-12.19
210.514	-0.49
210.986	3.51
211.458	-10.69
211.93	-1.09
212.402	3.11
212.873	-2.59
213.345	-7.69
213.817	-13.19
214.288	-3.39
214.76	-8.69
215.232	-0.99
215.703	-5.39
216.175	-3.89
216.646	-9.69
217.118	-7.39
217.589	-9.29
218.061	0.01
218.532	2.21
219.004	-4.09
219.475	-9.49
219.946	-3.29
220.418	-6.59
220.889	2.11
221.36	2.21
221.832	-3.29
222.303	-9.49
222.774	1.21
223.245	-9.39
223.717	-8.29
224.188	-1.99
224.659	-6.29
225.13	0.01
225.601	-5.79
226.072	-1.09
226.543	-2.69
227.014	-2.99
227.485	-0.89
227.956	-6.89
228.427	-2.29
228.898	-8.09
229.369	7.21
229.839	-3.69
230.31	-6.39
230.781	5.01
231.252	0.51
231.722	-5.59
232.193	-1.99
232.664	-1.49
233.135	-0.79
233.605	0.51
234.076	-6.49
234.546	0.81
235.017	5.51
235.487	-0.29
235.958	-2.99
236.428	-2.09
236.899	2.81
237.369	4.51
237.84	-3.89
238.31	6.51
238.78	3.11
239.251	1.41
239.721	1.71
240.191	5.11
240.662	0.01
241.132	3.31
241.602	-4.59
242.072	-3.09
242.542	6.81
243.013	0.81
243.483	6.41
243.953	-1.59
244.423	-0.69
244.893	-6.49
245.363	2.31
245.833	2.71
246.303	-3.69
246.773	5.01
247.243	0.61
247.712	2.91
248.182	8.81
248.652	12.71
249.122	-3.89
249.592	14.51
250.061	21.91
250.531	34.01
251.001	18.11
251.471	24.51
251.94	26.21
252.41	13.31
252.879	6.21
253.349	15.31
253.818	7.81
254.288	3.91
254.757	2.21
255.227	1.11
255.696	4.01
256.166	11.41
256.635	11.31
257.105	6.91
257.574	7.61
258.043	12.21
258.513	13.91
258.982	18.91
259.451	11.91
259.92	15.91
260.389	10.31
260.859	17.11
261.328	17.21
261.797	24.81
262.266	11.91
262.735	11.91
263.204	6.11
263.673	1.91
264.142	9.51
264.611	-7.49
265.08	4.91
265.549	5.31
266.018	8.21
266.487	3.61
266.955	-1.29
267.424	3.11
267.893	4.41
268.362	-0.39
268.83	4.01
269.299	10.41
269.768	9.31
270.236	13.71
270.705	6.41
271.174	11.81
271.642	5.21
272.111	8.61
272.579	18.91
273.048	23.01
273.516	31.41
273.985	30.11
274.453	28.71
274.922	21.51
275.39	15.31
275.858	3.91
276.327	14.11
276.795	22.61
277.263	6.81
277.731	31.01
278.2	48.31
278.668	66.81
279.136	52.41
279.604	22.31
280.072	11.31
280.54	16.01
281.008	13.31
281.477	15.51
281.945	14.01
282.413	15.21
282.881	16.41
283.348	4.91
283.816	11.11
284.284	13.61
284.752	21.21
285.22	12.31
285.688	18.41
286.156	20.01
286.623	45.51
287.091	54.51
287.559	30.41
288.026	20.11
288.494	18.11
288.962	6.61
289.429	10.31
289.897	16.91
290.364	18.01
290.832	17.61
291.3	17.51
291.767	15.51
292.234	18.81
292.702	12.71
293.169	19.01
293.637	27.21
294.104	20.01
294.571	13.51
295.039	15.11
295.506	14.11
295.973	23.71
296.44	23.81
296.908	17.31
297.375	21.61
297.842	16.21
298.309	16.41
298.776	15.31
299.243	20.61
299.71	18.01
300.177	19.11
300.644	17.11
301.111	28.31
301.578	29.51
302.045	18.11
302.512	25.11
302.979	23.71
303.446	23.31
303.913	24.11
304.379	20.31
304.846	32.11
305.313	28.81
305.78	15.61
306.246	25.21
306.713	28.51
307.18	27.71
307.646	33.41
308.113	34.31
308.579	24.61
309.046	27.01
309.512	29.21
309.979	17.41
310.445	28.91
310.912	27.81
311.378	30.31
311.845	27.81
312.311	33.01
312.777	34.81
313.244	34.91
313.71	40.91
314.176	37.41
314.642	36.61
315.109	38.81
315.575	37.81
316.041	34.61
316.507	32.71
316.973	39.41
317.439	39.81
317.905	43.51
318.371	36.31
318.837	29.71
319.303	34.41
319.769	35.51
320.235	32.51
320.701	39.71
321.167	35.41
321.633	41.51
322.099	36.81
322.564	44.61
323.03	43.11
323.496	42.31
323.962	40.31
324.427	40.51
324.893	48.81
325.359	37.01
325.824	38.51
326.29	35.61
326.755	36.61
327.221	33.01
327.686	33.61
328.152	48.81
328.617	39.41
329.083	49.51
329.548	52.11
330.014	46.81
330.479	40.11
330.944	45.21
331.41	47.61
331.875	42.81
332.34	41.61
332.805	47.61
333.271	53.31
333.736	44.41
334.201	55.21
334.666	49.81
335.131	55.11
335.596	58.41
336.061	50.71
336.526	44.11
336.991	50.71
337.456	59.41
337.921	52.11
338.386	49.31
338.851	46.61
339.316	50.71
339.781	48.71
340.246	49.71
340.711	47.61
341.175	45.91
341.64	41.51
342.105	52.31
342.569	51.01
343.034	58.81
343.499	58.21
343.963	52.71
344.428	62.01
344.893	54.81
345.357	52.91
345.822	62.11
346.286	68.61
346.751	77.41
347.215	70.71
347.679	70.61
348.144	97.61
348.608	76.61
349.073	69.01
349.537	73.61
350.001	81.61
350.465	89.01
350.93	79.31
351.394	83.71
351.858	74.81
352.322	81.91
352.786	76.81
353.25	97.01
353.715	106.91
354.179	98.71
354.643	120.01
355.107	127.21
355.571	104.81
356.035	101.51
356.498	113.61
356.962	115.61
357.426	128.71
357.89	115.41
358.354	89.51
358.818	87.21
359.281	81.71
359.745	72.01
360.209	76.21
360.673	73.21
361.136	78.31
361.6	81.91
362.064	86.41
362.527	83.51
362.991	92.61
363.454	80.91
363.918	76.41
364.381	82.71
364.845	85.61
365.308	79.31
365.772	86.01
366.235	87.31
366.698	82.01
367.162	80.71
367.625	84.31
368.088	83.51
368.552	88.61
369.015	87.01
369.478	91.41
369.941	95.21
370.404	95.81
370.867	106.71
371.331	110.41
371.794	110.81
372.257	112.71
372.72	116.01
373.183	107.31
373.646	103.31
374.109	96.11
374.572	107.11
375.035	110.31
375.497	106.91
375.96	107.31
376.423	101.31
376.886	108.41
377.349	107.71
377.811	103.21
378.274	104.41
378.737	98.41
379.199	112.01
379.662	106.51
380.125	116.61
380.587	109.61
381.05	120.31
381.512	124.31
381.975	130.81
382.437	125.21
382.9	116.41
383.362	134.11
383.825	137.01
384.287	139.21
384.75	135.21
385.212	132.41
385.674	134.61
386.136	132.91
386.599	122.31
387.061	121.21
387.523	117.11
387.985	124.81
388.447	136.71
388.91	145.11
389.372	147.81
389.834	141.51
390.296	137.41
390.758	150.21
391.22	161.81
391.682	193.81
392.144	276.01
392.606	215.11
393.068	157.41
393.529	160.81
393.991	144.51
394.453	143.81
394.915	149.41
395.377	184.41
395.838	202.91
396.3	150.61
396.762	135.81
397.224	128.51
397.685	125.81
398.147	119.11
398.608	125.81
399.07	131.81
399.531	131.31
399.993	127.91
400.454	144.11
400.916	141.71
401.377	136.81
401.839	148.31
402.3	139.21
402.762	154.41
403.223	168.31
403.684	162.01
404.145	154.91
404.607	145.71
405.068	155.71
405.529	159.71
405.99	176.91
406.451	162.01
406.913	164.91
407.374	153.31
407.835	153.11
408.296	155.51
408.757	169.61
409.218	178.01
409.679	169.21
410.14	170.11
410.601	163.61
411.062	175.91
411.522	181.61
411.983	181.21
412.444	167.81
412.905	168.91
413.366	167.81
413.826	186.11
414.287	199.51
414.748	249.91
415.208	244.71
415.669	201.21
416.13	202.41
416.59	188.91
417.051	197.71
417.511	206.71
417.972	228.61
418.432	234.91
418.893	272.41
419.353	238.91
419.814	187.81
420.274	178.01
420.734	173.51
421.195	191.11
421.655	179.61
422.115	181.11
422.576	180.51
423.036	191.11
423.496	203.71
423.956	205.91
424.416	217.01
424.876	250.91
425.336	254.21
425.797	250.41
426.257	249.01
426.717	224.31
427.177	221.21
427.637	215.71
428.097	218.71
428.556	229.21
429.016	250.81
429.476	247.41
429.936	254.31
430.396	265.31
430.856	271.91
431.315	301.41
431.775	325.41
432.235	358.91
432.694	326.61
433.154	332.31
433.614	364.61
434.073	314.81
434.533	271.31
434.993	256.11
435.452	269.41
435.912	283.71
436.371	265.11
436.83	264.91
437.29	255.81
437.749	228.51
438.209	234.11
438.668	257.91
439.127	274.01
439.587	247.31
440.046	231.01
440.505	250.81
440.964	262.31
441.424	300.41
441.883	281.61
442.342	243.21
442.801	210.31
443.26	206.41
443.719	199.41
444.178	201.31
444.637	194.01
445.096	206.91
445.555	207.31
446.014	209.01
446.473	216.71
446.932	218.11
447.391	206.81
447.849	216.51
448.308	206.11
448.767	207.41
449.226	220.01
449.685	220.81
450.143	234.71
450.602	223.81
451.061	212.21
451.519	225.31
451.978	213.91
452.436	218.81
452.895	236.01
453.353	237.41
453.812	226.11
454.27	223.31
454.729	227.01
455.187	231.01
455.646	237.61
456.104	232.41
456.562	241.91
457.021	251.11
457.479	245.01
457.937	256.11
458.395	249.11
458.854	227.21
459.312	230.41
459.77	256.31
460.228	241.91
460.686	224.81
461.144	234.81
461.602	224.41
462.06	233.41
462.518	240.91
462.976	237.81
463.434	236.71
463.892	250.01
464.35	265.61
464.808	269.61
465.266	246.81
465.724	253.81
466.181	263.71
466.639	264.61
467.097	277.31
467.555	277.71
468.012	284.91
468.47	286.11
468.928	313.51
469.385	321.61
469.843	322.01
470.3	327.11
470.758	338.91
471.215	358.31
471.673	383.81
472.13	379.91
472.588	392.41
473.045	352.11
473.503	350.81
473.96	366.31
474.417	375.91
474.875	398.81
475.332	439.61
475.789	432.11
476.246	447.31
476.704	458.21
477.161	468.41
477.618	496.91
478.075	529.21
478.532	576.71
478.989	644.51
479.446	741.51
479.903	725.41
480.36	758.21
480.817	810.91
481.274	909.01
481.731	1007.11
482.188	1095.61
482.645	1226.71
483.102	1339.31
483.558	1455.71
484.015	1503.61
484.472	1487.01
484.929	1449.31
485.385	1399.01
485.842	1359.81
486.299	1293.71
486.755	1216.41
487.212	1027.21
487.668	882.71
488.125	804.91
488.582	751.71
489.038	711.51
489.494	671.41
489.951	645.21
490.407	631.01
490.864	618.61
491.32	613.61
491.776	602.61
492.233	608.61
492.689	572.71
493.145	568.71
493.602	566.21
494.058	583.01
494.514	583.21
494.97	602.31
495.426	609.81
495.882	579.51
496.338	575.11
496.794	594.41
497.251	585.81
497.707	602.61
498.163	605.71
498.618	610.81
499.074	609.71
499.53	639.21
499.986	636.01
500.442	611.31
500.898	591.41
501.354	594.31
501.809	595.81
502.265	605.31
502.721	618.11
503.177	632.61
503.632	626.51
504.088	641.11
504.543	660.41
504.999	664.71
505.455	622.01
505.91	598.71
506.366	594.31
506.821	594.71
507.277	587.31
507.732	586.51
508.187	583.01
508.643	599.31
509.098	594.31
509.553	623.31
510.009	621.31
510.464	631.41
510.919	646.51
511.375	653.41
511.83	668.91
512.285	688.81
512.74	714.41
513.195	732.61
513.65	724.41
514.105	723.61
514.56	728.91
515.015	744.71
515.47	765.01
515.925	746.61
516.38	740.31
516.835	752.61
517.29	736.31
517.745	737.11
518.2	727.01
518.655	713.51
519.109	698.71
519.564	709.21
520.019	691.11
520.474	683.11
520.928	683.71
521.383	683.41
521.838	668.71
522.292	667.81
522.747	673.21
523.201	658.71
523.656	648.21
524.11	649.11
524.565	650.81
525.019	648.41
525.474	661.61
525.928	661.71
526.382	654.51
526.837	651.01
527.291	657.31
527.745	659.71
528.2	659.81
528.654	648.21
529.108	638.41
529.562	637.11
530.016	644.51
530.47	641.71
530.925	656.61
531.379	655.11
531.833	663.21
532.287	661.61
532.741	656.31
533.195	662.31
533.649	670.41
534.103	670.41
534.556	662.11
535.01	674.01
535.464	658.51
535.918	680.21
536.372	672.31
536.826	668.71
537.279	672.41
537.733	668.91
538.187	667.41
538.64	665.91
539.094	673.81
539.548	688.31
540.001	669.91
540.455	673.01
540.908	677.01
541.362	680.61
541.815	694.41
542.269	710.81
542.722	696.61
543.175	710.71
543.629	721.31
544.082	728.91
544.536	727.01
544.989	729.61
545.442	733.81
545.895	731.51
546.349	733.81
546.802	734.11
547.255	738.01
547.708	753.01
548.161	751.51
548.614	761.41
549.067	774.31
549.52	758.11
549.973	749.11
550.426	755.71
550.879	737.21
551.332	735.01
551.785	741.11
552.238	752.01
552.691	759.91
553.144	765.81
553.596	782.11
554.049	791.61
554.502	830.91
554.955	843.51
555.407	846.81
555.86	836.11
556.313	834.31
556.765	819.81
557.218	819.11
557.67	809.71
558.123	807.31
558.576	796.21
559.028	810.41
559.48	812.71
559.933	812.01
560.385	775.51
560.838	743.91
561.29	709.61
561.742	720.61
562.195	703.11
562.647	698.61
563.099	708.41
563.551	708.31
564.004	719.11
564.456	714.81
564.908	711.01
565.36	689.81
565.812	675.71
566.264	657.51
566.716	659.01
567.168	653.01
567.62	663.11
568.072	653.51
568.524	635.71
568.976	623.31
569.428	619.91
569.88	624.61
570.332	629.41
570.784	626.21
571.235	620.01
571.687	637.11
572.139	635.01
572.59	655.11
573.042	650.81
573.494	644.41
573.945	651.01
574.397	624.31
574.849	626.41
575.3	627.91
575.752	620.41
576.203	626.61
576.655	621.41
577.106	609.01
577.557	600.21
578.009	613.71
578.46	602.01
578.912	602.01
579.363	602.71
579.814	605.91
580.265	605.71
580.717	607.61
581.168	606.71
581.619	619.31
582.07	617.41
582.521	613.21
582.972	614.81
583.423	615.51
583.875	622.21
584.326	634.91
584.777	676.11
585.227	745.41
585.678	813.81
586.129	902.31
586.58	976.11
587.031	1042.01
587.482	1211.51
587.933	1368.01
588.384	1185.81
588.834	879.21
589.285	736.31
589.736	703.31
590.186	691.61
590.637	686.81
591.088	668.81
591.538	659.01
591.989	655.51
592.439	654.41
592.89	640.51
593.34	633.41
593.791	637.21
594.241	629.61
594.692	635.41
595.142	623.41
595.593	623.11
596.043	634.01
596.493	637.31
596.943	634.51
597.394	647.21
597.844	637.81
598.294	651.61
598.744	666.31
599.195	682.21
599.645	727.91
600.095	756.61
600.545	812.51
600.995	861.71
601.445	920.21
601.895	974.01
602.345	1022.91
602.795	984.91
603.245	951.21
603.695	914.51
604.145	857.61
604.594	824.41
605.044	768.41
605.494	716.01
605.944	677.71
606.393	661.81
606.843	653.21
607.293	658.01
607.743	661.51
608.192	670.61
608.642	676.91
609.091	677.11
609.541	681.71
609.99	679.31
610.44	683.21
610.889	629.31
611.339	627.81
611.788	614.41
612.238	624.21
612.687	631.61
613.136	636.71
613.586	661.61
614.035	645.41
614.484	662.21
614.933	660.31
615.383	663.11
615.832	648.81
616.281	635.01
616.73	614.41
617.179	593.31
617.628	570.91
618.077	552.41
618.526	554.21
618.975	545.01
619.424	544.11
619.873	547.81
620.322	552.11
620.771	531.21
621.22	532.41
621.669	529.71
622.118	521.81
622.567	518.71
623.015	503.21
623.464	507.01
623.913	505.41
624.361	487.21
624.81	481.01
625.259	488.31
625.707	498.21
626.156	494.91
626.604	493.81
627.053	497.61
627.501	499.41
627.95	498.11
628.398	511.41
628.847	504.21
629.295	506.31
629.744	504.81
630.192	493.11
630.64	496.41
631.089	490.71
631.537	503.11
631.985	516.81
632.433	517.41
632.881	521.71
633.33	570.41
633.778	560.21
634.226	482.61
634.674	490.71
635.122	508.01
635.57	526.41
636.018	541.61
636.466	506.11
636.914	492.41
637.362	502.51
637.81	504.41
638.258	509.61
638.705	506.61
639.153	529.41
639.601	529.71
640.049	554.01
640.497	588.01
640.944	602.81
641.392	561.91
641.84	542.41
642.287	510.31
642.735	500.81
643.182	506.71
643.63	500.11
644.078	498.51
644.525	515.21
644.973	516.61
645.42	518.41
645.867	539.41
646.315	554.61
646.762	571.31
647.21	596.21
647.657	618.81
648.104	654.31
648.551	664.11
648.999	728.61
649.446	802.71
649.893	864.61
650.34	1000.41
650.787	1188.21
651.234	1477.31
651.682	1913.91
652.129	2627.41
652.576	3768.71
653.023	5580.21
653.47	7668.51
653.917	9761.41
654.363	11355.71
654.81	12777.01
655.257	12201.21
655.704	7911.71
656.151	4663.21
656.598	3019.41
657.044	2119.61
657.491	1629.61
657.938	1295.01
658.385	1084.41
658.831	938.31
659.278	828.71
659.724	734.91
660.171	690.81
660.618	626.61
661.064	595.41
661.511	568.61
661.957	561.01
662.404	557.21
662.85	562.71
663.296	533.91
663.743	485.21
664.189	458.61
664.635	463.11
665.082	456.31
665.528	449.21
665.974	451.31
666.42	443.81
666.867	434.81
667.313	425.11
667.759	414.01
668.205	415.31
668.651	415.81
669.097	423.31
669.543	436.91
669.989	416.01
670.435	391.61
670.881	381.41
671.327	387.61
671.773	405.61
672.219	423.71
672.665	465.11
673.11	497.91
673.556	538.21
674.002	574.71
674.448	566.31
674.893	471.11
675.339	410.51
675.785	377.21
676.23	357.51
676.676	335.81
677.122	329.31
677.567	318.11
678.013	314.61
678.458	302.61
678.904	303.61
679.349	295.81
679.794	302.91
680.24	296.81
680.685	292.31
681.131	295.71
681.576	293.11
682.021	299.81
682.466	295.41
682.912	303.31
683.357	296.71
683.802	327.91
684.247	354.11
684.692	379.91
685.137	418.41
685.583	468.01
686.028	485.31
686.473	438.51
686.918	383.31
687.363	355.41
687.807	333.61
688.252	306.91
688.697	301.71
689.142	285.21
689.587	286.51
690.032	269.81
690.477	294.51
690.921	303.01
691.366	323.01
691.811	341.61
692.255	371.61
692.7	393.51
693.145	431.31
693.589	579.31
694.034	939.31
694.478	1291.81
694.923	1505.61
695.367	1984.01
695.812	1027.91
696.256	432.31
696.701	326.31
697.145	298.51
697.59	278.41
698.034	271.11
698.478	283.11
698.922	272.51
699.367	274.51
699.811	288.71
700.255	294.41
700.699	320.41
701.143	359.41
701.588	407.21
702.032	439.91
702.476	432.61
702.92	415.11
703.364	411.31
703.808	521.41
704.252	851.91
704.696	1225.41
705.14	1447.31
705.584	1857.71
706.027	921.31
706.471	438.21
706.915	337.71
707.359	293.51
707.803	268.81
708.246	262.61
708.69	267.51
709.134	269.71
709.577	261.31
710.021	261.31
710.465	256.91
710.908	255.91
711.352	252.31
711.795	262.61
712.239	297.21
712.682	329.61
713.126	356.31
713.569	403.41
714.012	319.11
714.456	278.01
714.899	255.91
715.342	226.01
715.786	216.01
716.229	217.61
716.672	220.21
717.115	205.31
717.558	210.71
718.002	208.11
718.445	224.91
718.888	241.11
719.331	250.01
719.774	262.31
720.217	254.01
720.66	242.91
721.103	227.51
721.546	222.01
721.989	205.31
722.432	194.41
722.874	198.61
723.317	198.41
723.76	193.91
724.203	214.01
724.645	259.31
725.088	369.51
725.531	484.01
725.974	554.71
726.416	465.01
726.859	256.81
727.301	208.11
727.744	203.31
728.187	193.01
728.629	206.11
729.071	207.71
729.514	221.21
729.956	225.11
730.399	237.01
730.841	249.11
731.283	233.01
731.726	228.31
732.168	217.61
732.61	221.21
733.053	239.11
733.495	264.51
733.937	297.81
734.379	339.31
734.821	360.91
735.263	455.81
735.705	681.41
736.148	1291.21
736.59	2164.61
737.032	2659.51
737.474	2174.11
737.916	688.11
738.357	359.91
738.799	271.21
739.241	258.01
739.683	233.21
740.125	235.11
740.567	249.01
741.008	267.11
741.45	258.21
741.892	260.61
742.334	294.71
742.775	307.31
743.217	289.61
743.658	225.51
744.1	214.21
744.542	220.81
744.983	265.11
745.425	298.71
745.866	294.31
746.307	234.01
746.749	232.31
747.19	268.21
747.632	372.31
748.073	702.31
748.514	1519.71
748.956	2427.71
749.397	3024.11
749.838	2511.31
750.279	2595.81
750.72	1289.81
751.162	463.41
751.603	280.01
752.044	208.21
752.485	181.91
752.926	173.71
753.367	171.51
753.808	168.21
754.249	156.51
754.69	152.21
755.131	155.01
755.572	152.31
756.013	153.01
756.453	155.51
756.894	148.41
757.335	147.81
757.776	162.71
758.216	164.41
758.657	167.41
759.098	171.01
759.538	185.21
759.979	224.21
760.42	310.81
760.86	569.81
761.301	1476.71
761.741	3682.51
762.182	5697.91
762.622	3978.21
763.063	1123.11
763.503	451.01
763.943	288.51
764.384	279.11
764.824	339.31
765.264	386.31
765.705	267.61
766.145	178.71
766.585	160.51
767.025	153.11
767.465	153.41
767.906	203.61
768.346	279.71
768.786	289.21
769.226	218.71
769.666	262.91
770.106	502.31
770.546	1265.41
770.986	2281.91
771.426	2064.51
771.866	686.01
772.306	285.81
772.745	173.61
773.185	145.91
773.625	142.41
774.065	147.31
774.505	165.91
774.944	254.21
775.384	551.91
775.824	1045.91
776.263	1030.81
776.703	433.01
777.142	187.71
777.582	129.51
778.021	118.91
778.461	115.21
778.9	122.51
779.34	112.31
779.779	94.51
780.219	88.11
780.658	92.21
781.097	91.51
781.537	93.41
781.976	88.21
782.415	84.51
782.855	87.31
783.294	81.31
783.733	84.31
784.172	90.91
784.611	87.51
785.05	95.21
785.489	86.81
785.928	103.91
786.367	99.81
786.806	98.71
787.245	110.61
787.684	115.91
788.123	135.11
788.562	120.21
789.001	108.61
789.44	103.51
789.879	93.51
790.317	98.51
790.756	112.61
791.195	103.91
791.634	116.91
792.072	168.11
792.511	296.51
792.95	807.21
793.388	1824.51
793.827	1717.71
794.265	581.71
794.704	235.31
795.142	154.31
795.581	129.51
796.019	113.41
796.458	107.71
796.896	99.51
797.334	108.81
797.773	131.51
798.211	174.31
798.649	357.11
799.087	846.81
799.526	1350.71
799.964	1702.51
800.402	1765.01
800.84	658.11
801.278	259.31
801.716	154.81
802.154	134.81
802.592	126.91
803.03	120.91
803.468	109.31
803.906	122.41
804.344	132.31
804.782	121.91
805.22	112.41
805.658	103.21
806.096	118.21
806.533	137.61
806.971	146.91
807.409	175.31
807.847	261.71
808.284	533.31
808.722	1549.11
809.16	2835.11
809.597	2611.21
810.035	4633.31
810.472	5162.11
810.91	1824.71
811.347	686.31
811.785	341.11
812.222	215.81
812.66	158.51
813.097	146.51
813.535	120.41
813.972	110.21
814.409	101.91
814.846	95.11
815.284	99.01
815.721	83.71
816.158	89.21
816.595	101.91
817.032	148.61
817.47	175.91
817.907	149.71
818.344	133.71
818.781	92.11
819.218	87.21
819.655	100.51
820.092	167.51
820.529	185.01
820.966	150.51
821.403	110.61
821.839	89.41
822.276	78.81
822.713	103.31
823.15	115.51
823.587	95.61
824.023	121.71
824.46	243.71
824.897	735.41
825.333	1171.61
825.77	502.71
826.206	194.01
826.643	112.41
827.08	83.81
827.516	68.91
827.953	66.41
828.389	79.41
828.825	56.61
829.262	54.91
829.698	55.61
830.135	50.81
830.571	53.31
831.007	49.21
831.443	55.81
831.88	50.31
832.316	56.61
832.752	54.31
833.188	49.01
833.624	50.31
834.06	56.51
834.497	55.71
834.933	58.71
835.369	58.81
835.805	58.11
836.241	68.01
836.677	69.91
837.112	75.61
837.548	83.91
837.984	107.31
838.42	160.21
838.856	403.01
839.292	1276.71
839.727	2025.01
840.163	924.01
840.599	769.41
841.034	1717.31
841.47	1882.51
841.906	674.81
842.341	281.21
842.777	194.71
843.212	276.31
843.648	267.71
844.083	130.61
844.519	78.71
844.954	67.71
845.39	52.01
845.825	47.41
846.261	43.81
846.696	47.71
847.131	45.21
847.566	44.51
848.002	40.51
848.437	42.41
848.872	46.81
849.307	48.81
849.742	69.71
850.177	144.61
850.613	464.61
851.048	768.51
851.483	328.21
851.918	125.71
852.353	73.81
852.788	49.81
853.223	45.81
853.657	46.81
854.092	39.61
854.527	34.51
854.962	36.41
855.397	36.41
855.832	41.41
856.266	33.31
856.701	36.01
857.136	37.11
857.57	32.31
858.005	41.61
858.44	51.61
858.874	39.31
859.309	43.01
859.743	30.51
860.178	42.41
860.612	33.41
861.047	45.11
861.481	53.91
861.915	57.81
862.35	37.11
862.784	25.01
863.218	33.41
863.653	25.51
864.087	42.51
864.521	51.51
864.955	57.21
865.39	131.21
865.824	154.21
866.258	100.01
866.692	137.21
867.126	148.11
867.56	92.11
867.994	40.61
868.428	25.51
868.862	34.61
869.296	49.41
869.73	53.91
870.164	47.01
870.598	41.11
871.031	32.31
871.465	25.11
871.899	28.21
872.333	15.21
872.766	21.91
873.2	19.01
873.634	26.01
874.067	25.61
874.501	22.61
874.935	27.31
875.368	26.21
875.802	31.81
876.235	16.61
876.669	15.21
877.102	18.71
877.535	21.31
877.969	22.41
878.402	22.51
878.836	19.71
879.269	13.81
879.702	18.21
880.135	16.81
880.569	19.61
881.002	25.31
881.435	19.71
881.868	14.01
882.301	21.61
882.734	12.01
883.167	18.71
883.601	14.61
884.034	19.71
884.467	8.81
884.899	15.21
885.332	13.31
885.765	15.11
886.198	13.11
886.631	13.71
887.064	16.31
887.497	18.81
887.929	20.41
888.362	10.01
888.795	9.11
889.228	16.51
889.66	17.01
890.093	12.51
890.526	14.41
890.958	10.21
891.391	17.81
891.823	16.31
892.256	8.51
892.688	12.91
893.121	12.71
893.553	14.41
893.985	12.81
894.418	21.01
894.85	6.31
895.282	7.61
895.715	9.51
896.147	10.91
896.579	13.01
897.011	9.41
897.444	10.41
897.876	11.91
898.308	11.01
898.74	9.91
899.172	15.51
899.604	19.11
900.036	12.01
900.468	9.11
900.9	13.01
901.332	10.51
901.764	15.31
902.196	16.21
902.628	16.11
903.06	15.01
903.491	14.81
903.923	14.21
904.355	18.71
904.787	28.31
905.218	23.41
905.65	17.71
906.082	1.91
906.513	11.51
906.945	16.41
907.376	13.71
907.808	20.21
908.239	14.91
908.671	10.01
909.102	14.31
909.534	14.81
909.965	40.81
910.397	73.21
910.828	273.71
911.259	422.81
911.691	189.31
912.122	90.41
912.553	50.81
912.984	31.21
913.415	21.21
913.847	18.21
914.278	4.81
914.709	11.41
915.14	11.71
915.571	11.91
916.002	9.31
916.433	15.41
916.864	12.91
917.295	14.41
917.726	20.91
918.157	16.81
918.587	27.01
919.018	19.21
919.449	19.61
919.88	23.71
920.311	28.61
920.741	38.01
921.172	144.11
921.603	135.81
922.033	60.81
922.464	40.41
922.895	18.61
923.325	26.01
923.756	11.31
924.186	17.81
924.617	21.11
925.047	39.31
925.478	45.61
925.908	41.11
926.338	22.91
926.769	15.61
927.199	14.61
927.629	1.91
928.06	9.51
928.49	11.21
928.92	7.71
929.35	6.01
929.78	5.51
930.21	7.11
930.641	8.61
931.071	6.91
931.501	2.61
931.931	8.31
932.361	5.21
932.791	4.71
933.221	0.31
933.651	2.61
934.08	14.21
934.51	25.51
934.94	9.51
935.37	5.41
935.8	4.31
936.229	8.81
936.659	6.01
937.089	4.71
937.519	9.31
937.948	20.81
938.378	15.41
938.807	5.91
939.237	3.61
939.666	10.31
940.096	-3.49
940.525	-0.19
940.955	1.31
941.384	2.71
941.814	-2.99
942.243	-3.99
942.672	-1.29
943.102	2.01
943.531	5.31
943.96	-0.09
944.39	-0.19
944.819	2.51
945.248	3.71
945.677	-2.19
946.106	13.91
946.535	6.11
946.964	-1.49
947.393	4.11
947.822	3.41
948.251	-8.09
948.68	-0.09
949.109	6.51
949.538	3.91
949.967	0.21
950.396	2.91
950.825	-2.39
951.254	0.11
951.682	-2.09
952.111	0.61
952.54	6.71
952.969	-5.69
953.397	-5.79
953.826	4.61
954.254	-5.29
954.683	7.01
955.112	-3.49
955.54	-2.99
955.969	0.51
956.397	1.51
956.826	2.41
957.254	2.51
957.682	6.21
958.111	3.91
958.539	-1.69
958.967	2.71
959.396	-0.09
959.824	2.31
960.252	4.81
960.68	-8.69
961.109	-10.99
961.537	-2.59
961.965	-0.89
962.393	-0.79
962.821	-3.29
963.249	-4.19
963.677	7.71
964.105	-0.79
964.533	34.01
964.961	39.91
965.389	10.91
965.817	7.51
966.245	2.01
966.672	0.41
967.1	-7.59
967.528	0.81
967.956	-2.69
968.383	2.51
968.811	-6.19
969.239	-3.09
969.666	-5.19
970.094	0.61
970.522	2.01
970.949	0.61
971.377	-2.39
971.804	-2.19
972.232	-2.69
972.659	-3.59
973.087	-1.59
973.514	-6.49
973.941	-4.79
974.369	-0.89
974.796	0.51
975.223	1.01
975.651	-4.89
976.078	4.91
976.505	-2.69
976.932	3.31
977.359	4.71
977.786	13.61
978.214	-2.09
978.641	-5.59
979.068	-2.49
979.495	-1.79
979.922	0.31
980.349	-2.59
980.776	1.91
981.202	-2.49
981.629	1.11
982.056	3.61
982.483	-1.09
982.91	6.81
983.337	-10.69
983.763	-0.09
984.19	-9.19
984.617	-6.09
985.043	-5.99
985.47	-4.29
985.897	-6.79
986.323	-4.29
986.75	1.71
987.176	-5.99
987.603	0.11
988.029	-1.99
988.456	-1.89
988.882	1.61
989.308	-5.59
989.735	-2.69
990.161	-3.49
990.587	-4.79
991.014	-5.89
991.44	0.91
991.866	-5.49
992.292	-7.99
992.719	-4.29
993.145	6.91
993.571	-7.99
993.997	-2.99
994.423	-2.39
994.849	1.81
995.275	5.81
995.701	-0.99
996.127	-4.89
996.553	-5.49
996.979	-0.09
997.405	-5.69
997.83	-7.99
998.256	-12.49
998.682	-7.39
999.108	-9.59
999.534	1.01
999.959	-8.89
1000.385	-7.49
1000.811	1.31
1001.236	-0.49
1001.662	-6.39
1002.087	-6.09
1002.513	2.61
1002.938	4.51
1003.364	-7.39
1003.789	-3.69
1004.215	0.61
1004.64	-2.59
1005.066	3.41
1005.491	-3.89
1005.916	-4.59
1006.342	-7.59
1006.767	-7.89
1007.192	4.61
1007.617	-4.89
1008.042	-4.29
1008.468	-7.69
1008.893	-1.39
1009.318	-6.89
1009.743	-2.79
1010.168	0.71
1010.593	2.01
1011.018	-6.79
1011.443	-3.19
1011.868	0.31
1012.293	-3.49
1012.718	-4.69
1013.143	4.71
1013.567	3.51
1013.992	1.01
1014.417	-12.39
1014.842	-2.39
1015.267	-6.29
1015.691	-7.89
1016.116	2.21
1016.541	1.81
1016.965	0.91
1017.39	1.01
1017.814	1.11
1018.239	-0.99
1018.663	-9.49
1019.088	-8.69
1019.512	-2.49
1019.937	1.51
1020.361	-3.39
1020.785	-8.39
1021.21	-0.69
1021.634	-5.39
1022.058	3.21
1022.483	7.81
1022.907	-2.19
1023.331	-6.59
1023.755	1.91
1024.179	-2.99
1024.604	-5.79
1025.028	-7.79
1025.452	-3.39
1025.876	-1.69
1026.3	3.51
1026.724	-7.29
1027.148	-4.19
1027.572	-12.69
1027.996	-4.69
1028.42	-1.79
1028.843	-1.79
1029.267	-5.49
1029.691	-0.89
1030.115	1.11
1030.539	-2.29
1030.962	-3.09
1031.386	-11.89
1031.81	-5.79
1032.233	0.51
1032.657	1.31
1033.08	-4.59
1033.504	-11.49
1033.927	-7.19
1034.351	0.81
1034.774	-2.59
1035.198	-4.19
1035.621	-1.59
1036.045	-11.69
1036.468	2.51
1036.891	-5.49
1037.315	-6.29
1037.738	-8.09
1038.161	-0.59
1038.584	-5.79
1039.008	-3.19
1039.431	-0.09
1039.854	-4.89
1040.277	-9.39
1040.7	-10.99
1041.123	1.81
1041.546	-6.89
1041.969	-3.29
1042.392	-5.29
1042.815	0.31
1043.238	-3.79
1043.661	-2.39
1044.084	-5.09
1044.507	2.11
1044.93	-9.49
1045.352	-3.19
1045.775	0.41
1046.198	4.01
1046.621	-2.89
1047.043	-3.19
1047.466	3.41
1047.889	-0.39
1048.311	-7.49
1048.734	-4.89
1049.156	0.01
1049.579	-2.79
1050.001	-4.99
1050.424	0.41
1050.846	-4.69
1051.269	-2.79
1051.691	-4.39
1052.113	1.61
1052.536	0.41
1052.958	-1.69
1053.38	-0.99
1053.802	-8.79
1054.225	-0.19
1054.647	-10.69
1055.069	-4.09
1055.491	1.01
1055.913	-7.59
1056.335	-3.09
1056.757	-0.49
1057.179	-9.39
1057.601	-9.69
1058.023	-4.09
1058.445	-2.69
1058.867	-0.49
1059.289	-4.49
1059.711	-4.49
1060.133	-4.09
1060.555	-3.89
1060.976	-7.99
1061.398	-1.49
1061.82	-7.09
1062.241	-5.79
1062.663	-6.09
1063.085	-0.59
1063.506	-5.29
1063.928	-3.09
1064.35	-1.79
1064.771	-12.59
1065.193	-4.39
1065.614	-7.29
1066.035	-0.09
1066.457	-1.49
1066.878	9.41
1067.3	-2.09
1067.721	-5.29
1068.142	-9.09
1068.564	-8.19
1068.985	-1.09
1069.406	-2.39
1069.827	-6.29
1070.248	0.81
1070.67	-8.59
1071.091	-9.49
1071.512	-4.79
1071.933	-3.59
1072.354	-9.39
1072.775	-8.39
1073.196	-6.29
1073.617	-2.59
1074.038	2.11
1074.459	0.91
1074.88	-10.29
1075.3	-0.89
1075.721	-9.29
1076.142	-1.89
1076.563	0.81
1076.983	-10.99
1077.404	-8.99
1077.825	-9.79
1078.246	-3.49
1078.666	-9.19
1079.087	-1.29
1079.507	-2.09
1079.928	2.31
1080.348	-3.69
1080.769	-5.49
1081.189	-3.19
1081.61	-3.29
1082.03	-1.89
1082.451	-11.79
1082.871	-5.09
1083.291	-3.99
1083.711	-9.39
1084.132	-3.59
1084.552	-9.69
1084.972	-1.49
1085.392	-7.09
1085.813	-11.09
1086.233	-8.89
1086.653	-2.89
1087.073	-1.79
1087.493	-3.59
1087.913	-2.89
1088.333	-11.19
1088.753	-12.69
1089.173	-1.89
1089.593	-4.39
1090.013	-0.39
1090.433	-6.09
1090.852	-6.09
1091.272	0.91
1091.692	-1.59
1092.112	-2.29
1092.531	-9.49
1092.951	-11.89
1093.371	-6.09
1093.79	-5.19
1094.21	-5.39
1094.63	-5.09
1095.049	-1.79
1095.469	0.91
1095.888	-4.49
1096.308	-2.89
1096.727	6.61
1097.146	-5.69
1097.566	-4.39
1097.985	-7.99
1098.405	-2.69
1098.824	-5.89
1099.243	-5.99
1099.662	-8.19
1100.082	-1.09
1100.501	-4.59
1100.92	-9.79
1101.339	-3.59
1101.758	-7.89
