Data from 20171114-ORNL-Ar_H_NY_Subt18_08-07-58-186.txt Node
Date: Tue Nov 14 08:07:58 EST 2017
User: Ender
Spectrometer: HR+D1039
Trigger mode: 0
Integration Time (sec): 2.730000E-2
Scans to average: 10
Electric dark correction enabled: true
Nonlinearity correction enabled: false
Boxcar width: 0
XAxis mode: Wavelengths
Number of Pixels in Spectrum: 2048
>>>>>Begin Spectral Data<<<<<
187.836	-2.11
188.309	-2.11
188.782	-2.11
189.255	0.29
189.728	-3.01
190.201	7.19
190.674	-0.91
191.147	4.29
191.619	-4.01
192.092	4.49
192.565	1.39
193.038	-0.81
193.511	-0.51
193.984	1.59
194.456	0.19
194.929	-0.81
195.402	-5.71
195.874	-1.51
196.347	1.09
196.82	-2.51
197.292	4.09
197.765	0.79
198.237	-3.91
198.71	4.49
199.182	1.89
199.655	1.39
200.127	8.89
200.6	-6.71
201.072	-3.71
201.544	-2.71
202.017	-0.81
202.489	3.99
202.961	-0.51
203.433	-4.61
203.906	-8.91
204.378	-8.11
204.85	-3.41
205.322	-11.21
205.794	-1.11
206.266	-3.11
206.739	-3.41
207.211	2.49
207.683	-10.61
208.155	-7.61
208.627	-2.81
209.099	-1.11
209.57	-8.51
210.042	-6.21
210.514	-11.61
210.986	-2.21
211.458	-8.51
211.93	-7.51
212.402	2.69
212.873	-11.11
213.345	-12.41
213.817	-12.91
214.288	-1.41
214.76	-7.71
215.232	-6.41
215.703	-5.21
216.175	-3.61
216.646	-5.41
217.118	-4.31
217.589	-7.21
218.061	1.39
218.532	-4.21
219.004	-2.61
219.475	0.39
219.946	-0.41
220.418	-5.81
220.889	-5.81
221.36	-5.51
221.832	-1.71
222.303	-10.91
222.774	2.59
223.245	-7.51
223.717	-6.31
224.188	0.59
224.659	-7.51
225.13	-11.71
225.601	-4.01
226.072	-1.71
226.543	-0.51
227.014	-1.41
227.485	-6.01
227.956	-8.01
228.427	0.59
228.898	-0.41
229.369	0.09
229.839	-5.01
230.31	-6.31
230.781	7.69
231.252	-4.41
231.722	-6.01
232.193	3.49
232.664	1.89
233.135	2.09
233.605	-0.51
234.076	-8.01
234.546	-1.91
235.017	2.99
235.487	0.89
235.958	-3.41
236.428	-3.81
236.899	-1.31
237.369	8.69
237.84	0.89
238.31	6.59
238.78	2.69
239.251	2.59
239.721	-3.71
240.191	1.79
240.662	0.89
241.132	7.29
241.602	-3.31
242.072	5.39
242.542	0.19
243.013	0.89
243.483	6.89
243.953	-0.81
244.423	-9.21
244.893	-6.81
245.363	3.19
245.833	3.19
246.303	-0.51
246.773	4.49
247.243	7.49
247.712	3.09
248.182	4.29
248.652	4.19
249.122	3.29
249.592	6.99
250.061	22.09
250.531	29.79
251.001	15.59
251.471	20.19
251.94	13.19
252.41	8.79
252.879	3.89
253.349	15.19
253.818	6.49
254.288	2.69
254.757	8.09
255.227	-0.91
255.696	6.09
256.166	7.29
256.635	8.99
257.105	10.59
257.574	4.99
258.043	7.89
258.513	7.99
258.982	16.29
259.451	6.69
259.92	6.79
260.389	7.29
260.859	15.49
261.328	13.69
261.797	17.89
262.266	8.69
262.735	11.49
263.204	6.99
263.673	0.69
264.142	5.49
264.611	0.39
265.08	2.89
265.549	0.09
266.018	4.19
266.487	-6.81
266.955	-2.31
267.424	-1.71
267.893	4.89
268.362	2.59
268.83	6.39
269.299	10.89
269.768	4.89
270.236	3.59
270.705	0.49
271.174	10.39
271.642	7.79
272.111	10.59
272.579	7.79
273.048	16.39
273.516	25.49
273.985	26.89
274.453	15.99
274.922	16.69
275.39	11.29
275.858	-0.01
276.327	13.09
276.795	15.49
277.263	9.39
277.731	25.19
278.2	48.99
278.668	54.39
279.136	41.29
279.604	16.49
280.072	8.49
280.54	13.99
281.008	11.39
281.477	14.79
281.945	12.99
282.413	15.09
282.881	15.79
283.348	-1.01
283.816	13.69
284.284	12.29
284.752	18.09
285.22	12.29
285.688	15.39
286.156	16.99
286.623	44.79
287.091	51.39
287.559	27.79
288.026	18.69
288.494	12.89
288.962	4.39
289.429	8.49
289.897	16.69
290.364	14.79
290.832	15.09
291.3	15.99
291.767	15.69
292.234	13.69
292.702	13.79
293.169	9.99
293.637	21.69
294.104	20.39
294.571	5.99
295.039	13.19
295.506	10.59
295.973	18.79
296.44	10.49
296.908	19.59
297.375	20.89
297.842	15.69
298.309	15.69
298.776	11.89
299.243	19.29
299.71	14.39
300.177	18.19
300.644	14.09
301.111	18.99
301.578	24.79
302.045	18.29
302.512	22.89
302.979	18.99
303.446	23.79
303.913	20.09
304.379	16.49
304.846	22.79
305.313	23.09
305.78	19.09
306.246	20.49
306.713	26.79
307.18	24.59
307.646	26.69
308.113	31.59
308.579	26.09
309.046	30.79
309.512	22.69
309.979	12.59
310.445	25.09
310.912	24.09
311.378	30.39
311.845	29.39
312.311	22.29
312.777	29.89
313.244	28.69
313.71	35.49
314.176	27.09
314.642	24.89
315.109	23.29
315.575	36.39
316.041	36.79
316.507	27.69
316.973	34.49
317.439	32.39
317.905	35.49
318.371	35.29
318.837	31.59
319.303	37.09
319.769	32.79
320.235	30.59
320.701	29.99
321.167	34.89
321.633	30.79
322.099	34.89
322.564	35.99
323.03	39.69
323.496	35.09
323.962	42.69
324.427	35.79
324.893	39.39
325.359	34.99
325.824	36.29
326.29	33.99
326.755	35.99
327.221	38.89
327.686	32.79
328.152	44.59
328.617	34.89
329.083	45.19
329.548	44.79
330.014	45.99
330.479	40.79
330.944	41.69
331.41	38.39
331.875	39.39
332.34	35.99
332.805	38.09
333.271	40.19
333.736	41.59
334.201	46.19
334.666	43.69
335.131	51.99
335.596	49.99
336.061	45.59
336.526	34.69
336.991	42.99
337.456	49.29
337.921	38.89
338.386	41.09
338.851	39.49
339.316	43.69
339.781	48.79
340.246	50.29
340.711	45.69
341.175	53.39
341.64	41.69
342.105	49.89
342.569	51.49
343.034	53.49
343.499	52.19
343.963	48.19
344.428	60.29
344.893	63.99
345.357	56.29
345.822	59.19
346.286	59.19
346.751	72.39
347.215	64.69
347.679	73.29
348.144	88.09
348.608	85.99
349.073	66.09
349.537	69.59
350.001	73.99
350.465	84.49
350.93	73.29
351.394	74.49
351.858	64.09
352.322	85.49
352.786	81.49
353.25	96.49
353.715	106.89
354.179	94.99
354.643	119.69
355.107	122.79
355.571	99.69
356.035	103.69
356.498	118.39
356.962	119.29
357.426	126.49
357.89	118.09
358.354	87.39
358.818	84.09
359.281	72.59
359.745	73.19
360.209	72.59
360.673	73.49
361.136	75.39
361.6	79.19
362.064	86.29
362.527	85.59
362.991	87.59
363.454	75.59
363.918	77.09
364.381	79.49
364.845	79.49
365.308	83.19
365.772	84.99
366.235	78.19
366.698	77.39
367.162	86.19
367.625	74.29
368.088	86.19
368.552	87.29
369.015	90.99
369.478	88.89
369.941	99.59
370.404	91.19
370.867	102.09
371.331	104.99
371.794	116.29
372.257	105.99
372.72	110.89
373.183	106.99
373.646	101.69
374.109	92.79
374.572	105.39
375.035	110.19
375.497	104.19
375.96	98.89
376.423	100.09
376.886	109.89
377.349	105.39
377.811	100.29
378.274	106.89
378.737	102.79
379.199	106.39
379.662	109.59
380.125	117.79
380.587	114.99
381.05	118.99
381.512	120.69
381.975	138.09
382.437	128.59
382.9	125.69
383.362	126.19
383.825	137.99
384.287	140.59
384.75	142.59
385.212	140.89
385.674	137.89
386.136	133.89
386.599	124.39
387.061	128.69
387.523	123.29
387.985	125.69
388.447	142.29
388.91	145.39
389.372	158.99
389.834	153.79
390.296	143.59
390.758	152.49
391.22	168.49
391.682	201.79
392.144	294.49
392.606	225.49
393.068	163.89
393.529	165.09
393.991	149.69
394.453	142.89
394.915	153.19
395.377	190.99
395.838	211.49
396.3	148.29
396.762	141.89
397.224	134.09
397.685	124.59
398.147	127.09
398.608	122.89
399.07	125.29
399.531	131.49
399.993	138.79
400.454	155.59
400.916	140.99
401.377	146.69
401.839	145.59
402.3	150.29
402.762	165.79
403.223	179.29
403.684	172.49
404.145	155.49
404.607	155.59
405.068	164.79
405.529	164.99
405.99	184.29
406.451	178.19
406.913	175.19
407.374	164.59
407.835	159.59
408.296	164.39
408.757	171.29
409.218	188.59
409.679	186.09
410.14	176.39
410.601	178.59
411.062	182.39
411.522	192.79
411.983	187.79
412.444	171.99
412.905	178.29
413.366	181.49
413.826	196.09
414.287	209.29
414.748	251.89
415.208	237.89
415.669	214.49
416.13	204.89
416.59	201.89
417.051	213.19
417.511	219.39
417.972	236.39
418.432	244.09
418.893	281.49
419.353	250.59
419.814	194.09
420.274	177.29
420.734	181.49
421.195	197.59
421.655	194.49
422.115	193.39
422.576	197.19
423.036	198.09
423.496	203.39
423.956	212.49
424.416	228.99
424.876	255.69
425.336	255.99
425.797	254.99
426.257	251.69
426.717	244.59
427.177	234.29
427.637	220.29
428.097	229.49
428.556	247.29
429.016	259.99
429.476	261.19
429.936	277.89
430.396	274.19
430.856	290.29
431.315	313.59
431.775	349.89
432.235	369.99
432.694	345.29
433.154	356.49
433.614	399.09
434.073	340.29
434.533	288.19
434.993	265.09
435.452	279.69
435.912	290.39
436.371	289.49
436.83	279.59
437.29	264.59
437.749	246.09
438.209	241.49
438.668	274.69
439.127	281.99
439.587	261.49
440.046	240.89
440.505	258.49
440.964	269.89
441.424	318.49
441.883	301.89
442.342	259.59
442.801	221.89
443.26	215.49
443.719	224.39
444.178	217.69
444.637	204.09
445.096	212.09
445.555	216.99
446.014	216.79
446.473	231.49
446.932	229.59
447.391	217.69
447.849	223.99
448.308	218.99
448.767	223.99
449.226	233.29
449.685	232.99
450.143	243.69
450.602	232.89
451.061	221.59
451.519	232.49
451.978	231.09
452.436	230.49
452.895	235.59
453.353	243.39
453.812	239.39
454.27	236.09
454.729	233.09
455.187	240.69
455.646	240.09
456.104	240.99
456.562	254.49
457.021	262.39
457.479	260.69
457.937	270.89
458.395	253.29
458.854	248.79
459.312	260.19
459.77	270.69
460.228	254.09
460.686	238.99
461.144	246.89
461.602	237.99
462.06	235.49
462.518	249.79
462.976	249.19
463.434	252.09
463.892	259.39
464.35	269.39
464.808	275.89
465.266	259.99
465.724	257.59
466.181	262.09
466.639	270.19
467.097	278.99
467.555	297.39
468.012	294.99
468.47	300.19
468.928	324.59
469.385	333.69
469.843	335.89
470.3	345.49
470.758	356.09
471.215	376.59
471.673	413.39
472.13	405.39
472.588	411.99
473.045	370.79
473.503	368.79
473.96	389.99
474.417	394.99
474.875	429.79
475.332	479.99
475.789	458.09
476.246	458.49
476.704	471.69
477.161	506.19
477.618	514.19
478.075	564.39
478.532	618.19
478.989	681.09
479.446	796.89
479.903	756.79
480.36	795.89
480.817	860.99
481.274	957.19
481.731	1057.79
482.188	1158.09
482.645	1289.59
483.102	1389.59
483.558	1523.79
484.015	1574.29
484.472	1557.69
484.929	1503.69
485.385	1450.29
485.842	1411.39
486.299	1352.29
486.755	1283.59
487.212	1073.19
487.668	909.99
488.125	844.09
488.582	764.39
489.038	733.79
489.494	690.19
489.951	675.99
490.407	656.99
490.864	631.89
491.32	638.69
491.776	626.59
492.233	629.09
492.689	594.69
493.145	595.09
493.602	582.69
494.058	605.49
494.514	616.09
494.97	624.59
495.426	636.59
495.882	610.69
496.338	599.09
496.794	614.59
497.251	610.59
497.707	618.29
498.163	622.09
498.618	625.09
499.074	629.49
499.53	669.09
499.986	652.79
500.442	620.29
500.898	616.29
501.354	615.89
501.809	630.39
502.265	630.09
502.721	645.79
503.177	657.99
503.632	658.39
504.088	656.49
504.543	705.59
504.999	700.79
505.455	645.19
505.91	621.79
506.366	618.69
506.821	606.29
507.277	603.29
507.732	608.39
508.187	611.89
508.643	625.59
509.098	626.69
509.553	645.79
510.009	647.59
510.464	652.79
510.919	667.49
511.375	678.29
511.83	692.19
512.285	701.79
512.74	746.29
513.195	765.09
513.65	757.99
514.105	745.09
514.56	751.19
515.015	766.39
515.47	782.39
515.925	758.79
516.38	772.79
516.835	773.09
517.29	766.39
517.745	763.99
518.2	740.89
518.655	734.09
519.109	722.79
519.564	722.29
520.019	707.99
520.474	713.69
520.928	707.79
521.383	698.99
521.838	702.49
522.292	702.89
522.747	687.79
523.201	680.19
523.656	692.59
524.11	676.89
524.565	683.09
525.019	680.29
525.474	683.09
525.928	693.59
526.382	679.69
526.837	680.49
527.291	690.49
527.745	680.59
528.2	676.09
528.654	680.09
529.108	675.89
529.562	670.59
530.016	674.39
530.47	669.29
530.925	681.39
531.379	684.69
531.833	694.89
532.287	681.79
532.741	689.59
533.195	690.19
533.649	692.29
534.103	712.49
534.556	690.49
535.01	691.59
535.464	697.99
535.918	699.69
536.372	701.99
536.826	708.19
537.279	691.89
537.733	692.19
538.187	704.69
538.64	699.39
539.094	708.59
539.548	713.29
540.001	712.89
540.455	714.19
540.908	716.89
541.362	723.49
541.815	733.79
542.269	745.69
542.722	739.99
543.175	753.69
543.629	748.79
544.082	757.39
544.536	765.89
544.989	771.99
545.442	779.39
545.895	771.89
546.349	769.69
546.802	771.99
547.255	778.89
547.708	796.29
548.161	798.09
548.614	807.29
549.067	821.79
549.52	796.39
549.973	787.99
550.426	790.89
550.879	786.39
551.332	779.59
551.785	790.99
552.238	800.89
552.691	795.79
553.144	816.29
553.596	818.79
554.049	843.29
554.502	880.39
554.955	899.19
555.407	887.79
555.86	882.89
556.313	873.19
556.765	853.79
557.218	853.69
557.67	863.09
558.123	854.29
558.576	852.79
559.028	848.19
559.48	864.19
559.933	861.39
560.385	815.89
560.838	789.89
561.29	768.99
561.742	767.19
562.195	749.99
562.647	749.69
563.099	753.89
563.551	757.49
564.004	769.09
564.456	741.29
564.908	743.39
565.36	731.89
565.812	708.89
566.264	714.19
566.716	716.19
567.168	705.19
567.62	719.49
568.072	686.69
568.524	690.39
568.976	680.49
569.428	676.49
569.88	664.89
570.332	667.09
570.784	669.69
571.235	670.19
571.687	681.39
572.139	689.79
572.59	701.49
573.042	694.19
573.494	692.79
573.945	693.19
574.397	669.69
574.849	681.49
575.3	672.99
575.752	669.19
576.203	670.59
576.655	671.69
577.106	656.09
577.557	655.09
578.009	639.09
578.46	647.79
578.912	655.59
579.363	651.29
579.814	657.49
580.265	643.19
580.717	653.59
581.168	654.49
581.619	659.89
582.07	664.29
582.521	656.69
582.972	656.39
583.423	661.99
583.875	674.69
584.326	692.49
584.777	740.99
585.227	821.29
585.678	916.99
586.129	995.29
586.58	1071.49
587.031	1144.99
587.482	1288.59
587.933	1477.39
588.384	1283.49
588.834	965.89
589.285	796.89
589.736	769.49
590.186	752.29
590.637	750.69
591.088	731.39
591.538	716.79
591.989	720.19
592.439	709.99
592.89	701.49
593.34	703.69
593.791	701.59
594.241	697.69
594.692	701.09
595.142	691.09
595.593	693.09
596.043	696.39
596.493	708.19
596.943	711.69
597.394	703.59
597.844	700.39
598.294	707.79
598.744	756.09
599.195	765.29
599.645	807.29
600.095	840.99
600.545	897.29
600.995	961.69
601.445	1003.89
601.895	1069.99
602.345	1114.49
602.795	1098.49
603.245	1041.89
603.695	992.89
604.145	944.69
604.594	907.09
605.044	841.39
605.494	775.89
605.944	733.89
606.393	737.59
606.843	721.89
607.293	717.29
607.743	722.59
608.192	733.39
608.642	744.79
609.091	755.59
609.541	763.89
609.99	762.19
610.44	753.69
610.889	712.69
611.339	695.79
611.788	671.69
612.238	697.29
612.687	713.19
613.136	715.89
613.586	725.69
614.035	730.69
614.484	751.69
614.933	749.89
615.383	737.59
615.832	731.19
616.281	714.79
616.73	673.59
617.179	659.49
617.628	638.89
618.077	625.79
618.526	614.39
618.975	614.69
619.424	601.09
619.873	606.89
620.322	608.79
620.771	602.99
621.22	597.69
621.669	589.39
622.118	575.19
622.567	574.29
623.015	564.89
623.464	559.09
623.913	550.29
624.361	542.19
624.81	549.69
625.259	555.49
625.707	547.59
626.156	545.79
626.604	552.39
627.053	556.19
627.501	551.89
627.95	560.09
628.398	574.69
628.847	560.69
629.295	567.99
629.744	571.99
630.192	559.99
630.64	569.99
631.089	560.29
631.537	577.39
631.985	587.79
632.433	609.39
632.881	605.19
633.33	657.79
633.778	653.09
634.226	567.39
634.674	565.29
635.122	570.09
635.57	589.89
636.018	620.49
636.466	575.09
636.914	555.19
637.362	569.19
637.81	568.69
638.258	574.89
638.705	577.69
639.153	603.89
639.601	610.39
640.049	638.69
640.497	658.49
640.944	685.09
641.392	638.39
641.84	603.89
642.287	580.99
642.735	568.69
643.182	572.29
643.63	557.59
644.078	575.59
644.525	586.09
644.973	600.79
645.42	604.29
645.867	609.09
646.315	637.59
646.762	661.09
647.21	687.39
647.657	710.39
648.104	743.89
648.551	761.49
648.999	840.19
649.446	894.79
649.893	1003.09
650.34	1163.79
650.787	1385.39
651.234	1725.09
651.682	2266.09
652.129	3123.59
652.576	4525.89
653.023	6658.09
653.47	9095.19
653.917	11306.19
654.363	12958.49
654.81	14272.59
655.257	13582.09
655.704	8879.99
656.151	5250.29
656.598	3373.09
657.044	2405.79
657.491	1829.89
657.938	1465.59
658.385	1219.59
658.831	1071.19
659.278	960.69
659.724	844.29
660.171	781.29
660.618	724.79
661.064	686.09
661.511	660.49
661.957	643.59
662.404	634.89
662.85	645.19
663.296	627.99
663.743	559.29
664.189	546.29
664.635	524.69
665.082	516.09
665.528	521.99
665.974	507.69
666.42	507.39
666.867	497.99
667.313	491.49
667.759	481.49
668.205	481.79
668.651	472.59
669.097	483.79
669.543	503.09
669.989	468.19
670.435	451.69
670.881	430.89
671.327	443.29
671.773	465.59
672.219	477.99
672.665	533.29
673.11	585.29
673.556	619.89
674.002	656.29
674.448	649.49
674.893	545.69
675.339	474.79
675.785	429.29
676.23	411.29
676.676	383.69
677.122	363.39
677.567	358.49
678.013	364.09
678.458	352.09
678.904	359.09
679.349	340.59
679.794	352.09
680.24	348.39
680.685	341.39
681.131	342.89
681.576	335.79
682.021	354.29
682.466	340.69
682.912	350.19
683.357	348.19
683.802	371.29
684.247	410.29
684.692	453.59
685.137	488.79
685.583	527.09
686.028	552.59
686.473	509.29
686.918	434.59
687.363	405.69
687.807	381.79
688.252	351.39
688.697	352.39
689.142	335.59
689.587	331.99
690.032	327.59
690.477	331.79
690.921	347.89
691.366	378.89
691.811	408.29
692.255	423.59
692.7	462.49
693.145	497.19
693.589	692.49
694.034	1143.89
694.478	1524.69
694.923	1700.89
695.367	2202.39
695.812	1171.39
696.256	491.69
696.701	367.29
697.145	335.59
697.59	322.99
698.034	318.59
698.478	321.29
698.922	319.89
699.367	324.09
699.811	327.89
700.255	353.89
700.699	385.99
701.143	431.19
701.588	469.89
702.032	511.29
702.476	505.09
702.92	474.49
703.364	493.19
703.808	632.69
704.252	1034.79
704.696	1447.49
705.14	1638.29
705.584	2078.69
706.027	1049.19
706.471	515.09
706.915	391.99
707.359	347.39
707.803	309.59
708.246	304.39
708.69	313.99
709.134	308.69
709.577	296.89
710.021	314.69
710.465	300.59
710.908	298.79
711.352	292.89
711.795	309.19
712.239	341.59
712.682	385.79
713.126	412.69
713.569	460.19
714.012	373.19
714.456	321.19
714.899	298.79
715.342	273.29
715.786	259.69
716.229	257.59
716.672	251.89
717.115	246.49
717.558	248.89
718.002	247.59
718.445	259.89
718.888	284.69
719.331	287.69
719.774	309.79
720.217	305.59
720.66	281.49
721.103	263.19
721.546	249.59
721.989	244.99
722.432	231.79
722.874	231.59
723.317	232.49
723.76	238.39
724.203	260.39
724.645	321.49
725.088	445.49
725.531	560.29
725.974	632.99
726.416	534.79
726.859	299.39
727.301	242.29
727.744	234.89
728.187	228.49
728.629	234.79
729.071	238.99
729.514	259.89
729.956	270.19
730.399	278.89
730.841	278.09
731.283	262.09
731.726	262.69
732.168	257.19
732.61	265.59
733.053	284.29
733.495	308.29
733.937	355.59
734.379	394.59
734.821	432.99
735.263	542.79
735.705	839.39
736.148	1592.69
736.59	2550.79
737.032	2954.09
737.474	2396.89
737.916	795.29
738.357	417.59
738.799	327.69
739.241	289.49
739.683	279.99
740.125	290.69
740.567	295.19
741.008	310.49
741.45	318.59
741.892	313.99
742.334	343.59
742.775	351.49
743.217	333.59
743.658	263.29
744.1	255.39
744.542	261.69
744.983	308.09
745.425	337.19
745.866	340.89
746.307	281.59
746.749	279.29
747.19	328.49
747.632	460.49
748.073	905.09
748.514	1882.29
748.956	2806.19
749.397	3505.19
749.838	2898.29
750.279	2857.89
750.72	1467.19
751.162	545.59
751.603	315.89
752.044	245.79
752.485	213.69
752.926	209.79
753.367	197.49
753.808	193.69
754.249	191.49
754.69	184.69
755.131	174.19
755.572	177.09
756.013	173.59
756.453	183.59
756.894	187.89
757.335	183.79
757.776	193.39
758.216	194.79
758.657	192.59
759.098	199.59
759.538	224.09
759.979	264.09
760.42	376.89
760.86	726.79
761.301	1852.99
761.741	4406.79
762.182	6216.19
762.622	4373.49
763.063	1273.59
763.503	523.39
763.943	343.69
764.384	337.09
764.824	406.09
765.264	436.29
765.705	306.59
766.145	205.29
766.585	178.09
767.025	180.89
767.465	188.89
767.906	236.69
768.346	317.59
768.786	340.69
769.226	261.49
769.666	315.69
770.106	632.69
770.546	1573.69
770.986	2578.89
771.426	2295.69
771.866	777.89
772.306	322.49
772.745	206.39
773.185	174.59
773.625	167.39
774.065	165.39
774.505	196.59
774.944	322.29
775.384	714.09
775.824	1231.29
776.263	1192.39
776.703	506.09
777.142	220.19
777.582	155.99
778.021	138.89
778.461	140.69
778.9	137.59
779.34	132.69
779.779	116.69
780.219	114.99
780.658	105.19
781.097	114.69
781.537	115.29
781.976	111.39
782.415	106.09
782.855	103.99
783.294	104.39
783.733	103.19
784.172	111.29
784.611	101.99
785.05	99.19
785.489	111.99
785.928	122.59
786.367	115.39
786.806	118.79
787.245	132.69
787.684	131.79
788.123	148.29
788.562	137.69
789.001	128.99
789.44	113.59
789.879	117.99
790.317	113.59
790.756	125.99
791.195	132.59
791.634	143.99
792.072	201.59
792.511	371.89
792.95	1022.89
793.388	2104.49
793.827	1870.79
794.265	674.49
794.704	281.89
795.142	182.39
795.581	145.99
796.019	136.59
796.458	133.49
796.896	123.89
797.334	126.49
797.773	159.69
798.211	219.89
798.649	444.59
799.087	1019.09
799.526	1580.29
799.964	1993.99
800.402	1953.39
800.84	744.19
801.278	294.59
801.716	183.99
802.154	149.29
802.592	140.79
803.03	143.09
803.468	131.09
803.906	137.69
804.344	142.89
804.782	134.39
805.22	125.79
805.658	125.09
806.096	145.29
806.533	155.89
806.971	176.19
807.409	214.79
807.847	318.49
808.284	681.29
808.722	1853.29
809.16	3215.59
809.597	3125.09
810.035	5353.29
810.472	5540.59
810.91	2020.19
811.347	771.99
811.785	396.69
812.222	253.29
812.66	189.39
813.097	163.29
813.535	139.59
813.972	127.79
814.409	115.99
814.846	102.89
815.284	108.89
815.721	104.69
816.158	103.49
816.595	120.29
817.032	183.59
817.47	201.39
817.907	157.39
818.344	149.49
818.781	116.59
819.218	104.99
819.655	126.99
820.092	187.59
820.529	207.59
820.966	173.29
821.403	124.79
821.839	106.19
822.276	106.59
822.713	120.89
823.15	129.79
823.587	116.39
824.023	147.99
824.46	305.79
824.897	909.59
825.333	1321.79
825.77	560.59
826.206	223.69
826.643	135.99
827.08	99.69
827.516	85.49
827.953	73.79
828.389	84.69
828.825	68.39
829.262	69.19
829.698	58.39
830.135	62.79
830.571	60.19
831.007	66.89
831.443	63.59
831.88	63.09
832.316	65.49
832.752	69.49
833.188	64.49
833.624	63.59
834.06	65.39
834.497	74.89
834.933	70.29
835.369	72.59
835.805	69.69
836.241	78.19
836.677	74.69
837.112	87.69
837.548	99.49
837.984	139.89
838.42	197.99
838.856	505.19
839.292	1512.89
839.727	2226.89
840.163	1045.89
840.599	932.99
841.034	2003.39
841.47	2049.39
841.906	758.29
842.341	333.69
842.777	225.19
843.212	321.69
843.648	306.99
844.083	147.69
844.519	99.59
844.954	77.89
845.39	60.19
845.825	56.09
846.261	51.19
846.696	55.49
847.131	49.09
847.566	57.29
848.002	47.79
848.437	53.39
848.872	67.29
849.307	59.69
849.742	76.99
850.177	185.89
850.613	559.19
851.048	860.59
851.483	363.59
851.918	158.49
852.353	83.09
852.788	60.69
853.223	57.49
853.657	48.89
854.092	49.19
854.527	39.79
854.962	39.59
855.397	42.99
855.832	50.69
856.266	40.29
856.701	42.99
857.136	35.99
857.57	41.99
858.005	50.59
858.44	58.49
858.874	41.39
859.309	55.39
859.743	36.49
860.178	44.99
860.612	44.19
861.047	54.59
861.481	65.29
861.915	74.99
862.35	49.49
862.784	31.39
863.218	32.29
863.653	33.49
864.087	41.99
864.521	51.49
864.955	69.29
865.39	152.39
865.824	171.19
866.258	117.79
866.692	165.59
867.126	174.89
867.56	106.29
867.994	52.29
868.428	33.89
868.862	44.69
869.296	56.59
869.73	62.39
870.164	57.69
870.598	46.79
871.031	37.39
871.465	28.19
871.899	30.59
872.333	23.39
872.766	24.59
873.2	25.29
873.634	30.89
874.067	26.69
874.501	19.29
874.935	36.69
875.368	33.29
875.802	25.19
876.235	26.99
876.669	28.49
877.102	21.79
877.535	28.99
877.969	21.99
878.402	28.69
878.836	18.89
879.269	22.89
879.702	18.89
880.135	15.49
880.569	21.69
881.002	23.39
881.435	20.39
881.868	13.89
882.301	20.99
882.734	12.99
883.167	23.99
883.601	17.89
884.034	18.79
884.467	13.59
884.899	24.99
885.332	22.29
885.765	10.69
886.198	11.49
886.631	18.89
887.064	18.29
887.497	23.99
887.929	25.69
888.362	16.99
888.795	9.69
889.228	13.79
889.66	27.29
890.093	12.19
890.526	16.39
890.958	16.49
891.391	18.19
891.823	22.09
892.256	18.39
892.688	13.09
893.121	13.89
893.553	12.19
893.985	24.99
894.418	17.39
894.85	13.59
895.282	15.59
895.715	15.59
896.147	10.39
896.579	18.59
897.011	8.89
897.444	13.89
897.876	14.09
898.308	23.09
898.74	15.49
899.172	17.99
899.604	24.39
900.036	20.39
900.468	11.49
900.9	15.19
901.332	15.69
901.764	8.59
902.196	18.79
902.628	17.09
903.06	16.79
903.491	31.79
903.923	21.49
904.355	23.69
904.787	22.99
905.218	22.19
905.65	20.89
906.082	17.79
906.513	12.99
906.945	20.49
907.376	12.49
907.808	17.09
908.239	28.59
908.671	16.29
909.102	21.09
909.534	28.79
909.965	47.79
910.397	98.29
910.828	309.59
911.259	456.69
911.691	213.49
912.122	104.99
912.553	47.09
912.984	37.89
913.415	28.89
913.847	25.69
914.278	22.09
914.709	9.69
915.14	15.09
915.571	17.99
916.002	13.59
916.433	17.79
916.864	14.79
917.295	8.89
917.726	22.79
918.157	18.69
918.587	25.89
919.018	23.89
919.449	16.19
919.88	22.09
920.311	29.19
920.741	48.89
921.172	165.09
921.603	148.89
922.033	71.79
922.464	47.59
922.895	25.59
923.325	16.29
923.756	16.99
924.186	16.39
924.617	31.19
925.047	42.59
925.478	56.49
925.908	47.69
926.338	23.49
926.769	15.19
927.199	25.29
927.629	15.29
928.06	18.59
928.49	9.89
928.92	12.19
929.35	13.89
929.78	9.59
930.21	10.99
930.641	14.29
931.071	13.59
931.501	8.79
931.931	2.89
932.361	2.99
932.791	7.79
933.221	-0.11
933.651	-3.91
934.08	12.79
934.51	28.59
934.94	6.59
935.37	10.39
935.8	13.89
936.229	5.19
936.659	8.79
937.089	0.79
937.519	10.99
937.948	26.29
938.378	17.89
938.807	5.39
939.237	-0.01
939.666	5.19
940.096	-3.01
940.525	-1.51
940.955	-0.21
941.384	6.69
941.814	-7.41
942.243	2.99
942.672	0.99
943.102	-5.31
943.531	0.29
943.96	2.79
944.39	-5.41
944.819	3.79
945.248	9.19
945.677	-0.71
946.106	7.19
946.535	0.69
946.964	0.19
947.393	-1.41
947.822	8.79
948.251	-4.51
948.68	4.19
949.109	8.79
949.538	6.39
949.967	9.29
950.396	-1.41
950.825	3.39
951.254	-6.01
951.682	-4.71
952.111	1.49
952.54	5.39
952.969	-6.51
953.397	-9.71
953.826	-0.41
954.254	-4.01
954.683	3.69
955.112	2.99
955.54	4.69
955.969	3.29
956.397	1.89
956.826	-7.91
957.254	0.99
957.682	1.19
958.111	5.89
958.539	6.99
958.967	-0.01
959.396	-2.91
959.824	1.59
960.252	-1.71
960.68	-4.91
961.109	-4.01
961.537	-1.41
961.965	5.19
962.393	3.39
962.821	-1.51
963.249	-0.11
963.677	3.59
964.105	5.99
964.533	45.69
964.961	44.39
965.389	23.69
965.817	8.39
966.245	1.99
966.672	2.19
967.1	-9.91
967.528	1.59
967.956	-4.81
968.383	-4.61
968.811	-0.71
969.239	-0.41
969.666	-7.71
970.094	0.59
970.522	2.89
970.949	-0.01
971.377	-2.51
971.804	-0.31
972.232	-1.51
972.659	-2.91
973.087	4.99
973.514	-2.41
973.941	-5.81
974.369	7.09
974.796	7.19
975.223	4.29
975.651	-0.31
976.078	5.49
976.505	-4.21
976.932	1.39
977.359	13.19
977.786	16.89
978.214	0.89
978.641	-4.21
979.068	-1.51
979.495	-5.31
979.922	-1.81
980.349	-3.71
980.776	2.49
981.202	-2.01
981.629	5.39
982.056	3.49
982.483	-1.71
982.91	1.69
983.337	-4.31
983.763	5.49
984.19	-2.31
984.617	-1.01
985.043	-7.01
985.47	-5.41
985.897	-0.11
986.323	-6.21
986.75	1.19
987.176	1.79
987.603	-2.41
988.029	-7.01
988.456	1.99
988.882	3.99
989.308	-6.51
989.735	-1.61
990.161	3.69
990.587	-7.31
991.014	2.39
991.44	4.69
991.866	-1.01
992.292	1.19
992.719	-5.91
993.145	3.89
993.571	-5.61
993.997	-1.41
994.423	0.99
994.849	-8.81
995.275	1.69
995.701	-0.81
996.127	-7.81
996.553	-2.01
996.979	0.39
997.405	-4.41
997.83	-2.51
998.256	-9.01
998.682	-5.71
999.108	-8.31
999.534	1.99
999.959	-1.71
1000.385	-2.01
1000.811	1.29
1001.236	-6.41
1001.662	-6.51
1002.087	-5.51
1002.513	0.29
1002.938	-4.81
1003.364	-1.11
1003.789	-1.21
1004.215	3.19
1004.64	4.79
1005.066	5.19
1005.491	1.79
1005.916	-0.81
1006.342	-2.41
1006.767	-10.81
1007.192	7.19
1007.617	-6.31
1008.042	-5.81
1008.468	-6.31
1008.893	-5.61
1009.318	-3.21
1009.743	-1.81
1010.168	2.59
1010.593	-4.11
1011.018	-4.71
1011.443	0.49
1011.868	2.99
1012.293	-2.11
1012.718	-0.81
1013.143	4.79
1013.567	0.49
1013.992	-1.41
1014.417	-18.81
1014.842	1.69
1015.267	-6.11
1015.691	-2.91
1016.116	2.39
1016.541	-0.41
1016.965	2.19
1017.39	0.09
1017.814	1.59
1018.239	-2.91
1018.663	-2.21
1019.088	-7.51
1019.512	-5.21
1019.937	-4.71
1020.361	-10.21
1020.785	-11.51
1021.21	-6.01
1021.634	-1.71
1022.058	-0.61
1022.483	4.49
1022.907	-3.71
1023.331	-5.01
1023.755	-6.21
1024.179	-0.31
1024.604	-6.51
1025.028	-2.31
1025.452	-8.81
1025.876	-4.91
1026.3	2.89
1026.724	-6.01
1027.148	-6.41
1027.572	-12.91
1027.996	-8.71
1028.42	0.39
1028.843	-7.91
1029.267	-3.41
1029.691	-4.71
1030.115	-8.41
1030.539	-5.31
1030.962	-5.91
1031.386	-9.51
1031.81	3.99
1032.233	0.79
1032.657	-2.41
1033.08	-1.11
1033.504	-1.71
1033.927	-7.81
1034.351	-3.21
1034.774	-4.21
1035.198	-2.01
1035.621	-5.81
1036.045	-1.51
1036.468	-3.31
1036.891	-8.41
1037.315	-8.31
1037.738	-10.71
1038.161	-0.71
1038.584	-9.81
1039.008	-9.21
1039.431	-4.71
1039.854	-2.51
1040.277	-9.11
1040.7	-11.01
1041.123	-7.61
1041.546	-8.51
1041.969	-3.11
1042.392	-6.61
1042.815	-5.01
1043.238	2.49
1043.661	1.99
1044.084	-5.11
1044.507	-5.41
1044.93	-3.61
1045.352	-4.21
1045.775	-4.41
1046.198	-8.71
1046.621	3.69
1047.043	0.99
1047.466	5.79
1047.889	-5.21
1048.311	-3.61
1048.734	-7.31
1049.156	-0.81
1049.579	-2.11
1050.001	-5.41
1050.424	-7.91
1050.846	-3.31
1051.269	-2.91
1051.691	-8.41
1052.113	-7.21
1052.536	-9.71
1052.958	-4.31
1053.38	-5.91
1053.802	-12.71
1054.225	-1.51
1054.647	-4.51
1055.069	-7.01
1055.491	-1.41
1055.913	-5.71
1056.335	-1.31
1056.757	-3.41
1057.179	-12.81
1057.601	-3.71
1058.023	-5.21
1058.445	-11.21
1058.867	-7.31
1059.289	-1.01
1059.711	-10.01
1060.133	-3.21
1060.555	-4.71
1060.976	-7.31
1061.398	-3.61
1061.82	-2.11
1062.241	-6.71
1062.663	-6.21
1063.085	-3.81
1063.506	0.19
1063.928	-3.41
1064.35	-1.31
1064.771	-7.51
1065.193	-0.21
1065.614	-13.21
1066.035	-6.81
1066.457	-5.91
1066.878	-3.71
1067.3	0.39
1067.721	-4.41
1068.142	-7.41
1068.564	-5.41
1068.985	-5.41
1069.406	-1.91
1069.827	-6.21
1070.248	-0.51
1070.67	-11.01
1071.091	-7.51
1071.512	-11.41
1071.933	-5.71
1072.354	-12.51
1072.775	-5.11
1073.196	-9.11
1073.617	1.49
1074.038	-8.21
1074.459	-3.01
1074.88	-7.31
1075.3	-0.01
1075.721	-5.91
1076.142	1.49
1076.563	-2.21
1076.983	-12.91
1077.404	-0.41
1077.825	-8.31
1078.246	-6.51
1078.666	-10.81
1079.087	-5.51
1079.507	-9.61
1079.928	-2.91
1080.348	-0.31
1080.769	-9.41
1081.189	1.49
1081.61	-1.31
1082.03	-7.51
1082.451	-7.11
1082.871	0.29
1083.291	-7.41
1083.711	-10.51
1084.132	-4.81
1084.552	-9.11
1084.972	0.69
1085.392	-8.41
1085.813	-15.01
1086.233	-5.61
1086.653	-4.31
1087.073	-0.41
1087.493	-7.51
1087.913	-9.41
1088.333	-15.61
1088.753	-3.31
1089.173	1.49
1089.593	-2.11
1090.013	-4.11
1090.433	3.19
1090.852	-7.21
1091.272	-0.21
1091.692	-1.11
1092.112	-1.41
1092.531	-6.21
1092.951	-12.41
1093.371	-6.71
1093.79	-1.41
1094.21	-4.41
1094.63	-6.41
1095.049	-6.51
1095.469	-0.81
1095.888	-4.51
1096.308	2.89
1096.727	-2.11
1097.146	-7.41
1097.566	-2.21
1097.985	-2.01
1098.405	-2.21
1098.824	-4.91
1099.243	-3.31
1099.662	-9.31
1100.082	-3.61
1100.501	-2.61
1100.92	-5.11
1101.339	-4.01
1101.758	-6.31
