Data from 20171114-ORNL-Ar_H_NY_Subt18_08-07-00-042.txt Node
Date: Tue Nov 14 08:07:00 EST 2017
User: Ender
Spectrometer: HR+D1039
Trigger mode: 0
Integration Time (sec): 2.730000E-2
Scans to average: 10
Electric dark correction enabled: true
Nonlinearity correction enabled: false
Boxcar width: 0
XAxis mode: Wavelengths
Number of Pixels in Spectrum: 2048
>>>>>Begin Spectral Data<<<<<
187.836	-3.67
188.309	-3.67
188.782	-3.67
189.255	4.53
189.728	1.73
190.201	8.13
190.674	0.33
191.147	1.43
191.619	-11.37
192.092	-0.17
192.565	5.43
193.038	-3.07
193.511	-0.67
193.984	-2.07
194.456	-3.17
194.929	0.13
195.402	-2.67
195.874	5.13
196.347	0.23
196.82	-3.47
197.292	3.43
197.765	3.83
198.237	-9.17
198.71	0.93
199.182	-2.37
199.655	3.23
200.127	2.63
200.6	0.93
201.072	-2.67
201.544	-5.57
202.017	-5.67
202.489	-2.07
202.961	-2.67
203.433	-3.77
203.906	-6.27
204.378	0.33
204.85	-2.57
205.322	-13.97
205.794	-3.97
206.266	-1.97
206.739	-6.57
207.211	-0.37
207.683	-8.07
208.155	-7.37
208.627	-2.67
209.099	-0.27
209.57	-10.67
210.042	-2.27
210.514	-3.07
210.986	-4.97
211.458	-10.87
211.93	-2.47
212.402	-3.37
212.873	-1.87
213.345	-11.17
213.817	-12.67
214.288	-5.47
214.76	-11.37
215.232	-5.07
215.703	-8.67
216.175	-4.17
216.646	-9.87
217.118	-10.17
217.589	-4.27
218.061	-3.37
218.532	-5.97
219.004	-1.27
219.475	-3.27
219.946	-2.97
220.418	-8.87
220.889	-0.07
221.36	2.83
221.832	-5.37
222.303	-11.37
222.774	1.93
223.245	-7.57
223.717	-0.47
224.188	0.43
224.659	-5.27
225.13	-4.47
225.601	2.03
226.072	-0.57
226.543	1.23
227.014	-2.97
227.485	-3.97
227.956	-8.27
228.427	-1.97
228.898	0.43
229.369	1.53
229.839	-0.77
230.31	-5.97
230.781	6.23
231.252	-5.47
231.722	-3.97
232.193	-7.47
232.664	-1.77
233.135	-1.37
233.605	-0.57
234.076	-7.57
234.546	-3.47
235.017	-1.87
235.487	2.93
235.958	-2.17
236.428	-9.97
236.899	0.03
237.369	-0.27
237.84	-9.27
238.31	8.23
238.78	-4.77
239.251	-7.77
239.721	-2.27
240.191	-3.77
240.662	-2.07
241.132	-2.17
241.602	-7.27
242.072	-1.97
242.542	0.03
243.013	-6.77
243.483	-0.27
243.953	4.73
244.423	-3.87
244.893	-11.77
245.363	-5.77
245.833	-3.57
246.303	-4.87
246.773	1.03
247.243	-6.77
247.712	-6.97
248.182	-1.97
248.652	0.93
249.122	-10.57
249.592	3.33
250.061	-0.67
250.531	7.13
251.001	-5.47
251.471	5.03
251.94	5.43
252.41	2.23
252.879	-3.87
253.349	6.43
253.818	4.03
254.288	0.93
254.757	1.73
255.227	-4.67
255.696	-3.17
256.166	1.93
256.635	3.73
257.105	-1.57
257.574	-2.97
258.043	0.23
258.513	0.93
258.982	4.63
259.451	-3.87
259.92	-0.37
260.389	0.13
260.859	6.53
261.328	1.13
261.797	1.63
262.266	-0.27
262.735	7.43
263.204	-0.17
263.673	3.73
264.142	2.93
264.611	-3.87
265.08	-3.47
265.549	-3.17
266.018	2.03
266.487	-2.97
266.955	0.23
267.424	4.93
267.893	1.63
268.362	-5.47
268.83	3.73
269.299	5.33
269.768	1.33
270.236	1.33
270.705	0.23
271.174	3.63
271.642	4.63
272.111	-0.77
272.579	6.53
273.048	8.33
273.516	1.13
273.985	3.93
274.453	10.13
274.922	9.23
275.39	9.73
275.858	1.23
276.327	5.73
276.795	6.33
277.263	2.03
277.731	14.73
278.2	5.43
278.668	7.13
279.136	12.93
279.604	3.03
280.072	6.03
280.54	8.23
281.008	8.73
281.477	10.83
281.945	8.73
282.413	3.23
282.881	12.83
283.348	7.33
283.816	11.93
284.284	12.13
284.752	17.63
285.22	9.63
285.688	7.93
286.156	7.03
286.623	12.43
287.091	7.13
287.559	14.53
288.026	11.93
288.494	16.53
288.962	2.83
289.429	4.53
289.897	21.53
290.364	10.23
290.832	16.63
291.3	11.73
291.767	16.33
292.234	10.93
292.702	12.43
293.169	8.63
293.637	15.23
294.104	11.93
294.571	3.33
295.039	11.43
295.506	3.43
295.973	16.03
296.44	10.63
296.908	18.23
297.375	9.33
297.842	12.83
298.309	13.93
298.776	9.13
299.243	13.53
299.71	10.43
300.177	11.93
300.644	8.73
301.111	17.33
301.578	11.33
302.045	13.53
302.512	19.93
302.979	18.33
303.446	13.63
303.913	14.93
304.379	14.63
304.846	23.23
305.313	18.03
305.78	22.93
306.246	19.73
306.713	18.03
307.18	21.03
307.646	17.83
308.113	21.43
308.579	20.23
309.046	18.83
309.512	25.93
309.979	16.43
310.445	25.03
310.912	23.43
311.378	22.33
311.845	30.63
312.311	26.03
312.777	27.23
313.244	18.73
313.71	31.03
314.176	27.73
314.642	27.93
315.109	21.43
315.575	25.13
316.041	29.43
316.507	21.63
316.973	33.93
317.439	24.13
317.905	22.73
318.371	29.63
318.837	30.93
319.303	22.33
319.769	27.73
320.235	26.23
320.701	32.33
321.167	30.73
321.633	31.83
322.099	34.03
322.564	39.73
323.03	34.13
323.496	32.53
323.962	30.33
324.427	27.03
324.893	36.03
325.359	32.33
325.824	26.23
326.29	31.83
326.755	27.83
327.221	34.83
327.686	28.63
328.152	36.33
328.617	35.53
329.083	43.23
329.548	44.73
330.014	43.73
330.479	34.73
330.944	40.83
331.41	36.63
331.875	38.33
332.34	37.63
332.805	33.03
333.271	39.73
333.736	42.13
334.201	39.23
334.666	43.13
335.131	46.73
335.596	48.03
336.061	47.03
336.526	41.33
336.991	42.23
337.456	48.03
337.921	47.23
338.386	37.03
338.851	45.03
339.316	45.73
339.781	44.93
340.246	46.63
340.711	42.33
341.175	44.43
341.64	48.43
342.105	43.03
342.569	43.83
343.034	45.03
343.499	48.83
343.963	46.63
344.428	59.13
344.893	54.73
345.357	54.93
345.822	52.93
346.286	56.73
346.751	61.53
347.215	61.63
347.679	60.83
348.144	82.43
348.608	68.53
349.073	65.53
349.537	67.23
350.001	72.13
350.465	79.13
350.93	70.03
351.394	73.63
351.858	65.53
352.322	81.73
352.786	65.33
353.25	89.43
353.715	95.13
354.179	83.63
354.643	101.23
355.107	105.73
355.571	92.13
356.035	89.33
356.498	96.33
356.962	101.43
357.426	102.43
357.89	96.83
358.354	81.13
358.818	68.13
359.281	72.93
359.745	70.13
360.209	70.53
360.673	68.43
361.136	71.03
361.6	82.03
362.064	70.43
362.527	76.63
362.991	82.03
363.454	72.23
363.918	73.33
364.381	73.83
364.845	82.13
365.308	79.33
365.772	77.83
366.235	79.73
366.698	77.43
367.162	72.73
367.625	75.33
368.088	87.33
368.552	85.23
369.015	79.93
369.478	82.13
369.941	95.23
370.404	81.03
370.867	90.03
371.331	93.43
371.794	98.53
372.257	88.23
372.72	103.43
373.183	99.73
373.646	83.83
374.109	93.73
374.572	84.93
375.035	92.03
375.497	100.53
375.96	98.23
376.423	93.23
376.886	101.93
377.349	109.63
377.811	94.43
378.274	103.43
378.737	102.73
379.199	103.03
379.662	106.93
380.125	108.33
380.587	101.73
381.05	100.83
381.512	103.33
381.975	114.03
382.437	117.23
382.9	104.63
383.362	119.33
383.825	120.63
384.287	109.23
384.75	111.23
385.212	120.53
385.674	126.33
386.136	122.33
386.599	112.03
387.061	108.73
387.523	112.73
387.985	115.33
388.447	123.03
388.91	122.23
389.372	127.43
389.834	122.03
390.296	119.33
390.758	125.63
391.22	128.63
391.682	141.53
392.144	141.63
392.606	143.23
393.068	133.03
393.529	143.13
393.991	134.23
394.453	127.53
394.915	124.13
395.377	130.43
395.838	131.33
396.3	133.03
396.762	138.53
397.224	126.43
397.685	129.83
398.147	130.63
398.608	127.43
399.07	132.93
399.531	133.03
399.993	137.83
400.454	145.73
400.916	147.43
401.377	146.63
401.839	146.03
402.3	153.63
402.762	161.03
403.223	173.33
403.684	164.83
404.145	151.13
404.607	163.83
405.068	160.83
405.529	163.03
405.99	178.33
406.451	176.23
406.913	170.83
407.374	163.23
407.835	157.73
408.296	161.23
408.757	167.33
409.218	185.73
409.679	172.23
410.14	169.53
410.601	174.53
411.062	175.63
411.522	176.53
411.983	175.43
412.444	167.53
412.905	180.43
413.366	186.33
413.826	194.93
414.287	227.13
414.748	263.93
415.208	248.23
415.669	222.43
416.13	205.43
416.59	210.63
417.051	224.93
417.511	229.23
417.972	244.43
418.432	254.53
418.893	297.23
419.353	253.63
419.814	202.83
420.274	193.43
420.734	186.23
421.195	201.03
421.655	194.03
422.115	202.93
422.576	200.73
423.036	199.93
423.496	212.43
423.956	228.93
424.416	235.23
424.876	269.23
425.336	260.63
425.797	261.93
426.257	261.63
426.717	240.73
427.177	238.13
427.637	226.13
428.097	234.83
428.556	243.13
429.016	268.83
429.476	260.03
429.936	275.03
430.396	270.13
430.856	284.13
431.315	301.83
431.775	333.43
432.235	376.03
432.694	351.13
433.154	349.23
433.614	377.53
434.073	332.53
434.533	280.83
434.993	268.63
435.452	274.53
435.912	288.13
436.371	285.53
436.83	275.43
437.29	271.03
437.749	242.13
438.209	251.33
438.668	273.73
439.127	284.53
439.587	270.33
440.046	255.13
440.505	258.53
440.964	282.93
441.424	323.73
441.883	312.33
442.342	261.13
442.801	225.43
443.26	232.33
443.719	229.53
444.178	223.83
444.637	217.03
445.096	234.33
445.555	233.03
446.014	237.23
446.473	233.83
446.932	238.73
447.391	239.63
447.849	242.23
448.308	232.93
448.767	234.43
449.226	241.13
449.685	237.03
450.143	263.83
450.602	249.13
451.061	238.33
451.519	240.23
451.978	243.43
452.436	242.13
452.895	255.53
453.353	262.13
453.812	245.43
454.27	242.63
454.729	249.53
455.187	250.93
455.646	258.73
456.104	259.13
456.562	275.93
457.021	277.33
457.479	267.53
457.937	288.83
458.395	271.53
458.854	253.23
459.312	263.53
459.77	285.33
460.228	264.63
460.686	260.93
461.144	258.63
461.602	261.83
462.06	253.03
462.518	268.33
462.976	265.63
463.434	265.23
463.892	268.93
464.35	282.63
464.808	304.43
465.266	281.93
465.724	279.63
466.181	280.33
466.639	284.13
467.097	301.93
467.555	307.83
468.012	306.63
468.47	319.83
468.928	346.63
469.385	353.93
469.843	361.53
470.3	365.03
470.758	375.93
471.215	395.53
471.673	417.63
472.13	417.03
472.588	419.93
473.045	396.03
473.503	404.23
473.96	414.83
474.417	423.73
474.875	451.63
475.332	486.53
475.789	478.73
476.246	488.03
476.704	504.03
477.161	523.83
477.618	533.93
478.075	573.03
478.532	619.63
478.989	697.83
479.446	800.13
479.903	762.93
480.36	806.63
480.817	855.73
481.274	948.33
481.731	1025.53
482.188	1112.03
482.645	1233.83
483.102	1328.23
483.558	1446.03
484.015	1481.63
484.472	1463.13
484.929	1407.23
485.385	1368.63
485.842	1347.93
486.299	1305.03
486.755	1253.33
487.212	1070.43
487.668	917.03
488.125	845.83
488.582	788.23
489.038	752.03
489.494	723.03
489.951	700.13
490.407	688.33
490.864	670.53
491.32	664.23
491.776	660.23
492.233	672.43
492.689	647.33
493.145	629.83
493.602	622.73
494.058	639.63
494.514	639.63
494.97	651.33
495.426	675.23
495.882	647.53
496.338	627.53
496.794	645.03
497.251	641.53
497.707	660.73
498.163	664.03
498.618	667.83
499.074	659.33
499.53	696.23
499.986	691.13
500.442	659.13
500.898	644.93
501.354	632.13
501.809	643.63
502.265	653.93
502.721	659.93
503.177	663.33
503.632	676.33
504.088	672.73
504.543	696.03
504.999	722.33
505.455	686.03
505.91	663.23
506.366	667.33
506.821	660.63
507.277	652.03
507.732	659.43
508.187	664.93
508.643	668.33
509.098	673.03
509.553	689.33
510.009	700.63
510.464	705.53
510.919	729.03
511.375	728.53
511.83	745.43
512.285	750.73
512.74	788.83
513.195	814.43
513.65	806.63
514.105	803.03
514.56	810.13
515.015	825.03
515.47	835.93
515.925	811.23
516.38	819.83
516.835	822.23
517.29	818.43
517.745	808.33
518.2	801.43
518.655	780.53
519.109	786.13
519.564	774.83
520.019	758.93
520.474	754.03
520.928	759.63
521.383	748.03
521.838	737.43
522.292	745.73
522.747	745.43
523.201	741.33
523.656	728.43
524.11	721.83
524.565	724.83
525.019	718.93
525.474	732.83
525.928	740.43
526.382	740.63
526.837	729.63
527.291	739.63
527.745	734.53
528.2	725.73
528.654	723.33
529.108	720.23
529.562	725.33
530.016	720.43
530.47	714.13
530.925	725.93
531.379	721.43
531.833	729.93
532.287	732.23
532.741	729.73
533.195	735.53
533.649	743.13
534.103	750.43
534.556	739.43
535.01	744.83
535.464	746.13
535.918	747.73
536.372	752.33
536.826	751.03
537.279	737.33
537.733	747.33
538.187	749.33
538.64	748.33
539.094	761.93
539.548	759.63
540.001	764.23
540.455	762.83
540.908	760.93
541.362	785.43
541.815	789.33
542.269	792.33
542.722	796.53
543.175	797.03
543.629	806.63
544.082	816.83
544.536	831.93
544.989	824.13
545.442	830.03
545.895	827.23
546.349	829.73
546.802	828.53
547.255	836.83
547.708	849.63
548.161	855.33
548.614	863.13
549.067	874.23
549.52	861.53
549.973	860.43
550.426	859.03
550.879	843.73
551.332	844.33
551.785	843.93
552.238	847.73
552.691	870.33
553.144	870.33
553.596	886.33
554.049	916.63
554.502	944.93
554.955	956.93
555.407	960.53
555.86	939.03
556.313	939.13
556.765	924.73
557.218	929.23
557.67	923.83
558.123	922.93
558.576	922.13
559.028	923.13
559.48	923.23
559.933	912.73
560.385	886.03
560.838	855.63
561.29	830.43
561.742	831.43
562.195	811.83
562.647	806.73
563.099	818.53
563.551	811.23
564.004	829.43
564.456	801.73
564.908	797.73
565.36	771.93
565.812	773.93
566.264	755.43
566.716	752.73
567.168	736.03
567.62	747.43
568.072	727.23
568.524	731.13
568.976	727.23
569.428	707.23
569.88	704.03
570.332	716.63
570.784	724.83
571.235	719.33
571.687	728.63
572.139	730.73
572.59	745.83
573.042	748.83
573.494	743.33
573.945	740.03
574.397	711.23
574.849	732.63
575.3	729.53
575.752	721.23
576.203	718.03
576.655	720.63
577.106	709.43
577.557	697.43
578.009	705.13
578.46	700.23
578.912	686.93
579.363	700.33
579.814	700.13
580.265	698.73
580.717	703.83
581.168	700.13
581.619	708.03
582.07	718.03
582.521	705.43
582.972	705.93
583.423	710.73
583.875	708.43
584.326	712.43
584.777	734.53
585.227	753.73
585.678	767.03
586.129	778.13
586.58	794.23
587.031	818.63
587.482	834.83
587.933	865.43
588.384	856.73
588.834	823.73
589.285	806.03
589.736	813.23
590.186	805.33
590.637	804.53
591.088	777.03
591.538	765.73
591.989	766.13
592.439	765.33
592.89	751.13
593.34	747.23
593.791	739.43
594.241	729.23
594.692	732.03
595.142	727.83
595.593	731.43
596.043	737.73
596.493	732.93
596.943	735.23
597.394	750.33
597.844	752.33
598.294	760.83
598.744	787.13
599.195	822.43
599.645	850.83
600.095	895.13
600.545	954.73
600.995	1027.03
601.445	1067.33
601.895	1144.23
602.345	1185.53
602.795	1164.33
603.245	1125.23
603.695	1064.53
604.145	1002.53
604.594	954.53
605.044	897.63
605.494	829.83
605.944	787.33
606.393	783.33
606.843	760.73
607.293	758.93
607.743	765.03
608.192	768.93
608.642	779.63
609.091	789.33
609.541	784.13
609.99	796.73
610.44	791.23
610.889	739.13
611.339	719.93
611.788	710.83
612.238	720.63
612.687	728.63
613.136	733.03
613.586	740.33
614.035	720.53
614.484	732.93
614.933	727.73
615.383	725.93
615.832	730.43
616.281	720.13
616.73	699.03
617.179	681.43
617.628	662.83
618.077	648.63
618.526	646.73
618.975	644.73
619.424	634.63
619.873	637.93
620.322	637.93
620.771	634.43
621.22	627.93
621.669	617.53
622.118	617.43
622.567	599.23
623.015	588.53
623.464	586.23
623.913	585.23
624.361	573.43
624.81	573.83
625.259	581.03
625.707	579.23
626.156	568.23
626.604	583.73
627.053	590.13
627.501	593.43
627.95	585.23
628.398	606.83
628.847	597.93
629.295	590.83
629.744	591.13
630.192	589.43
630.64	583.83
631.089	573.93
631.537	556.73
631.985	549.43
632.433	547.53
632.881	536.93
633.33	549.73
633.778	541.03
634.226	549.43
634.674	562.83
635.122	554.13
635.57	564.43
636.018	581.03
636.466	572.93
636.914	569.73
637.362	589.43
637.81	594.93
638.258	600.23
638.705	602.73
639.153	640.53
639.601	647.53
640.049	661.93
640.497	696.23
640.944	720.73
641.392	676.03
641.84	630.73
642.287	602.93
642.735	572.93
643.182	586.53
643.63	589.53
644.078	579.43
644.525	593.53
644.973	598.33
645.42	618.13
645.867	629.23
646.315	651.83
646.762	669.03
647.21	698.63
647.657	724.23
648.104	749.63
648.551	777.33
648.999	821.93
649.446	906.53
649.893	989.63
650.34	1138.13
650.787	1342.93
651.234	1653.03
651.682	2130.33
652.129	2879.63
652.576	4065.63
653.023	5945.93
653.47	8055.93
653.917	10013.23
654.363	11532.23
654.81	12729.93
655.257	12055.33
655.704	8020.93
656.151	4806.53
656.598	3177.03
657.044	2272.83
657.491	1770.53
657.938	1425.63
658.385	1210.03
658.831	1053.13
659.278	951.73
659.724	844.73
660.171	784.63
660.618	725.43
661.064	687.63
661.511	677.03
661.957	663.43
662.404	654.63
662.85	660.83
663.296	642.73
663.743	572.43
664.189	555.83
664.635	557.63
665.082	539.53
665.528	544.93
665.974	538.93
666.42	522.93
666.867	516.43
667.313	493.93
667.759	483.53
668.205	461.63
668.651	468.93
669.097	466.33
669.543	460.73
669.989	461.83
670.435	457.33
670.881	456.83
671.327	470.43
671.773	490.83
672.219	511.73
672.665	571.33
673.11	612.43
673.556	658.23
674.002	696.93
674.448	685.13
674.893	568.93
675.339	495.43
675.785	452.13
676.23	436.63
676.676	412.33
677.122	407.03
677.567	388.73
678.013	384.63
678.458	375.13
678.904	374.83
679.349	365.53
679.794	372.33
680.24	359.53
680.685	366.53
681.131	364.73
681.576	369.83
682.021	365.83
682.466	369.03
682.912	360.43
683.357	372.73
683.802	398.13
684.247	432.23
684.692	478.83
685.137	517.53
685.583	558.93
686.028	590.03
686.473	535.43
686.918	466.53
687.363	444.03
687.807	408.33
688.252	385.93
688.697	367.63
689.142	352.53
689.587	349.23
690.032	342.13
690.477	360.13
690.921	366.23
691.366	391.33
691.811	418.03
692.255	453.43
692.7	471.13
693.145	515.73
693.589	725.93
694.034	1184.13
694.478	1610.23
694.923	1796.53
695.367	2367.93
695.812	1250.03
696.256	514.53
696.701	380.93
697.145	353.13
697.59	344.43
698.034	329.33
698.478	332.73
698.922	330.63
699.367	346.53
699.811	355.53
700.255	363.83
700.699	396.73
701.143	441.23
701.588	497.73
702.032	537.53
702.476	529.43
702.92	508.43
703.364	520.93
703.808	663.43
704.252	1095.23
704.696	1537.23
705.14	1756.23
705.584	2237.63
706.027	1118.13
706.471	554.83
706.915	416.13
707.359	374.73
707.803	342.83
708.246	331.13
708.69	329.83
709.134	323.03
709.577	318.53
710.021	323.63
710.465	320.73
710.908	322.13
711.352	317.53
711.795	320.73
712.239	371.73
712.682	404.83
713.126	421.03
713.569	474.23
714.012	373.23
714.456	323.53
714.899	298.13
715.342	281.93
715.786	262.13
716.229	271.13
716.672	261.93
717.115	254.73
717.558	253.43
718.002	253.83
718.445	271.43
718.888	288.43
719.331	305.23
719.774	316.03
720.217	314.83
720.66	299.83
721.103	276.93
721.546	271.43
721.989	256.53
722.432	241.93
722.874	241.43
723.317	235.63
723.76	251.13
724.203	262.13
724.645	323.33
725.088	452.63
725.531	591.43
725.974	666.83
726.416	577.73
726.859	317.73
727.301	261.53
727.744	247.53
728.187	241.43
728.629	246.93
729.071	254.43
729.514	267.23
729.956	285.53
730.399	293.73
730.841	297.03
731.283	284.73
731.726	277.43
732.168	280.33
732.61	283.43
733.053	292.93
733.495	330.73
733.937	363.63
734.379	417.03
734.821	459.83
735.263	567.03
735.705	877.33
736.148	1675.63
736.59	2722.93
737.032	3206.53
737.474	2604.93
737.916	851.03
738.357	444.83
738.799	347.43
739.241	315.13
739.683	299.93
740.125	303.43
740.567	311.23
741.008	336.83
741.45	331.43
741.892	326.53
742.334	371.13
742.775	384.33
743.217	359.03
743.658	282.23
744.1	261.93
744.542	279.33
744.983	328.53
745.425	370.03
745.866	356.73
746.307	292.03
746.749	293.73
747.19	335.93
747.632	475.33
748.073	944.83
748.514	1965.93
748.956	2986.93
749.397	3772.83
749.838	3126.73
750.279	3102.53
750.72	1574.03
751.162	571.83
751.603	342.93
752.044	267.73
752.485	224.83
752.926	216.53
753.367	210.23
753.808	203.33
754.249	195.63
754.69	195.33
755.131	191.93
755.572	189.93
756.013	185.43
756.453	195.63
756.894	195.63
757.335	196.43
757.776	206.33
758.216	201.73
758.657	200.03
759.098	214.73
759.538	237.83
759.979	282.73
760.42	394.33
760.86	744.63
761.301	1952.83
761.741	4676.53
762.182	6747.03
762.622	4743.23
763.063	1380.03
763.503	568.73
763.943	342.33
764.384	282.23
764.824	258.93
765.264	242.63
765.705	218.93
766.145	194.63
766.585	179.83
767.025	180.13
767.465	172.43
767.906	190.43
768.346	194.43
768.786	214.63
769.226	226.63
769.666	318.73
770.106	658.23
770.546	1646.93
770.986	2775.83
771.426	2470.13
771.866	835.73
772.306	335.53
772.745	220.63
773.185	173.83
773.625	162.23
774.065	156.13
774.505	163.53
774.944	213.33
775.384	363.93
775.824	605.73
776.263	583.33
776.703	285.73
777.142	167.43
777.582	139.93
778.021	126.73
778.461	130.03
778.9	134.63
779.34	131.53
779.779	120.93
780.219	115.33
780.658	115.43
781.097	112.43
781.537	120.13
781.976	111.83
782.415	105.13
782.855	101.53
783.294	106.03
783.733	107.03
784.172	108.53
784.611	108.73
785.05	111.13
785.489	111.53
785.928	114.83
786.367	126.63
786.806	126.13
787.245	132.53
787.684	143.63
788.123	154.73
788.562	143.93
789.001	133.13
789.44	134.83
789.879	121.73
790.317	123.93
790.756	135.03
791.195	125.53
791.634	155.83
792.072	208.93
792.511	387.83
792.95	1067.33
793.388	2213.73
793.827	1997.93
794.265	699.43
794.704	296.63
795.142	190.43
795.581	159.73
796.019	139.43
796.458	131.93
796.896	124.93
797.334	137.13
797.773	157.43
798.211	225.33
798.649	462.33
799.087	1070.13
799.526	1680.63
799.964	2116.73
800.402	2102.13
800.84	786.03
801.278	318.33
801.716	198.93
802.154	163.93
802.592	158.13
803.03	143.33
803.468	143.73
803.906	150.23
804.344	157.83
804.782	154.53
805.22	141.23
805.658	137.43
806.096	159.03
806.533	158.43
806.971	184.53
807.409	231.73
807.847	332.83
808.284	701.63
808.722	1966.33
809.16	3459.33
809.597	3314.63
810.035	5708.53
810.472	6077.13
810.91	2198.73
811.347	847.93
811.785	429.63
812.222	274.73
812.66	206.93
813.097	178.63
813.535	144.93
813.972	135.83
814.409	122.73
814.846	106.03
815.284	120.23
815.721	98.43
816.158	106.93
816.595	112.33
817.032	161.13
817.47	192.03
817.907	154.53
818.344	109.13
818.781	102.43
819.218	103.63
819.655	131.83
820.092	204.03
820.529	220.73
820.966	179.33
821.403	134.63
821.839	104.03
822.276	103.33
822.713	127.63
823.15	144.03
823.587	122.73
824.023	159.23
824.46	318.03
824.897	937.43
825.333	1415.43
825.77	601.23
826.206	235.63
826.643	139.33
827.08	107.13
827.516	85.03
827.953	83.53
828.389	84.93
828.825	71.43
829.262	61.83
829.698	67.03
830.135	69.93
830.571	65.33
831.007	65.33
831.443	69.13
831.88	63.93
832.316	61.03
832.752	68.03
833.188	66.23
833.624	72.73
834.06	71.53
834.497	65.63
834.933	70.53
835.369	81.83
835.805	79.53
836.241	82.53
836.677	85.83
837.112	91.53
837.548	111.33
837.984	138.93
838.42	210.93
838.856	516.83
839.292	1599.03
839.727	2414.53
840.163	1135.63
840.599	987.63
841.034	2135.73
841.47	2221.43
841.906	815.63
842.341	346.33
842.777	214.33
843.212	208.83
843.648	194.33
844.083	119.93
844.519	88.73
844.954	73.23
845.39	59.53
845.825	62.93
846.261	59.83
846.696	59.23
847.131	58.53
847.566	59.83
848.002	52.53
848.437	63.43
848.872	64.63
849.307	73.63
849.742	86.53
850.177	186.83
850.613	583.53
851.048	907.03
851.483	396.33
851.918	163.83
852.353	85.63
852.788	53.53
853.223	52.33
853.657	56.63
854.092	53.83
854.527	43.33
854.962	46.53
855.397	43.73
855.832	54.93
856.266	36.63
856.701	41.63
857.136	34.63
857.57	42.23
858.005	57.73
858.44	65.93
858.874	50.63
859.309	60.23
859.743	47.13
860.178	44.83
860.612	41.13
861.047	56.93
861.481	77.63
861.915	80.13
862.35	56.23
862.784	34.13
863.218	43.13
863.653	33.53
864.087	48.13
864.521	54.83
864.955	72.13
865.39	164.13
865.824	187.93
866.258	119.23
866.692	175.43
867.126	198.53
867.56	113.03
867.994	64.13
868.428	41.13
868.862	51.03
869.296	61.63
869.73	67.43
870.164	55.43
870.598	53.73
871.031	30.53
871.465	34.43
871.899	30.73
872.333	26.03
872.766	32.33
873.2	20.73
873.634	34.13
874.067	24.13
874.501	31.63
874.935	37.53
875.368	32.73
875.802	31.53
876.235	30.03
876.669	20.13
877.102	30.43
877.535	36.53
877.969	29.03
878.402	27.43
878.836	19.83
879.269	25.83
879.702	27.53
880.135	20.33
880.569	22.03
881.002	25.53
881.435	25.33
881.868	15.23
882.301	23.73
882.734	16.23
883.167	19.23
883.601	24.63
884.034	25.13
884.467	12.83
884.899	18.53
885.332	19.53
885.765	15.23
886.198	18.93
886.631	19.33
887.064	21.83
887.497	21.33
887.929	26.03
888.362	19.43
888.795	10.73
889.228	19.33
889.66	23.83
890.093	22.03
890.526	16.23
890.958	16.13
891.391	14.03
891.823	22.43
892.256	18.33
892.688	8.93
893.121	24.43
893.553	20.13
893.985	27.13
894.418	22.53
894.85	12.53
895.282	16.03
895.715	15.63
896.147	19.93
896.579	13.63
897.011	14.23
897.444	20.23
897.876	13.23
898.308	12.93
898.74	10.53
899.172	12.93
899.604	25.53
900.036	21.73
900.468	14.13
900.9	14.53
901.332	20.03
901.764	16.63
902.196	16.33
902.628	23.33
903.06	24.63
903.491	31.23
903.923	28.83
904.355	20.23
904.787	27.43
905.218	23.53
905.65	33.33
906.082	15.13
906.513	17.93
906.945	17.63
907.376	16.73
907.808	21.53
908.239	16.13
908.671	18.13
909.102	24.43
909.534	24.33
909.965	49.83
910.397	100.83
910.828	326.43
911.259	489.93
911.691	235.73
912.122	108.63
912.553	50.53
912.984	35.93
913.415	30.23
913.847	24.83
914.278	16.33
914.709	17.03
915.14	16.83
915.571	19.23
916.002	16.43
916.433	23.23
916.864	18.43
917.295	13.93
917.726	19.43
918.157	18.63
918.587	23.73
919.018	21.13
919.449	25.63
919.88	26.73
920.311	31.53
920.741	52.83
921.172	174.43
921.603	157.23
922.033	71.53
922.464	50.43
922.895	27.73
923.325	21.53
923.756	15.23
924.186	14.43
924.617	15.73
925.047	22.53
925.478	21.53
925.908	24.23
926.338	8.93
926.769	11.33
927.199	21.63
927.629	6.13
928.06	16.93
928.49	18.03
928.92	17.93
929.35	12.33
929.78	14.73
930.21	4.63
930.641	12.03
931.071	10.63
931.501	6.33
931.931	11.63
932.361	12.53
932.791	1.63
933.221	6.13
933.651	2.23
934.08	11.73
934.51	29.43
934.94	9.33
935.37	6.53
935.8	6.43
936.229	11.43
936.659	16.23
937.089	2.63
937.519	9.03
937.948	24.03
938.378	17.33
938.807	14.23
939.237	3.53
939.666	8.93
940.096	-3.87
940.525	5.63
940.955	4.53
941.384	4.73
941.814	-1.07
942.243	4.63
942.672	5.83
943.102	1.33
943.531	0.63
943.96	4.23
944.39	1.03
944.819	3.73
945.248	8.53
945.677	5.03
946.106	6.33
946.535	6.23
946.964	2.63
947.393	5.43
947.822	0.63
948.251	-1.17
948.68	4.73
949.109	6.13
949.538	10.33
949.967	3.93
950.396	2.43
950.825	0.03
951.254	3.03
951.682	-2.97
952.111	6.43
952.54	8.23
952.969	-1.77
953.397	-3.17
953.826	0.13
954.254	-7.97
954.683	10.23
955.112	-3.67
955.54	4.43
955.969	3.63
956.397	4.03
956.826	-3.27
957.254	0.03
957.682	0.23
958.111	3.83
958.539	2.53
958.967	5.33
959.396	-0.07
959.824	3.03
960.252	1.83
960.68	1.33
961.109	-2.27
961.537	-1.47
961.965	0.33
962.393	4.23
962.821	1.53
963.249	1.23
963.677	6.23
964.105	8.23
964.533	50.83
964.961	44.03
965.389	20.63
965.817	9.33
966.245	3.13
966.672	1.43
967.1	-2.77
967.528	4.53
967.956	-1.97
968.383	3.63
968.811	2.03
969.239	-0.17
969.666	5.23
970.094	3.53
970.522	-1.97
970.949	-3.87
971.377	-0.17
971.804	0.53
972.232	-1.37
972.659	-3.97
973.087	-2.87
973.514	-1.77
973.941	-6.37
974.369	1.03
974.796	1.43
975.223	-0.27
975.651	2.03
976.078	4.63
976.505	-1.77
976.932	8.33
977.359	20.63
977.786	18.63
978.214	1.93
978.641	-1.77
979.068	-0.87
979.495	-8.17
979.922	-0.17
980.349	-4.17
980.776	1.23
981.202	2.93
981.629	3.23
982.056	4.83
982.483	-2.47
982.91	2.33
983.337	-0.87
983.763	7.63
984.19	-5.47
984.617	-0.07
985.043	-7.57
985.47	-0.97
985.897	-4.57
986.323	-2.47
986.75	4.23
987.176	-3.27
987.603	-0.07
988.029	1.73
988.456	-1.37
988.882	1.73
989.308	-7.47
989.735	-2.17
990.161	1.73
990.587	-6.27
991.014	0.63
991.44	3.43
991.866	-3.27
992.292	-3.57
992.719	-1.07
993.145	3.03
993.571	-9.97
993.997	0.33
994.423	0.73
994.849	-1.87
995.275	-1.77
995.701	-1.97
996.127	-0.07
996.553	7.43
996.979	1.13
997.405	0.63
997.83	-3.17
998.256	-6.97
998.682	1.33
999.108	-6.77
999.534	2.03
999.959	-2.27
1000.385	-6.37
1000.811	0.53
1001.236	-1.77
1001.662	-4.87
1002.087	-8.27
1002.513	-0.97
1002.938	2.13
1003.364	1.93
1003.789	1.93
1004.215	4.73
1004.64	-1.47
1005.066	4.43
1005.491	5.13
1005.916	-3.37
1006.342	2.83
1006.767	-6.37
1007.192	2.63
1007.617	-1.27
1008.042	1.53
1008.468	0.63
1008.893	-2.87
1009.318	-5.77
1009.743	0.83
1010.168	5.23
1010.593	6.83
1011.018	-5.97
1011.443	-4.37
1011.868	6.03
1012.293	-3.97
1012.718	-6.27
1013.143	-1.27
1013.567	2.83
1013.992	0.73
1014.417	-8.47
1014.842	1.13
1015.267	0.63
1015.691	-3.27
1016.116	8.53
1016.541	-0.97
1016.965	4.13
1017.39	0.33
1017.814	2.43
1018.239	1.93
1018.663	-7.17
1019.088	-5.87
1019.512	-0.27
1019.937	-4.77
1020.361	-6.37
1020.785	-3.67
1021.21	-4.47
1021.634	-1.87
1022.058	0.53
1022.483	6.43
1022.907	-3.77
1023.331	-4.27
1023.755	-1.57
1024.179	-1.57
1024.604	-6.47
1025.028	-8.67
1025.452	-1.57
1025.876	-2.97
1026.3	1.13
1026.724	-14.47
1027.148	-2.27
1027.572	-4.37
1027.996	-4.77
1028.42	0.63
1028.843	-4.97
1029.267	-6.07
1029.691	-4.67
1030.115	-5.67
1030.539	-8.67
1030.962	-10.87
1031.386	-1.17
1031.81	-7.47
1032.233	1.33
1032.657	-6.87
1033.08	-2.57
1033.504	-5.37
1033.927	0.43
1034.351	2.23
1034.774	-5.47
1035.198	-3.97
1035.621	-8.07
1036.045	-3.77
1036.468	-0.47
1036.891	-8.37
1037.315	-14.67
1037.738	-8.07
1038.161	-2.57
1038.584	-5.27
1039.008	-3.67
1039.431	-1.77
1039.854	3.23
1040.277	-3.57
1040.7	-8.97
1041.123	0.13
1041.546	-4.57
1041.969	-3.77
1042.392	-5.27
1042.815	-1.77
1043.238	0.63
1043.661	3.13
1044.084	-5.27
1044.507	-6.67
1044.93	-3.87
1045.352	-4.37
1045.775	-3.17
1046.198	0.13
1046.621	1.73
1047.043	-5.97
1047.466	6.53
1047.889	-4.37
1048.311	-4.27
1048.734	3.13
1049.156	-3.57
1049.579	-0.87
1050.001	-1.67
1050.424	-0.07
1050.846	-3.07
1051.269	-6.57
1051.691	-6.27
1052.113	-2.87
1052.536	-1.07
1052.958	-1.77
1053.38	-4.87
1053.802	-7.37
1054.225	-0.17
1054.647	-3.37
1055.069	0.03
1055.491	0.93
1055.913	-7.37
1056.335	-0.87
1056.757	-5.97
1057.179	-12.87
1057.601	-8.27
1058.023	-0.37
1058.445	-10.87
1058.867	-5.37
1059.289	-2.67
1059.711	-4.97
1060.133	-0.37
1060.555	-6.57
1060.976	-9.57
1061.398	-3.07
1061.82	-10.57
1062.241	-2.67
1062.663	-7.77
1063.085	-6.87
1063.506	-3.17
1063.928	-0.57
1064.35	3.03
1064.771	-9.27
1065.193	-3.47
1065.614	-10.27
1066.035	1.53
1066.457	-1.67
1066.878	-1.77
1067.3	-8.27
1067.721	-2.27
1068.142	-1.77
1068.564	-7.07
1068.985	-3.47
1069.406	-2.47
1069.827	-0.97
1070.248	-4.57
1070.67	-10.77
1071.091	-4.77
1071.512	-7.67
1071.933	-6.37
1072.354	-8.27
1072.775	-4.87
1073.196	-6.47
1073.617	-1.17
1074.038	-11.47
1074.459	1.33
1074.88	-11.07
1075.3	-2.97
1075.721	-6.07
1076.142	1.83
1076.563	-5.27
1076.983	-7.57
1077.404	-6.07
1077.825	-11.27
1078.246	-3.17
1078.666	-4.77
1079.087	-3.17
1079.507	-8.67
1079.928	-2.77
1080.348	-0.67
1080.769	-6.37
1081.189	2.23
1081.61	-3.67
1082.03	-4.17
1082.451	-2.67
1082.871	0.73
1083.291	-10.27
1083.711	-7.47
1084.132	-3.97
1084.552	-6.87
1084.972	0.43
1085.392	-10.17
1085.813	-13.77
1086.233	-3.87
1086.653	-6.07
1087.073	0.03
1087.493	-5.87
1087.913	-6.87
1088.333	-2.17
1088.753	-3.57
1089.173	3.33
1089.593	-6.57
1090.013	-1.77
1090.433	-4.67
1090.852	-1.27
1091.272	-2.57
1091.692	-5.07
1092.112	-1.37
1092.531	-3.27
1092.951	-13.17
1093.371	-2.17
1093.79	9.13
1094.21	-3.67
1094.63	-7.77
1095.049	-8.17
1095.469	3.53
1095.888	-4.17
1096.308	2.03
1096.727	2.53
1097.146	-8.17
1097.566	0.83
1097.985	4.53
1098.405	-0.37
1098.824	-13.37
1099.243	-7.17
1099.662	-10.07
1100.082	-3.97
1100.501	1.73
1100.92	-11.07
1101.339	1.23
1101.758	-7.67
