Data from 20171114-ORNL-Ar_H_NY_Subt18_08-05-30-506.txt Node
Date: Tue Nov 14 08:05:30 EST 2017
User: Ender
Spectrometer: HR+D1039
Trigger mode: 0
Integration Time (sec): 2.730000E-2
Scans to average: 10
Electric dark correction enabled: true
Nonlinearity correction enabled: false
Boxcar width: 0
XAxis mode: Wavelengths
Number of Pixels in Spectrum: 2048
>>>>>Begin Spectral Data<<<<<
187.836	-2.49
188.309	-2.49
188.782	-2.49
189.255	0.41
189.728	-0.09
190.201	1.91
190.674	4.51
191.147	3.21
191.619	-9.69
192.092	4.21
192.565	8.71
193.038	-1.29
193.511	1.91
193.984	-3.39
194.456	-6.19
194.929	4.11
195.402	-3.19
195.874	-2.69
196.347	-0.39
196.82	-6.69
197.292	6.21
197.765	-0.29
198.237	-5.19
198.71	3.61
199.182	-1.99
199.655	-0.69
200.127	1.31
200.6	-4.19
201.072	-6.49
201.544	-2.49
202.017	-5.29
202.489	3.31
202.961	-3.49
203.433	0.41
203.906	-11.99
204.378	-2.09
204.85	-7.49
205.322	-7.79
205.794	-0.79
206.266	-1.09
206.739	-7.39
207.211	3.01
207.683	-8.69
208.155	-9.49
208.627	-4.29
209.099	-8.39
209.57	-1.39
210.042	-3.19
210.514	-7.99
210.986	-0.79
211.458	-8.09
211.93	-9.69
212.402	-5.49
212.873	-2.39
213.345	-7.99
213.817	-11.79
214.288	-9.99
214.76	-9.29
215.232	-5.99
215.703	0.21
216.175	-2.39
216.646	-2.69
217.118	-9.09
217.589	-5.19
218.061	-3.09
218.532	-6.59
219.004	-3.29
219.475	-4.19
219.946	-4.29
220.418	-5.79
220.889	1.61
221.36	-2.79
221.832	-7.39
222.303	-10.69
222.774	-1.69
223.245	-10.99
223.717	-5.49
224.188	-1.49
224.659	-4.29
225.13	-8.19
225.601	0.91
226.072	-4.69
226.543	5.81
227.014	-1.09
227.485	-4.49
227.956	-6.29
228.427	-1.19
228.898	-1.59
229.369	2.51
229.839	-6.39
230.31	-10.69
230.781	0.91
231.252	2.21
231.722	-6.39
232.193	-0.59
232.664	0.81
233.135	3.71
233.605	-4.19
234.076	-9.09
234.546	4.71
235.017	1.11
235.487	-0.29
235.958	-3.19
236.428	-0.39
236.899	3.11
237.369	7.71
237.84	-1.09
238.31	6.91
238.78	4.11
239.251	-3.89
239.721	1.41
240.191	-7.19
240.662	-0.09
241.132	1.11
241.602	-0.79
242.072	-0.29
242.542	5.41
243.013	-3.29
243.483	8.01
243.953	6.91
244.423	-4.89
244.893	-6.89
245.363	1.61
245.833	-0.29
246.303	-0.89
246.773	3.21
247.243	2.31
247.712	6.61
248.182	9.91
248.652	10.11
249.122	-5.29
249.592	12.21
250.061	19.91
250.531	35.31
251.001	15.71
251.471	19.31
251.94	22.81
252.41	6.61
252.879	0.31
253.349	8.61
253.818	11.21
254.288	4.41
254.757	0.81
255.227	-1.89
255.696	4.91
256.166	3.61
256.635	8.61
257.105	4.81
257.574	7.41
258.043	11.61
258.513	18.21
258.982	16.11
259.451	10.31
259.92	13.31
260.389	10.91
260.859	13.11
261.328	12.11
261.797	17.41
262.266	7.81
262.735	13.31
263.204	6.71
263.673	4.11
264.142	2.51
264.611	1.51
265.08	-2.39
265.549	0.01
266.018	11.11
266.487	-0.79
266.955	-5.19
267.424	-0.19
267.893	6.71
268.362	-2.09
268.83	1.71
269.299	10.91
269.768	4.31
270.236	8.01
270.705	3.61
271.174	4.91
271.642	9.41
272.111	14.31
272.579	19.61
273.048	30.61
273.516	23.31
273.985	30.21
274.453	25.31
274.922	25.51
275.39	12.41
275.858	1.71
276.327	15.01
276.795	15.61
277.263	9.31
277.731	27.91
278.2	56.91
278.668	61.31
279.136	49.61
279.604	20.51
280.072	16.21
280.54	13.41
281.008	6.81
281.477	18.91
281.945	13.41
282.413	22.61
282.881	15.01
283.348	7.91
283.816	16.01
284.284	15.01
284.752	22.71
285.22	12.41
285.688	18.01
286.156	16.31
286.623	45.71
287.091	54.11
287.559	27.61
288.026	20.71
288.494	13.11
288.962	7.91
289.429	10.71
289.897	18.11
290.364	13.51
290.832	20.31
291.3	15.41
291.767	20.51
292.234	14.91
292.702	16.31
293.169	18.71
293.637	25.61
294.104	20.21
294.571	9.51
295.039	19.21
295.506	22.01
295.973	20.11
296.44	16.81
296.908	16.41
297.375	19.91
297.842	16.41
298.309	15.81
298.776	14.41
299.243	25.21
299.71	19.41
300.177	21.91
300.644	27.01
301.111	18.01
301.578	29.31
302.045	21.21
302.512	24.01
302.979	28.71
303.446	24.21
303.913	18.41
304.379	24.71
304.846	30.81
305.313	27.31
305.78	23.11
306.246	25.41
306.713	27.71
307.18	25.41
307.646	34.11
308.113	29.21
308.579	24.31
309.046	26.91
309.512	32.81
309.979	18.01
310.445	28.41
310.912	28.61
311.378	34.91
311.845	32.01
312.311	25.71
312.777	28.31
313.244	31.51
313.71	41.01
314.176	31.81
314.642	36.21
315.109	32.61
315.575	39.81
316.041	35.71
316.507	32.11
316.973	44.01
317.439	45.01
317.905	41.31
318.371	28.61
318.837	37.01
319.303	40.31
319.769	37.91
320.235	33.31
320.701	36.61
321.167	42.61
321.633	41.11
322.099	41.41
322.564	41.41
323.03	49.71
323.496	39.21
323.962	43.91
324.427	41.21
324.893	40.91
325.359	40.11
325.824	38.01
326.29	41.41
326.755	38.61
327.221	44.71
327.686	37.31
328.152	51.01
328.617	41.51
329.083	47.31
329.548	55.81
330.014	42.61
330.479	43.31
330.944	41.71
331.41	45.21
331.875	51.51
332.34	46.11
332.805	43.31
333.271	51.31
333.736	53.51
334.201	51.11
334.666	58.21
335.131	60.61
335.596	55.81
336.061	57.71
336.526	43.11
336.991	46.81
337.456	53.11
337.921	50.21
338.386	46.01
338.851	48.21
339.316	51.51
339.781	40.81
340.246	55.91
340.711	47.21
341.175	55.31
341.64	49.41
342.105	53.71
342.569	58.01
343.034	63.41
343.499	58.71
343.963	54.91
344.428	62.71
344.893	62.81
345.357	58.11
345.822	61.41
346.286	68.01
346.751	68.21
347.215	70.21
347.679	79.11
348.144	107.11
348.608	94.51
349.073	75.81
349.537	70.41
350.001	78.31
350.465	80.71
350.93	86.31
351.394	81.61
351.858	78.11
352.322	92.81
352.786	88.31
353.25	104.21
353.715	110.81
354.179	104.71
354.643	129.01
355.107	136.41
355.571	109.11
356.035	107.31
356.498	124.71
356.962	120.41
357.426	133.31
357.89	116.91
358.354	91.51
358.818	82.81
359.281	81.61
359.745	82.21
360.209	83.91
360.673	76.71
361.136	84.61
361.6	88.01
362.064	87.11
362.527	88.31
362.991	97.21
363.454	84.61
363.918	77.71
364.381	76.71
364.845	84.51
365.308	87.71
365.772	91.01
366.235	91.11
366.698	80.51
367.162	89.61
367.625	88.01
368.088	86.21
368.552	85.61
369.015	86.21
369.478	100.41
369.941	101.01
370.404	102.11
370.867	104.51
371.331	106.71
371.794	116.01
372.257	113.01
372.72	122.61
373.183	114.41
373.646	103.11
374.109	103.61
374.572	114.51
375.035	111.41
375.497	111.61
375.96	108.31
376.423	106.71
376.886	112.21
377.349	108.61
377.811	109.41
378.274	111.31
378.737	108.11
379.199	113.41
379.662	115.21
380.125	118.31
380.587	121.11
381.05	116.91
381.512	132.61
381.975	127.91
382.437	125.31
382.9	123.31
383.362	134.81
383.825	141.21
384.287	151.01
384.75	143.71
385.212	140.51
385.674	142.81
386.136	132.61
386.599	120.91
387.061	126.51
387.523	130.31
387.985	140.71
388.447	150.91
388.91	145.81
389.372	164.61
389.834	158.81
390.296	141.41
390.758	156.91
391.22	162.41
391.682	204.11
392.144	293.61
392.606	234.21
393.068	166.81
393.529	174.81
393.991	154.11
394.453	152.41
394.915	160.11
395.377	185.21
395.838	222.11
396.3	157.51
396.762	143.81
397.224	129.61
397.685	131.31
398.147	131.71
398.608	131.31
399.07	130.51
399.531	134.01
399.993	140.31
400.454	154.21
400.916	144.41
401.377	146.51
401.839	148.91
402.3	155.71
402.762	170.51
403.223	183.41
403.684	172.61
404.145	161.51
404.607	161.71
405.068	169.51
405.529	173.81
405.99	195.11
406.451	180.91
406.913	171.11
407.374	167.81
407.835	166.71
408.296	169.31
408.757	171.91
409.218	192.91
409.679	183.01
410.14	183.81
410.601	178.41
411.062	186.81
411.522	190.41
411.983	188.81
412.444	179.21
412.905	179.61
413.366	189.01
413.826	202.01
414.287	214.41
414.748	268.61
415.208	246.61
415.669	216.71
416.13	206.01
416.59	208.21
417.051	214.71
417.511	227.01
417.972	238.01
418.432	240.11
418.893	283.51
419.353	250.01
419.814	199.61
420.274	182.81
420.734	186.91
421.195	198.21
421.655	200.51
422.115	195.71
422.576	189.51
423.036	196.81
423.496	206.41
423.956	215.71
424.416	230.61
424.876	269.41
425.336	259.41
425.797	264.91
426.257	250.51
426.717	242.81
427.177	238.71
427.637	220.01
428.097	235.51
428.556	242.11
429.016	270.51
429.476	268.11
429.936	280.81
430.396	280.01
430.856	293.21
431.315	323.31
431.775	354.01
432.235	385.71
432.694	351.61
433.154	381.41
433.614	393.51
434.073	340.31
434.533	290.01
434.993	266.71
435.452	283.81
435.912	298.81
436.371	290.51
436.83	287.31
437.29	273.71
437.749	253.91
438.209	246.51
438.668	276.11
439.127	288.41
439.587	267.81
440.046	252.61
440.505	263.01
440.964	283.11
441.424	329.21
441.883	319.01
442.342	262.71
442.801	225.81
443.26	224.31
443.719	224.01
444.178	222.01
444.637	208.11
445.096	227.41
445.555	232.71
446.014	224.81
446.473	229.41
446.932	231.61
447.391	232.41
447.849	233.31
448.308	214.21
448.767	223.41
449.226	237.51
449.685	238.61
450.143	244.11
450.602	241.81
451.061	232.51
451.519	227.81
451.978	235.91
452.436	235.81
452.895	241.61
453.353	260.61
453.812	241.21
454.27	243.61
454.729	237.41
455.187	247.61
455.646	250.91
456.104	249.11
456.562	263.41
457.021	270.11
457.479	259.41
457.937	274.51
458.395	267.11
458.854	251.01
459.312	260.11
459.77	282.01
460.228	255.21
460.686	249.61
461.144	254.31
461.602	251.61
462.06	246.71
462.518	244.91
462.976	252.11
463.434	265.11
463.892	266.21
464.35	277.71
464.808	286.51
465.266	267.41
465.724	279.31
466.181	278.71
466.639	271.91
467.097	287.91
467.555	297.91
468.012	307.91
468.47	314.01
468.928	328.71
469.385	348.31
469.843	351.01
470.3	353.21
470.758	367.11
471.215	385.61
471.673	411.91
472.13	418.01
472.588	425.11
473.045	370.01
473.503	377.71
473.96	391.31
474.417	404.91
474.875	433.51
475.332	480.51
475.789	465.01
476.246	479.31
476.704	488.61
477.161	513.01
477.618	535.21
478.075	564.21
478.532	618.41
478.989	699.91
479.446	818.21
479.903	788.11
480.36	823.01
480.817	876.01
481.274	986.71
481.731	1089.51
482.188	1173.81
482.645	1314.71
483.102	1422.21
483.558	1577.01
484.015	1613.01
484.472	1586.71
484.929	1536.01
485.385	1487.81
485.842	1457.61
486.299	1385.41
486.755	1319.31
487.212	1120.81
487.668	933.31
488.125	863.01
488.582	791.51
489.038	758.81
489.494	725.91
489.951	700.41
490.407	680.11
490.864	665.91
491.32	653.01
491.776	648.31
492.233	654.31
492.689	618.11
493.145	610.41
493.602	609.41
494.058	621.11
494.514	622.61
494.97	645.91
495.426	665.31
495.882	631.41
496.338	616.11
496.794	626.21
497.251	618.71
497.707	640.81
498.163	637.71
498.618	655.61
499.074	653.41
499.53	687.71
499.986	677.61
500.442	657.31
500.898	638.31
501.354	634.11
501.809	639.51
502.265	650.11
502.721	669.71
503.177	682.51
503.632	671.41
504.088	691.21
504.543	728.71
504.999	717.11
505.455	666.21
505.91	642.11
506.366	632.61
506.821	624.61
507.277	631.01
507.732	631.51
508.187	635.11
508.643	632.01
509.098	636.41
509.553	650.71
510.009	668.91
510.464	677.31
510.919	700.31
511.375	693.71
511.83	710.51
512.285	735.01
512.74	769.81
513.195	792.91
513.65	782.41
514.105	779.91
514.56	775.61
515.015	806.31
515.47	821.61
515.925	791.11
516.38	789.31
516.835	794.51
517.29	785.61
517.745	780.11
518.2	759.81
518.655	753.61
519.109	745.71
519.564	735.31
520.019	746.71
520.474	735.21
520.928	734.91
521.383	728.91
521.838	714.31
522.292	720.71
522.747	707.91
523.201	704.01
523.656	702.61
524.11	694.51
524.565	698.81
525.019	698.91
525.474	708.91
525.928	702.91
526.382	696.61
526.837	698.01
527.291	707.81
527.745	702.21
528.2	703.61
528.654	699.21
529.108	685.11
529.562	698.21
530.016	699.81
530.47	702.11
530.925	700.51
531.379	703.41
531.833	719.91
532.287	711.91
532.741	707.21
533.195	721.71
533.649	712.31
534.103	726.21
534.556	710.81
535.01	719.11
535.464	717.51
535.918	723.21
536.372	721.71
536.826	720.41
537.279	705.01
537.733	716.21
538.187	726.91
538.64	718.21
539.094	732.41
539.548	725.61
540.001	712.61
540.455	723.31
540.908	730.41
541.362	735.31
541.815	740.11
542.269	763.11
542.722	767.21
543.175	772.21
543.629	779.71
544.082	806.11
544.536	784.01
544.989	782.41
545.442	786.81
545.895	786.41
546.349	789.41
546.802	788.61
547.255	789.71
547.708	804.61
548.161	817.81
548.614	822.81
549.067	832.01
549.52	825.81
549.973	820.11
550.426	805.71
550.879	798.81
551.332	796.41
551.785	804.11
552.238	796.51
552.691	809.31
553.144	829.41
553.596	845.21
554.049	860.91
554.502	902.01
554.955	901.41
555.407	904.81
555.86	901.71
556.313	901.01
556.765	881.91
557.218	888.31
557.67	890.91
558.123	877.21
558.576	872.71
559.028	873.21
559.48	889.01
559.933	871.21
560.385	831.61
560.838	794.41
561.29	783.01
561.742	779.01
562.195	766.31
562.647	764.71
563.099	770.21
563.551	771.01
564.004	771.11
564.456	765.31
564.908	762.51
565.36	749.01
565.812	738.51
566.264	726.51
566.716	720.91
567.168	710.21
567.62	718.61
568.072	700.11
568.524	688.41
568.976	684.01
569.428	675.51
569.88	682.01
570.332	672.51
570.784	691.71
571.235	678.91
571.687	693.81
572.139	692.71
572.59	707.51
573.042	710.11
573.494	712.41
573.945	703.21
574.397	683.91
574.849	688.31
575.3	681.41
575.752	671.91
576.203	680.21
576.655	688.51
577.106	667.11
577.557	665.91
578.009	670.51
578.46	651.51
578.912	660.61
579.363	659.21
579.814	657.31
580.265	655.21
580.717	649.21
581.168	655.31
581.619	667.31
582.07	677.61
582.521	665.01
582.972	657.81
583.423	673.71
583.875	674.81
584.326	695.31
584.777	731.81
585.227	818.21
585.678	899.81
586.129	980.91
586.58	1050.61
587.031	1125.11
587.482	1287.61
587.933	1459.51
588.384	1275.31
588.834	956.21
589.285	788.01
589.736	771.21
590.186	764.11
590.637	750.61
591.088	734.71
591.538	731.11
591.989	721.81
592.439	722.51
592.89	700.41
593.34	705.81
593.791	699.01
594.241	692.41
594.692	688.61
595.142	698.11
595.593	694.81
596.043	706.31
596.493	699.41
596.943	705.31
597.394	708.11
597.844	704.71
598.294	712.51
598.744	742.81
599.195	769.71
599.645	793.11
600.095	847.11
600.545	898.61
600.995	946.51
601.445	1012.31
601.895	1064.71
602.345	1117.41
602.795	1097.81
603.245	1054.01
603.695	997.31
604.145	945.61
604.594	907.11
605.044	845.51
605.494	789.01
605.944	737.01
606.393	732.61
606.843	711.21
607.293	721.51
607.743	717.71
608.192	736.81
608.642	745.81
609.091	745.31
609.541	752.11
609.99	754.71
610.44	752.91
610.889	706.41
611.339	688.31
611.788	665.71
612.238	680.91
612.687	706.71
613.136	694.71
613.586	724.51
614.035	722.21
614.484	737.11
614.933	733.01
615.383	741.01
615.832	721.51
616.281	712.71
616.73	673.71
617.179	655.41
617.628	626.31
618.077	624.81
618.526	610.21
618.975	596.81
619.424	602.51
619.873	608.31
620.322	600.21
620.771	585.31
621.22	592.61
621.669	580.21
622.118	575.11
622.567	560.41
623.015	550.01
623.464	554.61
623.913	551.41
624.361	538.01
624.81	534.91
625.259	544.61
625.707	543.11
626.156	540.61
626.604	547.01
627.053	538.41
627.501	543.41
627.95	551.51
628.398	567.51
628.847	552.91
629.295	561.91
629.744	560.51
630.192	550.71
630.64	550.81
631.089	546.71
631.537	562.11
631.985	569.81
632.433	574.81
632.881	584.11
633.33	626.41
633.778	611.61
634.226	544.71
634.674	558.41
635.122	556.31
635.57	579.41
636.018	603.61
636.466	563.21
636.914	533.11
637.362	545.71
637.81	554.31
638.258	557.61
638.705	557.21
639.153	585.31
639.601	593.61
640.049	615.81
640.497	644.71
640.944	676.71
641.392	629.21
641.84	596.71
642.287	553.81
642.735	555.51
643.182	555.51
643.63	552.91
644.078	563.41
644.525	577.21
644.973	583.91
645.42	584.01
645.867	603.31
646.315	619.71
646.762	645.41
647.21	669.91
647.657	686.31
648.104	719.91
648.551	738.41
648.999	800.91
649.446	889.81
649.893	975.41
650.34	1124.91
650.787	1337.21
651.234	1672.01
651.682	2158.91
652.129	2972.61
652.576	4251.01
653.023	6311.01
653.47	8685.71
653.917	10861.21
654.363	12620.31
654.81	14024.81
655.257	13323.81
655.704	8720.51
656.151	5147.91
656.598	3331.41
657.044	2353.51
657.491	1808.31
657.938	1453.91
658.385	1199.01
658.831	1060.91
659.278	944.21
659.724	833.41
660.171	771.31
660.618	700.51
661.064	653.21
661.511	642.81
661.957	636.11
662.404	619.81
662.85	628.01
663.296	600.71
663.743	541.51
664.189	517.61
664.635	506.91
665.082	511.91
665.528	507.71
665.974	497.41
666.42	492.71
666.867	489.71
667.313	474.91
667.759	452.51
668.205	453.21
668.651	469.21
669.097	469.21
669.543	478.71
669.989	456.21
670.435	431.81
670.881	422.31
671.327	428.41
671.773	454.61
672.219	468.31
672.665	521.01
673.11	552.81
673.556	602.71
674.002	631.71
674.448	628.31
674.893	531.91
675.339	456.61
675.785	418.41
676.23	402.11
676.676	376.71
677.122	364.91
677.567	353.01
678.013	351.71
678.458	334.21
678.904	344.61
679.349	335.21
679.794	333.21
680.24	340.41
680.685	332.31
681.131	331.31
681.576	342.01
682.021	343.81
682.466	332.01
682.912	328.31
683.357	343.41
683.802	365.21
684.247	391.31
684.692	430.11
685.137	473.51
685.583	509.01
686.028	538.51
686.473	493.61
686.918	425.21
687.363	395.51
687.807	373.21
688.252	345.81
688.697	347.41
689.142	326.51
689.587	319.01
690.032	307.31
690.477	321.91
690.921	330.11
691.366	358.81
691.811	380.11
692.255	406.71
692.7	445.71
693.145	475.21
693.589	646.91
694.034	1064.11
694.478	1458.41
694.923	1663.31
695.367	2183.41
695.812	1141.01
696.256	482.71
696.701	353.81
697.145	328.21
697.59	312.41
698.034	304.71
698.478	317.01
698.922	303.61
699.367	313.01
699.811	321.81
700.255	330.91
700.699	368.01
701.143	402.51
701.588	457.41
702.032	489.71
702.476	489.21
702.92	463.31
703.364	462.21
703.808	587.21
704.252	965.41
704.696	1381.41
705.14	1604.61
705.584	2057.91
706.027	1027.41
706.471	503.71
706.915	379.91
707.359	337.61
707.803	301.71
708.246	299.31
708.69	293.61
709.134	302.61
709.577	295.81
710.021	304.61
710.465	293.41
710.908	282.31
711.352	287.21
711.795	289.81
712.239	331.71
712.682	363.41
713.126	392.41
713.569	448.11
714.012	349.41
714.456	308.81
714.899	278.81
715.342	269.51
715.786	249.91
716.229	241.01
716.672	236.21
717.115	241.21
717.558	234.11
718.002	239.11
718.445	246.61
718.888	268.01
719.331	274.11
719.774	288.41
720.217	284.11
720.66	266.01
721.103	258.01
721.546	241.31
721.989	237.11
722.432	213.91
722.874	223.51
723.317	217.51
723.76	225.81
724.203	243.21
724.645	290.11
725.088	417.61
725.531	538.61
725.974	620.61
726.416	527.81
726.859	294.41
727.301	233.61
727.744	225.81
728.187	221.41
728.629	226.41
729.071	233.51
729.514	239.51
729.956	257.21
730.399	267.51
730.841	271.31
731.283	262.21
731.726	249.31
732.168	249.01
732.61	249.61
733.053	270.61
733.495	289.61
733.937	332.71
734.379	371.11
734.821	401.41
735.263	505.91
735.705	776.41
736.148	1455.61
736.59	2421.81
737.032	2951.01
737.474	2382.01
737.916	764.81
738.357	400.21
738.799	308.61
739.241	280.91
739.683	261.41
740.125	274.91
740.567	284.21
741.008	294.01
741.45	296.11
741.892	298.01
742.334	319.71
742.775	341.41
743.217	324.01
743.658	255.51
744.1	244.51
744.542	250.61
744.983	291.51
745.425	323.51
745.866	327.11
746.307	271.31
746.749	263.71
747.19	307.41
747.632	416.91
748.073	814.71
748.514	1725.61
748.956	2689.21
749.397	3361.31
749.838	2803.21
750.279	2837.21
750.72	1435.11
751.162	516.61
751.603	300.81
752.044	235.21
752.485	204.41
752.926	192.91
753.367	190.71
753.808	186.71
754.249	181.71
754.69	171.41
755.131	171.11
755.572	174.41
756.013	166.61
756.453	167.31
756.894	175.71
757.335	181.51
757.776	186.21
758.216	186.11
758.657	184.61
759.098	187.31
759.538	213.11
759.979	246.01
760.42	346.71
760.86	647.31
761.301	1653.21
761.741	4099.11
762.182	6136.81
762.622	4356.91
763.063	1251.81
763.503	506.91
763.943	322.01
764.384	313.71
764.824	371.71
765.264	411.11
765.705	282.61
766.145	200.01
766.585	179.71
767.025	172.71
767.465	175.21
767.906	224.01
768.346	299.81
768.786	318.11
769.226	246.71
769.666	296.51
770.106	559.51
770.546	1432.31
770.986	2510.61
771.426	2258.81
771.866	751.71
772.306	316.01
772.745	195.61
773.185	162.61
773.625	158.61
774.065	160.41
774.505	187.51
774.944	283.71
775.384	619.61
775.824	1162.51
776.263	1135.71
776.703	488.71
777.142	206.41
777.582	156.41
778.021	133.41
778.461	133.91
778.9	125.51
779.34	128.71
779.779	108.81
780.219	106.11
780.658	99.91
781.097	100.41
781.537	106.21
781.976	101.01
782.415	99.51
782.855	97.41
783.294	106.81
783.733	95.11
784.172	102.01
784.611	103.41
785.05	98.31
785.489	105.81
785.928	110.21
786.367	114.01
786.806	111.21
787.245	122.81
787.684	136.51
788.123	144.11
788.562	131.71
789.001	115.71
789.44	116.41
789.879	105.71
790.317	116.51
790.756	126.91
791.195	119.71
791.634	135.91
792.072	193.51
792.511	332.91
792.95	915.11
793.388	2021.11
793.827	1865.31
794.265	639.61
794.704	263.41
795.142	167.11
795.581	136.91
796.019	127.61
796.458	124.21
796.896	109.01
797.334	128.61
797.773	148.71
798.211	204.71
798.649	407.21
799.087	949.11
799.526	1492.81
799.964	1884.41
800.402	1916.21
800.84	721.11
801.278	285.81
801.716	186.11
802.154	145.01
802.592	139.41
803.03	133.11
803.468	125.81
803.906	131.21
804.344	143.41
804.782	127.91
805.22	116.71
805.658	114.01
806.096	135.31
806.533	148.71
806.971	161.51
807.409	205.11
807.847	290.11
808.284	596.81
808.722	1715.11
809.16	3117.01
809.597	2896.81
810.035	5097.31
810.472	5561.51
810.91	1995.51
811.347	759.51
811.785	382.11
812.222	240.41
812.66	183.81
813.097	155.31
813.535	130.71
813.972	115.11
814.409	112.41
814.846	106.91
815.284	106.01
815.721	96.71
816.158	94.31
816.595	107.91
817.032	164.91
817.47	191.91
817.907	161.71
818.344	140.31
818.781	109.51
819.218	93.61
819.655	116.81
820.092	169.41
820.529	202.81
820.966	171.31
821.403	127.01
821.839	103.71
822.276	96.11
822.713	111.01
823.15	128.21
823.587	115.91
824.023	134.91
824.46	278.11
824.897	840.81
825.333	1280.81
825.77	555.81
826.206	223.81
826.643	127.11
827.08	92.41
827.516	72.41
827.953	72.81
828.389	82.81
828.825	65.51
829.262	63.01
829.698	58.41
830.135	59.81
830.571	59.31
831.007	64.11
831.443	63.11
831.88	52.51
832.316	62.51
832.752	60.21
833.188	58.21
833.624	61.91
834.06	63.51
834.497	64.11
834.933	63.41
835.369	64.81
835.805	57.51
836.241	67.41
836.677	74.41
837.112	83.51
837.548	89.81
837.984	126.51
838.42	179.41
838.856	450.71
839.292	1396.71
839.727	2194.31
840.163	1021.81
840.599	840.21
841.034	1896.31
841.47	2052.41
841.906	733.81
842.341	326.41
842.777	216.81
843.212	298.81
843.648	294.51
844.083	141.11
844.519	90.41
844.954	71.41
845.39	56.11
845.825	50.91
846.261	54.51
846.696	52.81
847.131	44.01
847.566	54.71
848.002	41.11
848.437	52.31
848.872	50.41
849.307	54.11
849.742	77.31
850.177	164.71
850.613	522.81
851.048	828.01
851.483	364.71
851.918	148.01
852.353	78.31
852.788	57.91
853.223	49.41
853.657	48.91
854.092	48.01
854.527	44.01
854.962	38.91
855.397	40.91
855.832	52.71
856.266	39.61
856.701	34.61
857.136	31.61
857.57	37.21
858.005	44.41
858.44	56.91
858.874	41.21
859.309	47.11
859.743	35.01
860.178	43.61
860.612	35.61
861.047	47.81
861.481	67.61
861.915	67.71
862.35	47.81
862.784	32.51
863.218	37.01
863.653	33.31
864.087	40.51
864.521	54.71
864.955	66.51
865.39	145.41
865.824	166.51
866.258	110.51
866.692	149.21
867.126	170.01
867.56	103.51
867.994	48.21
868.428	31.31
868.862	46.31
869.296	51.31
869.73	54.31
870.164	49.51
870.598	44.51
871.031	32.91
871.465	29.61
871.899	27.81
872.333	21.61
872.766	24.81
873.2	20.91
873.634	30.51
874.067	24.21
874.501	21.91
874.935	32.01
875.368	29.91
875.802	25.41
876.235	19.41
876.669	22.11
877.102	25.31
877.535	26.91
877.969	22.11
878.402	28.21
878.836	15.31
879.269	19.11
879.702	23.71
880.135	22.61
880.569	21.51
881.002	29.51
881.435	18.11
881.868	11.41
882.301	22.01
882.734	12.31
883.167	22.81
883.601	19.41
884.034	20.11
884.467	12.71
884.899	18.71
885.332	12.11
885.765	5.91
886.198	14.01
886.631	16.11
887.064	18.61
887.497	16.11
887.929	24.41
888.362	8.31
888.795	12.41
889.228	17.11
889.66	22.31
890.093	12.21
890.526	18.31
890.958	14.71
891.391	12.21
891.823	25.81
892.256	17.31
892.688	11.61
893.121	17.31
893.553	13.61
893.985	19.41
894.418	22.01
894.85	10.41
895.282	15.81
895.715	11.01
896.147	11.91
896.579	14.61
897.011	18.31
897.444	22.41
897.876	11.41
898.308	19.71
898.74	15.01
899.172	10.51
899.604	18.61
900.036	16.01
900.468	13.61
900.9	7.51
901.332	10.81
901.764	7.91
902.196	16.01
902.628	16.61
903.06	15.81
903.491	30.31
903.923	19.91
904.355	17.01
904.787	23.31
905.218	18.01
905.65	24.61
906.082	8.51
906.513	5.91
906.945	15.41
907.376	10.51
907.808	14.31
908.239	19.91
908.671	8.21
909.102	17.41
909.534	21.71
909.965	40.81
910.397	84.01
910.828	290.91
911.259	452.01
911.691	206.01
912.122	108.71
912.553	49.71
912.984	34.11
913.415	21.71
913.847	24.21
914.278	14.11
914.709	14.51
915.14	14.31
915.571	18.11
916.002	9.21
916.433	19.91
916.864	13.81
917.295	11.31
917.726	17.81
918.157	13.41
918.587	24.61
919.018	20.11
919.449	18.11
919.88	20.31
920.311	29.21
920.741	46.41
921.172	158.41
921.603	146.41
922.033	69.51
922.464	42.71
922.895	18.61
923.325	20.11
923.756	14.51
924.186	13.71
924.617	21.91
925.047	41.21
925.478	48.01
925.908	38.21
926.338	25.01
926.769	23.21
927.199	14.21
927.629	11.41
928.06	15.11
928.49	9.91
928.92	9.61
929.35	9.71
929.78	13.91
930.21	2.01
930.641	1.41
931.071	10.21
931.501	3.71
931.931	10.61
932.361	7.91
932.791	4.91
933.221	0.31
933.651	0.81
934.08	15.81
934.51	30.01
934.94	9.91
935.37	10.41
935.8	6.61
936.229	7.71
936.659	8.61
937.089	1.31
937.519	9.71
937.948	20.81
938.378	12.71
938.807	1.01
939.237	6.01
939.666	14.31
940.096	-1.79
940.525	2.51
940.955	-1.69
941.384	4.71
941.814	-4.89
942.243	0.71
942.672	3.61
943.102	-1.49
943.531	-3.69
943.96	6.41
944.39	3.31
944.819	-0.19
945.248	5.21
945.677	1.21
946.106	3.91
946.535	2.71
946.964	-0.19
947.393	-5.49
947.822	0.51
948.251	-5.99
948.68	3.61
949.109	1.81
949.538	4.81
949.967	-0.79
950.396	-0.29
950.825	4.61
951.254	0.71
951.682	-4.69
952.111	-0.49
952.54	6.31
952.969	-4.79
953.397	-7.19
953.826	-2.79
954.254	-4.69
954.683	0.41
955.112	-6.89
955.54	1.21
955.969	0.21
956.397	-2.39
956.826	-4.39
957.254	2.81
957.682	3.11
958.111	6.81
958.539	-0.49
958.967	-2.29
959.396	4.21
959.824	-1.69
960.252	0.71
960.68	-10.59
961.109	-7.79
961.537	-0.69
961.965	0.71
962.393	1.61
962.821	-4.49
963.249	-0.29
963.677	7.21
964.105	5.71
964.533	39.31
964.961	40.81
965.389	23.51
965.817	1.41
966.245	0.61
966.672	-0.49
967.1	-3.59
967.528	2.91
967.956	1.71
968.383	-4.69
968.811	-11.09
969.239	-12.89
969.666	-3.99
970.094	1.51
970.522	-0.89
970.949	-0.09
971.377	-3.49
971.804	-4.99
972.232	-4.59
972.659	-0.39
973.087	-4.29
973.514	3.01
973.941	-6.49
974.369	-0.79
974.796	3.31
975.223	-2.09
975.651	-1.89
976.078	-2.09
976.505	0.51
976.932	-1.29
977.359	13.51
977.786	17.51
978.214	-3.59
978.641	2.21
979.068	-5.99
979.495	-10.29
979.922	-1.59
980.349	-1.19
980.776	-2.79
981.202	0.51
981.629	6.41
982.056	2.41
982.483	0.21
982.91	-3.29
983.337	-4.99
983.763	3.21
984.19	-2.99
984.617	-9.19
985.043	-4.69
985.47	-6.39
985.897	-6.89
986.323	-6.19
986.75	10.11
987.176	0.31
987.603	0.51
988.029	-4.29
988.456	-3.09
988.882	1.11
989.308	-7.09
989.735	-4.79
990.161	-0.19
990.587	-8.89
991.014	-4.69
991.44	3.81
991.866	-2.49
992.292	-3.79
992.719	-5.49
993.145	0.91
993.571	-12.09
993.997	-2.89
994.423	3.61
994.849	-6.29
995.275	1.81
995.701	-0.59
996.127	-1.89
996.553	3.51
996.979	-6.89
997.405	-3.19
997.83	-6.19
998.256	-11.79
998.682	-7.09
999.108	-8.49
999.534	2.31
999.959	-8.59
1000.385	-10.39
1000.811	1.71
1001.236	-8.09
1001.662	-6.19
1002.087	-9.79
1002.513	-0.69
1002.938	-3.79
1003.364	-3.69
1003.789	-3.29
1004.215	4.61
1004.64	-3.29
1005.066	1.21
1005.491	6.31
1005.916	-3.99
1006.342	-1.09
1006.767	-5.59
1007.192	2.81
1007.617	-6.69
1008.042	-7.29
1008.468	-8.59
1008.893	-10.99
1009.318	-4.49
1009.743	2.61
1010.168	-2.59
1010.593	-1.19
1011.018	-9.69
1011.443	-6.69
1011.868	0.91
1012.293	-3.39
1012.718	-6.49
1013.143	0.71
1013.567	0.61
1013.992	-3.39
1014.417	-14.99
1014.842	1.21
1015.267	1.21
1015.691	-3.19
1016.116	4.71
1016.541	-8.39
1016.965	2.31
1017.39	0.21
1017.814	-2.99
1018.239	-4.49
1018.663	-8.89
1019.088	-12.49
1019.512	-1.69
1019.937	-4.09
1020.361	-10.19
1020.785	-9.29
1021.21	-0.39
1021.634	-1.49
1022.058	2.11
1022.483	4.31
1022.907	2.21
1023.331	-4.29
1023.755	-3.69
1024.179	-3.89
1024.604	-11.59
1025.028	-6.29
1025.452	-4.99
1025.876	-0.49
1026.3	0.31
1026.724	-12.49
1027.148	-6.69
1027.572	-8.99
1027.996	-5.19
1028.42	-3.89
1028.843	-4.89
1029.267	-2.09
1029.691	-7.79
1030.115	-5.39
1030.539	-3.99
1030.962	-3.69
1031.386	-11.99
1031.81	0.61
1032.233	-4.69
1032.657	-1.49
1033.08	-5.59
1033.504	-2.79
1033.927	-2.89
1034.351	-6.89
1034.774	-10.49
1035.198	-6.09
1035.621	-8.49
1036.045	-4.69
1036.468	4.11
1036.891	-15.19
1037.315	-8.59
1037.738	-9.29
1038.161	-3.79
1038.584	-7.19
1039.008	-3.79
1039.431	1.31
1039.854	-1.89
1040.277	-9.99
1040.7	-12.69
1041.123	-0.29
1041.546	-9.59
1041.969	-3.89
1042.392	-4.29
1042.815	-3.59
1043.238	4.31
1043.661	4.91
1044.084	-5.49
1044.507	-9.69
1044.93	-0.79
1045.352	-2.99
1045.775	-2.39
1046.198	-2.39
1046.621	-4.99
1047.043	-4.49
1047.466	1.41
1047.889	-3.49
1048.311	-4.79
1048.734	-2.49
1049.156	0.71
1049.579	-2.69
1050.001	-9.29
1050.424	-2.09
1050.846	-3.39
1051.269	-6.49
1051.691	-5.19
1052.113	-3.59
1052.536	-2.59
1052.958	-7.19
1053.38	-6.09
1053.802	-6.79
1054.225	-3.29
1054.647	-7.39
1055.069	-7.19
1055.491	-3.09
1055.913	-9.49
1056.335	-1.79
1056.757	-7.19
1057.179	-3.39
1057.601	-3.49
1058.023	-6.49
1058.445	-8.59
1058.867	-6.29
1059.289	-2.69
1059.711	-8.99
1060.133	-3.39
1060.555	-3.29
1060.976	-7.89
1061.398	-10.79
1061.82	-10.29
1062.241	-3.09
1062.663	-5.99
1063.085	-4.19
1063.506	-1.89
1063.928	-6.99
1064.35	1.01
1064.771	-10.49
1065.193	-6.39
1065.614	-12.49
1066.035	-6.99
1066.457	-8.79
1066.878	-2.99
1067.3	-8.39
1067.721	-1.89
1068.142	-9.59
1068.564	-7.39
1068.985	-5.69
1069.406	-0.09
1069.827	1.91
1070.248	-3.19
1070.67	-3.29
1071.091	-4.29
1071.512	0.21
1071.933	2.31
1072.354	-5.99
1072.775	-7.79
1073.196	-9.09
1073.617	-4.09
1074.038	-10.09
1074.459	-6.69
1074.88	-10.49
1075.3	-3.49
1075.721	-6.59
1076.142	3.01
1076.563	-3.09
1076.983	-11.79
1077.404	-0.49
1077.825	-12.49
1078.246	-3.89
1078.666	-14.39
1079.087	-6.39
1079.507	-4.59
1079.928	-2.09
1080.348	-3.49
1080.769	-5.89
1081.189	-2.89
1081.61	-6.39
1082.03	-5.79
1082.451	-10.19
1082.871	-5.59
1083.291	-6.59
1083.711	-9.99
1084.132	-11.29
1084.552	-8.49
1084.972	-1.59
1085.392	-5.39
1085.813	-12.59
1086.233	-12.89
1086.653	-9.79
1087.073	-3.49
1087.493	-8.69
1087.913	-9.29
1088.333	-11.09
1088.753	-3.89
1089.173	-1.49
1089.593	-12.59
1090.013	-3.09
1090.433	4.91
1090.852	-0.89
1091.272	-4.99
1091.692	-3.89
1092.112	0.31
1092.531	-9.59
1092.951	-18.39
1093.371	-2.09
1093.79	-8.99
1094.21	-1.29
1094.63	-2.29
1095.049	-8.59
1095.469	-1.69
1095.888	-4.39
1096.308	-0.09
1096.727	1.81
1097.146	-7.09
1097.566	-3.89
1097.985	-6.99
1098.405	-3.49
1098.824	-9.09
1099.243	-12.69
1099.662	-7.59
1100.082	-1.09
1100.501	0.21
1100.92	-11.89
1101.339	-3.59
1101.758	-6.69
