Data from 20171114-ORNL-Ar_H_NY_Subt18_08-06-48-032.txt Node
Date: Tue Nov 14 08:06:48 EST 2017
User: Ender
Spectrometer: HR+D1039
Trigger mode: 0
Integration Time (sec): 2.730000E-2
Scans to average: 10
Electric dark correction enabled: true
Nonlinearity correction enabled: false
Boxcar width: 0
XAxis mode: Wavelengths
Number of Pixels in Spectrum: 2048
>>>>>Begin Spectral Data<<<<<
187.836	-0.12
188.309	-0.12
188.782	-0.12
189.255	0.48
189.728	-5.92
190.201	3.88
190.674	3.68
191.147	2.08
191.619	-7.32
192.092	2.78
192.565	7.48
193.038	-6.52
193.511	-2.32
193.984	-1.02
194.456	1.28
194.929	-0.92
195.402	0.58
195.874	1.88
196.347	-2.02
196.82	-3.02
197.292	2.38
197.765	-1.52
198.237	-7.62
198.71	2.58
199.182	-6.12
199.655	4.78
200.127	2.78
200.6	-5.62
201.072	-0.62
201.544	-7.52
202.017	-4.62
202.489	0.48
202.961	-0.62
203.433	-4.12
203.906	-8.72
204.378	-12.62
204.85	-6.72
205.322	-5.82
205.794	-5.72
206.266	-1.42
206.739	-6.92
207.211	1.38
207.683	-6.72
208.155	-4.32
208.627	-3.42
209.099	-0.92
209.57	-8.82
210.042	-9.82
210.514	1.98
210.986	-6.12
211.458	-5.62
211.93	-5.02
212.402	-0.42
212.873	-9.42
213.345	-8.92
213.817	-11.42
214.288	-1.42
214.76	-13.32
215.232	-4.62
215.703	-4.12
216.175	-4.62
216.646	-9.72
217.118	-5.92
217.589	-0.92
218.061	-2.62
218.532	-5.02
219.004	-6.22
219.475	-7.92
219.946	-6.02
220.418	-8.52
220.889	0.68
221.36	-1.42
221.832	-1.42
222.303	-7.52
222.774	-2.72
223.245	-12.22
223.717	-10.12
224.188	-10.02
224.659	-11.62
225.13	-5.32
225.601	-4.42
226.072	-1.52
226.543	-1.22
227.014	1.18
227.485	3.28
227.956	-5.62
228.427	-1.62
228.898	-1.12
229.369	0.88
229.839	-4.12
230.31	-2.02
230.781	1.68
231.252	-2.62
231.722	-2.82
232.193	-6.62
232.664	-6.42
233.135	1.18
233.605	-5.52
234.076	-8.42
234.546	-7.02
235.017	0.88
235.487	-5.62
235.958	-2.82
236.428	-5.52
236.899	-4.02
237.369	2.68
237.84	-9.62
238.31	4.88
238.78	-0.02
239.251	-7.32
239.721	-4.72
240.191	2.18
240.662	-7.42
241.132	-5.32
241.602	-9.32
242.072	0.98
242.542	3.58
243.013	-7.92
243.483	-0.42
243.953	-1.92
244.423	-8.12
244.893	-7.42
245.363	6.08
245.833	0.68
246.303	-4.42
246.773	0.88
247.243	1.08
247.712	-4.12
248.182	3.38
248.652	3.28
249.122	-9.02
249.592	-1.32
250.061	-0.62
250.531	9.68
251.001	-4.72
251.471	5.58
251.94	8.18
252.41	-2.22
252.879	-2.22
253.349	9.58
253.818	5.88
254.288	2.28
254.757	3.38
255.227	-6.62
255.696	-3.02
256.166	1.28
256.635	2.38
257.105	4.88
257.574	-1.32
258.043	2.98
258.513	-2.42
258.982	1.58
259.451	-1.82
259.92	-0.12
260.389	-2.12
260.859	9.68
261.328	1.68
261.797	4.08
262.266	3.48
262.735	10.08
263.204	2.28
263.673	-4.92
264.142	0.98
264.611	-5.12
265.08	-0.42
265.549	-0.52
266.018	5.58
266.487	3.18
266.955	-6.42
267.424	2.48
267.893	7.68
268.362	2.38
268.83	-1.92
269.299	8.88
269.768	4.38
270.236	7.58
270.705	-4.02
271.174	-1.42
271.642	3.08
272.111	-0.62
272.579	-0.22
273.048	1.28
273.516	4.28
273.985	3.58
274.453	7.08
274.922	9.88
275.39	9.08
275.858	3.58
276.327	4.78
276.795	20.68
277.263	8.88
277.731	9.18
278.2	6.38
278.668	0.38
279.136	12.78
279.604	-2.72
280.072	9.08
280.54	10.78
281.008	6.88
281.477	13.18
281.945	11.08
282.413	12.18
282.881	10.78
283.348	4.08
283.816	10.28
284.284	17.58
284.752	17.28
285.22	6.28
285.688	9.08
286.156	10.28
286.623	10.48
287.091	9.38
287.559	16.08
288.026	13.08
288.494	12.18
288.962	2.78
289.429	10.28
289.897	17.98
290.364	11.18
290.832	14.58
291.3	11.68
291.767	12.28
292.234	18.18
292.702	12.58
293.169	8.48
293.637	24.18
294.104	15.98
294.571	3.48
295.039	6.58
295.506	16.08
295.973	17.18
296.44	9.38
296.908	13.38
297.375	12.28
297.842	19.48
298.309	11.28
298.776	8.08
299.243	18.48
299.71	14.48
300.177	20.08
300.644	17.08
301.111	16.18
301.578	15.18
302.045	15.38
302.512	19.38
302.979	26.28
303.446	19.88
303.913	14.98
304.379	13.48
304.846	22.58
305.313	15.68
305.78	17.98
306.246	28.58
306.713	18.08
307.18	20.98
307.646	24.58
308.113	23.18
308.579	19.58
309.046	29.88
309.512	24.58
309.979	15.58
310.445	24.18
310.912	27.68
311.378	28.08
311.845	24.48
312.311	27.08
312.777	27.68
313.244	28.78
313.71	38.08
314.176	32.88
314.642	20.58
315.109	24.38
315.575	34.38
316.041	29.88
316.507	30.68
316.973	28.78
317.439	29.68
317.905	34.68
318.371	34.38
318.837	24.68
319.303	30.28
319.769	31.08
320.235	26.78
320.701	31.38
321.167	30.88
321.633	27.78
322.099	26.58
322.564	35.78
323.03	36.58
323.496	35.28
323.962	32.38
324.427	31.78
324.893	34.98
325.359	37.28
325.824	36.68
326.29	35.88
326.755	34.58
327.221	32.08
327.686	41.48
328.152	47.88
328.617	38.68
329.083	41.88
329.548	45.18
330.014	47.88
330.479	36.78
330.944	48.28
331.41	43.18
331.875	44.08
332.34	35.78
332.805	41.28
333.271	44.58
333.736	33.48
334.201	48.98
334.666	48.98
335.131	49.98
335.596	46.38
336.061	44.68
336.526	41.48
336.991	44.28
337.456	46.68
337.921	42.58
338.386	50.58
338.851	43.38
339.316	45.28
339.781	43.88
340.246	44.78
340.711	46.08
341.175	52.18
341.64	47.38
342.105	50.28
342.569	52.18
343.034	50.98
343.499	54.48
343.963	51.68
344.428	61.78
344.893	58.48
345.357	62.58
345.822	58.28
346.286	65.88
346.751	66.08
347.215	60.98
347.679	72.38
348.144	89.38
348.608	74.28
349.073	70.58
349.537	65.98
350.001	72.48
350.465	89.28
350.93	79.78
351.394	76.48
351.858	75.58
352.322	79.28
352.786	80.58
353.25	96.38
353.715	101.88
354.179	93.88
354.643	111.48
355.107	111.48
355.571	98.58
356.035	94.38
356.498	110.68
356.962	108.98
357.426	116.18
357.89	110.48
358.354	89.48
358.818	80.78
359.281	80.78
359.745	69.88
360.209	70.28
360.673	67.58
361.136	74.68
361.6	82.58
362.064	80.88
362.527	79.08
362.991	89.38
363.454	82.28
363.918	69.78
364.381	75.58
364.845	81.68
365.308	85.48
365.772	85.78
366.235	87.38
366.698	85.78
367.162	80.88
367.625	80.18
368.088	84.08
368.552	89.48
369.015	80.68
369.478	86.78
369.941	94.58
370.404	88.68
370.867	98.58
371.331	94.38
371.794	104.58
372.257	100.38
372.72	101.78
373.183	96.48
373.646	87.08
374.109	90.88
374.572	100.58
375.035	97.98
375.497	99.28
375.96	105.78
376.423	98.48
376.886	113.58
377.349	107.08
377.811	103.88
378.274	99.48
378.737	92.58
379.199	104.08
379.662	102.78
380.125	110.18
380.587	105.18
381.05	110.18
381.512	111.58
381.975	122.98
382.437	117.98
382.9	119.18
383.362	122.98
383.825	130.08
384.287	123.38
384.75	117.98
385.212	119.88
385.674	127.78
386.136	134.38
386.599	119.28
387.061	121.08
387.523	114.68
387.985	122.08
388.447	131.38
388.91	126.28
389.372	131.08
389.834	127.88
390.296	126.38
390.758	124.88
391.22	137.88
391.682	146.68
392.144	142.58
392.606	150.38
393.068	139.98
393.529	155.58
393.991	141.58
394.453	131.28
394.915	128.78
395.377	132.88
395.838	142.98
396.3	138.08
396.762	140.08
397.224	137.08
397.685	133.98
398.147	136.58
398.608	129.58
399.07	133.88
399.531	138.68
399.993	152.08
400.454	156.38
400.916	156.18
401.377	149.38
401.839	157.68
402.3	154.78
402.762	169.88
403.223	176.58
403.684	178.38
404.145	168.68
404.607	165.58
405.068	164.78
405.529	166.98
405.99	189.78
406.451	182.28
406.913	183.18
407.374	165.28
407.835	167.58
408.296	171.58
408.757	172.38
409.218	188.78
409.679	180.18
410.14	182.78
410.601	173.78
411.062	181.88
411.522	188.68
411.983	187.18
412.444	179.58
412.905	181.88
413.366	189.28
413.826	203.58
414.287	228.88
414.748	274.98
415.208	250.58
415.669	220.38
416.13	210.48
416.59	208.08
417.051	223.98
417.511	224.18
417.972	254.78
418.432	259.98
418.893	306.08
419.353	266.38
419.814	214.28
420.274	191.38
420.734	182.68
421.195	201.58
421.655	198.88
422.115	192.88
422.576	199.48
423.036	203.58
423.496	219.28
423.956	226.88
424.416	237.88
424.876	275.78
425.336	274.08
425.797	264.58
426.257	259.08
426.717	250.28
427.177	234.58
427.637	236.18
428.097	245.08
428.556	250.98
429.016	270.28
429.476	273.78
429.936	275.38
430.396	275.58
430.856	292.38
431.315	311.28
431.775	351.48
432.235	378.58
432.694	348.28
433.154	372.78
433.614	390.78
434.073	350.38
434.533	296.48
434.993	278.88
435.452	290.68
435.912	302.18
436.371	296.98
436.83	294.88
437.29	280.88
437.749	258.78
438.209	250.48
438.668	280.88
439.127	298.08
439.587	272.68
440.046	257.98
440.505	272.98
440.964	283.98
441.424	329.08
441.883	319.78
442.342	278.08
442.801	239.78
443.26	235.48
443.719	235.18
444.178	229.18
444.637	217.58
445.096	234.78
445.555	237.28
446.014	238.38
446.473	244.18
446.932	246.18
447.391	241.88
447.849	239.88
448.308	242.48
448.767	236.98
449.226	252.68
449.685	255.18
450.143	263.38
450.602	252.48
451.061	237.68
451.519	242.98
451.978	254.78
452.436	244.88
452.895	259.68
453.353	268.18
453.812	260.88
454.27	252.18
454.729	252.08
455.187	251.98
455.646	263.38
456.104	270.58
456.562	282.68
457.021	279.28
457.479	280.18
457.937	292.18
458.395	286.68
458.854	269.88
459.312	269.28
459.77	294.38
460.228	277.28
460.686	260.08
461.144	264.48
461.602	260.58
462.06	256.28
462.518	271.28
462.976	274.08
463.434	284.68
463.892	285.58
464.35	301.08
464.808	305.18
465.266	290.58
465.724	292.18
466.181	289.88
466.639	282.38
467.097	304.58
467.555	315.28
468.012	324.28
468.47	332.68
468.928	345.78
469.385	359.98
469.843	367.78
470.3	379.68
470.758	392.98
471.215	412.08
471.673	427.98
472.13	425.58
472.588	446.18
473.045	395.68
473.503	406.18
473.96	422.18
474.417	429.88
474.875	465.88
475.332	501.68
475.789	489.78
476.246	485.38
476.704	513.08
477.161	540.68
477.618	546.58
478.075	587.48
478.532	649.78
478.989	722.18
479.446	822.98
479.903	782.88
480.36	825.48
480.817	870.08
481.274	965.28
481.731	1047.98
482.188	1124.58
482.645	1260.58
483.102	1346.38
483.558	1478.98
484.015	1514.78
484.472	1481.18
484.929	1446.68
485.385	1395.48
485.842	1376.78
486.299	1323.48
486.755	1278.68
487.212	1081.78
487.668	931.28
488.125	859.78
488.582	789.38
489.038	764.88
489.494	734.58
489.951	712.08
490.407	702.28
490.864	681.48
491.32	669.78
491.776	663.38
492.233	677.98
492.689	644.48
493.145	635.28
493.602	623.38
494.058	636.08
494.514	650.78
494.97	666.58
495.426	678.48
495.882	643.28
496.338	643.28
496.794	658.18
497.251	651.08
497.707	663.58
498.163	666.98
498.618	678.58
499.074	678.98
499.53	708.58
499.986	710.28
500.442	686.38
500.898	660.98
501.354	644.48
501.809	649.08
502.265	661.98
502.721	673.78
503.177	667.38
503.632	684.28
504.088	678.48
504.543	703.58
504.999	722.68
505.455	693.58
505.91	672.28
506.366	674.48
506.821	672.18
507.277	673.38
507.732	677.08
508.187	666.68
508.643	672.28
509.098	683.98
509.553	700.38
510.009	722.18
510.464	725.28
510.919	735.08
511.375	736.28
511.83	757.28
512.285	762.08
512.74	809.28
513.195	821.98
513.65	818.48
514.105	808.38
514.56	815.78
515.015	834.38
515.47	843.98
515.925	826.88
516.38	825.08
516.835	838.58
517.29	829.58
517.745	826.28
518.2	813.98
518.655	800.88
519.109	794.38
519.564	790.08
520.019	774.98
520.474	771.08
520.928	767.58
521.383	761.48
521.838	761.78
522.292	758.78
522.747	753.78
523.201	755.68
523.656	746.38
524.11	737.78
524.565	734.48
525.019	732.58
525.474	735.98
525.928	741.38
526.382	738.28
526.837	745.58
527.291	747.28
527.745	736.98
528.2	733.98
528.654	736.88
529.108	736.88
529.562	742.98
530.016	734.48
530.47	731.38
530.925	742.28
531.379	742.18
531.833	743.28
532.287	735.58
532.741	746.08
533.195	743.58
533.649	748.38
534.103	762.88
534.556	744.18
535.01	755.78
535.464	757.38
535.918	756.68
536.372	759.18
536.826	762.08
537.279	743.08
537.733	753.48
538.187	758.08
538.64	756.18
539.094	762.18
539.548	780.38
540.001	757.08
540.455	767.88
540.908	770.28
541.362	777.78
541.815	787.18
542.269	806.28
542.722	797.38
543.175	814.88
543.629	819.68
544.082	830.38
544.536	836.88
544.989	840.08
545.442	853.18
545.895	838.28
546.349	841.88
546.802	836.08
547.255	844.88
547.708	853.38
548.161	868.78
548.614	876.08
549.067	879.48
549.52	867.78
549.973	865.98
550.426	851.88
550.879	847.78
551.332	851.68
551.785	853.78
552.238	854.08
552.691	869.88
553.144	894.18
553.596	913.68
554.049	922.08
554.502	954.98
554.955	973.68
555.407	959.08
555.86	957.08
556.313	950.48
556.765	943.98
557.218	935.58
557.67	942.58
558.123	923.48
558.576	933.68
559.028	937.98
559.48	944.08
559.933	920.18
560.385	890.18
560.838	863.08
561.29	837.98
561.742	823.48
562.195	810.08
562.647	814.68
563.099	813.08
563.551	823.88
564.004	831.68
564.456	813.88
564.908	795.58
565.36	782.38
565.812	782.08
566.264	764.88
566.716	751.38
567.168	751.58
567.62	754.38
568.072	746.08
568.524	730.38
568.976	727.38
569.428	716.98
569.88	710.58
570.332	727.98
570.784	725.68
571.235	723.38
571.687	743.68
572.139	751.68
572.59	751.18
573.042	746.08
573.494	764.58
573.945	751.28
574.397	732.58
574.849	730.48
575.3	734.58
575.752	716.68
576.203	715.08
576.655	727.98
577.106	710.08
577.557	704.48
578.009	709.08
578.46	700.68
578.912	706.78
579.363	705.98
579.814	703.88
580.265	697.58
580.717	702.98
581.168	703.68
581.619	714.98
582.07	724.48
582.521	713.08
582.972	703.78
583.423	713.08
583.875	719.58
584.326	720.58
584.777	732.98
585.227	754.48
585.678	769.78
586.129	788.58
586.58	808.28
587.031	823.78
587.482	863.88
587.933	885.68
588.384	864.08
588.834	822.88
589.285	812.48
589.736	820.58
590.186	807.88
590.637	813.88
591.088	776.58
591.538	771.38
591.989	773.18
592.439	762.98
592.89	753.18
593.34	745.58
593.791	743.58
594.241	734.38
594.692	729.58
595.142	734.78
595.593	729.38
596.043	730.68
596.493	743.78
596.943	741.98
597.394	752.28
597.844	753.28
598.294	779.38
598.744	799.38
599.195	815.38
599.645	860.98
600.095	904.08
600.545	967.98
600.995	1016.78
601.445	1082.98
601.895	1141.38
602.345	1196.08
602.795	1178.08
603.245	1121.48
603.695	1066.38
604.145	1012.48
604.594	968.98
605.044	913.88
605.494	845.68
605.944	804.48
606.393	778.98
606.843	769.08
607.293	772.98
607.743	761.28
608.192	773.78
608.642	794.98
609.091	800.78
609.541	795.58
609.99	788.88
610.44	787.78
610.889	747.38
611.339	719.88
611.788	709.48
612.238	714.28
612.687	736.48
613.136	735.78
613.586	740.28
614.035	733.08
614.484	742.88
614.933	742.28
615.383	739.28
615.832	736.48
616.281	728.48
616.73	690.08
617.179	683.18
617.628	661.08
618.077	658.48
618.526	656.18
618.975	648.28
619.424	639.58
619.873	631.88
620.322	650.48
620.771	636.48
621.22	632.48
621.669	622.08
622.118	610.78
622.567	601.38
623.015	593.98
623.464	590.98
623.913	580.28
624.361	573.78
624.81	573.28
625.259	587.78
625.707	580.68
626.156	584.78
626.604	597.28
627.053	589.98
627.501	593.08
627.95	590.38
628.398	607.18
628.847	589.18
629.295	592.78
629.744	610.68
630.192	597.38
630.64	580.58
631.089	573.78
631.537	561.88
631.985	545.88
632.433	559.48
632.881	543.68
633.33	546.68
633.778	538.68
634.226	547.08
634.674	557.08
635.122	561.58
635.57	570.38
636.018	577.48
636.466	583.78
636.914	580.18
637.362	597.08
637.81	599.08
638.258	606.78
638.705	602.08
639.153	636.58
639.601	655.18
640.049	671.08
640.497	702.58
640.944	716.58
641.392	671.48
641.84	644.28
642.287	611.58
642.735	580.48
643.182	587.18
643.63	573.48
644.078	592.78
644.525	593.48
644.973	596.28
645.42	610.28
645.867	633.28
646.315	668.18
646.762	677.98
647.21	699.38
647.657	727.08
648.104	765.58
648.551	773.98
648.999	838.68
649.446	915.38
649.893	995.38
650.34	1142.58
650.787	1363.38
651.234	1662.88
651.682	2124.08
652.129	2891.88
652.576	4108.88
653.023	5956.18
653.47	8125.78
653.917	10036.18
654.363	11607.48
654.81	12800.98
655.257	12116.48
655.704	8042.58
656.151	4860.78
656.598	3203.18
657.044	2291.08
657.491	1779.48
657.938	1440.88
658.385	1207.18
658.831	1060.18
659.278	949.48
659.724	846.88
660.171	792.28
660.618	713.08
661.064	694.98
661.511	682.08
661.957	662.28
662.404	661.58
662.85	658.68
663.296	643.08
663.743	574.68
664.189	554.98
664.635	544.28
665.082	541.58
665.528	541.18
665.974	534.08
666.42	517.28
666.867	518.58
667.313	497.18
667.759	479.18
668.205	463.98
668.651	472.48
669.097	462.58
669.543	462.88
669.989	463.88
670.435	469.98
670.881	465.68
671.327	461.18
671.773	486.68
672.219	512.78
672.665	566.48
673.11	603.58
673.556	650.78
674.002	695.08
674.448	686.68
674.893	580.48
675.339	499.38
675.785	451.38
676.23	431.78
676.676	407.28
677.122	399.68
677.567	397.88
678.013	380.88
678.458	375.68
678.904	377.08
679.349	371.38
679.794	373.98
680.24	370.38
680.685	359.78
681.131	362.88
681.576	365.38
682.021	374.58
682.466	368.78
682.912	358.38
683.357	372.18
683.802	393.58
684.247	426.98
684.692	477.18
685.137	515.58
685.583	562.08
686.028	585.98
686.473	538.38
686.918	458.08
687.363	432.58
687.807	409.98
688.252	383.58
688.697	371.28
689.142	351.08
689.587	349.08
690.032	343.08
690.477	361.58
690.921	364.88
691.366	399.88
691.811	414.18
692.255	458.68
692.7	481.88
693.145	523.78
693.589	735.28
694.034	1193.48
694.478	1629.18
694.923	1823.78
695.367	2379.68
695.812	1264.48
696.256	510.68
696.701	379.98
697.145	363.98
697.59	338.68
698.034	336.08
698.478	341.88
698.922	329.88
699.367	329.88
699.811	349.38
700.255	363.18
700.699	401.78
701.143	440.08
701.588	488.38
702.032	536.38
702.476	536.48
702.92	516.28
703.364	517.28
703.808	676.18
704.252	1094.28
704.696	1524.08
705.14	1760.28
705.584	2240.18
706.027	1114.08
706.471	553.18
706.915	416.88
707.359	375.88
707.803	331.58
708.246	328.38
708.69	326.08
709.134	325.88
709.577	325.68
710.021	332.88
710.465	315.88
710.908	304.18
711.352	309.38
711.795	323.08
712.239	374.18
712.682	400.58
713.126	424.78
713.569	472.48
714.012	375.68
714.456	319.68
714.899	298.88
715.342	287.48
715.786	276.48
716.229	274.68
716.672	277.38
717.115	260.18
717.558	256.48
718.002	264.48
718.445	273.58
718.888	300.58
719.331	295.18
719.774	313.88
720.217	309.38
720.66	294.68
721.103	280.18
721.546	266.28
721.989	259.48
722.432	239.98
722.874	240.38
723.317	241.08
723.76	235.88
724.203	264.88
724.645	331.68
725.088	461.38
725.531	595.78
725.974	670.58
726.416	564.98
726.859	323.78
727.301	253.98
727.744	245.08
728.187	243.28
728.629	247.68
729.071	261.08
729.514	267.58
729.956	281.78
730.399	288.98
730.841	304.48
731.283	288.98
731.726	281.98
732.168	279.68
732.61	280.18
733.053	302.08
733.495	330.98
733.937	366.08
734.379	412.98
734.821	458.28
735.263	574.98
735.705	883.98
736.148	1674.48
736.59	2720.88
737.032	3237.08
737.474	2619.28
737.916	854.18
738.357	453.78
738.799	339.88
739.241	307.18
739.683	291.38
740.125	300.78
740.567	305.68
741.008	327.98
741.45	326.38
741.892	331.98
742.334	362.98
742.775	377.38
743.217	367.08
743.658	286.78
744.1	274.28
744.542	282.38
744.983	339.38
745.425	372.78
745.866	359.88
746.307	287.28
746.749	288.08
747.19	338.18
747.632	479.78
748.073	934.08
748.514	1963.38
748.956	2996.38
749.397	3759.38
749.838	3136.58
750.279	3096.18
750.72	1577.78
751.162	577.18
751.603	341.58
752.044	266.98
752.485	231.18
752.926	212.88
753.367	212.08
753.808	207.38
754.249	196.48
754.69	193.88
755.131	190.08
755.572	189.68
756.013	192.08
756.453	182.58
756.894	200.48
757.335	202.78
757.776	203.08
758.216	205.08
758.657	204.68
759.098	214.48
759.538	229.88
759.979	281.18
760.42	392.38
760.86	740.18
761.301	1926.68
761.741	4662.78
762.182	6753.48
762.622	4755.98
763.063	1376.18
763.503	565.38
763.943	343.88
764.384	288.58
764.824	257.58
765.264	249.38
765.705	217.78
766.145	189.38
766.585	189.78
767.025	171.78
767.465	166.08
767.906	183.08
768.346	203.08
768.786	210.48
769.226	227.48
769.666	318.58
770.106	643.88
770.546	1639.88
770.986	2783.58
771.426	2486.28
771.866	823.78
772.306	332.98
772.745	215.88
773.185	174.08
773.625	158.38
774.065	153.08
774.505	165.88
774.944	204.18
775.384	372.58
775.824	616.38
776.263	596.48
776.703	294.58
777.142	167.78
777.582	140.58
778.021	130.18
778.461	124.58
778.9	128.88
779.34	123.58
779.779	117.88
780.219	112.68
780.658	106.48
781.097	112.88
781.537	115.78
781.976	114.38
782.415	106.18
782.855	104.28
783.294	108.48
783.733	110.88
784.172	110.28
784.611	102.58
785.05	114.88
785.489	113.08
785.928	122.28
786.367	120.48
786.806	115.88
787.245	131.68
787.684	148.48
788.123	148.98
788.562	141.18
789.001	131.78
789.44	125.28
789.879	117.68
790.317	121.08
790.756	129.78
791.195	134.58
791.634	154.08
792.072	206.88
792.511	376.58
792.95	1052.08
793.388	2225.58
793.827	1998.18
794.265	699.18
794.704	289.08
795.142	187.48
795.581	162.98
796.019	142.78
796.458	136.28
796.896	126.08
797.334	135.98
797.773	159.18
798.211	230.88
798.649	467.08
799.087	1069.48
799.526	1674.28
799.964	2115.08
800.402	2099.18
800.84	797.98
801.278	318.08
801.716	192.48
802.154	165.18
802.592	151.08
803.03	145.88
803.468	137.18
803.906	146.68
804.344	156.08
804.782	145.88
805.22	139.58
805.658	132.58
806.096	156.08
806.533	162.48
806.971	179.68
807.409	226.48
807.847	332.28
808.284	705.48
808.722	1969.08
809.16	3467.58
809.597	3313.98
810.035	5719.18
810.472	6089.28
810.91	2202.28
811.347	834.88
811.785	430.58
812.222	275.98
812.66	212.28
813.097	172.28
813.535	150.28
813.972	133.98
814.409	123.58
814.846	111.98
815.284	113.88
815.721	106.18
816.158	104.58
816.595	111.08
817.032	162.38
817.47	183.28
817.907	149.88
818.344	105.98
818.781	100.68
819.218	104.68
819.655	126.08
820.092	197.88
820.529	229.88
820.966	179.18
821.403	131.68
821.839	104.68
822.276	102.48
822.713	127.78
823.15	144.28
823.587	121.98
824.023	149.18
824.46	318.98
824.897	937.98
825.333	1428.78
825.77	613.58
826.206	253.88
826.643	145.08
827.08	107.18
827.516	78.98
827.953	80.48
828.389	89.38
828.825	70.58
829.262	67.28
829.698	63.58
830.135	63.98
830.571	66.18
831.007	63.58
831.443	68.08
831.88	65.38
832.316	60.78
832.752	64.18
833.188	71.28
833.624	67.88
834.06	67.28
834.497	71.68
834.933	73.18
835.369	80.88
835.805	77.18
836.241	80.88
836.677	78.18
837.112	87.38
837.548	106.68
837.984	135.98
838.42	216.08
838.856	527.08
839.292	1591.18
839.727	2409.88
840.163	1135.78
840.599	969.78
841.034	2126.88
841.47	2229.08
841.906	819.48
842.341	342.48
842.777	213.48
843.212	207.98
843.648	191.88
844.083	119.98
844.519	87.58
844.954	80.28
845.39	63.08
845.825	61.18
846.261	58.78
846.696	62.78
847.131	55.68
847.566	59.98
848.002	55.98
848.437	53.48
848.872	67.58
849.307	74.88
849.742	89.98
850.177	190.38
850.613	577.98
851.048	918.38
851.483	400.18
851.918	168.48
852.353	91.78
852.788	64.58
853.223	48.18
853.657	51.28
854.092	49.78
854.527	43.88
854.962	46.18
855.397	46.88
855.832	51.18
856.266	50.38
856.701	42.88
857.136	40.48
857.57	43.58
858.005	47.08
858.44	62.78
858.874	46.88
859.309	61.78
859.743	44.98
860.178	46.68
860.612	45.98
861.047	49.28
861.481	75.28
861.915	80.68
862.35	56.38
862.784	46.58
863.218	38.08
863.653	34.58
864.087	42.48
864.521	56.48
864.955	73.68
865.39	162.18
865.824	180.88
866.258	121.28
866.692	171.08
867.126	196.08
867.56	115.08
867.994	54.98
868.428	43.08
868.862	52.38
869.296	63.08
869.73	60.58
870.164	53.98
870.598	50.08
871.031	45.78
871.465	34.78
871.899	37.38
872.333	29.18
872.766	26.68
873.2	27.08
873.634	26.08
874.067	29.38
874.501	33.88
874.935	30.28
875.368	30.08
875.802	25.48
876.235	28.58
876.669	30.28
877.102	26.08
877.535	26.58
877.969	26.58
878.402	24.38
878.836	12.88
879.269	26.58
879.702	22.78
880.135	24.18
880.569	23.48
881.002	28.48
881.435	22.48
881.868	19.88
882.301	27.98
882.734	17.18
883.167	27.48
883.601	21.88
884.034	21.28
884.467	12.58
884.899	13.68
885.332	19.38
885.765	14.08
886.198	17.38
886.631	15.18
887.064	19.18
887.497	24.48
887.929	32.98
888.362	15.48
888.795	17.28
889.228	17.78
889.66	21.88
890.093	14.78
890.526	14.58
890.958	16.98
891.391	17.78
891.823	22.98
892.256	13.38
892.688	15.28
893.121	17.18
893.553	15.78
893.985	23.18
894.418	22.78
894.85	12.38
895.282	14.68
895.715	17.28
896.147	12.98
896.579	19.08
897.011	11.08
897.444	21.88
897.876	11.38
898.308	15.58
898.74	17.88
899.172	15.08
899.604	25.38
900.036	20.08
900.468	21.38
900.9	17.28
901.332	17.48
901.764	12.78
902.196	17.38
902.628	20.18
903.06	20.18
903.491	24.58
903.923	23.08
904.355	21.88
904.787	23.88
905.218	25.58
905.65	19.88
906.082	6.38
906.513	11.28
906.945	16.48
907.376	14.98
907.808	18.68
908.239	20.48
908.671	18.68
909.102	20.98
909.534	23.08
909.965	47.58
910.397	99.38
910.828	334.08
911.259	496.38
911.691	232.28
912.122	112.38
912.553	55.88
912.984	41.28
913.415	25.38
913.847	25.68
914.278	16.78
914.709	17.58
915.14	19.08
915.571	16.08
916.002	18.48
916.433	12.98
916.864	18.18
917.295	15.48
917.726	16.48
918.157	14.88
918.587	26.88
919.018	26.48
919.449	27.38
919.88	21.38
920.311	37.68
920.741	55.48
921.172	174.18
921.603	161.38
922.033	76.38
922.464	49.28
922.895	21.18
923.325	12.88
923.756	13.38
924.186	7.68
924.617	16.88
925.047	19.18
925.478	22.88
925.908	21.08
926.338	11.08
926.769	16.58
927.199	14.18
927.629	8.48
928.06	18.08
928.49	16.78
928.92	9.58
929.35	12.38
929.78	12.18
930.21	7.38
930.641	11.28
931.071	9.48
931.501	-3.52
931.931	6.18
932.361	5.68
932.791	3.68
933.221	8.78
933.651	3.08
934.08	18.28
934.51	27.88
934.94	4.68
935.37	8.18
935.8	7.28
936.229	8.98
936.659	12.48
937.089	3.28
937.519	12.28
937.948	20.28
938.378	18.08
938.807	1.88
939.237	4.98
939.666	2.88
940.096	-4.22
940.525	1.28
940.955	4.38
941.384	6.58
941.814	-8.52
942.243	-0.02
942.672	1.88
943.102	-2.62
943.531	-2.22
943.96	2.98
944.39	-0.32
944.819	-0.62
945.248	1.88
945.677	1.88
946.106	5.18
946.535	5.78
946.964	4.48
947.393	1.58
947.822	2.78
948.251	-6.02
948.68	7.08
949.109	6.08
949.538	8.18
949.967	1.98
950.396	1.18
950.825	1.68
951.254	-1.32
951.682	-5.12
952.111	2.08
952.54	4.08
952.969	-6.02
953.397	-3.02
953.826	1.88
954.254	-1.82
954.683	2.98
955.112	-0.92
955.54	3.18
955.969	-7.32
956.397	4.98
956.826	-3.72
957.254	5.78
957.682	5.08
958.111	3.88
958.539	2.58
958.967	-0.22
959.396	-6.12
959.824	-1.62
960.252	1.38
960.68	-8.82
961.109	-6.22
961.537	-0.12
961.965	-0.32
962.393	3.38
962.821	-4.62
963.249	2.28
963.677	4.68
964.105	8.78
964.533	47.78
964.961	42.38
965.389	26.08
965.817	4.28
966.245	-2.62
966.672	-4.52
967.1	-7.12
967.528	0.08
967.956	-0.52
968.383	7.08
968.811	-1.12
969.239	-8.52
969.666	-3.12
970.094	3.58
970.522	-3.32
970.949	3.88
971.377	-9.82
971.804	-4.32
972.232	0.38
972.659	-1.72
973.087	-1.52
973.514	-3.32
973.941	-1.22
974.369	3.98
974.796	1.18
975.223	-2.52
975.651	-2.62
976.078	-0.62
976.505	-0.22
976.932	-1.02
977.359	18.78
977.786	11.68
978.214	-2.32
978.641	-4.12
979.068	-4.92
979.495	-4.72
979.922	-3.32
980.349	2.18
980.776	8.88
981.202	5.48
981.629	5.78
982.056	9.48
982.483	-1.42
982.91	0.58
983.337	-4.62
983.763	0.98
984.19	-6.22
984.617	-6.12
985.043	-3.82
985.47	5.78
985.897	-4.22
986.323	-11.22
986.75	-1.92
987.176	-3.12
987.603	-1.32
988.029	-4.32
988.456	-6.52
988.882	3.48
989.308	-5.32
989.735	0.38
990.161	-0.62
990.587	-4.22
991.014	1.28
991.44	6.18
991.866	-0.52
992.292	-0.52
992.719	-0.12
993.145	1.28
993.571	-7.02
993.997	-1.82
994.423	-1.32
994.849	-3.22
995.275	1.28
995.701	-0.42
996.127	-8.02
996.553	-2.22
996.979	-3.42
997.405	-2.02
997.83	-5.52
998.256	-5.42
998.682	-5.32
999.108	-9.42
999.534	1.58
999.959	1.58
1000.385	-4.52
1000.811	-0.82
1001.236	-8.12
1001.662	-2.22
1002.087	-12.62
1002.513	0.88
1002.938	0.08
1003.364	-6.62
1003.789	-6.02
1004.215	9.18
1004.64	-1.32
1005.066	5.78
1005.491	-0.62
1005.916	1.18
1006.342	-2.12
1006.767	-12.12
1007.192	7.88
1007.617	-8.82
1008.042	-8.92
1008.468	-7.22
1008.893	-6.02
1009.318	-1.62
1009.743	-7.12
1010.168	1.28
1010.593	1.28
1011.018	-4.42
1011.443	-8.62
1011.868	-3.92
1012.293	-7.62
1012.718	-7.12
1013.143	-0.82
1013.567	-3.42
1013.992	-6.12
1014.417	-15.52
1014.842	-1.12
1015.267	-8.12
1015.691	-0.82
1016.116	3.28
1016.541	-1.72
1016.965	4.28
1017.39	1.18
1017.814	1.38
1018.239	0.68
1018.663	-9.12
1019.088	-8.02
1019.512	-4.22
1019.937	-0.82
1020.361	-6.42
1020.785	-17.32
1021.21	-4.62
1021.634	1.78
1022.058	-2.02
1022.483	9.18
1022.907	-3.32
1023.331	-5.72
1023.755	-2.32
1024.179	3.08
1024.604	-6.62
1025.028	-6.62
1025.452	-4.92
1025.876	-5.42
1026.3	1.68
1026.724	-10.32
1027.148	-2.02
1027.572	-6.12
1027.996	-3.72
1028.42	-1.82
1028.843	-3.72
1029.267	-7.42
1029.691	1.18
1030.115	-7.72
1030.539	-7.12
1030.962	0.08
1031.386	-12.22
1031.81	-3.02
1032.233	0.68
1032.657	-1.22
1033.08	-3.22
1033.504	-1.12
1033.927	-5.92
1034.351	3.68
1034.774	-5.32
1035.198	-0.62
1035.621	-5.92
1036.045	-11.02
1036.468	-1.52
1036.891	-5.62
1037.315	-5.82
1037.738	-8.82
1038.161	5.68
1038.584	-4.42
1039.008	-7.92
1039.431	-3.82
1039.854	-2.42
1040.277	-2.02
1040.7	-7.62
1041.123	-3.72
1041.546	-0.62
1041.969	-5.92
1042.392	-6.22
1042.815	-7.12
1043.238	2.18
1043.661	6.18
1044.084	-7.42
1044.507	-7.12
1044.93	-7.02
1045.352	-6.02
1045.775	-2.22
1046.198	-1.12
1046.621	4.38
1047.043	-1.32
1047.466	3.58
1047.889	-0.92
1048.311	-1.52
1048.734	-3.62
1049.156	-2.22
1049.579	-1.12
1050.001	-3.32
1050.424	-3.72
1050.846	-7.42
1051.269	-2.42
1051.691	-11.22
1052.113	-9.62
1052.536	-6.32
1052.958	-4.52
1053.38	-8.42
1053.802	-12.72
1054.225	-2.72
1054.647	-12.72
1055.069	-5.12
1055.491	1.38
1055.913	-10.62
1056.335	-4.72
1056.757	-0.92
1057.179	-6.72
1057.601	-8.02
1058.023	-4.22
1058.445	-7.02
1058.867	0.68
1059.289	-0.12
1059.711	-5.62
1060.133	-1.72
1060.555	-2.52
1060.976	-7.62
1061.398	-5.92
1061.82	-9.22
1062.241	-7.32
1062.663	-11.12
1063.085	-5.22
1063.506	-1.42
1063.928	-4.22
1064.35	-3.32
1064.771	-7.52
1065.193	-0.42
1065.614	-7.92
1066.035	-5.42
1066.457	-3.72
1066.878	7.08
1067.3	-7.02
1067.721	-5.12
1068.142	-3.62
1068.564	-4.52
1068.985	-6.02
1069.406	-6.22
1069.827	-4.72
1070.248	-1.92
1070.67	-4.62
1071.091	0.38
1071.512	1.68
1071.933	-6.92
1072.354	-6.52
1072.775	-0.32
1073.196	-7.52
1073.617	1.48
1074.038	-8.02
1074.459	-5.32
1074.88	-10.62
1075.3	1.18
1075.721	-6.42
1076.142	2.08
1076.563	-4.42
1076.983	-11.92
1077.404	-5.12
1077.825	-10.92
1078.246	-7.22
1078.666	-11.12
1079.087	-6.62
1079.507	-5.82
1079.928	1.98
1080.348	-2.92
1080.769	-4.32
1081.189	2.78
1081.61	-5.82
1082.03	-5.12
1082.451	-8.22
1082.871	-7.22
1083.291	-4.32
1083.711	-9.62
1084.132	-4.22
1084.552	-5.22
1084.972	-4.02
1085.392	-8.82
1085.813	-16.42
1086.233	-10.22
1086.653	-5.12
1087.073	-6.72
1087.493	-7.22
1087.913	-7.82
1088.333	-8.72
1088.753	-5.92
1089.173	-0.72
1089.593	1.08
1090.013	-3.42
1090.433	-0.72
1090.852	1.08
1091.272	-1.92
1091.692	0.38
1092.112	-9.22
1092.531	-8.12
1092.951	-15.02
1093.371	-1.42
1093.79	4.18
1094.21	-1.52
1094.63	-3.42
1095.049	-7.22
1095.469	3.68
1095.888	-7.82
1096.308	0.08
1096.727	1.58
1097.146	-2.22
1097.566	-2.32
1097.985	-3.62
1098.405	-3.12
1098.824	-2.82
1099.243	-2.52
1099.662	-3.82
1100.082	-9.42
1100.501	-7.72
1100.92	-7.42
1101.339	-4.52
1101.758	-7.72
