Data from 20171114-ORNL-Ar_H_NY_Subt18_08-09-20-411.txt Node
Date: Tue Nov 14 08:09:20 EST 2017
User: Ender
Spectrometer: HR+D1039
Trigger mode: 0
Integration Time (sec): 2.730000E-2
Scans to average: 10
Electric dark correction enabled: true
Nonlinearity correction enabled: false
Boxcar width: 0
XAxis mode: Wavelengths
Number of Pixels in Spectrum: 2048
>>>>>Begin Spectral Data<<<<<
187.836	-6.49
188.309	-6.49
188.782	-6.49
189.255	-3.19
189.728	-0.39
190.201	8.01
190.674	2.41
191.147	-0.39
191.619	-13.59
192.092	0.11
192.565	6.01
193.038	5.21
193.511	2.91
193.984	1.91
194.456	-2.09
194.929	2.61
195.402	-2.39
195.874	-0.59
196.347	-1.39
196.82	-5.39
197.292	2.21
197.765	4.21
198.237	-9.49
198.71	4.31
199.182	-5.19
199.655	2.21
200.127	3.11
200.6	-1.49
201.072	-1.39
201.544	-7.49
202.017	1.01
202.489	-0.39
202.961	-1.59
203.433	-7.99
203.906	-7.19
204.378	-6.19
204.85	-9.09
205.322	-9.19
205.794	0.11
206.266	-7.39
206.739	-11.29
207.211	1.81
207.683	-8.69
208.155	-6.39
208.627	-10.39
209.099	-5.49
209.57	-9.19
210.042	-5.79
210.514	-5.59
210.986	-7.99
211.458	-6.29
211.93	-4.79
212.402	-4.69
212.873	-7.59
213.345	-13.89
213.817	-12.89
214.288	-3.79
214.76	-13.59
215.232	-3.09
215.703	-6.29
216.175	-3.99
216.646	-9.79
217.118	-6.79
217.589	-6.79
218.061	-1.29
218.532	-7.09
219.004	-4.59
219.475	-3.79
219.946	-8.79
220.418	-11.39
220.889	0.01
221.36	-0.79
221.832	-10.69
222.303	-6.39
222.774	0.11
223.245	-10.19
223.717	-7.99
224.188	-2.09
224.659	-6.79
225.13	-3.79
225.601	-8.19
226.072	0.61
226.543	0.71
227.014	-1.49
227.485	-2.29
227.956	-8.09
228.427	-5.49
228.898	-3.89
229.369	3.21
229.839	0.41
230.31	-10.99
230.781	-3.09
231.252	-4.89
231.722	-10.29
232.193	-10.39
232.664	-4.99
233.135	-5.69
233.605	-9.89
234.076	-12.09
234.546	-2.79
235.017	2.01
235.487	-4.09
235.958	-11.99
236.428	-3.59
236.899	-6.59
237.369	-5.19
237.84	-5.99
238.31	-5.49
238.78	-3.49
239.251	-11.59
239.721	-6.69
240.191	-7.29
240.662	-5.39
241.132	-5.69
241.602	-5.59
242.072	-3.19
242.542	-4.19
243.013	-8.79
243.483	-0.09
243.953	-4.69
244.423	-0.89
244.893	-12.49
245.363	-2.09
245.833	-1.49
246.303	-6.89
246.773	5.91
247.243	1.01
247.712	-2.89
248.182	0.01
248.652	1.41
249.122	-11.99
249.592	3.91
250.061	1.11
250.531	5.31
251.001	-5.39
251.471	-1.49
251.94	6.11
252.41	-7.99
252.879	-8.39
253.349	2.71
253.818	7.91
254.288	-5.39
254.757	-1.59
255.227	-9.99
255.696	-2.19
256.166	-1.19
256.635	-0.09
257.105	-0.39
257.574	-2.99
258.043	-6.19
258.513	-0.39
258.982	3.61
259.451	-9.19
259.92	-2.89
260.389	-2.29
260.859	2.31
261.328	3.51
261.797	-3.59
262.266	-4.59
262.735	6.31
263.204	-0.89
263.673	-7.29
264.142	0.71
264.611	-7.99
265.08	-7.09
265.549	-4.79
266.018	-1.09
266.487	-11.39
266.955	-10.79
267.424	-10.29
267.893	-0.29
268.362	-3.79
268.83	-1.69
269.299	4.31
269.768	3.81
270.236	4.31
270.705	-5.19
271.174	-0.29
271.642	1.61
272.111	-5.29
272.579	-2.39
273.048	2.51
273.516	-3.99
273.985	6.41
274.453	-0.09
274.922	11.61
275.39	1.81
275.858	-6.99
276.327	-0.09
276.795	10.71
277.263	3.01
277.731	2.51
278.2	4.81
278.668	2.21
279.136	6.81
279.604	-1.99
280.072	0.41
280.54	4.81
281.008	4.01
281.477	1.61
281.945	2.21
282.413	8.21
282.881	3.91
283.348	3.31
283.816	2.91
284.284	4.81
284.752	10.81
285.22	5.61
285.688	4.61
286.156	5.21
286.623	4.21
287.091	5.11
287.559	5.41
288.026	6.21
288.494	6.31
288.962	-0.79
289.429	4.91
289.897	12.91
290.364	5.41
290.832	7.31
291.3	4.01
291.767	9.41
292.234	4.61
292.702	0.81
293.169	12.01
293.637	11.51
294.104	9.51
294.571	-1.49
295.039	3.11
295.506	3.11
295.973	10.11
296.44	7.11
296.908	1.21
297.375	3.61
297.842	12.51
298.309	8.11
298.776	5.31
299.243	14.81
299.71	2.81
300.177	17.01
300.644	14.11
301.111	7.91
301.578	12.01
302.045	2.31
302.512	7.81
302.979	17.61
303.446	16.21
303.913	8.81
304.379	11.61
304.846	16.71
305.313	17.11
305.78	15.71
306.246	10.71
306.713	13.21
307.18	13.71
307.646	16.21
308.113	15.41
308.579	11.61
309.046	18.41
309.512	17.41
309.979	12.31
310.445	16.21
310.912	18.11
311.378	17.51
311.845	16.81
312.311	22.81
312.777	22.01
313.244	20.01
313.71	27.71
314.176	15.01
314.642	18.91
315.109	16.81
315.575	22.01
316.041	22.01
316.507	16.21
316.973	23.71
317.439	14.91
317.905	19.61
318.371	20.41
318.837	23.71
319.303	20.31
319.769	22.51
320.235	20.11
320.701	22.51
321.167	30.91
321.633	22.81
322.099	19.71
322.564	27.01
323.03	23.21
323.496	24.61
323.962	28.21
324.427	28.41
324.893	27.81
325.359	20.01
325.824	25.81
326.29	23.71
326.755	21.51
327.221	30.51
327.686	27.41
328.152	31.81
328.617	28.91
329.083	29.21
329.548	40.81
330.014	28.71
330.479	28.51
330.944	25.11
331.41	26.31
331.875	33.81
332.34	32.11
332.805	30.21
333.271	27.71
333.736	30.21
334.201	35.91
334.666	36.71
335.131	38.21
335.596	40.01
336.061	32.51
336.526	30.11
336.991	32.91
337.456	44.71
337.921	35.11
338.386	32.51
338.851	30.01
339.316	36.91
339.781	35.11
340.246	41.31
340.711	32.41
341.175	38.11
341.64	30.81
342.105	40.91
342.569	41.21
343.034	42.91
343.499	38.11
343.963	38.81
344.428	50.21
344.893	51.51
345.357	49.71
345.822	52.11
346.286	49.41
346.751	53.31
347.215	53.11
347.679	54.61
348.144	74.61
348.608	61.01
349.073	59.21
349.537	59.31
350.001	62.01
350.465	65.01
350.93	54.71
351.394	58.21
351.858	51.61
352.322	72.21
352.786	62.21
353.25	77.21
353.715	78.51
354.179	71.61
354.643	92.41
355.107	83.71
355.571	81.81
356.035	72.61
356.498	87.21
356.962	81.81
357.426	93.61
357.89	88.81
358.354	71.51
358.818	66.31
359.281	67.21
359.745	65.31
360.209	64.41
360.673	61.71
361.136	66.91
361.6	71.01
362.064	61.91
362.527	66.41
362.991	77.91
363.454	63.71
363.918	59.81
364.381	60.51
364.845	65.71
365.308	71.71
365.772	71.91
366.235	70.91
366.698	72.11
367.162	68.61
367.625	70.51
368.088	76.31
368.552	71.61
369.015	71.81
369.478	79.61
369.941	77.31
370.404	73.61
370.867	81.41
371.331	82.81
371.794	89.21
372.257	83.11
372.72	84.01
373.183	88.11
373.646	77.01
374.109	77.71
374.572	84.81
375.035	92.21
375.497	88.21
375.96	87.21
376.423	84.81
376.886	94.31
377.349	89.71
377.811	84.01
378.274	85.31
378.737	94.01
379.199	88.31
379.662	92.91
380.125	93.91
380.587	90.61
381.05	92.71
381.512	100.61
381.975	95.71
382.437	108.71
382.9	98.31
383.362	100.61
383.825	118.41
384.287	112.21
384.75	107.61
385.212	105.41
385.674	117.91
386.136	113.61
386.599	108.91
387.061	107.31
387.523	106.81
387.985	111.11
388.447	118.51
388.91	112.71
389.372	109.41
389.834	114.71
390.296	111.41
390.758	111.41
391.22	117.41
391.682	125.91
392.144	133.31
392.606	128.81
393.068	126.21
393.529	139.21
393.991	125.71
394.453	125.01
394.915	121.21
395.377	122.21
395.838	115.81
396.3	121.31
396.762	123.91
397.224	127.01
397.685	129.11
398.147	124.71
398.608	123.01
399.07	118.71
399.531	129.81
399.993	130.31
400.454	139.31
400.916	133.31
401.377	135.81
401.839	135.21
402.3	138.11
402.762	151.21
403.223	165.91
403.684	155.41
404.145	150.31
404.607	151.21
405.068	145.91
405.529	160.61
405.99	167.81
406.451	161.01
406.913	166.61
407.374	153.41
407.835	151.01
408.296	159.11
408.757	163.01
409.218	176.31
409.679	168.61
410.14	172.81
410.601	165.41
411.062	166.01
411.522	164.81
411.983	161.71
412.444	171.91
412.905	170.21
413.366	170.31
413.826	183.91
414.287	209.11
414.748	255.41
415.208	236.21
415.669	210.91
416.13	204.21
416.59	198.41
417.051	209.81
417.511	210.21
417.972	230.31
418.432	237.61
418.893	284.91
419.353	243.91
419.814	195.41
420.274	175.41
420.734	180.01
421.195	189.61
421.655	181.81
422.115	184.11
422.576	187.61
423.036	196.11
423.496	198.71
423.956	212.51
424.416	222.81
424.876	254.71
425.336	248.91
425.797	249.61
426.257	247.81
426.717	224.81
427.177	219.41
427.637	214.11
428.097	229.21
428.556	230.81
429.016	257.91
429.476	250.61
429.936	252.01
430.396	267.31
430.856	268.41
431.315	291.51
431.775	319.91
432.235	354.61
432.694	330.21
433.154	341.81
433.614	356.61
434.073	322.31
434.533	277.91
434.993	265.21
435.452	272.91
435.912	276.41
436.371	265.31
436.83	262.61
437.29	249.01
437.749	246.01
438.209	232.11
438.668	262.81
439.127	274.81
439.587	255.01
440.046	237.71
440.505	251.01
440.964	258.81
441.424	308.91
441.883	289.31
442.342	249.11
442.801	215.01
443.26	219.01
443.719	221.91
444.178	218.51
444.637	212.41
445.096	221.11
445.555	218.31
446.014	223.01
446.473	230.91
446.932	229.51
447.391	227.91
447.849	228.71
448.308	222.41
448.767	222.31
449.226	231.81
449.685	237.11
450.143	250.11
450.602	235.81
451.061	226.91
451.519	231.61
451.978	233.91
452.436	233.31
452.895	243.81
453.353	251.31
453.812	237.11
454.27	238.41
454.729	242.21
455.187	242.21
455.646	242.81
456.104	246.41
456.562	255.21
457.021	260.51
457.479	265.21
457.937	269.51
458.395	263.31
458.854	243.91
459.312	258.31
459.77	270.41
460.228	253.81
460.686	245.91
461.144	251.21
461.602	248.21
462.06	243.11
462.518	255.21
462.976	263.21
463.434	258.51
463.892	267.21
464.35	279.81
464.808	286.21
465.266	270.61
465.724	271.51
466.181	277.91
466.639	276.81
467.097	289.51
467.555	299.21
468.012	304.61
468.47	309.11
468.928	330.61
469.385	341.01
469.843	350.71
470.3	353.11
470.758	363.51
471.215	378.51
471.673	408.41
472.13	408.51
472.588	418.51
473.045	371.31
473.503	385.11
473.96	398.11
474.417	403.11
474.875	430.91
475.332	476.81
475.789	456.11
476.246	467.51
476.704	480.11
477.161	494.41
477.618	514.01
478.075	552.31
478.532	607.21
478.989	664.61
479.446	768.91
479.903	744.91
480.36	780.71
480.817	815.01
481.274	914.81
481.731	1000.31
482.188	1063.21
482.645	1188.31
483.102	1275.81
483.558	1388.61
484.015	1434.51
484.472	1404.61
484.929	1356.51
485.385	1331.11
485.842	1296.21
486.299	1248.61
486.755	1212.41
487.212	1030.21
487.668	890.91
488.125	810.71
488.582	754.31
489.038	725.41
489.494	699.61
489.951	675.81
490.407	664.11
490.864	645.21
491.32	630.91
491.776	633.61
492.233	645.71
492.689	607.01
493.145	601.51
493.602	600.01
494.058	611.61
494.514	620.11
494.97	633.81
495.426	649.71
495.882	624.31
496.338	597.21
496.794	627.71
497.251	619.61
497.707	624.21
498.163	627.51
498.618	636.41
499.074	627.51
499.53	665.61
499.986	661.81
500.442	655.41
500.898	614.91
501.354	621.01
501.809	626.31
502.265	626.01
502.721	635.11
503.177	642.41
503.632	648.21
504.088	650.01
504.543	669.21
504.999	689.31
505.455	656.81
505.91	649.71
506.366	643.61
506.821	640.01
507.277	640.01
507.732	634.11
508.187	650.21
508.643	644.31
509.098	652.01
509.553	678.51
510.009	673.11
510.464	686.51
510.919	700.91
511.375	707.11
511.83	708.51
512.285	736.91
512.74	762.51
513.195	784.71
513.65	767.11
514.105	767.81
514.56	775.41
515.015	787.61
515.47	804.01
515.925	781.41
516.38	782.91
516.835	798.21
517.29	793.21
517.745	784.71
518.2	778.31
518.655	763.31
519.109	750.21
519.564	752.21
520.019	737.11
520.474	734.01
520.928	728.61
521.383	723.61
521.838	717.11
522.292	724.21
522.747	730.51
523.201	714.51
523.656	707.21
524.11	701.61
524.565	704.61
525.019	705.61
525.474	715.71
525.928	709.61
526.382	707.11
526.837	712.41
527.291	715.01
527.745	710.61
528.2	707.11
528.654	701.61
529.108	704.61
529.562	705.51
530.016	700.01
530.47	692.41
530.925	693.01
531.379	703.61
531.833	708.51
532.287	708.51
532.741	711.31
533.195	711.81
533.649	715.41
534.103	725.71
534.556	709.91
535.01	716.61
535.464	710.01
535.918	717.71
536.372	727.31
536.826	726.81
537.279	716.91
537.733	715.51
538.187	726.51
538.64	718.71
539.094	734.01
539.548	736.51
540.001	725.41
540.455	727.61
540.908	740.41
541.362	739.71
541.815	767.51
542.269	771.71
542.722	773.21
543.175	789.71
543.629	795.71
544.082	806.11
544.536	805.81
544.989	806.11
545.442	803.61
545.895	818.21
546.349	808.11
546.802	802.91
547.255	819.61
547.708	817.11
548.161	830.01
548.614	836.81
549.067	850.11
549.52	836.21
549.973	841.01
550.426	834.11
550.879	810.51
551.332	819.01
551.785	819.41
552.238	827.81
552.691	837.01
553.144	858.41
553.596	861.91
554.049	880.61
554.502	923.11
554.955	933.91
555.407	918.21
555.86	921.21
556.313	919.11
556.765	897.61
557.218	902.61
557.67	898.01
558.123	884.21
558.576	896.51
559.028	901.21
559.48	913.71
559.933	893.01
560.385	856.31
560.838	837.61
561.29	813.71
561.742	814.41
562.195	794.81
562.647	786.51
563.099	793.01
563.551	795.11
564.004	808.71
564.456	800.71
564.908	768.51
565.36	758.61
565.812	741.61
566.264	733.61
566.716	736.81
567.168	731.61
567.62	727.11
568.072	714.01
568.524	704.01
568.976	703.91
569.428	690.01
569.88	688.01
570.332	702.01
570.784	704.51
571.235	699.31
571.687	712.91
572.139	723.31
572.59	732.21
573.042	722.41
573.494	733.91
573.945	716.71
574.397	708.61
574.849	704.21
575.3	704.91
575.752	708.61
576.203	695.51
576.655	707.41
577.106	687.91
577.557	680.11
578.009	692.91
578.46	693.31
578.912	684.21
579.363	675.51
579.814	695.31
580.265	689.81
580.717	694.01
581.168	683.21
581.619	691.11
582.07	695.51
582.521	697.41
582.972	689.61
583.423	697.81
583.875	689.51
584.326	700.01
584.777	706.41
585.227	731.21
585.678	738.91
586.129	758.51
586.58	769.91
587.031	781.71
587.482	822.61
587.933	845.41
588.384	826.41
588.834	800.01
589.285	796.71
589.736	801.71
590.186	788.31
590.637	803.81
591.088	769.81
591.538	755.61
591.989	755.91
592.439	742.11
592.89	729.51
593.34	727.41
593.791	731.11
594.241	722.41
594.692	719.51
595.142	712.71
595.593	724.01
596.043	721.21
596.493	735.61
596.943	727.31
597.394	736.21
597.844	738.71
598.294	763.31
598.744	781.51
599.195	806.01
599.645	852.61
600.095	895.71
600.545	944.31
600.995	1002.21
601.445	1061.31
601.895	1124.21
602.345	1165.31
602.795	1154.61
603.245	1103.91
603.695	1052.11
604.145	988.51
604.594	944.71
605.044	891.01
605.494	823.31
605.944	786.21
606.393	771.11
606.843	758.71
607.293	757.41
607.743	764.21
608.192	768.11
608.642	780.51
609.091	783.91
609.541	792.21
609.99	785.61
610.44	782.11
610.889	743.01
611.339	723.41
611.788	711.21
612.238	718.71
612.687	723.21
613.136	725.01
613.586	731.21
614.035	713.91
614.484	723.51
614.933	727.51
615.383	724.41
615.832	726.31
616.281	722.51
616.73	698.01
617.179	677.01
617.628	661.11
618.077	657.11
618.526	635.31
618.975	632.41
619.424	636.31
619.873	623.91
620.322	630.31
620.771	623.41
621.22	617.61
621.669	613.31
622.118	605.41
622.567	604.21
623.015	587.91
623.464	589.11
623.913	582.41
624.361	572.81
624.81	570.81
625.259	569.51
625.707	573.91
626.156	572.01
626.604	584.21
627.053	583.81
627.501	586.11
627.95	591.11
628.398	591.91
628.847	592.41
629.295	596.51
629.744	581.21
630.192	586.51
630.64	577.91
631.089	566.61
631.537	555.11
631.985	542.31
632.433	547.41
632.881	535.91
633.33	543.41
633.778	540.01
634.226	535.71
634.674	547.91
635.122	555.31
635.57	565.91
636.018	585.21
636.466	586.91
636.914	579.51
637.362	589.21
637.81	593.41
638.258	606.11
638.705	602.31
639.153	631.51
639.601	642.51
640.049	665.81
640.497	691.21
640.944	728.31
641.392	677.11
641.84	637.91
642.287	596.01
642.735	578.01
643.182	586.41
643.63	578.71
644.078	577.91
644.525	591.31
644.973	597.41
645.42	606.41
645.867	639.71
646.315	655.71
646.762	682.11
647.21	707.61
647.657	727.51
648.104	757.81
648.551	774.81
648.999	838.01
649.446	918.41
649.893	998.61
650.34	1134.91
650.787	1360.11
651.234	1651.91
651.682	2156.21
652.129	2946.71
652.576	4178.31
653.023	6105.51
653.47	8184.81
653.917	10113.51
654.363	11556.01
654.81	12664.81
655.257	11998.01
655.704	7939.81
656.151	4805.21
656.598	3138.61
657.044	2265.31
657.491	1758.01
657.938	1420.31
658.385	1210.21
658.831	1050.51
659.278	944.51
659.724	840.71
660.171	782.31
660.618	720.31
661.064	678.31
661.511	671.81
661.957	659.41
662.404	649.91
662.85	649.71
663.296	643.31
663.743	573.01
664.189	553.21
664.635	547.31
665.082	542.01
665.528	546.11
665.974	532.81
666.42	527.21
666.867	529.31
667.313	506.61
667.759	485.21
668.205	470.51
668.651	463.31
669.097	464.81
669.543	460.71
669.989	461.11
670.435	462.71
670.881	465.31
671.327	469.31
671.773	484.61
672.219	516.91
672.665	568.51
673.11	620.71
673.556	655.51
674.002	695.81
674.448	688.51
674.893	579.71
675.339	501.61
675.785	467.51
676.23	438.21
676.676	421.41
677.122	403.01
677.567	390.01
678.013	384.81
678.458	379.61
678.904	371.71
679.349	367.01
679.794	372.11
680.24	376.81
680.685	362.71
681.131	366.01
681.576	368.91
682.021	370.71
682.466	369.91
682.912	365.91
683.357	373.61
683.802	400.91
684.247	433.71
684.692	483.41
685.137	523.31
685.583	566.61
686.028	585.71
686.473	555.71
686.918	468.81
687.363	424.91
687.807	413.41
688.252	391.51
688.697	378.71
689.142	348.01
689.587	345.81
690.032	345.51
690.477	361.61
690.921	368.81
691.366	408.61
691.811	420.11
692.255	454.21
692.7	488.91
693.145	543.71
693.589	763.11
694.034	1243.21
694.478	1653.41
694.923	1823.81
695.367	2373.91
695.812	1266.91
696.256	534.71
696.701	394.11
697.145	363.11
697.59	342.31
698.034	341.91
698.478	347.11
698.922	340.91
699.367	340.41
699.811	364.71
700.255	372.01
700.699	409.51
701.143	454.11
701.588	500.11
702.032	545.41
702.476	539.11
702.92	517.71
703.364	523.31
703.808	703.51
704.252	1131.21
704.696	1573.21
705.14	1757.91
705.584	2230.11
706.027	1123.21
706.471	559.71
706.915	420.41
707.359	364.11
707.803	336.21
708.246	318.11
708.69	329.11
709.134	335.21
709.577	329.71
710.021	333.91
710.465	324.81
710.908	319.11
711.352	315.71
711.795	339.51
712.239	376.51
712.682	410.21
713.126	432.51
713.569	476.81
714.012	373.81
714.456	325.01
714.899	300.91
715.342	290.51
715.786	276.91
716.229	268.71
716.672	264.41
717.115	271.71
717.558	263.81
718.002	259.81
718.445	278.81
718.888	305.51
719.331	310.41
719.774	314.21
720.217	313.91
720.66	300.61
721.103	276.31
721.546	255.91
721.989	259.21
722.432	247.21
722.874	248.61
723.317	246.31
723.76	252.81
724.203	272.41
724.645	346.21
725.088	482.41
725.531	603.91
725.974	682.01
726.416	572.71
726.859	318.01
727.301	260.91
727.744	254.11
728.187	246.91
728.629	255.01
729.071	259.11
729.514	276.61
729.956	279.81
730.399	298.21
730.841	313.31
731.283	293.61
731.726	279.61
732.168	276.31
732.61	283.61
733.053	306.21
733.495	338.71
733.937	375.61
734.379	421.61
734.821	461.71
735.263	593.51
735.705	938.31
736.148	1764.51
736.59	2802.41
737.032	3196.51
737.474	2623.01
737.916	876.61
738.357	462.51
738.799	345.31
739.241	312.21
739.683	301.51
740.125	314.71
740.567	310.01
741.008	336.31
741.45	338.11
741.892	340.11
742.334	368.51
742.775	380.71
743.217	372.91
743.658	294.31
744.1	271.21
744.542	282.71
744.983	342.31
745.425	365.61
745.866	365.21
746.307	295.31
746.749	294.11
747.19	357.71
747.632	504.21
748.073	1002.61
748.514	2081.51
748.956	3093.71
749.397	3904.21
749.838	3206.21
750.279	3110.71
750.72	1592.41
751.162	596.21
751.603	344.91
752.044	267.81
752.485	224.01
752.926	217.11
753.367	210.51
753.808	207.31
754.249	200.31
754.69	196.11
755.131	199.01
755.572	192.21
756.013	187.71
756.453	191.41
756.894	203.11
757.335	203.21
757.776	207.41
758.216	209.71
758.657	212.81
759.098	218.71
759.538	241.11
759.979	294.31
760.42	412.41
760.86	808.71
761.301	2116.11
761.741	4899.31
762.182	6733.21
762.622	4781.21
763.063	1417.21
763.503	587.01
763.943	349.81
764.384	279.31
764.824	249.81
765.264	236.01
765.705	215.41
766.145	190.81
766.585	183.61
767.025	183.71
767.465	168.31
767.906	184.61
768.346	196.31
768.786	208.41
769.226	224.81
769.666	337.11
770.106	702.21
770.546	1736.11
770.986	2786.41
771.426	2470.91
771.866	855.71
772.306	349.41
772.745	215.71
773.185	178.81
773.625	168.51
774.065	156.21
774.505	169.21
774.944	221.91
775.384	383.61
775.824	594.61
776.263	576.61
776.703	292.91
777.142	165.31
777.582	138.21
778.021	129.01
778.461	133.61
778.9	131.01
779.34	132.11
779.779	122.41
780.219	119.41
780.658	112.91
781.097	109.81
781.537	113.31
781.976	108.61
782.415	111.51
782.855	106.01
783.294	105.91
783.733	106.31
784.172	115.31
784.611	106.71
785.05	113.01
785.489	114.01
785.928	127.61
786.367	126.81
786.806	129.11
787.245	134.61
787.684	140.01
788.123	152.71
788.562	142.31
789.001	127.41
789.44	127.01
789.879	123.21
790.317	121.01
790.756	134.01
791.195	129.51
791.634	152.01
792.072	214.41
792.511	410.41
792.95	1137.71
793.388	2268.41
793.827	1989.81
794.265	715.11
794.704	304.91
795.142	197.61
795.581	159.11
796.019	138.31
796.458	139.91
796.896	125.91
797.334	135.81
797.773	165.21
798.211	240.31
798.649	496.71
799.087	1132.11
799.526	1731.41
799.964	2169.81
800.402	2098.31
800.84	809.41
801.278	333.21
801.716	198.21
802.154	164.11
802.592	160.01
803.03	148.21
803.468	142.71
803.906	145.91
804.344	159.51
804.782	145.51
805.22	145.31
805.658	144.01
806.096	163.51
806.533	172.01
806.971	190.61
807.409	243.41
807.847	358.51
808.284	775.51
808.722	2099.81
809.16	3519.01
809.597	3510.11
810.035	5913.41
810.472	6035.21
810.91	2241.11
811.347	868.31
811.785	437.71
812.222	282.91
812.66	207.91
813.097	177.41
813.535	159.31
813.972	142.51
814.409	124.11
814.846	117.61
815.284	111.01
815.721	107.21
816.158	110.51
816.595	109.31
817.032	160.01
817.47	186.91
817.907	129.01
818.344	104.51
818.781	107.81
819.218	103.61
819.655	129.41
820.092	197.91
820.529	224.71
820.966	182.41
821.403	129.21
821.839	108.21
822.276	103.21
822.713	129.21
823.15	141.81
823.587	125.11
824.023	167.51
824.46	346.01
824.897	991.71
825.333	1429.11
825.77	626.71
826.206	246.31
826.643	144.51
827.08	107.91
827.516	88.51
827.953	86.01
828.389	89.11
828.825	70.81
829.262	66.81
829.698	67.81
830.135	74.41
830.571	67.91
831.007	64.91
831.443	65.21
831.88	63.51
832.316	63.31
832.752	72.51
833.188	64.71
833.624	70.11
834.06	70.21
834.497	75.21
834.933	70.21
835.369	80.01
835.805	76.81
836.241	85.21
836.677	89.51
837.112	94.51
837.548	112.01
837.984	146.41
838.42	218.11
838.856	578.01
839.292	1683.51
839.727	2424.01
840.163	1148.01
840.599	1042.51
841.034	2213.01
841.47	2214.51
841.906	822.31
842.341	354.11
842.777	216.01
843.212	211.71
843.648	189.71
844.083	116.91
844.519	86.81
844.954	75.31
845.39	62.71
845.825	57.91
846.261	66.61
846.696	58.31
847.131	59.21
847.566	58.71
848.002	61.61
848.437	54.81
848.872	66.41
849.307	64.21
849.742	85.91
850.177	207.81
850.613	625.81
851.048	926.51
851.483	399.61
851.918	162.91
852.353	91.61
852.788	53.51
853.223	52.01
853.657	59.71
854.092	47.91
854.527	45.71
854.962	47.91
855.397	47.81
855.832	51.21
856.266	41.01
856.701	39.51
857.136	41.01
857.57	47.31
858.005	51.51
858.44	59.91
858.874	50.51
859.309	61.81
859.743	39.01
860.178	49.71
860.612	46.71
861.047	54.21
861.481	73.81
861.915	79.51
862.35	62.31
862.784	39.71
863.218	42.81
863.653	38.11
864.087	45.01
864.521	53.51
864.955	76.21
865.39	162.51
865.824	182.11
866.258	127.31
866.692	184.51
867.126	194.01
867.56	104.11
867.994	58.51
868.428	41.51
868.862	45.31
869.296	54.81
869.73	61.71
870.164	56.21
870.598	52.21
871.031	38.31
871.465	30.41
871.899	34.91
872.333	21.31
872.766	27.31
873.2	23.31
873.634	28.61
874.067	22.91
874.501	26.21
874.935	32.21
875.368	29.31
875.802	34.61
876.235	24.21
876.669	26.91
877.102	23.91
877.535	26.21
877.969	19.41
878.402	28.41
878.836	23.11
879.269	23.91
879.702	26.71
880.135	21.81
880.569	25.61
881.002	26.91
881.435	18.01
881.868	14.01
882.301	17.51
882.734	11.51
883.167	25.21
883.601	22.01
884.034	21.91
884.467	11.31
884.899	16.61
885.332	23.21
885.765	12.41
886.198	19.11
886.631	20.61
887.064	17.41
887.497	19.71
887.929	24.11
888.362	14.61
888.795	12.61
889.228	18.31
889.66	19.51
890.093	13.31
890.526	11.71
890.958	20.21
891.391	17.21
891.823	22.91
892.256	15.31
892.688	18.11
893.121	19.71
893.553	12.81
893.985	20.11
894.418	17.91
894.85	10.81
895.282	18.11
895.715	17.61
896.147	18.81
896.579	17.01
897.011	16.71
897.444	19.71
897.876	16.11
898.308	16.91
898.74	15.81
899.172	16.31
899.604	25.71
900.036	15.91
900.468	12.21
900.9	15.11
901.332	22.51
901.764	12.11
902.196	21.31
902.628	17.91
903.06	18.61
903.491	29.71
903.923	27.51
904.355	19.41
904.787	19.01
905.218	22.81
905.65	20.81
906.082	14.81
906.513	11.81
906.945	14.81
907.376	9.21
907.808	25.91
908.239	11.31
908.671	24.61
909.102	23.51
909.534	30.11
909.965	50.81
910.397	99.61
910.828	339.51
911.259	491.11
911.691	224.51
912.122	116.51
912.553	54.31
912.984	31.41
913.415	24.71
913.847	20.11
914.278	12.11
914.709	11.01
915.14	10.91
915.571	12.01
916.002	9.41
916.433	22.01
916.864	20.71
917.295	12.91
917.726	21.41
918.157	19.01
918.587	26.31
919.018	27.01
919.449	20.41
919.88	18.71
920.311	31.71
920.741	53.11
921.172	173.81
921.603	154.61
922.033	73.61
922.464	51.21
922.895	25.21
923.325	23.51
923.756	12.01
924.186	11.71
924.617	16.21
925.047	17.51
925.478	25.11
925.908	22.71
926.338	12.31
926.769	14.71
927.199	15.01
927.629	7.31
928.06	10.71
928.49	8.61
928.92	13.81
929.35	5.11
929.78	11.11
930.21	8.31
930.641	13.01
931.071	9.11
931.501	0.01
931.931	6.51
932.361	5.61
932.791	4.21
933.221	11.21
933.651	7.41
934.08	19.91
934.51	34.51
934.94	7.31
935.37	10.01
935.8	6.41
936.229	4.21
936.659	9.01
937.089	-2.09
937.519	12.21
937.948	22.71
938.378	21.41
938.807	4.91
939.237	10.61
939.666	7.81
940.096	-7.89
940.525	-2.59
940.955	2.91
941.384	7.21
941.814	2.11
942.243	0.01
942.672	2.61
943.102	-1.19
943.531	4.81
943.96	1.61
944.39	7.11
944.819	0.91
945.248	7.51
945.677	0.81
946.106	1.11
946.535	3.51
946.964	3.81
947.393	8.21
947.822	-3.59
948.251	-5.09
948.68	-0.59
949.109	4.81
949.538	1.21
949.967	3.11
950.396	2.81
950.825	-4.89
951.254	1.11
951.682	-4.89
952.111	-0.09
952.54	-1.59
952.969	-3.99
953.397	-7.09
953.826	1.51
954.254	-5.49
954.683	2.31
955.112	-2.29
955.54	-2.69
955.969	-1.29
956.397	-3.49
956.826	-7.49
957.254	4.21
957.682	-1.69
958.111	0.81
958.539	-0.39
958.967	0.91
959.396	-2.09
959.824	0.81
960.252	5.41
960.68	-4.09
961.109	-1.59
961.537	-4.39
961.965	-7.49
962.393	1.41
962.821	1.11
963.249	-0.69
963.677	4.31
964.105	2.11
964.533	51.11
964.961	47.71
965.389	23.91
965.817	6.51
966.245	5.11
966.672	-2.79
967.1	-8.49
967.528	-4.29
967.956	-7.79
968.383	-1.79
968.811	-0.19
969.239	-6.59
969.666	-0.69
970.094	2.31
970.522	0.61
970.949	-5.09
971.377	-8.49
971.804	0.01
972.232	-4.09
972.659	-0.89
973.087	-3.09
973.514	-5.49
973.941	-3.49
974.369	1.21
974.796	-1.39
975.223	0.51
975.651	-3.69
976.078	0.91
976.505	2.11
976.932	1.21
977.359	17.61
977.786	11.51
978.214	-0.59
978.641	-4.89
979.068	-2.39
979.495	-7.59
979.922	-3.99
980.349	-4.19
980.776	2.81
981.202	-1.29
981.629	0.01
982.056	0.11
982.483	-6.69
982.91	-0.39
983.337	-12.99
983.763	0.91
984.19	-5.79
984.617	-9.79
985.043	-5.39
985.47	-1.59
985.897	1.61
986.323	-13.19
986.75	-2.19
987.176	1.91
987.603	-3.09
988.029	-0.29
988.456	-5.89
988.882	1.71
989.308	-3.79
989.735	0.51
990.161	-3.39
990.587	-4.99
991.014	2.31
991.44	5.81
991.866	-2.79
992.292	-7.79
992.719	-2.39
993.145	2.31
993.571	-7.49
993.997	-1.29
994.423	-2.39
994.849	-11.79
995.275	1.51
995.701	-2.79
996.127	-5.29
996.553	2.01
996.979	-5.29
997.405	-3.19
997.83	-7.79
998.256	-7.79
998.682	-6.49
999.108	-10.89
999.534	-0.59
999.959	0.11
1000.385	-7.09
1000.811	0.11
1001.236	-8.59
1001.662	-8.29
1002.087	-0.79
1002.513	-2.89
1002.938	2.91
1003.364	-7.59
1003.789	-0.59
1004.215	7.21
1004.64	-0.59
1005.066	4.81
1005.491	2.71
1005.916	0.41
1006.342	-5.09
1006.767	-9.09
1007.192	3.41
1007.617	-5.19
1008.042	-5.89
1008.468	-4.29
1008.893	-5.39
1009.318	-5.79
1009.743	-2.59
1010.168	3.81
1010.593	4.41
1011.018	-14.79
1011.443	-3.89
1011.868	4.51
1012.293	-2.39
1012.718	-8.79
1013.143	2.01
1013.567	0.81
1013.992	-4.39
1014.417	-12.69
1014.842	4.61
1015.267	-1.59
1015.691	-1.99
1016.116	5.01
1016.541	3.21
1016.965	0.51
1017.39	-2.99
1017.814	-6.49
1018.239	-6.69
1018.663	-7.39
1019.088	-11.29
1019.512	-0.79
1019.937	-5.49
1020.361	-8.39
1020.785	-11.59
1021.21	-6.39
1021.634	-7.89
1022.058	-0.09
1022.483	5.61
1022.907	-3.89
1023.331	-3.79
1023.755	-9.89
1024.179	2.11
1024.604	-13.69
1025.028	-12.99
1025.452	-3.69
1025.876	-4.09
1026.3	-5.99
1026.724	-11.49
1027.148	-4.59
1027.572	-12.29
1027.996	-3.29
1028.42	-6.39
1028.843	-8.49
1029.267	-10.19
1029.691	-6.99
1030.115	-5.99
1030.539	-8.49
1030.962	-8.09
1031.386	-12.49
1031.81	-2.49
1032.233	-1.69
1032.657	0.51
1033.08	1.11
1033.504	-0.89
1033.927	-11.29
1034.351	1.41
1034.774	-5.49
1035.198	2.41
1035.621	-5.19
1036.045	-1.49
1036.468	1.91
1036.891	-11.69
1037.315	-9.79
1037.738	-7.29
1038.161	-3.59
1038.584	-2.49
1039.008	-9.29
1039.431	-2.59
1039.854	-1.59
1040.277	-7.89
1040.7	-11.99
1041.123	-4.99
1041.546	-6.59
1041.969	-3.69
1042.392	-6.39
1042.815	-11.39
1043.238	-1.49
1043.661	1.81
1044.084	-6.59
1044.507	-2.79
1044.93	-4.79
1045.352	-6.59
1045.775	-0.79
1046.198	-4.49
1046.621	-1.89
1047.043	2.01
1047.466	4.41
1047.889	-7.39
1048.311	-2.59
1048.734	-10.19
1049.156	-3.19
1049.579	-1.29
1050.001	-12.69
1050.424	-5.79
1050.846	-4.79
1051.269	-4.19
1051.691	-7.49
1052.113	-9.79
1052.536	-9.39
1052.958	-8.09
1053.38	-6.09
1053.802	-8.89
1054.225	0.21
1054.647	-12.19
1055.069	-11.69
1055.491	-5.19
1055.913	-8.59
1056.335	-2.09
1056.757	-7.39
1057.179	-10.79
1057.601	-6.69
1058.023	-5.19
1058.445	-5.49
1058.867	-3.29
1059.289	-0.89
1059.711	-13.69
1060.133	-3.69
1060.555	-5.09
1060.976	-10.09
1061.398	-9.19
1061.82	-8.59
1062.241	-4.89
1062.663	-9.39
1063.085	-4.49
1063.506	-2.89
1063.928	-6.39
1064.35	1.81
1064.771	-13.89
1065.193	-6.59
1065.614	-6.79
1066.035	-5.39
1066.457	-4.29
1066.878	1.81
1067.3	-9.39
1067.721	-2.39
1068.142	-2.59
1068.564	-5.09
1068.985	-2.69
1069.406	-8.39
1069.827	-6.69
1070.248	-5.19
1070.67	-9.79
1071.091	-8.99
1071.512	-2.59
1071.933	-10.89
1072.354	-9.39
1072.775	-8.49
1073.196	-7.59
1073.617	-3.69
1074.038	-14.09
1074.459	-4.39
1074.88	-9.39
1075.3	-5.19
1075.721	-7.59
1076.142	-2.59
1076.563	-3.89
1076.983	-4.49
1077.404	-8.19
1077.825	-9.89
1078.246	-7.39
1078.666	-10.59
1079.087	-9.89
1079.507	-13.89
1079.928	3.81
1080.348	2.31
1080.769	-7.69
1081.189	-9.59
1081.61	-2.19
1082.03	-3.89
1082.451	-9.39
1082.871	-5.49
1083.291	-12.59
1083.711	-5.99
1084.132	-1.79
1084.552	-3.69
1084.972	0.31
1085.392	-14.09
1085.813	-15.39
1086.233	-5.39
1086.653	-4.79
1087.073	-8.19
1087.493	-4.99
1087.913	-6.99
1088.333	-7.59
1088.753	-3.49
1089.173	1.21
1089.593	-1.99
1090.013	-1.19
1090.433	2.01
1090.852	-5.99
1091.272	-2.79
1091.692	2.41
1092.112	-4.89
1092.531	-10.49
1092.951	-12.99
1093.371	-2.79
1093.79	-5.19
1094.21	-8.39
1094.63	-3.49
1095.049	-9.19
1095.469	-1.89
1095.888	2.71
1096.308	-2.49
1096.727	1.01
1097.146	-2.99
1097.566	-3.29
1097.985	-4.29
1098.405	-2.69
1098.824	-6.59
1099.243	-9.29
1099.662	-4.39
1100.082	-3.79
1100.501	-3.69
1100.92	-8.09
1101.339	-5.29
1101.758	-8.19
