Data from 20171114-ORNL-Ar_H_NY_Subt18_08-08-53-902.txt Node
Date: Tue Nov 14 08:08:53 EST 2017
User: Ender
Spectrometer: HR+D1039
Trigger mode: 0
Integration Time (sec): 2.730000E-2
Scans to average: 10
Electric dark correction enabled: true
Nonlinearity correction enabled: false
Boxcar width: 0
XAxis mode: Wavelengths
Number of Pixels in Spectrum: 2048
>>>>>Begin Spectral Data<<<<<
187.836	-5.83
188.309	-5.83
188.782	-5.83
189.255	2.57
189.728	3.17
190.201	0.57
190.674	3.87
191.147	5.17
191.619	-9.43
192.092	-1.63
192.565	6.77
193.038	-1.83
193.511	3.57
193.984	2.07
194.456	-3.63
194.929	-3.33
195.402	-6.43
195.874	4.37
196.347	2.37
196.82	-7.83
197.292	5.07
197.765	0.67
198.237	-6.13
198.71	-0.33
199.182	-4.73
199.655	-1.53
200.127	1.37
200.6	-0.43
201.072	-3.93
201.544	-2.53
202.017	-4.23
202.489	7.67
202.961	-5.63
203.433	-8.53
203.906	-6.03
204.378	-7.53
204.85	-3.63
205.322	-13.13
205.794	-4.13
206.266	-3.03
206.739	-5.63
207.211	-0.73
207.683	-6.63
208.155	-4.83
208.627	-6.83
209.099	-5.63
209.57	-9.63
210.042	-6.53
210.514	-11.33
210.986	-6.83
211.458	-8.63
211.93	-4.03
212.402	-5.53
212.873	-3.93
213.345	-6.03
213.817	-15.03
214.288	-10.13
214.76	-11.33
215.232	-8.83
215.703	-5.53
216.175	-2.93
216.646	-7.63
217.118	-5.43
217.589	-5.13
218.061	-7.33
218.532	-5.83
219.004	-1.13
219.475	-6.83
219.946	-8.53
220.418	-5.43
220.889	-0.93
221.36	0.27
221.832	-7.63
222.303	-12.83
222.774	-2.53
223.245	-6.53
223.717	-10.53
224.188	-8.93
224.659	-5.83
225.13	-4.63
225.601	-3.43
226.072	0.47
226.543	-6.93
227.014	0.67
227.485	-2.03
227.956	-10.23
228.427	-2.03
228.898	4.77
229.369	4.47
229.839	-4.23
230.31	-10.63
230.781	0.07
231.252	-5.43
231.722	-3.33
232.193	-2.63
232.664	-3.73
233.135	-5.63
233.605	-4.23
234.076	-5.53
234.546	-5.83
235.017	1.47
235.487	-8.03
235.958	-6.93
236.428	-7.13
236.899	-3.23
237.369	-6.23
237.84	-8.13
238.31	-0.03
238.78	-0.83
239.251	-8.93
239.721	-2.63
240.191	-2.73
240.662	-5.23
241.132	4.67
241.602	-7.03
242.072	0.47
242.542	2.67
243.013	-9.83
243.483	2.17
243.953	1.67
244.423	-2.93
244.893	-10.13
245.363	1.37
245.833	0.07
246.303	-11.43
246.773	-1.63
247.243	-2.63
247.712	-9.83
248.182	-1.93
248.652	5.57
249.122	-10.33
249.592	-4.13
250.061	3.57
250.531	7.47
251.001	2.67
251.471	-2.43
251.94	3.57
252.41	-5.13
252.879	-6.23
253.349	5.57
253.818	-0.93
254.288	-1.53
254.757	-1.83
255.227	-4.33
255.696	1.07
256.166	0.97
256.635	-2.83
257.105	4.97
257.574	-3.03
258.043	0.57
258.513	-6.93
258.982	-1.83
259.451	-6.83
259.92	-1.83
260.389	-1.33
260.859	13.17
261.328	-0.73
261.797	5.17
262.266	2.07
262.735	2.47
263.204	-4.53
263.673	0.67
264.142	-0.93
264.611	-1.53
265.08	-10.93
265.549	-3.33
266.018	3.87
266.487	-2.53
266.955	-10.03
267.424	-8.53
267.893	5.57
268.362	-1.43
268.83	-4.33
269.299	2.67
269.768	-0.13
270.236	-3.73
270.705	-5.43
271.174	1.27
271.642	0.37
272.111	3.37
272.579	-1.23
273.048	-3.03
273.516	5.67
273.985	-2.13
274.453	9.57
274.922	8.57
275.39	-1.73
275.858	-0.83
276.327	4.97
276.795	8.37
277.263	-0.63
277.731	9.87
278.2	9.57
278.668	7.67
279.136	7.37
279.604	-4.03
280.072	3.17
280.54	5.57
281.008	2.87
281.477	9.57
281.945	8.27
282.413	12.87
282.881	8.37
283.348	0.97
283.816	12.77
284.284	7.77
284.752	9.67
285.22	8.27
285.688	3.87
286.156	-0.73
286.623	6.97
287.091	16.27
287.559	6.57
288.026	4.87
288.494	7.87
288.962	-2.33
289.429	6.07
289.897	11.27
290.364	11.77
290.832	7.97
291.3	10.77
291.767	6.87
292.234	12.87
292.702	7.27
293.169	11.07
293.637	17.17
294.104	8.77
294.571	3.87
295.039	3.97
295.506	6.37
295.973	9.27
296.44	9.07
296.908	12.67
297.375	13.17
297.842	11.27
298.309	4.67
298.776	6.27
299.243	9.87
299.71	4.57
300.177	11.57
300.644	17.67
301.111	7.57
301.578	13.87
302.045	0.57
302.512	11.27
302.979	14.17
303.446	12.17
303.913	9.27
304.379	10.87
304.846	14.67
305.313	17.47
305.78	9.97
306.246	19.07
306.713	13.67
307.18	11.17
307.646	16.37
308.113	12.47
308.579	12.57
309.046	19.27
309.512	21.87
309.979	11.27
310.445	15.87
310.912	18.87
311.378	22.37
311.845	24.97
312.311	22.17
312.777	23.67
313.244	23.77
313.71	27.27
314.176	22.77
314.642	17.37
315.109	20.67
315.575	24.87
316.041	29.67
316.507	20.27
316.973	26.97
317.439	22.57
317.905	27.27
318.371	27.17
318.837	20.27
319.303	22.57
319.769	22.87
320.235	29.17
320.701	20.67
321.167	28.87
321.633	17.57
322.099	25.37
322.564	29.27
323.03	19.67
323.496	29.37
323.962	25.67
324.427	23.47
324.893	30.77
325.359	22.47
325.824	26.87
326.29	27.47
326.755	32.87
327.221	23.47
327.686	27.87
328.152	34.07
328.617	31.17
329.083	29.07
329.548	40.27
330.014	33.97
330.479	25.67
330.944	33.67
331.41	34.87
331.875	31.77
332.34	38.67
332.805	31.37
333.271	35.47
333.736	27.47
334.201	33.47
334.666	38.67
335.131	45.77
335.596	36.97
336.061	40.57
336.526	26.47
336.991	33.17
337.456	38.97
337.921	36.37
338.386	33.77
338.851	33.37
339.316	40.97
339.781	38.77
340.246	35.17
340.711	37.97
341.175	37.37
341.64	27.37
342.105	38.27
342.569	46.57
343.034	47.57
343.499	40.77
343.963	39.77
344.428	48.97
344.893	46.57
345.357	46.67
345.822	45.87
346.286	59.27
346.751	63.77
347.215	60.07
347.679	55.47
348.144	77.57
348.608	63.37
349.073	58.27
349.537	57.87
350.001	63.47
350.465	69.57
350.93	66.37
351.394	64.37
351.858	55.57
352.322	67.47
352.786	63.77
353.25	76.87
353.715	82.57
354.179	75.57
354.643	96.97
355.107	96.47
355.571	83.27
356.035	82.57
356.498	94.47
356.962	92.67
357.426	100.57
357.89	93.97
358.354	75.27
358.818	63.97
359.281	68.57
359.745	61.57
360.209	55.67
360.673	61.67
361.136	63.87
361.6	65.37
362.064	69.27
362.527	73.77
362.991	74.57
363.454	61.97
363.918	58.47
364.381	70.57
364.845	69.37
365.308	76.27
365.772	72.77
366.235	78.37
366.698	66.77
367.162	70.57
367.625	69.87
368.088	72.97
368.552	74.07
369.015	73.87
369.478	81.97
369.941	84.77
370.404	78.67
370.867	81.67
371.331	85.07
371.794	90.57
372.257	80.67
372.72	85.87
373.183	86.77
373.646	79.47
374.109	80.97
374.572	82.77
375.035	81.57
375.497	91.17
375.96	89.97
376.423	88.97
376.886	97.37
377.349	98.17
377.811	84.27
378.274	85.57
378.737	90.87
379.199	96.97
379.662	88.97
380.125	97.07
380.587	94.87
381.05	95.17
381.512	103.07
381.975	106.77
382.437	102.67
382.9	100.37
383.362	114.07
383.825	110.67
384.287	109.57
384.75	104.17
385.212	114.07
385.674	117.07
386.136	119.27
386.599	109.07
387.061	105.67
387.523	106.77
387.985	114.67
388.447	115.67
388.91	112.97
389.372	112.57
389.834	119.17
390.296	111.47
390.758	119.07
391.22	126.27
391.682	132.57
392.144	148.17
392.606	141.27
393.068	126.87
393.529	140.97
393.991	127.97
394.453	118.07
394.915	125.47
395.377	131.27
395.838	126.87
396.3	131.17
396.762	131.97
397.224	117.37
397.685	118.37
398.147	124.37
398.608	116.77
399.07	118.47
399.531	123.67
399.993	127.97
400.454	139.07
400.916	139.27
401.377	139.97
401.839	140.37
402.3	137.47
402.762	150.47
403.223	166.77
403.684	157.37
404.145	138.87
404.607	145.87
405.068	152.57
405.529	152.87
405.99	168.17
406.451	163.07
406.913	162.27
407.374	154.07
407.835	152.57
408.296	157.37
408.757	155.47
409.218	169.07
409.679	162.87
410.14	164.47
410.601	161.87
411.062	166.37
411.522	173.87
411.983	158.77
412.444	165.97
412.905	173.37
413.366	173.77
413.826	186.87
414.287	207.37
414.748	253.17
415.208	241.17
415.669	198.57
416.13	195.47
416.59	194.27
417.051	204.57
417.511	213.47
417.972	226.67
418.432	238.87
418.893	275.97
419.353	237.97
419.814	192.27
420.274	179.77
420.734	176.77
421.195	189.67
421.655	177.57
422.115	190.37
422.576	186.67
423.036	185.97
423.496	200.37
423.956	210.47
424.416	220.97
424.876	254.37
425.336	248.07
425.797	248.87
426.257	243.27
426.717	224.57
427.177	223.47
427.637	215.67
428.097	224.57
428.556	236.97
429.016	251.17
429.476	250.47
429.936	259.77
430.396	262.77
430.856	274.47
431.315	295.17
431.775	329.97
432.235	359.17
432.694	332.47
433.154	342.37
433.614	367.87
434.073	320.07
434.533	268.47
434.993	252.97
435.452	269.17
435.912	276.57
436.371	278.97
436.83	265.07
437.29	248.67
437.749	234.97
438.209	234.67
438.668	260.87
439.127	270.07
439.587	261.07
440.046	237.87
440.505	243.77
440.964	260.97
441.424	306.07
441.883	293.17
442.342	248.97
442.801	222.97
443.26	215.67
443.719	222.97
444.178	216.17
444.637	211.47
445.096	217.47
445.555	215.17
446.014	224.17
446.473	224.27
446.932	229.97
447.391	221.37
447.849	227.17
448.308	216.27
448.767	218.67
449.226	229.67
449.685	231.17
450.143	243.27
450.602	228.57
451.061	223.87
451.519	233.07
451.978	229.07
452.436	231.97
452.895	230.67
453.353	249.47
453.812	238.77
454.27	233.47
454.729	231.67
455.187	241.57
455.646	244.27
456.104	242.57
456.562	253.47
457.021	258.87
457.479	252.27
457.937	270.47
458.395	264.17
458.854	241.97
459.312	261.77
459.77	279.17
460.228	250.17
460.686	238.37
461.144	248.57
461.602	245.67
462.06	249.37
462.518	250.77
462.976	253.47
463.434	253.87
463.892	262.57
464.35	266.57
464.808	284.97
465.266	267.37
465.724	268.17
466.181	275.17
466.639	267.47
467.097	281.27
467.555	290.67
468.012	304.27
468.47	306.17
468.928	318.97
469.385	335.87
469.843	338.17
470.3	346.67
470.758	360.07
471.215	378.57
471.673	398.17
472.13	389.07
472.588	412.47
473.045	373.27
473.503	371.67
473.96	395.07
474.417	403.57
474.875	427.27
475.332	466.77
475.789	457.67
476.246	469.27
476.704	471.57
477.161	495.67
477.618	513.07
478.075	549.27
478.532	595.17
478.989	663.47
479.446	774.57
479.903	742.07
480.36	773.67
480.817	812.37
481.274	905.37
481.731	992.97
482.188	1056.67
482.645	1176.47
483.102	1278.07
483.558	1380.77
484.015	1416.57
484.472	1391.27
484.929	1350.17
485.385	1297.37
485.842	1290.67
486.299	1233.47
486.755	1202.27
487.212	1021.17
487.668	873.07
488.125	813.87
488.582	739.47
489.038	713.77
489.494	681.27
489.951	670.77
490.407	647.97
490.864	627.97
491.32	635.07
491.776	636.27
492.233	644.27
492.689	618.67
493.145	591.37
493.602	588.57
494.058	601.97
494.514	601.47
494.97	623.47
495.426	635.77
495.882	610.47
496.338	599.17
496.794	621.17
497.251	603.57
497.707	622.17
498.163	619.97
498.618	630.47
499.074	628.87
499.53	656.87
499.986	654.37
500.442	620.57
500.898	606.77
501.354	613.67
501.809	604.87
502.265	609.67
502.721	625.87
503.177	635.57
503.632	634.37
504.088	645.77
504.543	671.77
504.999	681.37
505.455	648.57
505.91	628.47
506.366	630.27
506.821	638.17
507.277	625.17
507.732	628.27
508.187	619.77
508.643	630.27
509.098	632.87
509.553	655.17
510.009	654.57
510.464	667.47
510.919	687.17
511.375	699.67
511.83	703.47
512.285	723.57
512.74	746.47
513.195	768.97
513.65	763.47
514.105	755.37
514.56	764.27
515.015	768.57
515.47	785.27
515.925	770.37
516.38	770.17
516.835	783.07
517.29	768.67
517.745	771.67
518.2	752.97
518.655	745.57
519.109	736.97
519.564	739.27
520.019	722.27
520.474	717.17
520.928	722.37
521.383	711.97
521.838	713.07
522.292	708.77
522.747	699.97
523.201	704.27
523.656	698.47
524.11	682.17
524.565	694.87
525.019	688.27
525.474	698.97
525.928	695.77
526.382	685.67
526.837	701.47
527.291	702.37
527.745	695.67
528.2	692.97
528.654	685.27
529.108	679.17
529.562	691.67
530.016	684.27
530.47	682.17
530.925	681.67
531.379	688.37
531.833	702.37
532.287	699.57
532.741	695.97
533.195	700.47
533.649	712.67
534.103	716.67
534.556	703.37
535.01	698.57
535.464	706.37
535.918	706.37
536.372	712.37
536.826	710.07
537.279	705.57
537.733	710.97
538.187	714.57
538.64	706.57
539.094	725.17
539.548	719.47
540.001	722.67
540.455	718.37
540.908	737.07
541.362	743.17
541.815	744.67
542.269	756.47
542.722	753.37
543.175	766.67
543.629	774.27
544.082	780.07
544.536	793.27
544.989	787.87
545.442	805.27
545.895	786.07
546.349	797.17
546.802	790.57
547.255	797.57
547.708	813.27
548.161	821.77
548.614	824.17
549.067	832.67
549.52	825.77
549.973	811.67
550.426	804.87
550.879	794.07
551.332	798.37
551.785	815.37
552.238	811.77
552.691	823.07
553.144	831.47
553.596	858.47
554.049	871.67
554.502	898.17
554.955	913.17
555.407	902.97
555.86	897.87
556.313	907.47
556.765	881.47
557.218	884.47
557.67	878.27
558.123	880.97
558.576	868.07
559.028	876.47
559.48	883.77
559.933	880.57
560.385	851.67
560.838	821.07
561.29	794.07
561.742	787.77
562.195	774.27
562.647	774.77
563.099	769.07
563.551	782.57
564.004	783.37
564.456	773.47
564.908	760.67
565.36	740.47
565.812	734.17
566.264	716.27
566.716	727.97
567.168	700.77
567.62	714.77
568.072	708.97
568.524	700.47
568.976	695.87
569.428	677.77
569.88	686.67
570.332	694.37
570.784	687.67
571.235	704.47
571.687	712.27
572.139	710.97
572.59	721.97
573.042	720.27
573.494	722.37
573.945	710.07
574.397	689.27
574.849	703.37
575.3	703.07
575.752	686.67
576.203	689.97
576.655	683.97
577.106	681.17
577.557	675.77
578.009	680.37
578.46	675.57
578.912	670.97
579.363	663.57
579.814	676.97
580.265	666.47
580.717	674.97
581.168	674.47
581.619	687.17
582.07	687.87
582.521	679.07
582.972	673.07
583.423	677.87
583.875	688.27
584.326	694.97
584.777	706.77
585.227	729.67
585.678	756.67
586.129	778.47
586.58	802.67
587.031	825.27
587.482	863.47
587.933	905.27
588.384	869.27
588.834	814.37
589.285	784.97
589.736	785.57
590.186	773.07
590.637	766.97
591.088	749.77
591.538	750.87
591.989	738.37
592.439	737.77
592.89	727.27
593.34	711.37
593.791	711.27
594.241	711.57
594.692	697.57
595.142	697.17
595.593	707.07
596.043	708.67
596.493	703.47
596.943	717.87
597.394	733.47
597.844	718.87
598.294	742.17
598.744	758.97
599.195	788.37
599.645	839.77
600.095	866.57
600.545	934.77
600.995	973.17
601.445	1041.57
601.895	1092.57
602.345	1141.17
602.795	1123.17
603.245	1076.67
603.695	1028.47
604.145	978.97
604.594	917.37
605.044	875.57
605.494	812.87
605.944	766.27
606.393	753.47
606.843	746.47
607.293	736.87
607.743	739.27
608.192	749.07
608.642	761.77
609.091	767.47
609.541	778.47
609.99	770.37
610.44	770.37
610.889	729.37
611.339	698.17
611.788	694.07
612.238	690.87
612.687	704.67
613.136	707.67
613.586	705.97
614.035	706.07
614.484	725.27
614.933	714.27
615.383	722.47
615.832	712.97
616.281	706.07
616.73	681.57
617.179	660.37
617.628	645.67
618.077	637.37
618.526	632.77
618.975	627.57
619.424	618.67
619.873	613.67
620.322	621.97
620.771	613.27
621.22	606.57
621.669	594.37
622.118	600.07
622.567	590.17
623.015	573.57
623.464	583.97
623.913	572.87
624.361	563.67
624.81	547.77
625.259	555.37
625.707	555.37
626.156	566.77
626.604	575.17
627.053	576.17
627.501	567.77
627.95	574.17
628.398	598.07
628.847	567.87
629.295	586.87
629.744	587.57
630.192	571.97
630.64	572.87
631.089	556.77
631.537	549.97
631.985	542.07
632.433	543.77
632.881	547.07
633.33	543.37
633.778	535.27
634.226	534.57
634.674	547.67
635.122	549.97
635.57	570.77
636.018	570.87
636.466	570.87
636.914	559.67
637.362	577.97
637.81	581.77
638.258	595.67
638.705	594.87
639.153	613.37
639.601	631.27
640.049	651.97
640.497	678.97
640.944	692.87
641.392	655.47
641.84	611.37
642.287	594.27
642.735	572.27
643.182	579.67
643.63	575.17
644.078	567.77
644.525	581.57
644.973	583.97
645.42	603.87
645.867	616.97
646.315	646.57
646.762	668.77
647.21	688.57
647.657	709.97
648.104	739.07
648.551	755.27
648.999	820.07
649.446	902.17
649.893	981.17
650.34	1125.67
650.787	1342.97
651.234	1651.37
651.682	2126.77
652.129	2887.37
652.576	4123.07
653.023	5979.87
653.47	8034.37
653.917	9974.47
654.363	11397.07
654.81	12513.27
655.257	11887.57
655.704	7870.47
656.151	4739.07
656.598	3098.47
657.044	2244.77
657.491	1739.37
657.938	1408.57
658.385	1175.67
658.831	1033.27
659.278	941.07
659.724	829.87
660.171	771.47
660.618	708.67
661.064	682.37
661.511	663.57
661.957	657.77
662.404	636.37
662.85	649.37
663.296	621.37
663.743	563.77
664.189	536.87
664.635	539.17
665.082	539.97
665.528	534.27
665.974	517.77
666.42	519.87
666.867	513.87
667.313	495.07
667.759	474.17
668.205	462.97
668.651	458.87
669.097	457.37
669.543	453.77
669.989	450.47
670.435	451.37
670.881	447.87
671.327	459.97
671.773	479.47
672.219	510.27
672.665	567.47
673.11	607.57
673.556	637.27
674.002	681.57
674.448	670.77
674.893	570.07
675.339	493.37
675.785	449.07
676.23	422.67
676.676	401.57
677.122	401.47
677.567	383.27
678.013	376.27
678.458	369.47
678.904	370.67
679.349	354.47
679.794	358.17
680.24	357.67
680.685	362.87
681.131	355.07
681.576	362.27
682.021	368.07
682.466	362.87
682.912	361.27
683.357	366.07
683.802	397.07
684.247	425.67
684.692	465.47
685.137	514.07
685.583	553.17
686.028	567.27
686.473	530.87
686.918	454.17
687.363	427.17
687.807	402.77
688.252	372.57
688.697	363.17
689.142	348.27
689.587	349.77
690.032	340.17
690.477	352.67
690.921	366.87
691.366	393.37
691.811	417.47
692.255	439.07
692.7	479.57
693.145	526.77
693.589	752.57
694.034	1203.17
694.478	1613.17
694.923	1783.27
695.367	2304.67
695.812	1234.67
696.256	511.97
696.701	381.07
697.145	350.77
697.59	339.77
698.034	332.77
698.478	332.07
698.922	327.97
699.367	330.97
699.811	340.57
700.255	359.87
700.699	394.27
701.143	446.07
701.588	491.57
702.032	522.47
702.476	522.17
702.92	509.77
703.364	514.27
703.808	681.97
704.252	1109.47
704.696	1521.67
705.14	1731.47
705.584	2175.57
706.027	1105.17
706.471	551.97
706.915	418.37
707.359	363.77
707.803	325.67
708.246	323.47
708.69	320.07
709.134	317.67
709.577	317.87
710.021	321.17
710.465	310.47
710.908	308.57
711.352	317.87
711.795	315.17
712.239	363.67
712.682	395.07
713.126	416.47
713.569	471.47
714.012	372.57
714.456	305.77
714.899	288.17
715.342	277.87
715.786	263.87
716.229	267.17
716.672	256.27
717.115	258.57
717.558	255.57
718.002	260.77
718.445	264.57
718.888	288.07
719.331	305.37
719.774	315.57
720.217	318.97
720.66	296.47
721.103	271.27
721.546	258.57
721.989	249.67
722.432	235.97
722.874	243.67
723.317	235.87
723.76	233.97
724.203	267.67
724.645	341.97
725.088	472.47
725.531	586.27
725.974	650.17
726.416	566.17
726.859	319.87
727.301	254.97
727.744	241.67
728.187	247.47
728.629	245.27
729.071	252.27
729.514	266.37
729.956	276.67
730.399	291.57
730.841	291.77
731.283	277.67
731.726	268.87
732.168	266.97
732.61	280.97
733.053	301.97
733.495	326.77
733.937	361.07
734.379	411.97
734.821	467.87
735.263	583.97
735.705	907.77
736.148	1708.67
736.59	2722.67
737.032	3106.67
737.474	2560.97
737.916	852.97
738.357	450.67
738.799	328.27
739.241	318.67
739.683	294.27
740.125	299.47
740.567	304.97
741.008	331.67
741.45	325.57
741.892	325.87
742.334	364.77
742.775	371.97
743.217	356.87
743.658	278.27
744.1	262.77
744.542	278.07
744.983	332.97
745.425	362.07
745.866	359.37
746.307	295.57
746.749	285.27
747.19	335.17
747.632	495.07
748.073	977.07
748.514	2019.07
748.956	2976.87
749.397	3788.97
749.838	3109.77
750.279	3028.07
750.72	1547.07
751.162	569.37
751.603	334.07
752.044	261.57
752.485	226.77
752.926	210.57
753.367	210.67
753.808	204.57
754.249	195.27
754.69	186.07
755.131	188.77
755.572	191.87
756.013	185.27
756.453	187.67
756.894	200.87
757.335	186.57
757.776	196.47
758.216	203.57
758.657	211.87
759.098	210.67
759.538	237.47
759.979	284.27
760.42	410.07
760.86	771.87
761.301	2031.07
761.741	4760.47
762.182	6572.37
762.622	4633.67
763.063	1371.17
763.503	561.57
763.943	345.47
764.384	284.47
764.824	270.17
765.264	256.97
765.705	221.77
766.145	188.97
766.585	179.67
767.025	178.77
767.465	174.67
767.906	193.57
768.346	216.67
768.786	223.27
769.226	223.97
769.666	327.37
770.106	667.77
770.546	1689.37
770.986	2717.17
771.426	2417.07
771.866	828.67
772.306	346.17
772.745	217.37
773.185	178.07
773.625	162.57
774.065	156.77
774.505	170.57
774.944	220.77
775.384	399.77
775.824	634.47
776.263	603.47
776.703	303.57
777.142	163.67
777.582	139.37
778.021	128.37
778.461	124.67
778.9	130.87
779.34	129.37
779.779	107.97
780.219	108.07
780.658	108.97
781.097	115.57
781.537	119.37
781.976	112.87
782.415	105.87
782.855	105.57
783.294	104.47
783.733	107.97
784.172	109.97
784.611	105.57
785.05	113.27
785.489	119.17
785.928	120.97
786.367	117.47
786.806	125.67
787.245	130.77
787.684	140.27
788.123	152.07
788.562	137.37
789.001	125.07
789.44	118.07
789.879	116.77
790.317	116.87
790.756	134.17
791.195	132.97
791.634	152.67
792.072	211.87
792.511	391.27
792.95	1101.07
793.388	2205.77
793.827	1951.87
794.265	688.87
794.704	288.97
795.142	186.57
795.581	155.37
796.019	137.87
796.458	133.57
796.896	128.07
797.334	137.27
797.773	161.87
798.211	231.17
798.649	485.67
799.087	1099.67
799.526	1682.97
799.964	2125.97
800.402	2046.37
800.84	778.07
801.278	323.87
801.716	192.07
802.154	157.47
802.592	153.67
803.03	141.57
803.468	146.67
803.906	157.37
804.344	159.07
804.782	146.87
805.22	139.47
805.658	131.87
806.096	157.47
806.533	162.57
806.971	180.37
807.409	229.17
807.847	339.27
808.284	743.47
808.722	2032.87
809.16	3429.87
809.597	3374.77
810.035	5695.37
810.472	5876.67
810.91	2175.57
811.347	833.57
811.785	424.67
812.222	269.37
812.66	206.07
813.097	169.47
813.535	137.57
813.972	132.17
814.409	119.97
814.846	117.57
815.284	114.97
815.721	106.27
816.158	107.07
816.595	115.47
817.032	156.87
817.47	187.97
817.907	130.77
818.344	105.87
818.781	104.77
819.218	103.27
819.655	130.97
820.092	197.57
820.529	220.67
820.966	177.97
821.403	126.57
821.839	103.37
822.276	104.37
822.713	126.67
823.15	141.67
823.587	123.27
824.023	155.07
824.46	328.57
824.897	959.47
825.333	1384.67
825.77	605.57
826.206	245.37
826.643	145.47
827.08	109.07
827.516	90.87
827.953	78.17
828.389	84.67
828.825	81.57
829.262	66.87
829.698	59.77
830.135	63.67
830.571	69.47
831.007	64.67
831.443	64.97
831.88	58.07
832.316	60.47
832.752	73.67
833.188	65.07
833.624	64.37
834.06	69.07
834.497	73.27
834.933	73.57
835.369	75.27
835.805	69.97
836.241	72.97
836.677	75.27
837.112	97.17
837.548	106.47
837.984	139.67
838.42	221.27
838.856	547.67
839.292	1626.37
839.727	2357.67
840.163	1122.87
840.599	1005.77
841.034	2153.57
841.47	2160.87
841.906	801.57
842.341	340.17
842.777	199.07
843.212	212.97
843.648	195.27
844.083	112.47
844.519	86.37
844.954	72.77
845.39	63.87
845.825	53.27
846.261	58.37
846.696	53.57
847.131	52.07
847.566	51.87
848.002	54.57
848.437	56.37
848.872	61.07
849.307	64.47
849.742	89.57
850.177	200.37
850.613	605.77
851.048	899.47
851.483	392.17
851.918	161.07
852.353	88.87
852.788	55.67
853.223	48.27
853.657	50.57
854.092	46.67
854.527	42.07
854.962	40.37
855.397	49.57
855.832	50.87
856.266	42.27
856.701	41.77
857.136	41.07
857.57	41.17
858.005	59.17
858.44	60.67
858.874	40.27
859.309	54.67
859.743	41.27
860.178	46.57
860.612	46.27
861.047	56.37
861.481	64.47
861.915	69.77
862.35	50.27
862.784	31.47
863.218	41.97
863.653	39.07
864.087	45.97
864.521	51.67
864.955	70.67
865.39	159.87
865.824	174.97
866.258	121.27
866.692	177.37
867.126	188.77
867.56	107.77
867.994	54.07
868.428	34.97
868.862	48.67
869.296	53.87
869.73	66.67
870.164	54.37
870.598	47.47
871.031	40.57
871.465	29.17
871.899	30.07
872.333	25.57
872.766	26.97
873.2	20.97
873.634	25.87
874.067	26.77
874.501	21.37
874.935	29.97
875.368	25.17
875.802	27.27
876.235	26.87
876.669	25.97
877.102	20.77
877.535	28.57
877.969	21.87
878.402	26.97
878.836	13.47
879.269	16.37
879.702	24.97
880.135	21.07
880.569	22.57
881.002	17.97
881.435	17.37
881.868	22.77
882.301	23.67
882.734	16.07
883.167	22.87
883.601	21.07
884.034	21.27
884.467	20.97
884.899	20.37
885.332	19.97
885.765	15.67
886.198	17.07
886.631	16.47
887.064	16.07
887.497	23.07
887.929	26.17
888.362	13.27
888.795	4.37
889.228	20.77
889.66	20.67
890.093	12.07
890.526	20.07
890.958	10.77
891.391	17.17
891.823	20.97
892.256	16.07
892.688	17.37
893.121	18.37
893.553	15.07
893.985	20.97
894.418	19.27
894.85	13.57
895.282	12.97
895.715	15.77
896.147	19.57
896.579	18.57
897.011	16.17
897.444	20.67
897.876	11.07
898.308	14.97
898.74	10.67
899.172	11.87
899.604	18.07
900.036	20.87
900.468	12.57
900.9	14.27
901.332	19.27
901.764	16.37
902.196	17.07
902.628	11.97
903.06	19.57
903.491	32.07
903.923	28.57
904.355	23.57
904.787	21.17
905.218	23.37
905.65	19.97
906.082	14.27
906.513	15.17
906.945	16.87
907.376	12.27
907.808	19.07
908.239	15.87
908.671	17.17
909.102	18.67
909.534	29.57
909.965	44.57
910.397	96.37
910.828	333.97
911.259	494.37
911.691	225.37
912.122	108.97
912.553	50.57
912.984	33.77
913.415	24.67
913.847	21.77
914.278	20.07
914.709	12.77
915.14	21.67
915.571	18.27
916.002	9.67
916.433	22.57
916.864	20.07
917.295	13.37
917.726	18.47
918.157	15.17
918.587	27.77
919.018	27.17
919.449	23.97
919.88	21.27
920.311	32.77
920.741	55.17
921.172	176.47
921.603	158.17
922.033	70.97
922.464	43.77
922.895	21.97
923.325	21.97
923.756	12.77
924.186	12.17
924.617	17.47
925.047	16.37
925.478	24.67
925.908	23.17
926.338	15.67
926.769	13.27
927.199	19.67
927.629	7.67
928.06	12.57
928.49	3.27
928.92	9.97
929.35	7.27
929.78	9.27
930.21	8.07
930.641	0.77
931.071	8.07
931.501	2.27
931.931	11.87
932.361	6.37
932.791	2.87
933.221	3.17
933.651	8.17
934.08	17.97
934.51	32.47
934.94	8.37
935.37	7.47
935.8	6.67
936.229	6.27
936.659	6.17
937.089	2.07
937.519	8.27
937.948	22.27
938.378	19.87
938.807	2.77
939.237	5.57
939.666	4.77
940.096	-5.73
940.525	4.37
940.955	2.37
941.384	5.67
941.814	-1.73
942.243	-0.73
942.672	5.07
943.102	-1.83
943.531	2.57
943.96	6.57
944.39	3.17
944.819	-4.93
945.248	3.97
945.677	4.57
946.106	2.17
946.535	5.17
946.964	1.67
947.393	2.07
947.822	1.07
948.251	-5.73
948.68	5.87
949.109	0.47
949.538	8.87
949.967	-0.33
950.396	-1.23
950.825	-0.13
951.254	5.47
951.682	-3.03
952.111	6.27
952.54	2.27
952.969	-1.43
953.397	-10.73
953.826	-1.23
954.254	-5.23
954.683	-2.93
955.112	-0.13
955.54	-2.93
955.969	0.07
956.397	-2.63
956.826	-1.53
957.254	-0.93
957.682	0.57
958.111	5.07
958.539	-2.53
958.967	0.47
959.396	-0.63
959.824	-0.13
960.252	1.27
960.68	-3.43
961.109	-1.03
961.537	-4.73
961.965	-1.93
962.393	0.77
962.821	-8.73
963.249	0.67
963.677	5.27
964.105	6.57
964.533	42.37
964.961	39.07
965.389	23.57
965.817	9.47
966.245	0.27
966.672	5.17
967.1	-9.23
967.528	-0.33
967.956	-5.33
968.383	-0.43
968.811	1.47
969.239	1.27
969.666	-5.13
970.094	-0.23
970.522	-3.93
970.949	1.27
971.377	-2.83
971.804	0.67
972.232	-5.83
972.659	0.27
973.087	-0.43
973.514	-5.33
973.941	-3.73
974.369	3.17
974.796	-3.73
975.223	5.47
975.651	-2.23
976.078	0.17
976.505	-7.93
976.932	5.57
977.359	15.27
977.786	13.67
978.214	-0.73
978.641	-0.93
979.068	-9.43
979.495	-8.43
979.922	-2.23
980.349	-7.13
980.776	1.87
981.202	-1.23
981.629	0.47
982.056	-0.23
982.483	-1.23
982.91	6.97
983.337	-5.03
983.763	3.57
984.19	-11.33
984.617	-6.33
985.043	-6.33
985.47	-4.33
985.897	-3.53
986.323	-9.53
986.75	2.57
987.176	2.17
987.603	-1.63
988.029	0.37
988.456	-0.23
988.882	1.97
989.308	-4.83
989.735	0.47
990.161	-0.03
990.587	2.17
991.014	-4.33
991.44	1.27
991.866	-7.63
992.292	-6.23
992.719	-3.13
993.145	1.07
993.571	-4.43
993.997	-5.23
994.423	-7.93
994.849	-8.13
995.275	2.57
995.701	-3.23
996.127	-3.63
996.553	-1.03
996.979	1.17
997.405	-3.13
997.83	-7.93
998.256	-6.13
998.682	-0.03
999.108	-10.83
999.534	0.07
999.959	0.27
1000.385	-6.33
1000.811	2.97
1001.236	-9.13
1001.662	-13.73
1002.087	-10.33
1002.513	-5.43
1002.938	1.47
1003.364	-3.83
1003.789	-4.73
1004.215	0.17
1004.64	2.37
1005.066	1.07
1005.491	-0.23
1005.916	-0.83
1006.342	-6.43
1006.767	-8.73
1007.192	4.87
1007.617	-1.23
1008.042	-8.53
1008.468	-8.73
1008.893	-1.13
1009.318	-4.23
1009.743	-1.93
1010.168	3.27
1010.593	0.27
1011.018	-2.23
1011.443	0.77
1011.868	1.47
1012.293	-6.93
1012.718	-6.03
1013.143	-0.03
1013.567	0.67
1013.992	-2.43
1014.417	-10.03
1014.842	1.77
1015.267	-2.53
1015.691	-6.73
1016.116	1.27
1016.541	-1.33
1016.965	4.57
1017.39	-2.93
1017.814	-0.63
1018.239	0.07
1018.663	-5.93
1019.088	-12.13
1019.512	-4.03
1019.937	-3.13
1020.361	-3.43
1020.785	-13.73
1021.21	-3.23
1021.634	-5.63
1022.058	-1.43
1022.483	-1.43
1022.907	-2.93
1023.331	-6.03
1023.755	-7.03
1024.179	-2.33
1024.604	-6.63
1025.028	-6.83
1025.452	-3.03
1025.876	-2.63
1026.3	-4.03
1026.724	-12.13
1027.148	-6.43
1027.572	-8.73
1027.996	-0.53
1028.42	-3.73
1028.843	-6.13
1029.267	-5.03
1029.691	1.37
1030.115	-4.93
1030.539	-6.23
1030.962	-7.43
1031.386	-12.43
1031.81	-3.43
1032.233	5.67
1032.657	-6.33
1033.08	-1.23
1033.504	-4.13
1033.927	-6.63
1034.351	-4.63
1034.774	-8.73
1035.198	-3.33
1035.621	-11.13
1036.045	-9.53
1036.468	-4.93
1036.891	-10.93
1037.315	-5.13
1037.738	-10.23
1038.161	2.97
1038.584	-7.73
1039.008	-8.83
1039.431	-3.93
1039.854	-3.03
1040.277	-11.13
1040.7	-17.53
1041.123	-3.73
1041.546	-7.23
1041.969	-3.73
1042.392	-7.83
1042.815	-5.13
1043.238	3.77
1043.661	-0.33
1044.084	-7.43
1044.507	-9.63
1044.93	-9.63
1045.352	-5.33
1045.775	-4.13
1046.198	-3.33
1046.621	-6.63
1047.043	-3.23
1047.466	3.17
1047.889	-4.23
1048.311	-7.23
1048.734	-4.73
1049.156	-4.53
1049.579	-1.03
1050.001	-1.23
1050.424	-4.53
1050.846	-8.03
1051.269	-2.63
1051.691	-8.13
1052.113	-9.73
1052.536	-5.13
1052.958	-4.23
1053.38	-6.73
1053.802	-13.03
1054.225	2.37
1054.647	-4.83
1055.069	-5.63
1055.491	3.67
1055.913	-9.53
1056.335	-1.83
1056.757	-10.43
1057.179	-4.13
1057.601	-7.53
1058.023	-3.53
1058.445	-9.53
1058.867	-11.13
1059.289	-5.63
1059.711	-9.73
1060.133	-2.73
1060.555	-10.63
1060.976	-9.73
1061.398	-10.23
1061.82	-12.93
1062.241	-9.93
1062.663	-13.63
1063.085	-6.83
1063.506	-5.03
1063.928	-3.03
1064.35	-1.43
1064.771	-12.23
1065.193	-6.33
1065.614	-11.13
1066.035	-5.13
1066.457	-4.83
1066.878	-4.73
1067.3	-13.03
1067.721	-4.53
1068.142	-7.93
1068.564	-6.93
1068.985	-8.33
1069.406	-5.53
1069.827	-6.33
1070.248	0.47
1070.67	-7.43
1071.091	-8.53
1071.512	-3.33
1071.933	-1.23
1072.354	-7.23
1072.775	-4.33
1073.196	-9.23
1073.617	-7.23
1074.038	-5.93
1074.459	-1.13
1074.88	-13.03
1075.3	-6.83
1075.721	-7.93
1076.142	-1.73
1076.563	-2.33
1076.983	-8.73
1077.404	-12.03
1077.825	-5.43
1078.246	-3.63
1078.666	-16.53
1079.087	-7.63
1079.507	-7.93
1079.928	-7.03
1080.348	-2.03
1080.769	-4.33
1081.189	3.77
1081.61	-5.53
1082.03	-9.43
1082.451	-8.03
1082.871	-9.43
1083.291	-6.63
1083.711	-9.03
1084.132	-7.33
1084.552	-5.93
1084.972	-4.73
1085.392	-11.43
1085.813	-12.63
1086.233	-11.63
1086.653	-3.03
1087.073	-6.63
1087.493	-8.93
1087.913	-4.83
1088.333	-8.43
1088.753	-4.23
1089.173	-2.43
1089.593	-7.03
1090.013	-6.23
1090.433	-6.03
1090.852	-10.13
1091.272	-2.83
1091.692	-7.33
1092.112	-0.13
1092.531	-8.63
1092.951	-16.23
1093.371	-1.93
1093.79	-3.63
1094.21	-3.23
1094.63	-5.83
1095.049	-7.23
1095.469	-2.83
1095.888	-2.83
1096.308	4.17
1096.727	2.77
1097.146	-5.73
1097.566	-1.23
1097.985	-3.13
1098.405	-2.23
1098.824	-2.63
1099.243	-10.13
1099.662	-7.13
1100.082	-7.33
1100.501	-1.33
1100.92	-8.53
1101.339	-2.73
1101.758	-10.33
