Data from 20171114-ORNL-Ar_H_NY_Subt18_08-06-14-455.txt Node
Date: Tue Nov 14 08:06:14 EST 2017
User: Ender
Spectrometer: HR+D1039
Trigger mode: 0
Integration Time (sec): 2.730000E-2
Scans to average: 10
Electric dark correction enabled: true
Nonlinearity correction enabled: false
Boxcar width: 0
XAxis mode: Wavelengths
Number of Pixels in Spectrum: 2048
>>>>>Begin Spectral Data<<<<<
187.836	-1.57
188.309	-1.57
188.782	-1.57
189.255	0.73
189.728	-6.07
190.201	4.23
190.674	0.52
191.147	7.12
191.619	-3.88
192.092	3.73
192.565	-0.88
193.038	-0.07
193.511	2.02
193.984	3.33
194.456	-1.77
194.929	-2.17
195.402	-1.98
195.874	-3.27
196.347	-6.07
196.82	-8.07
197.292	2.83
197.765	1.33
198.237	-9.27
198.71	6.23
199.182	-4.17
199.655	6.43
200.127	5.23
200.6	-3.88
201.072	0.23
201.544	-5.27
202.017	-5.38
202.489	3.02
202.961	-0.47
203.433	-2.88
203.906	-6.37
204.378	-3.97
204.85	-6.67
205.322	-10.38
205.794	-7.08
206.266	-1.57
206.739	-11.57
207.211	2.83
207.683	-8.77
208.155	-8.48
208.627	-5.38
209.099	-6.17
209.57	-7.87
210.042	-7.67
210.514	-4.17
210.986	-8.37
211.458	-3.67
211.93	-4.98
212.402	1.43
212.873	-5.67
213.345	-8.77
213.817	-6.38
214.288	-6.88
214.76	-15.67
215.232	-5.17
215.703	0.33
216.175	-10.57
216.646	-1.37
217.118	-9.38
217.589	-1.27
218.061	-8.77
218.532	-2.77
219.004	-1.67
219.475	-2.47
219.946	-4.48
220.418	-7.97
220.889	4.33
221.36	-1.37
221.832	-4.38
222.303	-8.47
222.774	0.43
223.245	-5.77
223.717	-4.88
224.188	-3.37
224.659	-12.38
225.13	-8.37
225.601	-7.27
226.072	-1.77
226.543	-0.38
227.014	-0.67
227.485	-3.57
227.956	-10.37
228.427	-4.37
228.898	1.03
229.369	6.93
229.839	-0.17
230.31	1.43
230.781	-0.67
231.252	-4.88
231.722	-2.08
232.193	-3.67
232.664	-3.87
233.135	0.93
233.605	-0.77
234.076	-5.58
234.546	-4.08
235.017	3.33
235.487	-3.47
235.958	-8.77
236.428	-4.27
236.899	6.03
237.369	2.03
237.84	-0.17
238.31	2.62
238.78	1.33
239.251	-1.37
239.721	3.23
240.191	-0.87
240.662	0.33
241.132	3.73
241.602	-2.67
242.072	5.12
242.542	2.53
243.013	2.43
243.483	4.73
243.953	-3.37
244.423	-3.87
244.893	-5.27
245.363	2.83
245.833	4.62
246.303	-6.57
246.773	2.43
247.243	-1.38
247.712	0.02
248.182	3.83
248.652	9.23
249.122	-4.58
249.592	12.73
250.061	21.53
250.531	31.63
251.001	15.13
251.471	26.83
251.94	14.92
252.41	0.73
252.879	-1.57
253.349	13.33
253.818	11.23
254.288	6.23
254.757	8.83
255.227	3.53
255.696	-0.67
256.166	6.13
256.635	4.33
257.105	10.03
257.574	7.23
258.043	9.03
258.513	15.62
258.982	16.13
259.451	7.23
259.92	11.23
260.389	8.03
260.859	13.73
261.328	12.83
261.797	16.63
262.266	9.43
262.735	6.53
263.204	5.33
263.673	-0.57
264.142	8.23
264.611	-1.48
265.08	-5.38
265.549	0.43
266.018	2.43
266.487	-0.27
266.955	-4.77
267.424	-0.27
267.893	-1.77
268.362	1.43
268.83	2.53
269.299	7.73
269.768	8.12
270.236	6.93
270.705	1.62
271.174	7.73
271.642	8.73
272.111	10.53
272.579	17.92
273.048	22.02
273.516	25.23
273.985	21.83
274.453	18.62
274.922	15.52
275.39	11.12
275.858	6.43
276.327	7.43
276.795	17.23
277.263	11.62
277.731	30.33
278.2	51.33
278.668	56.83
279.136	46.83
279.604	19.03
280.072	10.33
280.54	8.13
281.008	7.73
281.477	12.33
281.945	11.33
282.413	11.33
282.881	11.73
283.348	4.83
283.816	14.83
284.284	12.62
284.752	13.23
285.22	16.63
285.688	13.52
286.156	23.93
286.623	45.73
287.091	50.83
287.559	31.43
288.026	19.93
288.494	14.62
288.962	-1.57
289.429	15.33
289.897	17.73
290.364	17.02
290.832	17.53
291.3	18.93
291.767	15.73
292.234	20.93
292.702	15.53
293.169	23.13
293.637	24.53
294.104	23.12
294.571	9.52
295.039	13.73
295.506	15.23
295.973	14.62
296.44	14.33
296.908	15.43
297.375	22.83
297.842	18.83
298.309	17.23
298.776	21.83
299.243	21.42
299.71	10.12
300.177	21.83
300.644	23.53
301.111	21.43
301.578	28.02
302.045	22.53
302.512	20.43
302.979	22.93
303.446	22.43
303.913	27.03
304.379	21.12
304.846	32.53
305.313	25.62
305.78	25.02
306.246	21.93
306.713	26.23
307.18	24.73
307.646	28.92
308.113	29.12
308.579	27.02
309.046	29.73
309.512	26.63
309.979	18.52
310.445	29.52
310.912	29.23
311.378	31.23
311.845	26.23
312.311	30.73
312.777	36.12
313.244	34.13
313.71	38.43
314.176	33.03
314.642	34.43
315.109	31.23
315.575	38.53
316.041	38.43
316.507	28.83
316.973	38.93
317.439	29.73
317.905	37.73
318.371	37.62
318.837	35.33
319.303	33.12
319.769	36.23
320.235	35.83
320.701	38.52
321.167	39.12
321.633	35.73
322.099	39.62
322.564	44.33
323.03	43.33
323.496	38.63
323.962	48.73
324.427	33.62
324.893	47.33
325.359	39.92
325.824	40.23
326.29	34.52
326.755	40.33
327.221	37.33
327.686	45.73
328.152	48.83
328.617	40.93
329.083	46.12
329.548	52.33
330.014	45.73
330.479	44.83
330.944	44.23
331.41	46.02
331.875	43.83
332.34	44.13
332.805	44.92
333.271	52.03
333.736	50.73
334.201	53.53
334.666	49.62
335.131	58.52
335.596	56.02
336.061	51.83
336.526	41.83
336.991	55.43
337.456	53.93
337.921	46.33
338.386	46.12
338.851	46.12
339.316	51.33
339.781	46.13
340.246	55.13
340.711	49.33
341.175	54.53
341.64	48.03
342.105	54.03
342.569	58.92
343.034	55.52
343.499	55.33
343.963	51.93
344.428	66.13
344.893	59.33
345.357	63.62
345.822	58.73
346.286	65.73
346.751	74.63
347.215	68.53
347.679	77.73
348.144	100.52
348.608	88.43
349.073	71.93
349.537	80.23
350.001	80.33
350.465	91.23
350.93	81.83
351.394	78.33
351.858	70.23
352.322	85.83
352.786	89.93
353.25	107.12
353.715	119.83
354.179	99.52
354.643	125.33
355.107	135.62
355.571	109.53
356.035	108.83
356.498	124.93
356.962	123.73
357.426	140.62
357.89	119.83
358.354	94.23
358.818	82.33
359.281	81.13
359.745	79.63
360.209	73.13
360.673	73.23
361.136	83.63
361.6	87.23
362.064	86.33
362.527	89.42
362.991	90.03
363.454	81.33
363.918	81.73
364.381	76.83
364.845	84.12
365.308	88.33
365.772	89.23
366.235	83.43
366.698	88.83
367.162	87.73
367.625	88.93
368.088	91.62
368.552	86.93
369.015	87.43
369.478	103.03
369.941	105.62
370.404	98.02
370.867	108.62
371.331	113.62
371.794	121.23
372.257	115.23
372.72	114.52
373.183	111.53
373.646	112.83
374.109	105.43
374.572	110.12
375.035	112.93
375.497	110.23
375.96	111.53
376.423	103.33
376.886	113.63
377.349	109.73
377.811	108.43
378.274	110.23
378.737	114.23
379.199	113.33
379.662	112.12
380.125	124.43
380.587	120.33
381.05	127.33
381.512	135.23
381.975	141.02
382.437	133.63
382.9	128.93
383.362	133.73
383.825	151.53
384.287	150.33
384.75	143.62
385.212	148.83
385.674	148.83
386.136	139.03
386.599	132.43
387.061	130.43
387.523	138.12
387.985	140.83
388.447	154.62
388.91	149.73
389.372	166.93
389.834	156.92
390.296	150.83
390.758	163.93
391.22	177.83
391.682	216.63
392.144	298.23
392.606	230.72
393.068	167.33
393.529	170.02
393.991	158.73
394.453	155.62
394.915	155.02
395.377	204.83
395.838	226.52
396.3	163.23
396.762	143.03
397.224	136.23
397.685	132.42
398.147	136.83
398.608	134.53
399.07	140.53
399.531	134.93
399.993	147.93
400.454	155.23
400.916	147.12
401.377	150.13
401.839	153.12
402.3	160.93
402.762	173.43
403.223	185.43
403.684	174.62
404.145	163.12
404.607	165.83
405.068	164.43
405.529	172.23
405.99	198.33
406.451	182.12
406.913	184.33
407.374	169.83
407.835	169.13
408.296	175.83
408.757	183.23
409.218	193.73
409.679	185.93
410.14	184.03
410.601	182.43
411.062	187.43
411.522	196.52
411.983	197.63
412.444	186.93
412.905	189.93
413.366	183.93
413.826	203.62
414.287	224.43
414.748	267.63
415.208	249.42
415.669	220.42
416.13	219.42
416.59	212.53
417.051	212.73
417.511	231.22
417.972	246.23
418.432	248.52
418.893	306.52
419.353	256.23
419.814	202.73
420.274	187.02
420.734	178.33
421.195	207.03
421.655	199.03
422.115	194.22
422.576	201.92
423.036	203.53
423.496	217.92
423.956	215.93
424.416	240.62
424.876	273.03
425.336	272.83
425.797	275.12
426.257	271.23
426.717	251.83
427.177	244.13
427.637	234.33
428.097	247.72
428.556	260.43
429.016	283.23
429.476	278.53
429.936	281.73
430.396	285.63
430.856	303.53
431.315	325.22
431.775	367.03
432.235	397.73
432.694	365.53
433.154	365.13
433.614	410.72
434.073	355.73
434.533	289.73
434.993	279.23
435.452	290.73
435.912	308.33
436.371	298.93
436.83	293.33
437.29	278.53
437.749	260.43
438.209	262.73
438.668	282.93
439.127	300.83
439.587	274.83
440.046	260.93
440.505	272.03
440.964	289.83
441.424	337.92
441.883	327.33
442.342	270.83
442.801	231.33
443.26	228.93
443.719	226.63
444.178	224.82
444.637	217.62
445.096	231.62
445.555	228.73
446.014	231.33
446.473	234.93
446.932	245.73
447.391	237.82
447.849	241.33
448.308	228.43
448.767	233.12
449.226	244.92
449.685	246.32
450.143	255.82
450.602	246.53
451.061	240.13
451.519	242.03
451.978	239.82
452.436	241.02
452.895	249.93
453.353	255.53
453.812	250.93
454.27	247.93
454.729	248.43
455.187	247.13
455.646	256.23
456.104	261.02
456.562	273.42
457.021	279.82
457.479	264.73
457.937	288.62
458.395	270.92
458.854	253.13
459.312	262.83
459.77	298.02
460.228	268.12
460.686	249.43
461.144	255.13
461.602	249.73
462.06	251.73
462.518	267.33
462.976	266.72
463.434	262.73
463.892	275.73
464.35	279.72
464.808	303.93
465.266	270.33
465.724	279.03
466.181	280.33
466.639	277.52
467.097	309.02
467.555	310.83
468.012	319.93
468.47	325.13
468.928	335.92
469.385	364.73
469.843	358.23
470.3	366.23
470.758	375.43
471.215	401.13
471.673	424.73
472.13	417.83
472.588	437.52
473.045	383.33
473.503	394.23
473.96	410.73
474.417	417.32
474.875	451.53
475.332	487.23
475.789	475.73
476.246	481.72
476.704	503.23
477.161	525.23
477.618	546.63
478.075	581.73
478.532	638.93
478.989	711.63
479.446	828.33
479.903	800.53
480.36	841.63
480.817	904.42
481.274	1006.32
481.731	1108.62
482.188	1209.72
482.645	1344.03
483.102	1450.53
483.558	1588.33
484.015	1654.72
484.472	1643.23
484.929	1587.33
485.385	1515.22
485.842	1476.73
486.299	1403.72
486.755	1344.12
487.212	1128.92
487.668	964.03
488.125	882.63
488.582	805.62
489.038	773.73
489.494	745.23
489.951	712.33
490.407	692.83
490.864	680.23
491.32	667.73
491.776	663.73
492.233	671.72
492.689	641.63
493.145	632.92
493.602	616.43
494.058	630.52
494.514	635.62
494.97	670.43
495.426	678.43
495.882	645.43
496.338	637.33
496.794	648.23
497.251	646.23
497.707	659.73
498.163	665.23
498.618	666.72
499.074	664.02
499.53	702.42
499.986	694.92
500.442	671.43
500.898	660.33
501.354	647.03
501.809	659.33
502.265	666.83
502.721	683.53
503.177	706.43
503.632	690.63
504.088	703.62
504.543	734.33
504.999	738.63
505.455	684.62
505.91	657.83
506.366	660.82
506.821	650.72
507.277	645.72
507.732	641.03
508.187	646.63
508.643	657.52
509.098	655.93
509.553	680.53
510.009	689.42
510.464	685.52
510.919	710.52
511.375	717.73
511.83	732.12
512.285	740.42
512.74	794.23
513.195	818.93
513.65	805.83
514.105	793.12
514.56	799.72
515.015	820.53
515.47	820.83
515.925	810.62
516.38	809.82
516.835	826.43
517.29	803.93
517.745	804.23
518.2	788.12
518.655	779.72
519.109	769.43
519.564	765.53
520.019	749.43
520.474	745.43
520.928	757.83
521.383	737.42
521.838	731.82
522.292	732.93
522.747	730.93
523.201	724.22
523.656	714.13
524.11	713.12
524.565	715.33
525.019	723.62
525.474	720.93
525.928	726.03
526.382	717.73
526.837	719.02
527.291	726.63
527.745	721.62
528.2	720.73
528.654	716.43
529.108	707.52
529.562	709.02
530.016	711.83
530.47	706.13
530.925	723.63
531.379	719.73
531.833	733.12
532.287	734.72
532.741	725.43
533.195	725.03
533.649	727.13
534.103	746.63
534.556	730.42
535.01	742.53
535.464	724.93
535.918	744.23
536.372	746.92
536.826	741.03
537.279	722.12
537.733	737.02
538.187	736.32
538.64	721.53
539.094	744.83
539.548	759.23
540.001	745.12
540.455	748.12
540.908	758.32
541.362	758.83
541.815	770.33
542.269	779.03
542.722	783.23
543.175	794.02
543.629	792.42
544.082	800.73
544.536	805.63
544.989	810.33
545.442	816.13
545.895	813.03
546.349	824.12
546.802	815.03
547.255	832.13
547.708	825.13
548.161	833.92
548.614	846.72
549.067	852.83
549.52	840.73
549.973	827.52
550.426	844.62
550.879	817.43
551.332	823.62
551.785	827.02
552.238	833.32
552.691	839.73
553.144	857.83
553.596	874.23
554.049	893.13
554.502	922.32
554.955	939.53
555.407	933.23
555.86	929.13
556.313	924.23
556.765	900.83
557.218	897.73
557.67	908.33
558.123	907.33
558.576	899.02
559.028	900.43
559.48	910.92
559.933	900.73
560.385	863.72
560.838	827.33
561.29	811.43
561.742	802.62
562.195	792.02
562.647	786.83
563.099	794.12
563.551	795.13
564.004	807.03
564.456	804.62
564.908	789.62
565.36	766.93
565.812	745.73
566.264	749.12
566.716	753.03
567.168	739.12
567.62	742.23
568.072	718.63
568.524	706.33
568.976	706.62
569.428	702.33
569.88	701.52
570.332	699.12
570.784	708.53
571.235	707.03
571.687	714.33
572.139	730.22
572.59	736.62
573.042	728.62
573.494	732.42
573.945	729.92
574.397	707.33
574.849	705.52
575.3	706.43
575.752	694.43
576.203	699.22
576.655	713.22
577.106	692.13
577.557	680.83
578.009	678.33
578.46	681.23
578.912	685.53
579.363	681.73
579.814	684.62
580.265	685.53
580.717	687.13
581.168	684.93
581.619	693.53
582.07	699.03
582.521	693.53
582.972	687.42
583.423	703.23
583.875	697.33
584.326	721.92
584.777	772.62
585.227	841.82
585.678	938.32
586.129	1019.83
586.58	1102.53
587.031	1172.53
587.482	1334.03
587.933	1530.23
588.384	1327.23
588.834	1005.93
589.285	829.83
589.736	804.23
590.186	802.12
590.637	784.32
591.088	766.12
591.538	762.23
591.989	747.93
592.439	743.42
592.89	743.03
593.34	715.63
593.791	725.53
594.241	727.42
594.692	730.23
595.142	724.02
595.593	711.73
596.043	723.73
596.493	730.43
596.943	725.62
597.394	740.93
597.844	730.43
598.294	748.62
598.744	768.93
599.195	788.93
599.645	837.93
600.095	870.42
600.545	923.23
600.995	986.62
601.445	1039.33
601.895	1116.73
602.345	1168.93
602.795	1130.12
603.245	1088.83
603.695	1036.42
604.145	977.33
604.594	932.43
605.044	875.13
605.494	816.73
605.944	778.23
606.393	754.23
606.843	757.02
607.293	757.43
607.743	748.52
608.192	761.33
608.642	779.93
609.091	781.73
609.541	784.23
609.99	786.33
610.44	780.83
610.889	737.23
611.339	710.22
611.788	705.23
612.238	713.92
612.687	733.42
613.136	739.33
613.586	751.83
614.035	747.83
614.484	768.43
614.933	767.43
615.383	764.52
615.832	748.73
616.281	747.43
616.73	711.63
617.179	682.03
617.628	665.62
618.077	649.73
618.526	639.92
618.975	628.03
619.424	629.03
619.873	622.53
620.322	634.02
620.771	626.52
621.22	613.62
621.669	600.43
622.118	599.83
622.567	592.12
623.015	582.23
623.464	576.63
623.913	574.42
624.361	568.22
624.81	567.52
625.259	568.12
625.707	567.12
626.156	561.73
626.604	583.92
627.053	571.53
627.501	573.53
627.95	579.33
628.398	593.72
628.847	580.23
629.295	581.13
629.744	586.12
630.192	576.53
630.64	573.22
631.089	573.62
631.537	580.93
631.985	598.43
632.433	615.43
632.881	623.12
633.33	672.03
633.778	655.13
634.226	578.33
634.674	580.03
635.122	588.33
635.57	599.53
636.018	643.13
636.466	591.02
636.914	561.23
637.362	568.83
637.81	586.92
638.258	597.83
638.705	583.63
639.153	624.43
639.601	620.23
640.049	645.22
640.497	684.92
640.944	700.83
641.392	653.43
641.84	611.23
642.287	605.13
642.735	587.73
643.182	584.83
643.63	576.32
644.078	587.33
644.525	597.03
644.973	607.52
645.42	610.73
645.867	636.63
646.315	653.23
646.762	676.23
647.21	707.43
647.657	730.03
648.104	761.02
648.551	791.02
648.999	843.93
649.446	936.93
649.893	1028.53
650.34	1182.23
650.787	1411.33
651.234	1752.12
651.682	2277.43
652.129	3130.02
652.576	4495.62
653.023	6641.93
653.47	9112.23
653.917	11407.52
654.363	13165.43
654.81	14542.03
655.257	13803.62
655.704	9075.32
656.151	5371.73
656.598	3489.03
657.044	2467.43
657.491	1902.42
657.938	1509.83
658.385	1251.22
658.831	1102.93
659.278	985.82
659.724	861.53
660.171	797.83
660.618	730.93
661.064	701.83
661.511	681.73
661.957	663.12
662.404	653.43
662.85	661.03
663.296	631.43
663.743	567.53
664.189	551.22
664.635	544.82
665.082	539.82
665.528	536.03
665.974	520.43
666.42	515.42
666.867	508.63
667.313	492.13
667.759	485.73
668.205	488.73
668.651	490.83
669.097	495.03
669.543	507.83
669.989	481.32
670.435	455.03
670.881	454.73
671.327	452.02
671.773	475.03
672.219	494.03
672.665	558.03
673.11	585.83
673.556	634.23
674.002	674.52
674.448	664.72
674.893	550.33
675.339	483.92
675.785	442.02
676.23	425.33
676.676	390.73
677.122	387.42
677.567	385.63
678.013	373.82
678.458	356.02
678.904	362.03
679.349	356.93
679.794	354.83
680.24	358.83
680.685	359.43
681.131	351.52
681.576	348.42
682.021	348.13
682.466	356.73
682.912	353.22
683.357	351.13
683.802	377.62
684.247	405.42
684.692	455.83
685.137	502.82
685.583	542.13
686.028	557.72
686.473	518.42
686.918	453.12
687.363	428.42
687.807	397.42
688.252	365.53
688.697	354.73
689.142	342.13
689.587	343.83
690.032	328.92
690.477	344.42
690.921	353.53
691.366	383.02
691.811	406.12
692.255	427.52
692.7	458.43
693.145	512.03
693.589	697.53
694.034	1128.12
694.478	1538.12
694.923	1751.82
695.367	2283.73
695.812	1197.83
696.256	506.22
696.701	374.03
697.145	341.83
697.59	336.22
698.034	324.12
698.478	332.33
698.922	329.53
699.367	328.93
699.811	346.52
700.255	356.23
700.699	384.93
701.143	431.62
701.588	477.42
702.032	513.13
702.476	511.73
702.92	493.83
703.364	489.92
703.808	642.53
704.252	1029.53
704.696	1454.72
705.14	1694.03
705.584	2148.93
706.027	1079.12
706.471	526.62
706.915	398.42
707.359	350.52
707.803	330.33
708.246	311.93
708.69	311.83
709.134	316.13
709.577	307.43
710.021	324.12
710.465	302.33
710.908	301.32
711.352	302.02
711.795	317.83
712.239	352.43
712.682	387.12
713.126	428.62
713.569	462.52
714.012	372.93
714.456	328.93
714.899	303.83
715.342	276.93
715.786	259.43
716.229	254.92
716.672	256.52
717.115	255.73
717.558	249.93
718.002	249.73
718.445	265.73
718.888	287.62
719.331	288.03
719.774	313.73
720.217	301.63
720.66	291.03
721.103	268.03
721.546	257.43
721.989	249.42
722.432	231.73
722.874	232.42
723.317	230.02
723.76	241.93
724.203	259.72
724.645	320.13
725.088	449.62
725.531	574.62
725.974	648.53
726.416	547.42
726.859	310.92
727.301	245.83
727.744	243.83
728.187	226.62
728.629	244.92
729.071	241.93
729.514	260.02
729.956	272.73
730.399	280.82
730.841	291.73
731.283	272.23
731.726	266.53
732.168	264.23
732.61	256.92
733.053	276.12
733.495	320.03
733.937	349.73
734.379	394.33
734.821	441.52
735.263	543.83
735.705	825.02
736.148	1577.03
736.59	2590.82
737.032	3054.32
737.474	2475.93
737.916	805.23
738.357	422.52
738.799	330.82
739.241	294.02
739.683	286.53
740.125	295.93
740.567	293.43
741.008	313.62
741.45	313.52
741.892	319.93
742.334	349.23
742.775	354.72
743.217	336.83
743.658	264.92
744.1	249.83
744.542	263.93
744.983	316.63
745.425	346.03
745.866	347.63
746.307	292.52
746.749	280.13
747.19	325.33
747.632	452.23
748.073	870.03
748.514	1838.83
748.956	2866.72
749.397	3565.93
749.838	2977.03
750.279	2982.53
750.72	1491.03
751.162	541.52
751.603	324.03
752.044	253.33
752.485	213.33
752.926	204.83
753.367	199.12
753.808	197.83
754.249	191.62
754.69	189.43
755.131	185.63
755.572	177.03
756.013	181.52
756.453	180.83
756.894	192.53
757.335	187.33
757.776	195.42
758.216	198.72
758.657	196.83
759.098	200.83
759.538	221.52
759.979	264.83
760.42	375.52
760.86	691.43
761.301	1792.73
761.741	4378.62
762.182	6442.93
762.622	4529.62
763.063	1305.73
763.503	540.12
763.943	348.42
764.384	339.23
764.824	400.93
765.264	437.02
765.705	300.03
766.145	208.52
766.585	190.13
767.025	178.23
767.465	180.73
767.906	242.52
768.346	316.03
768.786	344.73
769.226	265.23
769.666	308.72
770.106	613.72
770.546	1540.32
770.986	2650.23
771.426	2384.33
771.866	790.43
772.306	325.33
772.745	205.32
773.185	172.93
773.625	166.93
774.065	165.03
774.505	191.12
774.944	299.83
775.384	663.92
775.824	1199.93
776.263	1188.72
776.703	513.42
777.142	221.02
777.582	164.23
778.021	139.73
778.461	135.73
778.9	142.23
779.34	136.43
779.779	120.23
780.219	111.23
780.658	108.93
781.097	112.93
781.537	113.73
781.976	113.23
782.415	106.52
782.855	107.03
783.294	103.43
783.733	106.83
784.172	112.33
784.611	105.83
785.05	109.43
785.489	107.33
785.928	115.62
786.367	120.62
786.806	121.12
787.245	126.23
787.684	131.33
788.123	149.62
788.562	139.83
789.001	135.53
789.44	121.83
789.879	112.93
790.317	118.53
790.756	125.03
791.195	132.03
791.634	140.13
792.072	202.23
792.511	366.83
792.95	990.12
793.388	2149.62
793.827	1961.53
794.265	673.73
794.704	279.52
795.142	183.03
795.581	152.83
796.019	138.33
796.458	132.73
796.896	124.73
797.334	133.93
797.773	157.73
798.211	219.63
798.649	429.62
799.087	1011.93
799.526	1594.03
799.964	2005.92
800.402	2010.23
800.84	758.62
801.278	302.33
801.716	189.73
802.154	151.62
802.592	144.63
803.03	138.93
803.468	137.83
803.906	142.73
804.344	151.23
804.782	143.33
805.22	132.92
805.658	131.23
806.096	143.03
806.533	154.73
806.971	172.73
807.409	215.33
807.847	306.42
808.284	650.83
808.722	1862.12
809.16	3286.12
809.597	3082.93
810.035	5394.33
810.472	5802.23
810.91	2089.03
811.347	795.83
811.785	398.73
812.222	251.22
812.66	195.62
813.097	161.33
813.535	138.33
813.972	123.73
814.409	118.83
814.846	108.73
815.284	108.73
815.721	98.23
816.158	102.23
816.595	117.03
817.032	172.33
817.47	194.73
817.907	178.23
818.344	147.52
818.781	115.13
819.218	101.83
819.655	125.03
820.092	186.43
820.529	209.33
820.966	176.93
821.403	135.73
821.839	112.63
822.276	99.33
822.713	127.92
823.15	134.13
823.587	113.12
824.023	145.73
824.46	296.93
824.897	886.33
825.333	1357.72
825.77	580.72
826.206	222.53
826.643	133.33
827.08	101.93
827.516	81.43
827.953	74.43
828.389	82.23
828.825	67.62
829.262	68.23
829.698	60.12
830.135	63.43
830.571	59.92
831.007	64.83
831.443	65.33
831.88	59.73
832.316	63.73
832.752	75.73
833.188	67.13
833.624	61.33
834.06	66.53
834.497	66.12
834.933	78.73
835.369	77.53
835.805	65.12
836.241	72.83
836.677	81.03
837.112	91.62
837.548	104.62
837.984	140.53
838.42	195.43
838.856	482.52
839.292	1512.13
839.727	2297.23
840.163	1067.12
840.599	908.43
841.034	2012.72
841.47	2119.53
841.906	779.23
842.341	329.63
842.777	222.83
843.212	313.53
843.648	298.83
844.083	152.92
844.519	88.23
844.954	76.03
845.39	63.03
845.825	57.33
846.261	56.93
846.696	57.93
847.131	52.53
847.566	58.42
848.002	46.93
848.437	56.13
848.872	66.73
849.307	67.73
849.742	82.13
850.177	178.33
850.613	545.93
851.048	886.83
851.483	377.53
851.918	154.92
852.353	82.23
852.788	53.83
853.223	60.33
853.657	51.33
854.092	51.13
854.527	42.33
854.962	45.52
855.397	43.73
855.832	51.43
856.266	35.33
856.701	38.23
857.136	37.03
857.57	42.63
858.005	49.43
858.44	60.33
858.874	45.33
859.309	57.03
859.743	39.73
860.178	49.02
860.612	41.93
861.047	50.52
861.481	67.93
861.915	68.43
862.35	43.83
862.784	34.42
863.218	39.53
863.653	35.02
864.087	43.52
864.521	48.63
864.955	70.23
865.39	154.52
865.824	169.73
866.258	113.33
866.692	163.23
867.126	173.93
867.56	106.33
867.994	56.73
868.428	37.62
868.862	43.73
869.296	51.83
869.73	53.52
870.164	48.52
870.598	45.13
871.031	34.43
871.465	32.02
871.899	28.33
872.333	31.93
872.766	21.83
873.2	17.52
873.634	26.33
874.067	25.33
874.501	24.52
874.935	28.83
875.368	35.02
875.802	28.23
876.235	23.73
876.669	24.23
877.102	29.33
877.535	27.93
877.969	27.63
878.402	22.43
878.836	20.23
879.269	23.13
879.702	25.23
880.135	24.02
880.569	23.83
881.002	24.33
881.435	17.52
881.868	20.23
882.301	25.33
882.734	18.93
883.167	24.43
883.601	21.73
884.034	25.12
884.467	13.73
884.899	15.53
885.332	14.93
885.765	16.63
886.198	15.73
886.631	19.23
887.064	21.12
887.497	16.43
887.929	22.62
888.362	13.23
888.795	12.52
889.228	22.12
889.66	22.93
890.093	19.92
890.526	12.33
890.958	19.23
891.391	19.63
891.823	15.83
892.256	16.33
892.688	13.02
893.121	13.23
893.553	16.43
893.985	23.12
894.418	15.83
894.85	11.43
895.282	20.02
895.715	21.93
896.147	22.63
896.579	19.73
897.011	12.13
897.444	17.93
897.876	15.13
898.308	20.02
898.74	20.73
899.172	15.63
899.604	17.23
900.036	22.02
900.468	14.73
900.9	16.12
901.332	18.42
901.764	11.73
902.196	22.63
902.628	20.43
903.06	13.83
903.491	30.83
903.923	21.12
904.355	26.03
904.787	25.43
905.218	21.73
905.65	21.52
906.082	14.43
906.513	20.12
906.945	17.52
907.376	16.52
907.808	16.73
908.239	21.43
908.671	22.83
909.102	20.93
909.534	28.83
909.965	43.53
910.397	91.83
910.828	312.73
911.259	467.03
911.691	211.02
912.122	98.83
912.553	45.73
912.984	35.93
913.415	26.23
913.847	24.03
914.278	12.53
914.709	16.02
915.14	22.03
915.571	17.43
916.002	13.33
916.433	16.53
916.864	19.93
917.295	15.43
917.726	19.62
918.157	13.52
918.587	29.83
919.018	16.33
919.449	23.53
919.88	16.42
920.311	24.23
920.741	48.73
921.172	161.23
921.603	148.52
922.033	64.73
922.464	47.73
922.895	24.33
923.325	22.93
923.756	16.93
924.186	14.63
924.617	26.33
925.047	42.33
925.478	56.03
925.908	40.83
926.338	23.13
926.769	15.83
927.199	20.33
927.629	13.73
928.06	16.33
928.49	15.63
928.92	12.62
929.35	12.13
929.78	8.33
930.21	4.33
930.641	2.53
931.071	12.03
931.501	0.03
931.931	5.63
932.361	2.73
932.791	4.73
933.221	3.73
933.651	0.73
934.08	19.12
934.51	32.93
934.94	8.33
935.37	5.53
935.8	14.83
936.229	7.43
936.659	9.33
937.089	2.03
937.519	7.73
937.948	23.23
938.378	21.63
938.807	6.92
939.237	5.93
939.666	7.53
940.096	-5.17
940.525	2.83
940.955	0.53
941.384	0.53
941.814	-1.27
942.243	-6.97
942.672	2.33
943.102	-2.37
943.531	2.43
943.96	0.43
944.39	2.92
944.819	2.92
945.248	-1.17
945.677	1.93
946.106	9.93
946.535	6.33
946.964	-0.97
947.393	6.12
947.822	-1.67
948.251	-10.48
948.68	6.33
949.109	1.92
949.538	0.43
949.967	2.73
950.396	0.62
950.825	0.92
951.254	1.83
951.682	-5.67
952.111	2.73
952.54	14.63
952.969	-2.97
953.397	-9.38
953.826	-3.27
954.254	-7.77
954.683	5.12
955.112	-3.67
955.54	-4.87
955.969	2.23
956.397	3.13
956.826	-5.87
957.254	2.43
957.682	0.83
958.111	5.83
958.539	1.43
958.967	3.83
959.396	-3.67
959.824	1.73
960.252	2.02
960.68	-8.88
961.109	-8.58
961.537	-7.47
961.965	1.02
962.393	-4.37
962.821	-2.37
963.249	0.73
963.677	5.93
964.105	10.52
964.533	39.73
964.961	43.42
965.389	13.63
965.817	3.42
966.245	-4.17
966.672	-2.37
967.1	-7.67
967.528	0.33
967.956	0.73
968.383	0.62
968.811	-3.97
969.239	-1.48
969.666	-9.17
970.094	-2.47
970.522	-1.67
970.949	-0.08
971.377	-2.37
971.804	0.63
972.232	-2.07
972.659	3.23
973.087	0.23
973.514	-9.08
973.941	0.23
974.369	4.83
974.796	1.53
975.223	-2.88
975.651	-3.77
976.078	-1.67
976.505	-3.48
976.932	-0.88
977.359	18.73
977.786	17.43
978.214	3.02
978.641	-5.17
979.068	0.33
979.495	-0.38
979.922	-4.48
980.349	2.03
980.776	-0.27
981.202	-2.77
981.629	4.03
982.056	1.33
982.483	-4.07
982.91	5.13
983.337	-9.38
983.763	1.73
984.19	-7.38
984.617	-7.47
985.043	-4.67
985.47	-1.87
985.897	-6.57
986.323	-11.67
986.75	3.43
987.176	-3.27
987.603	-2.67
988.029	-1.27
988.456	-5.67
988.882	3.23
989.308	-8.58
989.735	-4.08
990.161	5.62
990.587	-3.88
991.014	-3.88
991.44	2.83
991.866	-0.87
992.292	-5.37
992.719	-0.67
993.145	-1.37
993.571	-7.97
993.997	-7.27
994.423	0.03
994.849	-3.08
995.275	-6.87
995.701	2.93
996.127	-6.17
996.553	-1.67
996.979	-5.37
997.405	-5.67
997.83	-2.67
998.256	-13.67
998.682	-9.97
999.108	-8.88
999.534	4.92
999.959	-0.47
1000.385	-6.47
1000.811	-8.17
1001.236	-12.08
1001.662	-9.88
1002.087	-9.47
1002.513	-1.27
1002.938	0.63
1003.364	-5.27
1003.789	-5.07
1004.215	4.73
1004.64	-9.17
1005.066	2.43
1005.491	-4.27
1005.916	1.23
1006.342	-5.87
1006.767	-5.67
1007.192	9.83
1007.617	-6.57
1008.042	-9.97
1008.468	-4.48
1008.893	-5.57
1009.318	-4.88
1009.743	-7.77
1010.168	-0.48
1010.593	1.93
1011.018	-7.97
1011.443	-4.38
1011.868	0.43
1012.293	-7.27
1012.718	-9.07
1013.143	1.73
1013.567	7.53
1013.992	-2.97
1014.417	-11.17
1014.842	1.42
1015.267	-3.27
1015.691	-4.47
1016.116	1.02
1016.541	-6.17
1016.965	-0.38
1017.39	1.23
1017.814	1.23
1018.239	0.93
1018.663	-6.98
1019.088	-15.48
1019.512	-3.27
1019.937	-1.47
1020.361	-5.47
1020.785	-6.58
1021.21	-9.38
1021.634	-7.27
1022.058	1.33
1022.483	5.62
1022.907	-2.38
1023.331	-3.77
1023.755	-4.57
1024.179	-1.77
1024.604	-9.37
1025.028	-4.67
1025.452	-3.48
1025.876	-1.77
1026.3	-0.27
1026.724	-11.88
1027.148	-7.57
1027.572	-10.67
1027.996	-3.67
1028.42	-6.38
1028.843	-5.27
1029.267	-8.67
1029.691	-4.77
1030.115	-6.97
1030.539	-4.58
1030.962	-4.98
1031.386	-13.57
1031.81	-3.07
1032.233	2.03
1032.657	-1.67
1033.08	-3.67
1033.504	-5.38
1033.927	-5.37
1034.351	-6.47
1034.774	-4.47
1035.198	-5.67
1035.621	-6.47
1036.045	-8.27
1036.468	-0.38
1036.891	-12.07
1037.315	-12.58
1037.738	-9.77
1038.161	1.33
1038.584	-9.88
1039.008	-6.38
1039.431	-5.38
1039.854	-0.17
1040.277	-6.47
1040.7	-9.87
1041.123	4.93
1041.546	-6.67
1041.969	-7.77
1042.392	-6.07
1042.815	-1.48
1043.238	-1.77
1043.661	1.12
1044.084	-8.87
1044.507	-7.27
1044.93	-1.38
1045.352	0.02
1045.775	-7.08
1046.198	-5.47
1046.621	-1.17
1047.043	-3.97
1047.466	2.53
1047.889	-4.07
1048.311	-2.17
1048.734	-3.17
1049.156	-5.97
1049.579	-0.67
1050.001	-2.37
1050.424	-1.67
1050.846	-6.48
1051.269	-4.97
1051.691	-6.67
1052.113	-5.07
1052.536	-6.17
1052.958	-3.17
1053.38	-7.17
1053.802	-6.77
1054.225	-0.27
1054.647	-10.97
1055.069	-10.38
1055.491	-0.67
1055.913	-4.77
1056.335	-0.88
1056.757	-5.67
1057.179	-0.77
1057.601	2.13
1058.023	-5.87
1058.445	-3.27
1058.867	-6.77
1059.289	-7.77
1059.711	-11.57
1060.133	-0.98
1060.555	-9.38
1060.976	-7.27
1061.398	-6.17
1061.82	-4.57
1062.241	-7.67
1062.663	-11.67
1063.085	-8.47
1063.506	-2.67
1063.928	-4.48
1064.35	-5.77
1064.771	-11.98
1065.193	-3.08
1065.614	-8.57
1066.035	-5.27
1066.457	-5.97
1066.878	2.62
1067.3	-6.57
1067.721	-4.98
1068.142	-1.17
1068.564	-6.88
1068.985	-3.17
1069.406	-11.77
1069.827	-8.88
1070.248	-4.97
1070.67	-6.67
1071.091	-11.97
1071.512	-9.88
1071.933	-10.17
1072.354	-8.87
1072.775	-4.97
1073.196	-7.07
1073.617	-5.48
1074.038	-3.37
1074.459	-10.27
1074.88	-4.57
1075.3	-3.27
1075.721	-5.27
1076.142	-3.07
1076.563	-2.77
1076.983	-8.67
1077.404	-2.97
1077.825	-14.07
1078.246	-9.67
1078.666	-11.88
1079.087	-4.97
1079.507	-8.58
1079.928	5.62
1080.348	-8.17
1080.769	-6.38
1081.189	-1.67
1081.61	-4.07
1082.03	-10.57
1082.451	-3.67
1082.871	-10.57
1083.291	-10.58
1083.711	-10.77
1084.132	-5.87
1084.552	-3.38
1084.972	-3.57
1085.392	-10.67
1085.813	-13.17
1086.233	-8.67
1086.653	-4.27
1087.073	-7.17
1087.493	-9.38
1087.913	-1.48
1088.333	-4.17
1088.753	-8.27
1089.173	2.02
1089.593	-8.67
1090.013	-1.98
1090.433	-0.17
1090.852	-4.57
1091.272	-2.67
1091.692	-4.27
1092.112	-5.77
1092.531	-11.98
1092.951	-18.07
1093.371	-1.98
1093.79	3.03
1094.21	-7.27
1094.63	-6.57
1095.049	-0.87
1095.469	-2.97
1095.888	-0.07
1096.308	-2.57
1096.727	7.13
1097.146	-3.67
1097.566	-3.47
1097.985	-5.77
1098.405	-5.37
1098.824	-8.17
1099.243	-8.87
1099.662	-10.17
1100.082	-4.47
1100.501	-5.48
1100.92	-9.77
1101.339	-4.67
1101.758	-5.67
