Data from 20171114-ORNL-Ar_H_NY_Subt18_08-05-49-888.txt Node
Date: Tue Nov 14 08:05:49 EST 2017
User: Ender
Spectrometer: HR+D1039
Trigger mode: 0
Integration Time (sec): 2.730000E-2
Scans to average: 10
Electric dark correction enabled: true
Nonlinearity correction enabled: false
Boxcar width: 0
XAxis mode: Wavelengths
Number of Pixels in Spectrum: 2048
>>>>>Begin Spectral Data<<<<<
187.836	-2.47
188.309	-2.47
188.782	-2.47
189.255	-4.57
189.728	3.43
190.201	3.23
190.674	2.83
191.147	2.93
191.619	-7.27
192.092	-0.57
192.565	5.23
193.038	-1.27
193.511	-1.77
193.984	2.53
194.456	0.93
194.929	2.33
195.402	-4.57
195.874	-0.97
196.347	-6.07
196.82	-3.47
197.292	4.13
197.765	0.73
198.237	-14.87
198.71	0.53
199.182	-4.87
199.655	1.53
200.127	5.83
200.6	0.53
201.072	-7.07
201.544	-3.07
202.017	-2.17
202.489	2.33
202.961	-0.37
203.433	0.13
203.906	-5.47
204.378	-6.87
204.85	-3.17
205.322	-9.07
205.794	-2.97
206.266	-3.27
206.739	-6.67
207.211	-5.07
207.683	-13.57
208.155	-5.47
208.627	-4.07
209.099	1.83
209.57	-5.47
210.042	-5.97
210.514	-5.27
210.986	-3.97
211.458	-9.27
211.93	-4.97
212.402	-0.87
212.873	-3.47
213.345	-13.27
213.817	-11.87
214.288	-2.67
214.76	-11.67
215.232	-5.77
215.703	-1.87
216.175	-0.77
216.646	-2.17
217.118	-1.37
217.589	-6.57
218.061	3.03
218.532	-9.87
219.004	-2.77
219.475	-3.27
219.946	2.73
220.418	-5.07
220.889	5.13
221.36	-3.37
221.832	-11.17
222.303	-14.17
222.774	-3.47
223.245	-10.47
223.717	-4.07
224.188	-2.87
224.659	-3.27
225.13	-7.57
225.601	-6.17
226.072	-3.47
226.543	0.23
227.014	-1.07
227.485	-1.57
227.956	-4.47
228.427	-3.97
228.898	-2.87
229.369	1.33
229.839	-6.27
230.31	-12.77
230.781	4.93
231.252	-6.77
231.722	-8.17
232.193	-1.67
232.664	2.23
233.135	-3.77
233.605	-4.87
234.076	-4.27
234.546	-1.27
235.017	2.63
235.487	0.13
235.958	-2.67
236.428	-5.97
236.899	5.23
237.369	6.83
237.84	1.43
238.31	0.13
238.78	-3.27
239.251	-0.17
239.721	0.63
240.191	-0.07
240.662	0.13
241.132	2.03
241.602	-1.77
242.072	3.53
242.542	11.03
243.013	-1.27
243.483	4.43
243.953	6.33
244.423	-1.67
244.893	-4.77
245.363	6.43
245.833	4.63
246.303	3.73
246.773	7.33
247.243	8.63
247.712	6.73
248.182	9.13
248.652	7.43
249.122	-1.07
249.592	10.53
250.061	24.43
250.531	27.23
251.001	18.03
251.471	20.03
251.94	18.93
252.41	5.63
252.879	-1.37
253.349	8.63
253.818	8.43
254.288	4.63
254.757	10.43
255.227	0.93
255.696	4.33
256.166	-1.97
256.635	10.13
257.105	8.93
257.574	6.63
258.043	7.83
258.513	8.33
258.982	17.23
259.451	10.43
259.92	16.33
260.389	8.93
260.859	17.63
261.328	13.33
261.797	16.13
262.266	9.53
262.735	10.23
263.204	8.13
263.673	4.23
264.142	4.13
264.611	-0.17
265.08	4.33
265.549	1.73
266.018	3.33
266.487	5.63
266.955	-0.47
267.424	-0.47
267.893	7.73
268.362	5.13
268.83	3.83
269.299	8.43
269.768	4.03
270.236	6.23
270.705	7.03
271.174	7.93
271.642	11.43
272.111	5.33
272.579	18.83
273.048	21.53
273.516	26.93
273.985	32.33
274.453	27.23
274.922	24.23
275.39	11.43
275.858	6.53
276.327	10.53
276.795	17.83
277.263	16.13
277.731	32.43
278.2	61.63
278.668	58.33
279.136	55.13
279.604	12.13
280.072	9.03
280.54	14.93
281.008	10.43
281.477	10.73
281.945	6.53
282.413	15.43
282.881	15.13
283.348	10.63
283.816	13.23
284.284	20.13
284.752	22.63
285.22	13.63
285.688	16.13
286.156	19.73
286.623	53.63
287.091	54.43
287.559	35.93
288.026	19.33
288.494	18.73
288.962	6.23
289.429	5.33
289.897	15.83
290.364	14.03
290.832	14.63
291.3	15.03
291.767	20.93
292.234	21.03
292.702	20.83
293.169	16.43
293.637	22.13
294.104	19.13
294.571	9.53
295.039	14.53
295.506	16.33
295.973	19.33
296.44	19.93
296.908	18.83
297.375	18.23
297.842	20.43
298.309	20.33
298.776	13.13
299.243	19.53
299.71	17.43
300.177	19.63
300.644	20.53
301.111	20.93
301.578	24.83
302.045	20.03
302.512	24.03
302.979	22.13
303.446	29.83
303.913	20.43
304.379	17.73
304.846	31.53
305.313	23.03
305.78	23.83
306.246	24.33
306.713	25.93
307.18	26.33
307.646	33.63
308.113	29.03
308.579	22.63
309.046	29.23
309.512	30.73
309.979	18.03
310.445	23.13
310.912	25.83
311.378	32.53
311.845	35.73
312.311	34.53
312.777	34.43
313.244	23.03
313.71	37.53
314.176	32.03
314.642	32.83
315.109	34.63
315.575	37.13
316.041	41.53
316.507	38.53
316.973	45.13
317.439	38.33
317.905	39.53
318.371	31.23
318.837	38.63
319.303	33.73
319.769	37.33
320.235	35.03
320.701	37.53
321.167	31.83
321.633	30.43
322.099	36.93
322.564	42.03
323.03	43.33
323.496	39.63
323.962	49.63
324.427	37.03
324.893	45.23
325.359	34.63
325.824	38.23
326.29	40.23
326.755	38.43
327.221	37.03
327.686	37.53
328.152	44.23
328.617	39.03
329.083	47.13
329.548	54.13
330.014	49.53
330.479	35.93
330.944	48.43
331.41	46.73
331.875	43.53
332.34	40.73
332.805	45.43
333.271	48.53
333.736	42.03
334.201	57.73
334.666	49.83
335.131	51.63
335.596	47.83
336.061	52.73
336.526	44.03
336.991	53.03
337.456	54.73
337.921	49.23
338.386	43.63
338.851	48.93
339.316	43.93
339.781	43.13
340.246	52.63
340.711	47.93
341.175	49.43
341.64	43.73
342.105	56.33
342.569	50.43
343.034	59.73
343.499	50.63
343.963	53.63
344.428	62.43
344.893	66.13
345.357	64.13
345.822	64.53
346.286	76.13
346.751	81.13
347.215	71.53
347.679	76.83
348.144	98.23
348.608	91.63
349.073	73.73
349.537	75.83
350.001	80.63
350.465	96.43
350.93	88.83
351.394	83.53
351.858	77.13
352.322	88.13
352.786	88.23
353.25	102.23
353.715	112.93
354.179	99.63
354.643	122.33
355.107	132.13
355.571	115.83
356.035	101.83
356.498	120.33
356.962	121.93
357.426	133.23
357.89	120.73
358.354	95.03
358.818	81.73
359.281	82.63
359.745	83.53
360.209	77.53
360.673	80.63
361.136	83.43
361.6	84.43
362.064	88.03
362.527	87.83
362.991	93.23
363.454	88.63
363.918	73.33
364.381	86.83
364.845	89.13
365.308	91.43
365.772	89.03
366.235	82.33
366.698	85.33
367.162	90.43
367.625	90.53
368.088	87.73
368.552	88.23
369.015	91.93
369.478	100.23
369.941	98.33
370.404	95.73
370.867	105.33
371.331	111.93
371.794	112.43
372.257	108.23
372.72	123.53
373.183	112.33
373.646	107.33
374.109	108.43
374.572	107.13
375.035	102.53
375.497	111.13
375.96	107.33
376.423	107.53
376.886	108.33
377.349	110.73
377.811	100.83
378.274	109.73
378.737	111.73
379.199	116.83
379.662	119.83
380.125	116.73
380.587	120.43
381.05	123.53
381.512	128.23
381.975	135.83
382.437	134.53
382.9	131.23
383.362	135.83
383.825	145.73
384.287	149.73
384.75	147.23
385.212	146.43
385.674	149.13
386.136	143.93
386.599	132.83
387.061	125.13
387.523	127.33
387.985	140.43
388.447	142.53
388.91	148.53
389.372	159.53
389.834	150.43
390.296	149.73
390.758	157.53
391.22	173.13
391.682	217.23
392.144	301.83
392.606	230.03
393.068	165.43
393.529	172.63
393.991	153.93
394.453	149.33
394.915	155.93
395.377	192.83
395.838	219.03
396.3	162.23
396.762	141.53
397.224	130.63
397.685	138.43
398.147	135.73
398.608	133.53
399.07	136.33
399.531	140.63
399.993	147.53
400.454	160.13
400.916	149.93
401.377	145.53
401.839	157.93
402.3	157.23
402.762	173.93
403.223	187.33
403.684	173.93
404.145	166.03
404.607	167.33
405.068	168.03
405.529	168.23
405.99	194.63
406.451	185.33
406.913	185.13
407.374	163.83
407.835	162.43
408.296	170.63
408.757	174.73
409.218	189.33
409.679	179.13
410.14	174.53
410.601	183.23
411.062	188.13
411.522	194.43
411.983	191.03
412.444	177.43
412.905	187.23
413.366	189.83
413.826	199.63
414.287	226.03
414.748	266.83
415.208	255.73
415.669	217.43
416.13	207.23
416.59	203.23
417.051	213.83
417.511	223.83
417.972	234.03
418.432	254.23
418.893	293.73
419.353	252.53
419.814	199.63
420.274	183.73
420.734	182.63
421.195	204.23
421.655	198.53
422.115	193.33
422.576	199.63
423.036	202.63
423.496	206.73
423.956	216.33
424.416	232.23
424.876	272.73
425.336	261.83
425.797	266.43
426.257	265.33
426.717	250.53
427.177	236.23
427.637	222.93
428.097	237.13
428.556	248.23
429.016	275.13
429.476	266.43
429.936	286.43
430.396	285.73
430.856	300.63
431.315	326.13
431.775	361.43
432.235	388.93
432.694	359.33
433.154	373.83
433.614	399.63
434.073	345.03
434.533	295.93
434.993	280.63
435.452	288.23
435.912	302.03
436.371	301.23
436.83	293.43
437.29	272.53
437.749	258.83
438.209	261.53
438.668	289.53
439.127	291.93
439.587	273.83
440.046	252.43
440.505	265.03
440.964	282.73
441.424	335.03
441.883	320.73
442.342	268.53
442.801	223.63
443.26	233.23
443.719	226.93
444.178	228.13
444.637	212.33
445.096	222.13
445.555	227.53
446.014	228.43
446.473	232.93
446.932	243.33
447.391	226.83
447.849	235.03
448.308	235.53
448.767	232.73
449.226	239.93
449.685	237.83
450.143	252.63
450.602	242.23
451.061	231.13
451.519	241.03
451.978	240.63
452.436	241.23
452.895	245.73
453.353	261.63
453.812	242.53
454.27	238.83
454.729	237.63
455.187	248.13
455.646	254.43
456.104	246.83
456.562	263.33
457.021	276.43
457.479	269.73
457.937	276.63
458.395	265.53
458.854	246.43
459.312	265.13
459.77	282.03
460.228	263.23
460.686	242.23
461.144	258.83
461.602	252.63
462.06	247.93
462.518	256.53
462.976	258.23
463.434	264.13
463.892	269.63
464.35	280.33
464.808	296.53
465.266	263.93
465.724	278.83
466.181	276.23
466.639	280.33
467.097	291.13
467.555	304.33
468.012	317.33
468.47	317.53
468.928	336.83
469.385	341.93
469.843	353.63
470.3	359.93
470.758	366.53
471.215	385.93
471.673	412.83
472.13	408.03
472.588	433.73
473.045	384.93
473.503	383.73
473.96	407.03
474.417	407.93
474.875	443.03
475.332	484.43
475.789	465.93
476.246	470.93
476.704	487.93
477.161	521.43
477.618	535.83
478.075	578.03
478.532	638.33
478.989	712.23
479.446	829.03
479.903	797.63
480.36	835.33
480.817	882.23
481.274	984.73
481.731	1100.83
482.188	1201.93
482.645	1326.53
483.102	1437.23
483.558	1583.43
484.015	1639.93
484.472	1608.83
484.929	1547.13
485.385	1513.43
485.842	1467.23
486.299	1391.43
486.755	1333.73
487.212	1120.93
487.668	947.93
488.125	871.13
488.582	798.93
489.038	773.43
489.494	735.23
489.951	699.43
490.407	686.23
490.864	657.23
491.32	662.73
491.776	663.93
492.233	660.83
492.689	622.53
493.145	616.93
493.602	615.23
494.058	627.63
494.514	634.63
494.97	655.63
495.426	653.03
495.882	637.03
496.338	625.33
496.794	643.23
497.251	628.43
497.707	650.13
498.163	653.73
498.618	658.53
499.074	658.43
499.53	688.23
499.986	697.83
500.442	672.43
500.898	645.83
501.354	630.83
501.809	643.33
502.265	648.43
502.721	674.23
503.177	685.83
503.632	683.23
504.088	694.23
504.543	727.93
504.999	731.23
505.455	676.03
505.91	648.73
506.366	655.73
506.821	645.43
507.277	639.03
507.732	641.63
508.187	645.63
508.643	652.93
509.098	644.73
509.553	669.53
510.009	662.43
510.464	674.93
510.919	699.93
511.375	709.43
511.83	719.43
512.285	738.83
512.74	768.43
513.195	798.23
513.65	789.43
514.105	795.53
514.56	788.73
515.015	805.63
515.47	830.03
515.925	813.53
516.38	810.93
516.835	811.33
517.29	801.93
517.745	791.73
518.2	774.73
518.655	768.73
519.109	765.13
519.564	751.93
520.019	741.93
520.474	737.13
520.928	741.73
521.383	735.93
521.838	726.13
522.292	725.73
522.747	715.33
523.201	712.83
523.656	709.93
524.11	709.03
524.565	702.43
525.019	702.73
525.474	719.13
525.928	719.63
526.382	709.43
526.837	710.73
527.291	709.23
527.745	707.53
528.2	715.03
528.654	705.33
529.108	695.93
529.562	702.13
530.016	710.03
530.47	699.33
530.925	710.33
531.379	706.93
531.833	715.73
532.287	719.03
532.741	716.43
533.195	710.63
533.649	723.83
534.103	736.33
534.556	713.23
535.01	726.13
535.464	721.53
535.918	734.53
536.372	746.13
536.826	726.83
537.279	717.43
537.733	727.13
538.187	729.73
538.64	726.73
539.094	735.23
539.548	738.83
540.001	736.13
540.455	749.93
540.908	735.03
541.362	750.03
541.815	752.03
542.269	774.43
542.722	771.83
543.175	792.53
543.629	780.13
544.082	798.43
544.536	798.83
544.989	796.33
545.442	805.53
545.895	806.13
546.349	810.83
546.802	794.03
547.255	807.53
547.708	818.63
548.161	826.83
548.614	834.63
549.067	842.63
549.52	833.43
549.973	819.63
550.426	815.23
550.879	816.13
551.332	809.53
551.785	810.43
552.238	819.43
552.691	832.23
553.144	847.43
553.596	866.73
554.049	873.23
554.502	905.23
554.955	927.53
555.407	923.43
555.86	916.63
556.313	901.63
556.765	901.43
557.218	893.93
557.67	888.93
558.123	887.93
558.576	891.23
559.028	886.13
559.48	899.93
559.933	886.23
560.385	839.53
560.838	823.53
561.29	787.63
561.742	794.73
562.195	780.93
562.647	777.53
563.099	789.13
563.551	786.53
564.004	789.33
564.456	785.43
564.908	782.53
565.36	761.83
565.812	758.13
566.264	741.53
566.716	735.23
567.168	734.03
567.62	736.13
568.072	719.03
568.524	704.93
568.976	703.53
569.428	682.03
569.88	679.83
570.332	689.33
570.784	685.13
571.235	693.23
571.687	701.03
572.139	716.73
572.59	721.73
573.042	718.23
573.494	725.93
573.945	725.13
574.397	688.73
574.849	705.33
575.3	696.73
575.752	691.93
576.203	686.83
576.655	691.63
577.106	671.03
577.557	673.93
578.009	683.43
578.46	667.63
578.912	670.63
579.363	672.43
579.814	672.13
580.265	663.53
580.717	669.93
581.168	673.13
581.619	684.03
582.07	683.63
582.521	683.83
582.972	686.43
583.423	679.83
583.875	686.63
584.326	708.13
584.777	751.73
585.227	840.03
585.678	929.73
586.129	1008.23
586.58	1077.83
587.031	1160.03
587.482	1326.43
587.933	1512.73
588.384	1299.33
588.834	984.53
589.285	813.73
589.736	782.13
590.186	774.53
590.637	775.73
591.088	750.43
591.538	738.13
591.989	734.53
592.439	722.83
592.89	722.63
593.34	718.23
593.791	718.23
594.241	710.83
594.692	712.73
595.142	702.63
595.593	697.53
596.043	715.93
596.493	714.13
596.943	715.63
597.394	736.43
597.844	723.53
598.294	741.73
598.744	761.43
599.195	781.83
599.645	813.13
600.095	854.83
600.545	920.23
600.995	956.83
601.445	1023.33
601.895	1090.23
602.345	1141.83
602.795	1110.73
603.245	1058.33
603.695	1006.23
604.145	962.23
604.594	916.83
605.044	863.13
605.494	799.93
605.944	755.13
606.393	751.03
606.843	728.33
607.293	729.63
607.743	737.43
608.192	748.43
608.642	761.83
609.091	765.83
609.541	771.23
609.99	773.73
610.44	771.83
610.889	716.83
611.339	692.73
611.788	686.33
612.238	705.73
612.687	720.73
613.136	714.13
613.586	742.43
614.035	730.83
614.484	748.13
614.933	750.73
615.383	748.43
615.832	740.13
616.281	724.53
616.73	685.93
617.179	670.53
617.628	665.03
618.077	638.43
618.526	623.43
618.975	618.33
619.424	623.73
619.873	612.73
620.322	622.43
620.771	600.43
621.22	604.43
621.669	594.33
622.118	581.93
622.567	582.73
623.015	571.93
623.464	567.13
623.913	555.83
624.361	552.13
624.81	548.33
625.259	546.03
625.707	545.63
626.156	558.23
626.604	563.63
627.053	556.93
627.501	555.43
627.95	564.03
628.398	583.73
628.847	567.83
629.295	558.03
629.744	573.83
630.192	562.83
630.64	563.33
631.089	557.43
631.537	569.23
631.985	591.23
632.433	588.93
632.881	602.83
633.33	659.63
633.778	635.93
634.226	567.03
634.674	569.73
635.122	572.63
635.57	599.63
636.018	613.23
636.466	572.13
636.914	559.83
637.362	565.73
637.81	575.63
638.258	580.13
638.705	578.53
639.153	601.13
639.601	612.83
640.049	630.33
640.497	668.33
640.944	689.33
641.392	644.83
641.84	617.53
642.287	570.63
642.735	564.83
643.182	570.03
643.63	564.03
644.078	569.33
644.525	586.33
644.973	592.93
645.42	592.63
645.867	609.83
646.315	627.53
646.762	664.33
647.21	687.83
647.657	713.63
648.104	747.43
648.551	764.23
648.999	825.23
649.446	909.33
649.893	992.83
650.34	1145.33
650.787	1373.43
651.234	1712.13
651.682	2218.03
652.129	3051.03
652.576	4403.93
653.023	6488.53
653.47	8939.73
653.917	11168.93
654.363	12951.43
654.81	14318.73
655.257	13669.63
655.704	8919.13
656.151	5289.93
656.598	3422.03
657.044	2416.23
657.491	1861.73
657.938	1476.03
658.385	1238.23
658.831	1081.83
659.278	969.33
659.724	852.73
660.171	780.23
660.618	724.23
661.064	678.63
661.511	654.33
661.957	648.03
662.404	646.63
662.85	646.63
663.296	620.33
663.743	556.63
664.189	527.03
664.635	530.33
665.082	523.03
665.528	524.33
665.974	506.33
666.42	503.93
666.867	500.13
667.313	485.83
667.759	473.83
668.205	471.23
668.651	468.03
669.097	482.03
669.543	498.13
669.989	473.03
670.435	437.53
670.881	432.43
671.327	438.73
671.773	456.43
672.219	478.93
672.665	534.73
673.11	571.13
673.556	619.03
674.002	658.33
674.448	647.33
674.893	542.83
675.339	470.93
675.785	429.83
676.23	415.03
676.676	393.83
677.122	379.73
677.567	369.23
678.013	367.63
678.458	353.53
678.904	356.73
679.349	342.33
679.794	348.13
680.24	349.53
680.685	343.73
681.131	347.03
681.576	342.23
682.021	354.83
682.466	347.83
682.912	340.73
683.357	345.23
683.802	374.03
684.247	408.13
684.692	446.93
685.137	483.93
685.583	526.43
686.028	559.53
686.473	506.53
686.918	431.63
687.363	412.83
687.807	389.33
688.252	357.13
688.697	352.13
689.142	327.23
689.587	327.03
690.032	323.93
690.477	336.73
690.921	342.43
691.366	369.73
691.811	390.03
692.255	413.53
692.7	456.63
693.145	490.83
693.589	679.83
694.034	1091.73
694.478	1492.43
694.923	1712.03
695.367	2230.83
695.812	1171.53
696.256	484.43
696.701	364.63
697.145	337.93
697.59	319.63
698.034	313.93
698.478	309.33
698.922	325.03
699.367	320.83
699.811	333.63
700.255	341.33
700.699	375.63
701.143	417.33
701.588	464.43
702.032	506.63
702.476	514.53
702.92	480.83
703.364	479.83
703.808	618.13
704.252	999.53
704.696	1412.53
705.14	1647.03
705.584	2093.53
706.027	1046.83
706.471	508.93
706.915	391.63
707.359	345.13
707.803	311.73
708.246	306.93
708.69	303.33
709.134	300.53
709.577	306.03
710.021	306.43
710.465	288.23
710.908	282.23
711.352	294.43
711.795	306.43
712.239	351.53
712.682	375.33
713.126	401.73
713.569	460.43
714.012	358.43
714.456	321.23
714.899	293.13
715.342	267.33
715.786	262.33
716.229	257.73
716.672	253.03
717.115	254.93
717.558	244.03
718.002	240.03
718.445	261.73
718.888	278.93
719.331	291.63
719.774	303.13
720.217	300.23
720.66	275.83
721.103	266.43
721.546	248.73
721.989	244.53
722.432	226.93
722.874	234.73
723.317	230.23
723.76	228.43
724.203	248.63
724.645	316.33
725.088	435.33
725.531	547.93
725.974	624.63
726.416	537.53
726.859	298.03
727.301	236.63
727.744	235.83
728.187	221.83
728.629	229.03
729.071	233.43
729.514	257.03
729.956	266.23
730.399	277.03
730.841	281.53
731.283	267.43
731.726	264.53
732.168	255.63
732.61	261.93
733.053	276.43
733.495	299.53
733.937	345.43
734.379	378.43
734.821	422.63
735.263	526.63
735.705	805.23
736.148	1519.93
736.59	2488.13
737.032	3000.63
737.474	2458.33
737.916	789.63
738.357	411.43
738.799	309.63
739.241	287.23
739.683	272.83
740.125	291.53
740.567	288.33
741.008	305.53
741.45	303.83
741.892	304.53
742.334	335.33
742.775	345.83
743.217	335.03
743.658	259.03
744.1	243.23
744.542	254.13
744.983	300.73
745.425	333.53
745.866	332.93
746.307	279.93
746.749	275.53
747.19	317.23
747.632	436.53
748.073	832.83
748.514	1783.13
748.956	2766.93
749.397	3472.93
749.838	2875.23
750.279	2891.33
750.72	1463.73
751.162	534.33
751.603	316.63
752.044	248.23
752.485	210.03
752.926	204.03
753.367	193.13
753.808	187.93
754.249	182.13
754.69	184.03
755.131	181.63
755.572	172.93
756.013	171.53
756.453	177.83
756.894	190.53
757.335	187.73
757.776	190.83
758.216	188.33
758.657	191.53
759.098	201.53
759.538	221.73
759.979	258.83
760.42	368.23
760.86	665.93
761.301	1724.23
761.741	4238.63
762.182	6314.53
762.622	4462.43
763.063	1275.03
763.503	520.53
763.943	343.03
764.384	335.23
764.824	394.63
765.264	435.03
765.705	300.63
766.145	203.93
766.585	176.63
767.025	175.23
767.465	183.63
767.906	240.13
768.346	316.03
768.786	337.53
769.226	265.23
769.666	312.33
770.106	592.13
770.546	1477.93
770.986	2581.53
771.426	2316.83
771.866	775.83
772.306	318.03
772.745	200.63
773.185	163.63
773.625	161.63
774.065	160.33
774.505	185.23
774.944	292.23
775.384	648.83
775.824	1187.43
776.263	1164.13
776.703	494.83
777.142	216.23
777.582	159.03
778.021	128.53
778.461	135.53
778.9	136.43
779.34	125.53
779.779	113.13
780.219	108.93
780.658	109.33
781.097	109.63
781.537	112.73
781.976	104.73
782.415	106.63
782.855	104.13
783.294	96.53
783.733	103.13
784.172	111.53
784.611	98.03
785.05	111.73
785.489	111.13
785.928	113.43
786.367	116.03
786.806	106.73
787.245	124.93
787.684	130.23
788.123	146.83
788.562	129.43
789.001	122.43
789.44	116.73
789.879	114.53
790.317	115.53
790.756	128.03
791.195	122.03
791.634	142.93
792.072	199.23
792.511	347.63
792.95	967.83
793.388	2081.03
793.827	1886.93
794.265	663.93
794.704	266.33
795.142	172.63
795.581	150.63
796.019	136.83
796.458	124.63
796.896	118.63
797.334	125.23
797.773	149.13
798.211	206.83
798.649	415.33
799.087	964.63
799.526	1538.63
799.964	1956.33
800.402	1963.93
800.84	739.33
801.278	289.33
801.716	182.63
802.154	151.13
802.592	137.73
803.03	133.73
803.468	127.63
803.906	141.73
804.344	142.83
804.782	132.63
805.22	125.43
805.658	124.03
806.096	141.03
806.533	154.03
806.971	173.33
807.409	208.73
807.847	298.13
808.284	624.43
808.722	1782.73
809.16	3206.63
809.597	3001.23
810.035	5219.53
810.472	5689.23
810.91	2031.63
811.347	766.83
811.785	394.13
812.222	249.73
812.66	191.63
813.097	156.73
813.535	137.23
813.972	125.13
814.409	121.23
814.846	102.63
815.284	103.53
815.721	103.53
816.158	100.33
816.595	112.23
817.032	175.73
817.47	192.73
817.907	164.93
818.344	154.23
818.781	118.83
819.218	96.63
819.655	118.03
820.092	178.73
820.529	214.23
820.966	174.13
821.403	132.53
821.839	102.43
822.276	96.83
822.713	115.13
823.15	130.83
823.587	105.43
824.023	141.53
824.46	280.03
824.897	856.23
825.333	1323.33
825.77	570.63
826.206	225.73
826.643	127.73
827.08	93.53
827.516	81.23
827.953	74.93
828.389	69.83
828.825	69.43
829.262	67.23
829.698	62.73
830.135	64.23
830.571	57.23
831.007	59.43
831.443	63.93
831.88	65.73
832.316	60.63
832.752	58.33
833.188	64.13
833.624	63.63
834.06	71.43
834.497	69.43
834.933	66.63
835.369	75.43
835.805	72.03
836.241	73.33
836.677	83.33
837.112	87.03
837.548	100.53
837.984	126.63
838.42	191.93
838.856	473.83
839.292	1452.23
839.727	2251.23
840.163	1040.53
840.599	888.43
841.034	1960.73
841.47	2076.63
841.906	760.63
842.341	320.83
842.777	223.23
843.212	311.63
843.648	293.33
844.083	148.73
844.519	94.53
844.954	76.33
845.39	57.33
845.825	56.23
846.261	55.93
846.696	56.23
847.131	53.83
847.566	53.73
848.002	51.73
848.437	55.83
848.872	58.13
849.307	60.43
849.742	78.13
850.177	173.23
850.613	525.83
851.048	853.93
851.483	373.53
851.918	143.73
852.353	87.03
852.788	63.03
853.223	62.43
853.657	53.03
854.092	43.13
854.527	40.83
854.962	40.43
855.397	47.93
855.832	52.13
856.266	40.73
856.701	41.43
857.136	33.93
857.57	39.13
858.005	43.23
858.44	53.43
858.874	39.73
859.309	52.43
859.743	39.03
860.178	46.73
860.612	46.93
861.047	49.93
861.481	60.73
861.915	64.93
862.35	52.33
862.784	32.13
863.218	38.93
863.653	34.43
864.087	50.33
864.521	49.93
864.955	68.73
865.39	150.33
865.824	167.13
866.258	107.33
866.692	152.73
867.126	169.33
867.56	103.03
867.994	55.73
868.428	39.23
868.862	45.23
869.296	56.73
869.73	55.23
870.164	55.43
870.598	48.53
871.031	39.83
871.465	32.83
871.899	32.33
872.333	26.83
872.766	27.93
873.2	23.23
873.634	33.03
874.067	23.83
874.501	22.23
874.935	33.33
875.368	32.93
875.802	28.13
876.235	25.03
876.669	28.63
877.102	23.63
877.535	28.23
877.969	19.13
878.402	24.33
878.836	23.13
879.269	27.73
879.702	21.93
880.135	19.33
880.569	24.43
881.002	27.33
881.435	18.13
881.868	16.73
882.301	19.13
882.734	17.13
883.167	22.73
883.601	20.23
884.034	19.63
884.467	17.93
884.899	15.33
885.332	15.93
885.765	14.43
886.198	13.03
886.631	16.73
887.064	16.43
887.497	19.73
887.929	22.33
888.362	11.63
888.795	15.73
889.228	16.33
889.66	22.53
890.093	19.93
890.526	17.53
890.958	19.13
891.391	13.43
891.823	20.23
892.256	18.83
892.688	13.23
893.121	16.03
893.553	14.43
893.985	18.63
894.418	16.13
894.85	15.33
895.282	14.13
895.715	22.73
896.147	11.73
896.579	17.03
897.011	12.83
897.444	15.33
897.876	14.13
898.308	15.43
898.74	15.43
899.172	9.63
899.604	18.93
900.036	22.13
900.468	16.23
900.9	21.03
901.332	26.83
901.764	19.03
902.196	18.73
902.628	16.43
903.06	16.93
903.491	24.03
903.923	24.13
904.355	17.83
904.787	20.63
905.218	22.03
905.65	20.33
906.082	8.43
906.513	13.63
906.945	19.73
907.376	11.23
907.808	20.43
908.239	23.23
908.671	18.73
909.102	19.93
909.534	22.83
909.965	45.43
910.397	85.83
910.828	303.23
911.259	462.83
911.691	206.03
912.122	104.33
912.553	48.53
912.984	32.13
913.415	20.43
913.847	23.03
914.278	21.53
914.709	15.33
915.14	19.13
915.571	15.73
916.002	12.13
916.433	23.03
916.864	17.33
917.295	9.53
917.726	18.83
918.157	9.43
918.587	31.73
919.018	21.73
919.449	21.83
919.88	22.73
920.311	28.23
920.741	40.53
921.172	155.53
921.603	150.43
922.033	64.73
922.464	37.73
922.895	25.53
923.325	20.73
923.756	12.83
924.186	13.43
924.617	20.03
925.047	37.63
925.478	45.93
925.908	37.23
926.338	19.33
926.769	18.83
927.199	24.23
927.629	9.13
928.06	15.33
928.49	16.03
928.92	20.93
929.35	9.63
929.78	13.13
930.21	6.73
930.641	7.63
931.071	3.63
931.501	6.93
931.931	4.43
932.361	12.03
932.791	3.13
933.221	2.63
933.651	6.53
934.08	10.23
934.51	28.03
934.94	7.43
935.37	-0.97
935.8	6.23
936.229	5.83
936.659	9.93
937.089	0.83
937.519	9.93
937.948	23.73
938.378	18.23
938.807	5.43
939.237	5.43
939.666	6.73
940.096	-1.17
940.525	4.03
940.955	-7.17
941.384	0.83
941.814	-3.27
942.243	-1.27
942.672	3.93
943.102	0.53
943.531	-0.67
943.96	6.73
944.39	3.13
944.819	-0.67
945.248	4.03
945.677	-2.57
946.106	3.53
946.535	3.83
946.964	1.83
947.393	5.23
947.822	2.33
948.251	-8.47
948.68	2.03
949.109	3.33
949.538	1.83
949.967	-0.57
950.396	-6.27
950.825	0.73
951.254	6.43
951.682	-8.17
952.111	6.73
952.54	9.63
952.969	-4.67
953.397	-4.77
953.826	-0.07
954.254	-4.17
954.683	4.03
955.112	-2.97
955.54	-7.77
955.969	-3.07
956.397	1.03
956.826	-1.67
957.254	2.53
957.682	4.43
958.111	2.53
958.539	-5.27
958.967	1.43
959.396	-2.27
959.824	-3.67
960.252	2.43
960.68	-7.07
961.109	-10.47
961.537	-4.07
961.965	2.53
962.393	0.03
962.821	-3.17
963.249	1.23
963.677	-2.67
964.105	7.53
964.533	40.63
964.961	38.43
965.389	20.53
965.817	3.33
966.245	-0.67
966.672	-2.37
967.1	-5.47
967.528	-7.47
967.956	-6.47
968.383	2.03
968.811	-5.87
969.239	-5.07
969.666	-7.67
970.094	-0.27
970.522	-1.37
970.949	1.23
971.377	-8.17
971.804	-2.97
972.232	-3.27
972.659	-1.77
973.087	-0.57
973.514	-1.67
973.941	-3.97
974.369	-0.77
974.796	-1.97
975.223	-3.67
975.651	-2.77
976.078	0.73
976.505	-2.47
976.932	4.33
977.359	13.73
977.786	10.23
978.214	-0.47
978.641	-6.67
979.068	-8.87
979.495	-2.87
979.922	-1.77
980.349	-2.77
980.776	3.13
981.202	-0.97
981.629	6.33
982.056	3.03
982.483	1.73
982.91	1.53
983.337	-5.67
983.763	-4.97
984.19	-8.97
984.617	-2.37
985.043	-4.47
985.47	5.33
985.897	-2.47
986.323	-3.47
986.75	6.73
987.176	-4.47
987.603	-4.67
988.029	3.13
988.456	-5.27
988.882	0.93
989.308	-9.47
989.735	-5.97
990.161	1.23
990.587	0.73
991.014	1.23
991.44	7.33
991.866	-0.47
992.292	3.03
992.719	-0.47
993.145	3.83
993.571	-9.77
993.997	-3.77
994.423	-3.67
994.849	-5.47
995.275	2.73
995.701	1.23
996.127	-6.27
996.553	-0.47
996.979	-4.37
997.405	-4.97
997.83	-8.77
998.256	-10.37
998.682	-7.97
999.108	-8.97
999.534	0.23
999.959	-4.37
1000.385	-4.17
1000.811	0.83
1001.236	-13.97
1001.662	-10.37
1002.087	-7.57
1002.513	1.53
1002.938	0.93
1003.364	-1.47
1003.789	0.53
1004.215	-2.47
1004.64	-4.87
1005.066	1.43
1005.491	1.23
1005.916	-2.27
1006.342	-3.37
1006.767	-10.67
1007.192	6.23
1007.617	-6.07
1008.042	-5.47
1008.468	-8.87
1008.893	-3.97
1009.318	-4.87
1009.743	-3.87
1010.168	1.43
1010.593	-3.57
1011.018	-4.77
1011.443	2.03
1011.868	0.23
1012.293	0.03
1012.718	-3.67
1013.143	-2.37
1013.567	2.93
1013.992	-6.97
1014.417	-11.17
1014.842	1.73
1015.267	-3.77
1015.691	-4.17
1016.116	4.23
1016.541	-6.27
1016.965	0.13
1017.39	0.93
1017.814	-0.87
1018.239	-0.27
1018.663	-6.77
1019.088	-7.07
1019.512	-0.17
1019.937	-1.87
1020.361	-5.57
1020.785	-5.77
1021.21	-9.27
1021.634	-7.37
1022.058	-3.67
1022.483	-0.67
1022.907	-5.57
1023.331	-5.27
1023.755	-2.47
1024.179	-1.37
1024.604	-9.37
1025.028	-1.37
1025.452	-2.07
1025.876	-1.67
1026.3	0.03
1026.724	-10.37
1027.148	-8.07
1027.572	-4.57
1027.996	-4.77
1028.42	0.83
1028.843	-7.57
1029.267	-5.67
1029.691	-7.87
1030.115	-3.37
1030.539	-7.17
1030.962	-3.77
1031.386	-11.67
1031.81	-4.77
1032.233	1.33
1032.657	-2.37
1033.08	-1.27
1033.504	-0.87
1033.927	-6.07
1034.351	-4.07
1034.774	-8.57
1035.198	-6.77
1035.621	-7.07
1036.045	-7.37
1036.468	-0.37
1036.891	-11.37
1037.315	-7.87
1037.738	-9.77
1038.161	1.03
1038.584	-6.87
1039.008	-8.57
1039.431	-7.37
1039.854	-3.97
1040.277	-7.57
1040.7	-10.57
1041.123	-5.67
1041.546	-14.47
1041.969	-10.37
1042.392	-2.47
1042.815	-0.07
1043.238	0.53
1043.661	-0.57
1044.084	-6.07
1044.507	-5.17
1044.93	-1.37
1045.352	-7.87
1045.775	0.23
1046.198	-1.87
1046.621	-4.87
1047.043	-0.67
1047.466	4.53
1047.889	-3.37
1048.311	-4.47
1048.734	-2.47
1049.156	-5.57
1049.579	-1.07
1050.001	-1.87
1050.424	-3.57
1050.846	-3.47
1051.269	-7.37
1051.691	-7.47
1052.113	-9.87
1052.536	-2.57
1052.958	-3.37
1053.38	-2.87
1053.802	-9.37
1054.225	-4.37
1054.647	-9.17
1055.069	-8.77
1055.491	-1.27
1055.913	-8.17
1056.335	-2.37
1056.757	-9.77
1057.179	-7.67
1057.601	-7.27
1058.023	-3.77
1058.445	-7.37
1058.867	-3.57
1059.289	-5.37
1059.711	-3.37
1060.133	-5.17
1060.555	-4.87
1060.976	-7.27
1061.398	-8.87
1061.82	-11.77
1062.241	-10.57
1062.663	-9.27
1063.085	-5.97
1063.506	0.73
1063.928	0.63
1064.35	-5.77
1064.771	-10.47
1065.193	-3.37
1065.614	-11.87
1066.035	-3.67
1066.457	-3.87
1066.878	-1.87
1067.3	-5.17
1067.721	-6.17
1068.142	-2.27
1068.564	-2.57
1068.985	-2.37
1069.406	-12.27
1069.827	-6.67
1070.248	2.63
1070.67	-10.67
1071.091	-6.77
1071.512	-8.17
1071.933	-6.27
1072.354	-1.37
1072.775	-11.37
1073.196	-6.87
1073.617	1.83
1074.038	-5.97
1074.459	-7.07
1074.88	-11.17
1075.3	-2.07
1075.721	-9.77
1076.142	0.43
1076.563	2.03
1076.983	-9.77
1077.404	-8.97
1077.825	-22.97
1078.246	-8.17
1078.666	-9.47
1079.087	-8.47
1079.507	-4.47
1079.928	-0.67
1080.348	-3.67
1080.769	-10.77
1081.189	-2.37
1081.61	-5.27
1082.03	-8.67
1082.451	-8.77
1082.871	-1.57
1083.291	-9.57
1083.711	-14.67
1084.132	-4.67
1084.552	-2.97
1084.972	-4.67
1085.392	-7.97
1085.813	-6.77
1086.233	-8.27
1086.653	-8.67
1087.073	-0.37
1087.493	-4.57
1087.913	-4.77
1088.333	-5.87
1088.753	-2.27
1089.173	3.23
1089.593	-1.67
1090.013	2.33
1090.433	-0.97
1090.852	-3.77
1091.272	-8.57
1091.692	-5.97
1092.112	-0.07
1092.531	-11.57
1092.951	-16.17
1093.371	-10.17
1093.79	3.93
1094.21	-0.17
1094.63	-7.77
1095.049	-10.17
1095.469	0.53
1095.888	-5.97
1096.308	-1.97
1096.727	3.43
1097.146	-1.67
1097.566	0.63
1097.985	-2.97
1098.405	-4.27
1098.824	-3.97
1099.243	-4.27
1099.662	-7.57
1100.082	0.33
1100.501	1.63
1100.92	-4.67
1101.339	-7.27
1101.758	-7.57
