Data from 20171114-ORNL-Ar_H_NY_Subt18_08-07-22-699.txt Node
Date: Tue Nov 14 08:07:22 EST 2017
User: Ender
Spectrometer: HR+D1039
Trigger mode: 0
Integration Time (sec): 2.730000E-2
Scans to average: 10
Electric dark correction enabled: true
Nonlinearity correction enabled: false
Boxcar width: 0
XAxis mode: Wavelengths
Number of Pixels in Spectrum: 2048
>>>>>Begin Spectral Data<<<<<
187.836	-4.22
188.309	-4.22
188.782	-4.22
189.255	-2.92
189.728	-0.32
190.201	5.98
190.674	-0.02
191.147	3.68
191.619	-9.62
192.092	3.58
192.565	2.18
193.038	1.38
193.511	5.28
193.984	-1.52
194.456	0.38
194.929	0.98
195.402	-4.12
195.874	-0.72
196.347	-4.12
196.82	-9.02
197.292	5.38
197.765	-0.92
198.237	-4.02
198.71	2.88
199.182	-2.32
199.655	2.68
200.127	9.38
200.6	-1.72
201.072	-3.52
201.544	-4.12
202.017	-2.72
202.489	4.48
202.961	0.18
203.433	1.48
203.906	-6.72
204.378	-0.82
204.85	0.68
205.322	-6.12
205.794	2.18
206.266	2.08
206.739	-12.02
207.211	-4.12
207.683	-4.92
208.155	-6.82
208.627	-0.62
209.099	3.18
209.57	-3.12
210.042	-5.42
210.514	-6.22
210.986	1.48
211.458	-3.22
211.93	-0.72
212.402	2.98
212.873	-7.42
213.345	-8.92
213.817	-12.22
214.288	3.58
214.76	-10.32
215.232	-2.32
215.703	-6.72
216.175	-6.62
216.646	0.38
217.118	-5.32
217.589	-1.22
218.061	-3.52
218.532	-1.12
219.004	-4.22
219.475	-1.02
219.946	-2.42
220.418	-7.32
220.889	6.28
221.36	-0.62
221.832	-4.62
222.303	-11.22
222.774	2.78
223.245	-6.92
223.717	-4.52
224.188	-10.02
224.659	-2.32
225.13	-7.32
225.601	-2.82
226.072	-0.72
226.543	1.88
227.014	-4.22
227.485	-3.32
227.956	-9.02
228.427	-7.42
228.898	0.28
229.369	8.58
229.839	-1.42
230.31	-8.32
230.781	-3.72
231.252	-5.92
231.722	-2.12
232.193	0.18
232.664	-2.32
233.135	2.98
233.605	2.88
234.076	-4.62
234.546	1.58
235.017	2.18
235.487	0.08
235.958	-6.22
236.428	-5.62
236.899	2.68
237.369	-4.52
237.84	-6.92
238.31	1.78
238.78	5.18
239.251	3.58
239.721	1.78
240.191	-0.72
240.662	2.08
241.132	-1.62
241.602	-8.52
242.072	1.68
242.542	5.98
243.013	-2.62
243.483	-2.92
243.953	3.48
244.423	-2.62
244.893	-1.82
245.363	7.88
245.833	2.78
246.303	-2.72
246.773	2.58
247.243	-0.12
247.712	0.18
248.182	7.48
248.652	5.88
249.122	-7.62
249.592	5.98
250.061	16.38
250.531	25.88
251.001	6.18
251.471	18.08
251.94	9.58
252.41	5.68
252.879	-3.92
253.349	7.78
253.818	3.68
254.288	7.28
254.757	2.28
255.227	-2.92
255.696	3.78
256.166	2.68
256.635	5.38
257.105	6.98
257.574	2.08
258.043	3.08
258.513	4.48
258.982	5.78
259.451	4.58
259.92	11.28
260.389	2.48
260.859	11.38
261.328	2.98
261.797	11.78
262.266	4.68
262.735	8.08
263.204	0.28
263.673	-1.62
264.142	3.38
264.611	-6.82
265.08	1.68
265.549	-5.62
266.018	2.18
266.487	-6.72
266.955	-2.52
267.424	-3.72
267.893	3.28
268.362	-4.82
268.83	-1.92
269.299	-0.32
269.768	0.98
270.236	5.28
270.705	3.08
271.174	4.28
271.642	6.58
272.111	0.38
272.579	9.48
273.048	16.58
273.516	19.98
273.985	17.88
274.453	21.08
274.922	10.48
275.39	13.38
275.858	0.78
276.327	3.18
276.795	10.58
277.263	10.68
277.731	16.38
278.2	36.68
278.668	39.88
279.136	27.28
279.604	12.48
280.072	7.28
280.54	5.88
281.008	7.58
281.477	11.48
281.945	9.78
282.413	9.28
282.881	10.08
283.348	3.28
283.816	12.88
284.284	15.98
284.752	14.98
285.22	4.58
285.688	9.78
286.156	13.98
286.623	26.98
287.091	37.28
287.559	22.58
288.026	9.38
288.494	13.18
288.962	2.08
289.429	9.58
289.897	11.28
290.364	11.28
290.832	10.48
291.3	6.58
291.767	9.18
292.234	10.78
292.702	9.58
293.169	16.48
293.637	17.98
294.104	13.58
294.571	4.68
295.039	6.18
295.506	9.08
295.973	10.88
296.44	11.08
296.908	15.98
297.375	10.98
297.842	8.68
298.309	7.68
298.776	5.58
299.243	13.48
299.71	7.18
300.177	16.38
300.644	17.88
301.111	9.88
301.578	13.58
302.045	10.68
302.512	16.98
302.979	18.78
303.446	16.18
303.913	8.18
304.379	15.48
304.846	18.38
305.313	18.28
305.78	19.08
306.246	17.38
306.713	19.38
307.18	16.78
307.646	18.68
308.113	16.88
308.579	16.38
309.046	22.18
309.512	20.78
309.979	11.38
310.445	22.68
310.912	17.68
311.378	23.88
311.845	19.18
312.311	26.88
312.777	15.38
313.244	22.38
313.71	26.68
314.176	22.98
314.642	18.48
315.109	18.88
315.575	28.78
316.041	28.28
316.507	25.58
316.973	24.98
317.439	23.38
317.905	28.88
318.371	26.28
318.837	25.48
319.303	24.88
319.769	25.28
320.235	26.38
320.701	26.08
321.167	26.88
321.633	26.48
322.099	24.38
322.564	38.68
323.03	30.58
323.496	30.78
323.962	31.58
324.427	24.68
324.893	36.88
325.359	29.68
325.824	29.98
326.29	23.88
326.755	32.88
327.221	28.68
327.686	29.78
328.152	31.58
328.617	30.28
329.083	38.48
329.548	45.08
330.014	34.98
330.479	30.28
330.944	33.38
331.41	34.18
331.875	38.08
332.34	41.08
332.805	36.98
333.271	39.38
333.736	34.18
334.201	41.98
334.666	46.48
335.131	47.28
335.596	38.48
336.061	35.98
336.526	28.48
336.991	43.38
337.456	44.78
337.921	35.18
338.386	39.68
338.851	41.78
339.316	38.68
339.781	35.18
340.246	44.78
340.711	33.18
341.175	45.48
341.64	32.48
342.105	43.78
342.569	40.08
343.034	47.98
343.499	49.68
343.963	39.68
344.428	51.08
344.893	47.78
345.357	54.58
345.822	47.98
346.286	46.38
346.751	57.08
347.215	54.48
347.679	63.88
348.144	76.58
348.608	61.98
349.073	57.38
349.537	60.78
350.001	58.58
350.465	69.28
350.93	68.58
351.394	64.48
351.858	63.48
352.322	69.98
352.786	59.98
353.25	79.58
353.715	89.28
354.179	75.88
354.643	102.78
355.107	99.98
355.571	88.28
356.035	86.88
356.498	90.28
356.962	94.48
357.426	104.38
357.89	91.78
358.354	72.88
358.818	69.48
359.281	68.58
359.745	64.58
360.209	60.38
360.673	60.18
361.136	67.68
361.6	76.68
362.064	73.78
362.527	71.18
362.991	80.38
363.454	65.58
363.918	59.98
364.381	59.78
364.845	68.48
365.308	76.68
365.772	73.18
366.235	76.08
366.698	74.28
367.162	79.18
367.625	70.18
368.088	73.38
368.552	74.88
369.015	73.38
369.478	85.68
369.941	91.48
370.404	78.38
370.867	92.98
371.331	90.38
371.794	97.18
372.257	98.68
372.72	105.38
373.183	92.08
373.646	92.68
374.109	81.68
374.572	91.28
375.035	90.68
375.497	92.98
375.96	91.98
376.423	89.18
376.886	98.68
377.349	92.88
377.811	90.68
378.274	91.98
378.737	96.38
379.199	93.48
379.662	95.88
380.125	107.58
380.587	104.98
381.05	108.58
381.512	115.88
381.975	121.48
382.437	116.58
382.9	113.78
383.362	116.58
383.825	117.38
384.287	130.08
384.75	126.18
385.212	118.08
385.674	126.18
386.136	120.18
386.599	110.18
387.061	115.08
387.523	117.38
387.985	125.58
388.447	125.78
388.91	130.38
389.372	147.68
389.834	132.48
390.296	128.28
390.758	137.68
391.22	153.58
391.682	181.28
392.144	261.88
392.606	202.78
393.068	153.58
393.529	153.08
393.991	135.58
394.453	133.08
394.915	142.28
395.377	175.98
395.838	181.28
396.3	135.88
396.762	127.88
397.224	122.78
397.685	117.88
398.147	120.68
398.608	118.98
399.07	123.38
399.531	125.18
399.993	129.58
400.454	138.68
400.916	141.08
401.377	133.88
401.839	141.08
402.3	140.58
402.762	149.58
403.223	167.58
403.684	155.48
404.145	143.28
404.607	149.38
405.068	153.48
405.529	157.68
405.99	173.18
406.451	152.48
406.913	154.08
407.374	152.48
407.835	152.68
408.296	155.38
408.757	154.88
409.218	173.18
409.679	166.58
410.14	168.68
410.601	161.78
411.062	171.78
411.522	175.08
411.983	176.68
412.444	163.18
412.905	171.28
413.366	170.68
413.826	181.28
414.287	204.58
414.748	239.38
415.208	225.38
415.669	200.18
416.13	193.18
416.59	187.98
417.051	201.58
417.511	205.48
417.972	218.98
418.432	229.08
418.893	265.88
419.353	230.98
419.814	190.48
420.274	174.28
420.734	167.58
421.195	186.18
421.655	186.68
422.115	183.98
422.576	180.28
423.036	185.78
423.496	194.18
423.956	204.78
424.416	214.28
424.876	242.28
425.336	242.48
425.797	245.98
426.257	243.68
426.717	228.58
427.177	221.48
427.637	212.28
428.097	223.48
428.556	229.08
429.016	260.88
429.476	252.68
429.936	263.98
430.396	264.78
430.856	277.18
431.315	302.68
431.775	328.58
432.235	360.98
432.694	330.58
433.154	344.08
433.614	363.58
434.073	316.88
434.533	273.98
434.993	265.38
435.452	259.48
435.912	275.88
436.371	272.58
436.83	260.78
437.29	253.38
437.749	233.18
438.209	228.78
438.668	261.08
439.127	271.18
439.587	246.38
440.046	233.68
440.505	242.58
440.964	258.28
441.424	298.68
441.883	290.58
442.342	237.38
442.801	216.38
443.26	203.58
443.719	212.38
444.178	207.08
444.637	206.48
445.096	213.08
445.555	217.78
446.014	212.28
446.473	219.08
446.932	221.68
447.391	218.58
447.849	219.38
448.308	213.88
448.767	214.38
449.226	232.08
449.685	230.58
450.143	237.78
450.602	224.88
451.061	213.18
451.519	223.38
451.978	216.98
452.436	230.88
452.895	227.18
453.353	237.78
453.812	231.38
454.27	231.88
454.729	236.58
455.187	231.98
455.646	233.18
456.104	230.88
456.562	249.38
457.021	252.58
457.479	249.08
457.937	261.58
458.395	259.68
458.854	240.58
459.312	245.28
459.77	259.78
460.228	240.48
460.686	231.58
461.144	235.58
461.602	241.58
462.06	234.38
462.518	246.58
462.976	248.18
463.434	247.58
463.892	248.08
464.35	269.68
464.808	277.08
465.266	256.08
465.724	258.58
466.181	263.68
466.639	256.28
467.097	274.88
467.555	285.78
468.012	292.38
468.47	298.68
468.928	318.48
469.385	323.98
469.843	334.08
470.3	338.38
470.758	349.88
471.215	368.88
471.673	386.38
472.13	379.78
472.588	399.08
473.045	352.38
473.503	364.88
473.96	379.88
474.417	383.58
474.875	414.88
475.332	455.68
475.789	440.88
476.246	452.98
476.704	463.88
477.161	483.88
477.618	499.28
478.075	535.68
478.532	583.88
478.989	657.38
479.446	772.28
479.903	739.38
480.36	780.88
480.817	831.78
481.274	933.68
481.731	1034.68
482.188	1121.88
482.645	1259.98
483.102	1345.28
483.558	1483.18
484.015	1544.38
484.472	1515.08
484.929	1474.28
485.385	1434.68
485.842	1378.88
486.299	1317.88
486.755	1241.78
487.212	1052.98
487.668	882.98
488.125	815.48
488.582	743.98
489.038	720.68
489.494	673.68
489.951	653.48
490.407	635.58
490.864	619.28
491.32	610.88
491.776	610.88
492.233	614.98
492.689	581.88
493.145	580.58
493.602	564.28
494.058	593.18
494.514	583.58
494.97	604.28
495.426	612.88
495.882	598.38
496.338	589.58
496.794	600.28
497.251	589.18
497.707	601.98
498.163	609.58
498.618	615.48
499.074	619.58
499.53	646.28
499.986	644.88
500.442	631.08
500.898	607.78
501.354	594.28
501.809	613.38
502.265	612.88
502.721	623.18
503.177	636.68
503.632	640.88
504.088	640.48
504.543	675.28
504.999	668.88
505.455	626.28
505.91	608.98
506.366	617.68
506.821	614.88
507.277	602.68
507.732	602.18
508.187	608.08
508.643	607.98
509.098	608.98
509.553	636.78
510.009	642.68
510.464	641.88
510.919	665.38
511.375	657.98
511.83	682.68
512.285	694.88
512.74	732.18
513.195	749.48
513.65	741.28
514.105	737.68
514.56	736.68
515.015	765.18
515.47	781.78
515.925	757.68
516.38	753.88
516.835	764.98
517.29	751.08
517.745	741.28
518.2	735.38
518.655	718.68
519.109	714.98
519.564	708.98
520.019	697.18
520.474	703.08
520.928	691.48
521.383	692.18
521.838	687.18
522.292	688.78
522.747	687.28
523.201	675.68
523.656	679.78
524.11	668.68
524.565	673.08
525.019	662.08
525.474	678.78
525.928	680.88
526.382	665.48
526.837	667.98
527.291	675.28
527.745	663.58
528.2	666.68
528.654	668.08
529.108	665.88
529.562	673.48
530.016	667.28
530.47	666.88
530.925	662.58
531.379	670.78
531.833	675.88
532.287	678.98
532.741	675.28
533.195	678.68
533.649	685.58
534.103	695.08
534.556	682.08
535.01	688.58
535.464	686.28
535.918	695.88
536.372	685.78
536.826	688.38
537.279	680.88
537.733	682.08
538.187	695.18
538.64	688.68
539.094	703.58
539.548	696.38
540.001	704.18
540.455	699.78
540.908	705.68
541.362	708.38
541.815	720.78
542.269	735.98
542.722	732.78
543.175	746.38
543.629	743.38
544.082	761.48
544.536	755.58
544.989	753.48
545.442	769.58
545.895	762.88
546.349	767.58
546.802	768.68
547.255	770.08
547.708	775.18
548.161	788.28
548.614	790.68
549.067	793.88
549.52	792.58
549.973	789.78
550.426	778.78
550.879	771.48
551.332	771.88
551.785	783.98
552.238	775.48
552.691	790.68
553.144	802.28
553.596	819.08
554.049	832.28
554.502	867.18
554.955	883.38
555.407	883.88
555.86	871.88
556.313	851.78
556.765	856.78
557.218	841.48
557.67	841.38
558.123	849.88
558.576	839.18
559.028	843.78
559.48	850.18
559.933	848.68
560.385	820.08
560.838	781.58
561.29	766.38
561.742	754.08
562.195	736.48
562.647	738.28
563.099	753.38
563.551	754.98
564.004	761.98
564.456	748.38
564.908	736.38
565.36	726.48
565.812	715.28
566.264	695.88
566.716	696.08
567.168	688.18
567.62	698.38
568.072	680.88
568.524	666.98
568.976	671.58
569.428	649.98
569.88	653.98
570.332	651.98
570.784	659.88
571.235	669.68
571.687	667.98
572.139	680.18
572.59	684.28
573.042	685.68
573.494	689.28
573.945	678.38
574.397	659.68
574.849	671.28
575.3	660.38
575.752	653.18
576.203	660.28
576.655	661.28
577.106	658.08
577.557	636.78
578.009	645.88
578.46	643.08
578.912	643.28
579.363	641.18
579.814	637.88
580.265	639.98
580.717	641.18
581.168	640.08
581.619	658.88
582.07	659.48
582.521	642.68
582.972	655.98
583.423	666.38
583.875	665.78
584.326	680.48
584.777	728.68
585.227	801.68
585.678	892.68
586.129	984.38
586.58	1055.58
587.031	1125.68
587.482	1278.48
587.933	1473.18
588.384	1259.38
588.834	944.08
589.285	790.38
589.736	765.88
590.186	755.98
590.637	743.18
591.088	718.48
591.538	714.48
591.989	700.78
592.439	707.88
592.89	708.38
593.34	692.98
593.791	690.88
594.241	683.68
594.692	681.68
595.142	689.78
595.593	672.68
596.043	680.38
596.493	686.18
596.943	695.48
597.394	697.68
597.844	688.48
598.294	705.48
598.744	730.78
599.195	754.28
599.645	791.88
600.095	828.18
600.545	889.58
600.995	936.88
601.445	988.48
601.895	1052.28
602.345	1101.58
602.795	1081.38
603.245	1035.18
603.695	990.18
604.145	922.78
604.594	885.88
605.044	829.98
605.494	782.88
605.944	722.08
606.393	711.58
606.843	703.28
607.293	716.58
607.743	709.08
608.192	716.28
608.642	740.68
609.091	736.58
609.541	749.58
609.99	742.68
610.44	742.78
610.889	713.18
611.339	686.08
611.788	665.78
612.238	671.08
612.687	695.78
613.136	701.28
613.586	712.38
614.035	711.58
614.484	737.58
614.933	733.68
615.383	724.48
615.832	712.08
616.281	706.88
616.73	666.18
617.179	635.88
617.628	616.78
618.077	616.58
618.526	608.08
618.975	593.48
619.424	590.38
619.873	594.28
620.322	592.58
620.771	584.08
621.22	585.98
621.669	580.58
622.118	564.38
622.567	558.68
623.015	548.18
623.464	550.98
623.913	536.78
624.361	532.08
624.81	534.28
625.259	537.68
625.707	538.78
626.156	535.48
626.604	541.28
627.053	543.68
627.501	536.48
627.95	551.38
628.398	553.08
628.847	553.88
629.295	551.38
629.744	559.58
630.192	557.78
630.64	550.08
631.089	554.98
631.537	559.28
631.985	558.58
632.433	567.98
632.881	578.88
633.33	611.58
633.778	605.28
634.226	538.48
634.674	549.58
635.122	553.98
635.57	572.68
636.018	595.68
636.466	556.68
636.914	542.18
637.362	549.98
637.81	556.08
638.258	560.48
638.705	561.68
639.153	591.58
639.601	604.18
640.049	618.08
640.497	657.48
640.944	671.58
641.392	627.18
641.84	587.48
642.287	563.48
642.735	545.38
643.182	555.48
643.63	557.28
644.078	560.78
644.525	571.08
644.973	579.08
645.42	585.38
645.867	603.38
646.315	623.38
646.762	633.58
647.21	672.18
647.657	689.88
648.104	730.98
648.551	745.18
648.999	814.28
649.446	898.18
649.893	977.38
650.34	1116.48
650.787	1353.98
651.234	1677.88
651.682	2195.08
652.129	3031.18
652.576	4388.68
653.023	6500.48
653.47	8902.88
653.917	11073.18
654.363	12765.68
654.81	14099.88
655.257	13377.88
655.704	8733.98
656.151	5124.98
656.598	3299.08
657.044	2345.78
657.491	1800.48
657.938	1437.28
658.385	1207.88
658.831	1047.38
659.278	927.38
659.724	821.78
660.171	757.28
660.618	704.48
661.064	665.98
661.511	637.48
661.957	634.38
662.404	621.18
662.85	627.38
663.296	603.68
663.743	543.08
664.189	520.68
664.635	515.68
665.082	513.88
665.528	507.48
665.974	498.58
666.42	498.58
666.867	484.88
667.313	473.78
667.759	460.98
668.205	467.08
668.651	468.18
669.097	461.28
669.543	479.08
669.989	460.38
670.435	431.88
670.881	429.68
671.327	438.08
671.773	452.98
672.219	475.98
672.665	531.28
673.11	559.58
673.556	604.28
674.002	645.08
674.448	632.98
674.893	524.48
675.339	452.58
675.785	420.28
676.23	408.38
676.676	376.78
677.122	368.08
677.567	365.68
678.013	358.88
678.458	344.28
678.904	346.38
679.349	339.18
679.794	343.18
680.24	337.98
680.685	341.78
681.131	338.38
681.576	338.68
682.021	343.98
682.466	337.88
682.912	335.28
683.357	349.78
683.802	371.08
684.247	401.68
684.692	441.78
685.137	481.78
685.583	518.98
686.028	544.48
686.473	496.88
686.918	428.98
687.363	402.18
687.807	381.98
688.252	348.38
688.697	332.38
689.142	323.08
689.587	320.88
690.032	312.08
690.477	332.28
690.921	338.28
691.366	379.38
691.811	393.48
692.255	419.48
692.7	453.58
693.145	489.48
693.589	695.08
694.034	1105.98
694.478	1501.48
694.923	1673.08
695.367	2182.58
695.812	1142.58
696.256	484.58
696.701	360.88
697.145	331.88
697.59	315.68
698.034	308.78
698.478	315.28
698.922	317.98
699.367	324.38
699.811	326.58
700.255	346.78
700.699	377.88
701.143	417.28
701.588	461.88
702.032	502.98
702.476	492.68
702.92	471.18
703.364	476.08
703.808	623.78
704.252	1013.48
704.696	1418.38
705.14	1611.98
705.584	2048.08
706.027	1025.98
706.471	501.38
706.915	386.68
707.359	337.38
707.803	309.58
708.246	303.08
708.69	303.58
709.134	300.68
709.577	305.58
710.021	313.88
710.465	294.98
710.908	287.48
711.352	290.38
711.795	300.08
712.239	336.78
712.682	374.08
713.126	405.58
713.569	447.88
714.012	356.98
714.456	307.98
714.899	289.48
715.342	272.28
715.786	253.98
716.229	248.38
716.672	246.88
717.115	236.28
717.558	240.08
718.002	245.18
718.445	259.18
718.888	276.58
719.331	288.78
719.774	293.38
720.217	298.38
720.66	277.28
721.103	258.08
721.546	245.18
721.989	246.78
722.432	220.78
722.874	231.18
723.317	226.28
723.76	221.58
724.203	241.38
724.645	317.08
725.088	437.98
725.531	552.58
725.974	616.28
726.416	533.18
726.859	296.68
727.301	238.18
727.744	229.48
728.187	217.38
728.629	232.18
729.071	234.38
729.514	248.58
729.956	271.88
730.399	275.78
730.841	277.28
731.283	261.78
731.726	254.18
732.168	250.48
732.61	259.18
733.053	281.68
733.495	309.88
733.937	337.08
734.379	385.88
734.821	431.88
735.263	533.68
735.705	821.98
736.148	1557.28
736.59	2516.68
737.032	2949.88
737.474	2397.08
737.916	781.18
738.357	407.18
738.799	316.08
739.241	297.28
739.683	269.28
740.125	280.28
740.567	287.58
741.008	309.98
741.45	290.88
741.892	300.68
742.334	336.98
742.775	344.28
743.217	336.98
743.658	256.18
744.1	244.48
744.542	256.48
744.983	298.88
745.425	331.28
745.866	331.68
746.307	280.08
746.749	277.58
747.19	312.38
747.632	453.28
748.073	863.28
748.514	1830.18
748.956	2773.48
749.397	3472.38
749.838	2871.98
750.279	2853.98
750.72	1437.88
751.162	530.98
751.603	308.18
752.044	249.88
752.485	207.08
752.926	204.08
753.367	194.98
753.808	191.38
754.249	182.28
754.69	179.78
755.131	174.28
755.572	174.48
756.013	168.88
756.453	178.08
756.894	186.08
757.335	179.88
757.776	188.28
758.216	185.58
758.657	194.48
759.098	194.28
759.538	217.88
759.979	263.08
760.42	361.48
760.86	699.78
761.301	1818.18
761.741	4362.68
762.182	6254.08
762.622	4353.78
763.063	1275.48
763.503	522.88
763.943	344.98
764.384	330.78
764.824	387.08
765.264	419.88
765.705	296.38
766.145	205.68
766.585	178.08
767.025	178.48
767.465	183.98
767.906	231.18
768.346	301.58
768.786	324.08
769.226	252.68
769.666	312.08
770.106	616.08
770.546	1542.68
770.986	2562.18
771.426	2291.68
771.866	769.98
772.306	319.18
772.745	194.68
773.185	168.18
773.625	169.28
774.065	162.78
774.505	194.98
774.944	304.58
775.384	663.08
775.824	1176.28
776.263	1141.38
776.703	491.88
777.142	213.98
777.582	158.08
778.021	132.18
778.461	130.08
778.9	137.58
779.34	124.88
779.779	112.58
780.219	104.58
780.658	105.68
781.097	109.48
781.537	113.38
781.976	101.98
782.415	105.68
782.855	104.38
783.294	99.28
783.733	104.68
784.172	96.28
784.611	106.08
785.05	107.88
785.489	107.88
785.928	114.78
786.367	119.28
786.806	111.78
787.245	126.58
787.684	136.68
788.123	142.08
788.562	136.28
789.001	118.88
789.44	114.18
789.879	114.98
790.317	114.88
790.756	126.58
791.195	127.68
791.634	142.78
792.072	202.58
792.511	365.58
792.95	1006.58
793.388	2076.78
793.827	1874.08
794.265	653.08
794.704	272.38
795.142	179.68
795.581	146.28
796.019	136.08
796.458	124.98
796.896	119.88
797.334	131.18
797.773	149.48
798.211	216.78
798.649	427.58
799.087	995.58
799.526	1564.48
799.964	1963.68
800.402	1953.88
800.84	739.88
801.278	285.18
801.716	178.08
802.154	143.68
802.592	140.38
803.03	135.88
803.468	130.28
803.906	142.68
804.344	143.38
804.782	132.98
805.22	134.48
805.658	127.88
806.096	135.08
806.533	153.78
806.971	172.18
807.409	210.08
807.847	308.38
808.284	660.88
808.722	1836.08
809.16	3213.88
809.597	3082.78
810.035	5340.38
810.472	5582.18
810.91	2017.18
811.347	766.88
811.785	392.38
812.222	253.78
812.66	186.38
813.097	158.38
813.535	132.68
813.972	120.68
814.409	113.68
814.846	109.88
815.284	109.08
815.721	95.28
816.158	100.18
816.595	119.48
817.032	173.58
817.47	189.08
817.907	153.68
818.344	145.28
818.781	113.08
819.218	99.88
819.655	120.68
820.092	173.98
820.529	209.28
820.966	169.58
821.403	133.58
821.839	107.98
822.276	101.78
822.713	113.08
823.15	125.28
823.587	123.48
824.023	145.68
824.46	306.88
824.897	890.68
825.333	1306.88
825.77	567.38
826.206	227.58
826.643	127.88
827.08	103.38
827.516	81.58
827.953	79.38
828.389	73.78
828.825	71.18
829.262	68.58
829.698	67.48
830.135	63.88
830.571	64.98
831.007	66.98
831.443	57.08
831.88	61.38
832.316	58.48
832.752	60.28
833.188	61.18
833.624	63.98
834.06	62.88
834.497	64.68
834.933	70.18
835.369	80.58
835.805	66.88
836.241	72.38
836.677	76.38
837.112	89.68
837.548	110.28
837.984	130.58
838.42	188.88
838.856	495.58
839.292	1486.58
839.727	2227.48
840.163	1041.18
840.599	912.98
841.034	2009.28
841.47	2068.28
841.906	750.88
842.341	330.38
842.777	219.78
843.212	306.78
843.648	293.78
844.083	144.48
844.519	99.88
844.954	69.78
845.39	60.18
845.825	55.38
846.261	63.08
846.696	55.68
847.131	54.28
847.566	54.78
848.002	53.38
848.437	50.98
848.872	57.28
849.307	58.38
849.742	78.58
850.177	179.28
850.613	544.08
851.048	858.48
851.483	362.38
851.918	153.58
852.353	84.38
852.788	56.38
853.223	53.38
853.657	51.28
854.092	46.98
854.527	44.18
854.962	38.18
855.397	47.58
855.832	49.58
856.266	47.48
856.701	34.38
857.136	34.08
857.57	42.38
858.005	47.18
858.44	50.58
858.874	45.38
859.309	49.28
859.743	37.28
860.178	49.38
860.612	41.28
861.047	55.98
861.481	62.98
861.915	70.58
862.35	54.88
862.784	33.48
863.218	37.28
863.653	35.08
864.087	43.18
864.521	49.48
864.955	67.48
865.39	154.88
865.824	165.78
866.258	110.68
866.692	155.28
867.126	166.68
867.56	105.88
867.994	50.68
868.428	41.18
868.862	48.98
869.296	51.68
869.73	58.38
870.164	54.58
870.598	48.28
871.031	38.08
871.465	31.68
871.899	31.68
872.333	26.08
872.766	20.78
873.2	16.88
873.634	26.78
874.067	23.28
874.501	29.98
874.935	33.48
875.368	30.18
875.802	26.58
876.235	26.58
876.669	24.98
877.102	30.38
877.535	24.38
877.969	21.28
878.402	26.88
878.836	15.88
879.269	24.68
879.702	22.88
880.135	18.68
880.569	25.78
881.002	28.08
881.435	23.78
881.868	18.68
882.301	23.18
882.734	13.38
883.167	23.18
883.601	22.18
884.034	23.38
884.467	16.78
884.899	16.98
885.332	17.38
885.765	16.48
886.198	25.88
886.631	14.48
887.064	16.08
887.497	21.48
887.929	25.48
888.362	15.98
888.795	10.48
889.228	22.78
889.66	19.68
890.093	13.58
890.526	20.98
890.958	19.08
891.391	23.28
891.823	21.28
892.256	12.68
892.688	13.18
893.121	17.28
893.553	14.08
893.985	25.88
894.418	18.18
894.85	17.18
895.282	15.88
895.715	22.18
896.147	17.38
896.579	15.78
897.011	15.58
897.444	18.58
897.876	17.08
898.308	19.88
898.74	21.78
899.172	15.88
899.604	23.68
900.036	20.58
900.468	15.68
900.9	14.48
901.332	18.28
901.764	11.28
902.196	20.38
902.628	22.08
903.06	15.08
903.491	30.08
903.923	18.88
904.355	24.58
904.787	25.98
905.218	24.48
905.65	23.78
906.082	18.28
906.513	13.78
906.945	5.98
907.376	15.28
907.808	17.48
908.239	27.78
908.671	20.98
909.102	25.68
909.534	30.58
909.965	45.68
910.397	87.48
910.828	313.88
911.259	465.28
911.691	209.58
912.122	107.48
912.553	54.38
912.984	35.98
913.415	27.38
913.847	21.18
914.278	16.58
914.709	15.28
915.14	19.58
915.571	14.98
916.002	18.98
916.433	20.18
916.864	19.78
917.295	12.68
917.726	21.38
918.157	18.58
918.587	29.28
919.018	18.88
919.449	19.98
919.88	23.98
920.311	32.38
920.741	50.38
921.172	169.58
921.603	148.28
922.033	60.88
922.464	46.38
922.895	28.18
923.325	21.88
923.756	18.18
924.186	12.98
924.617	28.38
925.047	46.08
925.478	49.68
925.908	41.38
926.338	17.98
926.769	14.78
927.199	20.28
927.629	9.98
928.06	14.08
928.49	15.38
928.92	13.98
929.35	11.48
929.78	11.48
930.21	8.88
930.641	9.08
931.071	9.58
931.501	8.28
931.931	9.78
932.361	6.48
932.791	10.68
933.221	3.18
933.651	6.88
934.08	17.48
934.51	23.98
934.94	11.68
935.37	9.08
935.8	9.68
936.229	10.58
936.659	10.98
937.089	-0.12
937.519	14.58
937.948	25.98
938.378	20.18
938.807	9.78
939.237	1.88
939.666	8.28
940.096	0.08
940.525	2.78
940.955	1.98
941.384	2.68
941.814	2.18
942.243	4.58
942.672	3.08
943.102	-2.42
943.531	5.08
943.96	6.58
944.39	2.48
944.819	9.88
945.248	8.68
945.677	3.58
946.106	10.28
946.535	6.78
946.964	2.08
947.393	7.78
947.822	2.28
948.251	-4.82
948.68	3.38
949.109	9.98
949.538	7.38
949.967	-2.52
950.396	-2.42
950.825	1.48
951.254	-0.72
951.682	-4.62
952.111	6.38
952.54	4.98
952.969	1.28
953.397	-0.32
953.826	1.48
954.254	-2.92
954.683	3.98
955.112	-2.12
955.54	-4.52
955.969	-0.02
956.397	-1.02
956.826	1.58
957.254	6.48
957.682	3.18
958.111	2.48
958.539	2.88
958.967	-0.72
959.396	1.98
959.824	7.28
960.252	3.28
960.68	-7.42
961.109	-0.32
961.537	-2.52
961.965	-0.02
962.393	0.58
962.821	0.28
963.249	-0.02
963.677	-0.12
964.105	3.28
964.533	41.08
964.961	39.38
965.389	17.68
965.817	3.08
966.245	1.88
966.672	-3.82
967.1	-5.82
967.528	0.98
967.956	-2.82
968.383	4.38
968.811	0.28
969.239	-5.02
969.666	-5.72
970.094	-1.82
970.522	0.58
970.949	4.08
971.377	-3.62
971.804	-2.42
972.232	-2.32
972.659	-1.02
973.087	-6.72
973.514	-0.32
973.941	-6.22
974.369	0.88
974.796	5.18
975.223	-1.12
975.651	-0.12
976.078	3.98
976.505	1.58
976.932	4.08
977.359	22.48
977.786	11.28
978.214	1.68
978.641	-1.22
979.068	-6.82
979.495	-1.32
979.922	0.28
980.349	-3.52
980.776	6.68
981.202	1.38
981.629	6.88
982.056	4.18
982.483	-1.22
982.91	6.68
983.337	-6.22
983.763	5.38
984.19	-0.52
984.617	3.28
985.043	-1.32
985.47	-4.22
985.897	-4.92
986.323	-5.12
986.75	4.08
987.176	1.68
987.603	3.98
988.029	-3.12
988.456	-1.92
988.882	-3.22
989.308	-6.42
989.735	0.08
990.161	1.08
990.587	-1.52
991.014	2.08
991.44	4.98
991.866	-8.32
992.292	-6.12
992.719	-3.62
993.145	6.28
993.571	-5.72
993.997	-0.52
994.423	0.48
994.849	-3.72
995.275	3.68
995.701	3.28
996.127	-4.22
996.553	1.38
996.979	-5.02
997.405	1.38
997.83	-5.32
998.256	-7.12
998.682	-6.72
999.108	-11.22
999.534	0.68
999.959	2.58
1000.385	-3.72
1000.811	2.58
1001.236	-16.82
1001.662	-2.22
1002.087	-6.92
1002.513	0.98
1002.938	3.78
1003.364	-0.02
1003.789	3.48
1004.215	3.48
1004.64	-7.72
1005.066	7.18
1005.491	1.48
1005.916	-0.22
1006.342	-4.22
1006.767	-8.12
1007.192	3.98
1007.617	0.18
1008.042	2.18
1008.468	-3.22
1008.893	-0.22
1009.318	-0.22
1009.743	-1.02
1010.168	3.58
1010.593	4.48
1011.018	-9.82
1011.443	1.58
1011.868	0.48
1012.293	-5.42
1012.718	-3.32
1013.143	2.18
1013.567	1.18
1013.992	-3.12
1014.417	-9.22
1014.842	-2.92
1015.267	-0.62
1015.691	-5.42
1016.116	8.78
1016.541	4.98
1016.965	7.38
1017.39	0.38
1017.814	-3.22
1018.239	-6.12
1018.663	-4.42
1019.088	-8.82
1019.512	-0.42
1019.937	4.68
1020.361	-0.32
1020.785	-9.32
1021.21	-2.22
1021.634	-3.32
1022.058	-1.02
1022.483	8.58
1022.907	-5.72
1023.331	-0.12
1023.755	0.88
1024.179	1.68
1024.604	-7.42
1025.028	-1.82
1025.452	1.18
1025.876	2.48
1026.3	4.58
1026.724	-8.62
1027.148	-2.42
1027.572	-6.02
1027.996	-5.12
1028.42	-1.32
1028.843	-6.62
1029.267	-5.22
1029.691	-3.02
1030.115	-2.62
1030.539	-3.32
1030.962	-1.72
1031.386	-11.72
1031.81	-2.12
1032.233	2.98
1032.657	0.48
1033.08	2.18
1033.504	-3.02
1033.927	-6.72
1034.351	-1.92
1034.774	-5.62
1035.198	-4.82
1035.621	-7.12
1036.045	-4.82
1036.468	3.68
1036.891	-7.32
1037.315	-5.32
1037.738	-9.62
1038.161	0.58
1038.584	-7.02
1039.008	-6.12
1039.431	-4.72
1039.854	-4.62
1040.277	-4.12
1040.7	-5.92
1041.123	0.68
1041.546	-2.32
1041.969	-2.02
1042.392	-8.62
1042.815	-4.82
1043.238	2.18
1043.661	-1.22
1044.084	-8.12
1044.507	-1.42
1044.93	-4.22
1045.352	-7.42
1045.775	-3.72
1046.198	-2.32
1046.621	-0.12
1047.043	-1.22
1047.466	10.28
1047.889	-1.42
1048.311	-3.22
1048.734	-3.22
1049.156	-3.52
1049.579	-5.72
1050.001	-4.42
1050.424	-0.22
1050.846	-4.72
1051.269	-2.62
1051.691	-11.72
1052.113	-2.22
1052.536	1.88
1052.958	-2.82
1053.38	-4.72
1053.802	-4.92
1054.225	5.68
1054.647	-0.42
1055.069	-8.82
1055.491	7.18
1055.913	-7.12
1056.335	-0.22
1056.757	-2.12
1057.179	-8.22
1057.601	-4.42
1058.023	-4.62
1058.445	1.68
1058.867	4.08
1059.289	-3.32
1059.711	-8.62
1060.133	-2.42
1060.555	-6.52
1060.976	-7.22
1061.398	-7.52
1061.82	-11.92
1062.241	-5.42
1062.663	-8.22
1063.085	-4.12
1063.506	1.98
1063.928	-3.22
1064.35	3.48
1064.771	-13.22
1065.193	1.28
1065.614	-6.42
1066.035	1.08
1066.457	3.88
1066.878	-2.22
1067.3	0.18
1067.721	-3.82
1068.142	-2.52
1068.564	-4.62
1068.985	-1.22
1069.406	-5.72
1069.827	-7.32
1070.248	-1.42
1070.67	-11.92
1071.091	-5.12
1071.512	-5.12
1071.933	-7.42
1072.354	-4.82
1072.775	-5.52
1073.196	-8.12
1073.617	-4.32
1074.038	-9.22
1074.459	1.68
1074.88	-7.82
1075.3	-0.72
1075.721	-7.42
1076.142	4.18
1076.563	-2.52
1076.983	-8.42
1077.404	-9.72
1077.825	-7.62
1078.246	-1.82
1078.666	-11.52
1079.087	-3.92
1079.507	-5.92
1079.928	-0.72
1080.348	-7.02
1080.769	-5.52
1081.189	-1.72
1081.61	-4.42
1082.03	-2.12
1082.451	-0.92
1082.871	-1.32
1083.291	-3.62
1083.711	-9.52
1084.132	-5.12
1084.552	-6.82
1084.972	4.88
1085.392	-11.52
1085.813	-11.02
1086.233	-6.82
1086.653	-4.82
1087.073	-7.02
1087.493	-8.82
1087.913	-5.22
1088.333	-6.82
1088.753	-4.62
1089.173	5.98
1089.593	-2.62
1090.013	5.38
1090.433	-2.42
1090.852	2.48
1091.272	-2.92
1091.692	0.98
1092.112	-1.52
1092.531	-8.62
1092.951	-14.72
1093.371	-7.32
1093.79	4.38
1094.21	-7.22
1094.63	-4.02
1095.049	-7.42
1095.469	-5.42
1095.888	-2.52
1096.308	0.68
1096.727	9.08
1097.146	-8.12
1097.566	-5.72
1097.985	-3.22
1098.405	-2.42
1098.824	-9.82
1099.243	-3.02
1099.662	-5.22
1100.082	-5.92
1100.501	-1.02
1100.92	-5.62
1101.339	-3.32
1101.758	-0.22
