Data from 20171114-ORNL-Ar_H_NY_Subt18_08-07-34-983.txt Node
Date: Tue Nov 14 08:07:34 EST 2017
User: Ender
Spectrometer: HR+D1039
Trigger mode: 0
Integration Time (sec): 2.730000E-2
Scans to average: 10
Electric dark correction enabled: true
Nonlinearity correction enabled: false
Boxcar width: 0
XAxis mode: Wavelengths
Number of Pixels in Spectrum: 2048
>>>>>Begin Spectral Data<<<<<
187.836	-3.91
188.309	-3.91
188.782	-3.91
189.255	-0.21
189.728	-1.01
190.201	4.49
190.674	1.09
191.147	1.59
191.619	-7.01
192.092	5.29
192.565	2.69
193.038	0.29
193.511	-3.31
193.984	0.99
194.456	-2.11
194.929	-0.21
195.402	-2.11
195.874	3.49
196.347	-2.61
196.82	-10.01
197.292	-1.01
197.765	-1.11
198.237	-9.21
198.71	1.69
199.182	-7.41
199.655	4.69
200.127	1.49
200.6	-1.71
201.072	-1.51
201.544	-9.51
202.017	-4.01
202.489	4.49
202.961	-8.71
203.433	-0.91
203.906	-6.41
204.378	-2.11
204.85	-5.41
205.322	-8.61
205.794	-7.91
206.266	-7.81
206.739	-9.21
207.211	0.09
207.683	-7.21
208.155	-2.11
208.627	-8.21
209.099	-3.71
209.57	-10.21
210.042	-8.31
210.514	-12.31
210.986	-10.51
211.458	-14.01
211.93	-3.31
212.402	3.79
212.873	-6.11
213.345	-10.91
213.817	-12.11
214.288	-8.71
214.76	-9.71
215.232	0.69
215.703	-3.61
216.175	-3.11
216.646	-3.21
217.118	-6.21
217.589	-5.11
218.061	1.39
218.532	-9.71
219.004	-4.21
219.475	-5.41
219.946	-10.91
220.418	-3.71
220.889	1.39
221.36	5.59
221.832	-11.11
222.303	-7.01
222.774	4.69
223.245	-11.31
223.717	-5.51
224.188	-9.11
224.659	-6.01
225.13	-8.81
225.601	-0.01
226.072	0.69
226.543	-1.91
227.014	-1.51
227.485	-3.81
227.956	-4.71
228.427	-8.01
228.898	-0.51
229.369	-3.31
229.839	-7.31
230.31	-6.41
230.781	4.29
231.252	-4.61
231.722	-7.11
232.193	-0.11
232.664	-5.81
233.135	-1.11
233.605	-0.51
234.076	-9.21
234.546	-4.51
235.017	5.09
235.487	-0.81
235.958	-0.91
236.428	-5.21
236.899	-0.71
237.369	5.99
237.84	-0.71
238.31	7.59
238.78	-1.21
239.251	-7.41
239.721	-6.81
240.191	-2.11
240.662	-1.51
241.132	2.39
241.602	-2.31
242.072	-4.41
242.542	5.69
243.013	-5.11
243.483	1.49
243.953	0.19
244.423	-6.31
244.893	-3.51
245.363	0.79
245.833	3.79
246.303	-2.91
246.773	4.29
247.243	-1.01
247.712	-0.81
248.182	1.79
248.652	2.29
249.122	-4.71
249.592	14.19
250.061	13.29
250.531	26.49
251.001	6.29
251.471	15.79
251.94	14.69
252.41	4.99
252.879	-1.91
253.349	7.79
253.818	5.69
254.288	2.09
254.757	0.69
255.227	-4.81
255.696	-2.81
256.166	4.89
256.635	3.99
257.105	7.79
257.574	-1.01
258.043	4.89
258.513	2.69
258.982	9.89
259.451	4.59
259.92	7.69
260.389	7.99
260.859	12.69
261.328	8.59
261.797	9.19
262.266	0.69
262.735	3.59
263.204	2.89
263.673	-4.11
264.142	4.39
264.611	-6.01
265.08	0.59
265.549	0.79
266.018	5.39
266.487	-0.11
266.955	-2.31
267.424	-7.91
267.893	5.39
268.362	-4.01
268.83	4.69
269.299	10.39
269.768	4.39
270.236	3.09
270.705	-5.01
271.174	1.69
271.642	1.59
272.111	12.09
272.579	11.69
273.048	16.49
273.516	22.99
273.985	21.79
274.453	18.79
274.922	16.59
275.39	7.09
275.858	-1.61
276.327	11.89
276.795	10.79
277.263	2.99
277.731	21.99
278.2	42.09
278.668	47.89
279.136	37.19
279.604	12.09
280.072	7.39
280.54	10.09
281.008	6.89
281.477	7.39
281.945	8.39
282.413	10.19
282.881	15.59
283.348	5.29
283.816	11.19
284.284	9.49
284.752	12.39
285.22	9.09
285.688	9.89
286.156	16.89
286.623	38.69
287.091	45.19
287.559	23.39
288.026	11.49
288.494	14.09
288.962	1.79
289.429	5.99
289.897	18.59
290.364	11.29
290.832	12.49
291.3	6.69
291.767	11.69
292.234	12.19
292.702	5.39
293.169	8.99
293.637	9.09
294.104	12.39
294.571	5.19
295.039	9.39
295.506	9.79
295.973	14.49
296.44	12.99
296.908	12.89
297.375	11.19
297.842	11.19
298.309	13.89
298.776	8.29
299.243	14.99
299.71	1.29
300.177	20.09
300.644	13.69
301.111	16.09
301.578	16.09
302.045	11.19
302.512	14.59
302.979	17.29
303.446	15.89
303.913	13.79
304.379	17.19
304.846	18.79
305.313	17.09
305.78	22.09
306.246	23.29
306.713	24.09
307.18	16.89
307.646	16.79
308.113	17.39
308.579	14.39
309.046	24.29
309.512	17.49
309.979	10.89
310.445	14.19
310.912	23.59
311.378	25.09
311.845	17.49
312.311	22.89
312.777	25.59
313.244	19.19
313.71	27.09
314.176	25.49
314.642	25.09
315.109	27.09
315.575	29.69
316.041	31.69
316.507	22.59
316.973	28.29
317.439	27.89
317.905	28.89
318.371	27.19
318.837	19.79
319.303	26.89
319.769	25.89
320.235	28.29
320.701	26.99
321.167	36.09
321.633	28.19
322.099	32.89
322.564	35.29
323.03	32.99
323.496	28.49
323.962	36.29
324.427	30.19
324.893	38.89
325.359	31.99
325.824	26.19
326.29	32.89
326.755	32.79
327.221	28.09
327.686	34.19
328.152	39.89
328.617	35.69
329.083	42.89
329.548	47.39
330.014	43.39
330.479	29.89
330.944	38.09
331.41	33.99
331.875	40.29
332.34	30.09
332.805	40.59
333.271	40.29
333.736	33.79
334.201	39.09
334.666	44.59
335.131	41.79
335.596	39.69
336.061	36.89
336.526	27.79
336.991	41.09
337.456	47.89
337.921	38.09
338.386	37.89
338.851	37.69
339.316	38.29
339.781	41.69
340.246	39.59
340.711	32.89
341.175	41.59
341.64	29.79
342.105	37.89
342.569	49.59
343.034	52.79
343.499	46.29
343.963	47.09
344.428	54.19
344.893	50.69
345.357	49.59
345.822	51.79
346.286	58.99
346.751	63.39
347.215	56.89
347.679	55.29
348.144	78.99
348.608	68.99
349.073	54.59
349.537	62.89
350.001	66.79
350.465	80.89
350.93	67.19
351.394	68.39
351.858	62.99
352.322	75.29
352.786	67.89
353.25	90.29
353.715	96.59
354.179	84.09
354.643	104.89
355.107	105.79
355.571	88.09
356.035	88.79
356.498	99.09
356.962	108.69
357.426	109.59
357.89	107.49
358.354	80.39
358.818	81.89
359.281	67.09
359.745	69.19
360.209	70.49
360.673	63.49
361.136	69.39
361.6	73.89
362.064	71.39
362.527	72.59
362.991	81.09
363.454	68.79
363.918	69.79
364.381	63.59
364.845	63.79
365.308	72.89
365.772	73.39
366.235	77.09
366.698	69.49
367.162	76.89
367.625	78.69
368.088	83.69
368.552	74.59
369.015	78.59
369.478	87.09
369.941	84.99
370.404	84.19
370.867	90.99
371.331	92.59
371.794	92.09
372.257	98.79
372.72	103.99
373.183	99.79
373.646	87.39
374.109	88.19
374.572	98.59
375.035	98.09
375.497	96.19
375.96	96.89
376.423	91.59
376.886	98.39
377.349	96.49
377.811	89.89
378.274	99.99
378.737	96.19
379.199	108.89
379.662	100.99
380.125	110.89
380.587	100.69
381.05	110.99
381.512	118.49
381.975	125.99
382.437	113.69
382.9	114.59
383.362	117.79
383.825	126.29
384.287	130.89
384.75	125.49
385.212	120.89
385.674	124.39
386.136	118.39
386.599	111.09
387.061	115.09
387.523	119.09
387.985	130.79
388.447	128.89
388.91	132.69
389.372	151.09
389.834	139.59
390.296	135.69
390.758	139.09
391.22	151.79
391.682	197.59
392.144	273.89
392.606	210.29
393.068	154.59
393.529	156.09
393.991	138.79
394.453	140.99
394.915	148.19
395.377	180.89
395.838	195.19
396.3	146.49
396.762	137.69
397.224	120.79
397.685	122.99
398.147	121.59
398.608	114.49
399.07	116.99
399.531	122.79
399.993	132.79
400.454	134.89
400.916	133.39
401.377	137.09
401.839	138.39
402.3	140.39
402.762	155.59
403.223	162.39
403.684	162.79
404.145	149.99
404.607	151.79
405.068	153.69
405.529	160.89
405.99	173.19
406.451	163.99
406.913	154.39
407.374	150.09
407.835	151.59
408.296	155.09
408.757	162.39
409.218	166.49
409.679	161.79
410.14	165.79
410.601	165.69
411.062	171.09
411.522	184.29
411.983	175.99
412.444	160.49
412.905	162.19
413.366	162.69
413.826	181.89
414.287	201.09
414.748	251.69
415.208	229.09
415.669	197.59
416.13	192.79
416.59	185.09
417.051	196.89
417.511	196.89
417.972	221.99
418.432	231.49
418.893	270.59
419.353	237.89
419.814	189.89
420.274	172.99
420.734	166.79
421.195	183.99
421.655	181.79
422.115	178.59
422.576	177.89
423.036	184.49
423.496	198.59
423.956	205.99
424.416	216.79
424.876	249.59
425.336	248.69
425.797	236.29
426.257	239.69
426.717	229.89
427.177	218.39
427.637	207.69
428.097	226.99
428.556	238.59
429.016	260.59
429.476	255.29
429.936	259.19
430.396	263.39
430.856	279.99
431.315	302.09
431.775	339.19
432.235	351.79
432.694	322.69
433.154	347.09
433.614	370.29
434.073	315.39
434.533	275.59
434.993	255.59
435.452	272.39
435.912	273.79
436.371	271.99
436.83	269.79
437.29	262.19
437.749	240.99
438.209	227.99
438.668	257.59
439.127	267.59
439.587	243.49
440.046	223.79
440.505	246.29
440.964	261.39
441.424	308.89
441.883	294.79
442.342	244.89
442.801	219.89
443.26	211.59
443.719	207.59
444.178	207.69
444.637	196.59
445.096	205.29
445.555	211.99
446.014	215.69
446.473	215.49
446.932	225.49
447.391	209.99
447.849	212.89
448.308	210.49
448.767	210.39
449.226	228.19
449.685	230.69
450.143	243.89
450.602	225.79
451.061	213.59
451.519	226.19
451.978	225.79
452.436	224.89
452.895	230.39
453.353	236.89
453.812	224.49
454.27	225.09
454.729	231.39
455.187	229.59
455.646	237.89
456.104	235.99
456.562	244.59
457.021	255.29
457.479	248.79
457.937	254.39
458.395	250.59
458.854	241.99
459.312	252.19
459.77	264.89
460.228	242.79
460.686	229.89
461.144	239.99
461.602	237.39
462.06	231.09
462.518	239.19
462.976	246.09
463.434	250.39
463.892	252.89
464.35	256.39
464.808	279.29
465.266	258.19
465.724	256.19
466.181	257.19
466.639	260.79
467.097	278.09
467.555	276.69
468.012	284.49
468.47	294.59
468.928	312.09
469.385	331.79
469.843	328.39
470.3	335.49
470.758	343.69
471.215	372.39
471.673	386.59
472.13	395.39
472.588	400.49
473.045	350.49
473.503	366.89
473.96	375.59
474.417	393.99
474.875	407.09
475.332	459.19
475.789	440.59
476.246	449.69
476.704	472.39
477.161	488.59
477.618	502.09
478.075	540.89
478.532	589.49
478.989	655.19
479.446	769.79
479.903	738.79
480.36	772.89
480.817	830.39
481.274	930.49
481.731	1025.39
482.188	1114.09
482.645	1249.19
483.102	1348.59
483.558	1485.69
484.015	1526.89
484.472	1506.99
484.929	1468.39
485.385	1401.39
485.842	1363.09
486.299	1302.19
486.755	1245.89
487.212	1051.49
487.668	888.39
488.125	823.89
488.582	745.09
489.038	717.19
489.494	677.29
489.951	655.99
490.407	644.89
490.864	627.19
491.32	625.29
491.776	613.99
492.233	621.99
492.689	585.09
493.145	584.79
493.602	579.29
494.058	584.29
494.514	592.59
494.97	616.89
495.426	621.59
495.882	600.19
496.338	588.09
496.794	595.49
497.251	585.89
497.707	610.89
498.163	615.59
498.618	627.29
499.074	619.79
499.53	645.89
499.986	651.89
500.442	624.29
500.898	607.39
501.354	603.19
501.809	610.59
502.265	616.29
502.721	644.29
503.177	652.39
503.632	647.19
504.088	651.19
504.543	690.29
504.999	689.89
505.455	632.79
505.91	602.39
506.366	609.99
506.821	609.59
507.277	611.09
507.732	604.49
508.187	604.29
508.643	610.99
509.098	613.09
509.553	632.59
510.009	639.69
510.464	654.99
510.919	672.59
511.375	674.99
511.83	684.19
512.285	688.29
512.74	739.79
513.195	757.89
513.65	754.69
514.105	744.89
514.56	745.79
515.015	770.79
515.47	782.59
515.925	767.09
516.38	762.99
516.835	769.09
517.29	758.39
517.745	739.19
518.2	744.39
518.655	719.49
519.109	711.39
519.564	720.09
520.019	713.79
520.474	701.89
520.928	698.69
521.383	704.49
521.838	694.99
522.292	695.59
522.747	692.49
523.201	679.89
523.656	684.39
524.11	672.59
524.565	664.29
525.019	661.89
525.474	676.59
525.928	679.09
526.382	677.89
526.837	674.59
527.291	680.99
527.745	685.19
528.2	675.99
528.654	673.19
529.108	673.89
529.562	679.49
530.016	667.89
530.47	672.99
530.925	667.19
531.379	685.89
531.833	679.29
532.287	677.69
532.741	676.69
533.195	679.39
533.649	689.19
534.103	698.49
534.556	684.89
535.01	688.39
535.464	682.99
535.918	693.39
536.372	692.69
536.826	702.29
537.279	687.49
537.733	687.49
538.187	696.69
538.64	695.19
539.094	688.09
539.548	707.59
540.001	704.69
540.455	710.89
540.908	712.09
541.362	727.49
541.815	727.79
542.269	732.89
542.722	740.09
543.175	749.89
543.629	754.69
544.082	768.19
544.536	767.99
544.989	763.79
545.442	767.39
545.895	770.49
546.349	764.89
546.802	768.19
547.255	766.59
547.708	790.69
548.161	793.79
548.614	798.59
549.067	805.49
549.52	798.89
549.973	779.19
550.426	791.89
550.879	781.19
551.332	770.59
551.785	785.99
552.238	788.69
552.691	801.49
553.144	813.89
553.596	827.39
554.049	842.99
554.502	869.19
554.955	890.29
555.407	888.49
555.86	875.69
556.313	872.19
556.765	856.79
557.218	857.29
557.67	859.99
558.123	847.79
558.576	839.69
559.028	855.39
559.48	857.89
559.933	855.39
560.385	828.09
560.838	792.59
561.29	768.99
561.742	777.89
562.195	747.59
562.647	747.09
563.099	760.59
563.551	742.19
564.004	761.69
564.456	751.49
564.908	750.59
565.36	734.29
565.812	717.49
566.264	715.89
566.716	708.79
567.168	698.49
567.62	710.49
568.072	691.89
568.524	676.59
568.976	680.19
569.428	667.89
569.88	665.99
570.332	669.59
570.784	669.39
571.235	670.49
571.687	675.89
572.139	681.29
572.59	698.59
573.042	695.39
573.494	695.89
573.945	690.39
574.397	672.59
574.849	677.89
575.3	683.09
575.752	670.99
576.203	673.79
576.655	665.79
577.106	656.19
577.557	651.99
578.009	646.39
578.46	650.59
578.912	650.69
579.363	652.39
579.814	655.09
580.265	655.69
580.717	651.39
581.168	654.59
581.619	654.69
582.07	663.09
582.521	658.09
582.972	658.49
583.423	658.89
583.875	679.49
584.326	686.39
584.777	728.29
585.227	800.29
585.678	898.49
586.129	985.59
586.58	1040.09
587.031	1123.89
587.482	1266.89
587.933	1424.59
588.384	1250.79
588.834	951.19
589.285	789.99
589.736	761.89
590.186	755.99
590.637	754.59
591.088	726.49
591.538	713.79
591.989	714.39
592.439	725.39
592.89	704.09
593.34	698.29
593.791	691.49
594.241	677.39
594.692	701.99
595.142	690.49
595.593	684.89
596.043	698.59
596.493	702.29
596.943	704.49
597.394	710.49
597.844	702.09
598.294	723.89
598.744	743.89
599.195	761.39
599.645	798.19
600.095	853.19
600.545	902.49
600.995	963.59
601.445	1004.59
601.895	1062.39
602.345	1112.49
602.795	1088.49
603.245	1042.59
603.695	989.69
604.145	936.59
604.594	890.29
605.044	840.59
605.494	781.59
605.944	734.59
606.393	731.29
606.843	713.99
607.293	713.99
607.743	719.59
608.192	728.49
608.642	744.89
609.091	750.79
609.541	758.39
609.99	764.19
610.44	756.19
610.889	703.59
611.339	690.29
611.788	679.89
612.238	677.79
612.687	712.79
613.136	707.79
613.586	727.89
614.035	725.89
614.484	741.79
614.933	742.99
615.383	734.09
615.832	727.59
616.281	711.89
616.73	675.59
617.179	665.79
617.628	641.09
618.077	622.29
618.526	618.69
618.975	613.59
619.424	605.29
619.873	601.59
620.322	605.49
620.771	600.09
621.22	595.59
621.669	580.29
622.118	584.89
622.567	572.49
623.015	561.59
623.464	566.29
623.913	556.09
624.361	549.59
624.81	536.39
625.259	541.89
625.707	541.49
626.156	547.19
626.604	554.09
627.053	544.49
627.501	554.09
627.95	554.89
628.398	572.29
628.847	559.89
629.295	555.79
629.744	558.29
630.192	557.19
630.64	561.69
631.089	546.89
631.537	566.99
631.985	576.19
632.433	588.39
632.881	593.79
633.33	650.29
633.778	629.39
634.226	555.99
634.674	561.99
635.122	574.79
635.57	589.89
636.018	623.39
636.466	573.79
636.914	547.39
637.362	575.59
637.81	564.39
638.258	564.79
638.705	561.99
639.153	586.89
639.601	611.69
640.049	635.19
640.497	654.49
640.944	678.89
641.392	624.89
641.84	605.49
642.287	574.19
642.735	560.49
643.182	559.99
643.63	562.59
644.078	571.79
644.525	579.39
644.973	591.39
645.42	582.79
645.867	619.89
646.315	629.89
646.762	660.69
647.21	691.19
647.657	700.59
648.104	734.89
648.551	756.49
648.999	829.19
649.446	899.79
649.893	1003.89
650.34	1142.39
650.787	1378.19
651.234	1707.19
651.682	2243.59
652.129	3060.79
652.576	4415.19
653.023	6522.39
653.47	8912.59
653.917	11086.19
654.363	12762.89
654.81	14065.79
655.257	13373.89
655.704	8745.19
656.151	5156.09
656.598	3346.29
657.044	2368.09
657.491	1835.29
657.938	1471.89
658.385	1218.79
658.831	1055.99
659.278	950.29
659.724	840.39
660.171	769.79
660.618	709.69
661.064	688.89
661.511	655.29
661.957	644.89
662.404	633.79
662.85	639.79
663.296	615.69
663.743	549.19
664.189	524.49
664.635	529.29
665.082	518.69
665.528	521.99
665.974	509.19
666.42	494.39
666.867	500.59
667.313	480.49
667.759	480.49
668.205	472.29
668.651	474.79
669.097	467.19
669.543	488.19
669.989	464.39
670.435	438.99
670.881	433.79
671.327	439.09
671.773	455.39
672.219	485.79
672.665	530.79
673.11	588.89
673.556	617.49
674.002	649.89
674.448	635.49
674.893	541.49
675.339	470.79
675.785	429.79
676.23	413.09
676.676	382.39
677.122	378.69
677.567	371.29
678.013	358.09
678.458	356.99
678.904	357.29
679.349	344.59
679.794	351.89
680.24	349.69
680.685	339.69
681.131	344.49
681.576	336.39
682.021	343.79
682.466	331.89
682.912	341.69
683.357	348.79
683.802	380.79
684.247	403.19
684.692	447.59
685.137	481.69
685.583	526.09
686.028	552.79
686.473	508.79
686.918	434.79
687.363	414.19
687.807	389.69
688.252	369.89
688.697	357.59
689.142	330.49
689.587	319.79
690.032	325.09
690.477	336.49
690.921	346.89
691.366	376.69
691.811	394.29
692.255	420.09
692.7	454.19
693.145	495.69
693.589	697.49
694.034	1130.69
694.478	1518.99
694.923	1710.39
695.367	2227.49
695.812	1173.09
696.256	488.89
696.701	360.29
697.145	340.09
697.59	324.69
698.034	310.99
698.478	323.79
698.922	317.79
699.367	315.19
699.811	334.39
700.255	349.59
700.699	383.19
701.143	418.69
701.588	474.49
702.032	508.39
702.476	499.19
702.92	484.59
703.364	480.59
703.808	630.69
704.252	1022.29
704.696	1444.59
705.14	1637.49
705.584	2087.99
706.027	1051.59
706.471	521.59
706.915	390.69
707.359	342.89
707.803	302.99
708.246	314.09
708.69	312.19
709.134	308.99
709.577	308.29
710.021	311.89
710.465	300.39
710.908	298.89
711.352	296.49
711.795	306.79
712.239	344.19
712.682	386.49
713.126	408.69
713.569	451.19
714.012	364.59
714.456	317.49
714.899	293.09
715.342	268.09
715.786	259.39
716.229	257.79
716.672	254.89
717.115	246.59
717.558	244.19
718.002	248.99
718.445	250.99
718.888	277.39
719.331	289.59
719.774	300.29
720.217	299.49
720.66	281.09
721.103	261.29
721.546	252.69
721.989	250.39
722.432	229.99
722.874	238.59
723.317	223.19
723.76	235.89
724.203	247.89
724.645	324.69
725.088	450.19
725.531	564.59
725.974	624.19
726.416	539.29
726.859	307.99
727.301	243.79
727.744	234.89
728.187	230.29
728.629	229.89
729.071	236.99
729.514	252.29
729.956	270.49
730.399	275.49
730.841	281.59
731.283	267.69
731.726	257.89
732.168	265.29
732.61	259.49
733.053	281.89
733.495	310.49
733.937	343.49
734.379	388.99
734.821	437.69
735.263	538.69
735.705	828.09
736.148	1579.09
736.59	2546.09
737.032	2986.49
737.474	2427.79
737.916	795.29
738.357	427.99
738.799	325.09
739.241	298.99
739.683	283.69
740.125	286.89
740.567	297.59
741.008	304.59
741.45	305.29
741.892	305.39
742.334	339.19
742.775	338.99
743.217	338.49
743.658	259.09
744.1	251.69
744.542	251.09
744.983	310.19
745.425	333.49
745.866	341.89
746.307	280.59
746.749	282.49
747.19	323.19
747.632	451.59
748.073	896.79
748.514	1867.39
748.956	2823.59
749.397	3506.89
749.838	2913.49
750.279	2894.09
750.72	1463.59
751.162	536.19
751.603	312.09
752.044	247.49
752.485	213.09
752.926	209.39
753.367	195.99
753.808	186.99
754.249	184.49
754.69	182.79
755.131	183.09
755.572	174.49
756.013	173.59
756.453	182.09
756.894	185.09
757.335	185.19
757.776	193.59
758.216	196.99
758.657	201.29
759.098	200.79
759.538	224.59
759.979	265.99
760.42	373.49
760.86	708.19
761.301	1854.99
761.741	4426.39
762.182	6290.09
762.622	4415.29
763.063	1293.89
763.503	526.59
763.943	346.39
764.384	333.79
764.824	397.59
765.264	426.49
765.705	300.19
766.145	206.49
766.585	188.29
767.025	172.79
767.465	190.79
767.906	233.39
768.346	314.39
768.786	329.89
769.226	260.09
769.666	313.69
770.106	622.09
770.546	1559.19
770.986	2598.19
771.426	2302.79
771.866	775.29
772.306	326.09
772.745	204.99
773.185	167.69
773.625	166.79
774.065	163.79
774.505	190.79
774.944	305.69
775.384	668.09
775.824	1175.09
776.263	1145.29
776.703	486.39
777.142	216.59
777.582	155.09
778.021	131.59
778.461	134.79
778.9	141.19
779.34	126.99
779.779	118.09
780.219	112.29
780.658	116.49
781.097	108.89
781.537	107.19
781.976	107.89
782.415	99.99
782.855	98.79
783.294	97.49
783.733	107.59
784.172	110.89
784.611	99.19
785.05	116.09
785.489	110.99
785.928	118.99
786.367	114.99
786.806	116.39
787.245	129.89
787.684	129.09
788.123	143.39
788.562	136.19
789.001	124.09
789.44	120.69
789.879	113.79
790.317	115.49
790.756	124.49
791.195	119.89
791.634	143.59
792.072	204.69
792.511	360.19
792.95	1029.59
793.388	2110.59
793.827	1891.39
794.265	660.09
794.704	280.89
795.142	181.39
795.581	149.29
796.019	134.79
796.458	132.29
796.896	121.69
797.334	119.79
797.773	157.19
798.211	218.29
798.649	445.99
799.087	1006.29
799.526	1588.89
799.964	1998.39
800.402	1961.89
800.84	742.59
801.278	303.99
801.716	189.59
802.154	147.29
802.592	145.89
803.03	133.69
803.468	135.39
803.906	142.99
804.344	147.39
804.782	142.19
805.22	133.99
805.658	132.09
806.096	142.89
806.533	156.19
806.971	168.09
807.409	210.89
807.847	303.99
808.284	669.59
808.722	1873.39
809.16	3225.39
809.597	3127.29
810.035	5352.69
810.472	5610.29
810.91	2046.69
811.347	785.99
811.785	400.99
812.222	255.59
812.66	188.79
813.097	162.59
813.535	139.99
813.972	131.19
814.409	117.89
814.846	105.49
815.284	112.19
815.721	102.59
816.158	95.09
816.595	125.49
817.032	171.29
817.47	196.79
817.907	158.39
818.344	154.89
818.781	115.09
819.218	99.19
819.655	125.09
820.092	179.89
820.529	205.09
820.966	168.89
821.403	128.39
821.839	106.59
822.276	100.79
822.713	120.19
823.15	125.49
823.587	109.09
824.023	149.69
824.46	299.79
824.897	886.39
825.333	1320.39
825.77	563.29
826.206	224.99
826.643	130.19
827.08	99.49
827.516	87.39
827.953	75.79
828.389	79.69
828.825	62.49
829.262	67.59
829.698	63.69
830.135	62.39
830.571	51.49
831.007	66.39
831.443	58.49
831.88	57.59
832.316	53.89
832.752	60.49
833.188	62.89
833.624	60.69
834.06	72.19
834.497	64.89
834.933	74.69
835.369	79.09
835.805	67.79
836.241	75.49
836.677	78.29
837.112	86.99
837.548	97.49
837.984	124.89
838.42	198.19
838.856	497.59
839.292	1502.49
839.727	2239.99
840.163	1054.99
840.599	929.39
841.034	2005.19
841.47	2069.09
841.906	760.49
842.341	330.89
842.777	225.79
843.212	311.99
843.648	294.69
844.083	150.39
844.519	96.29
844.954	77.39
845.39	53.99
845.825	53.09
846.261	46.99
846.696	57.89
847.131	51.09
847.566	57.69
848.002	51.39
848.437	53.99
848.872	68.09
849.307	57.99
849.742	86.19
850.177	178.39
850.613	555.69
851.048	859.99
851.483	376.29
851.918	151.19
852.353	86.89
852.788	64.89
853.223	55.39
853.657	53.59
854.092	41.89
854.527	39.49
854.962	41.49
855.397	41.69
855.832	48.49
856.266	36.59
856.701	35.99
857.136	34.19
857.57	40.99
858.005	46.89
858.44	58.39
858.874	46.09
859.309	47.39
859.743	35.99
860.178	43.79
860.612	43.09
861.047	51.09
861.481	64.19
861.915	65.39
862.35	45.99
862.784	35.39
863.218	31.99
863.653	31.49
864.087	42.09
864.521	51.99
864.955	76.09
865.39	157.39
865.824	167.59
866.258	106.69
866.692	156.39
867.126	169.89
867.56	101.09
867.994	56.39
868.428	39.09
868.862	41.19
869.296	52.09
869.73	54.79
870.164	52.79
870.598	41.89
871.031	33.89
871.465	36.89
871.899	34.29
872.333	25.99
872.766	25.89
873.2	16.89
873.634	23.39
874.067	24.89
874.501	22.89
874.935	33.49
875.368	34.19
875.802	26.29
876.235	24.79
876.669	22.99
877.102	26.39
877.535	28.69
877.969	22.79
878.402	20.89
878.836	13.29
879.269	19.59
879.702	22.99
880.135	19.89
880.569	19.89
881.002	28.59
881.435	19.19
881.868	18.79
882.301	19.69
882.734	15.69
883.167	21.99
883.601	18.79
884.034	21.49
884.467	4.59
884.899	16.79
885.332	17.89
885.765	15.99
886.198	12.29
886.631	14.19
887.064	17.89
887.497	25.09
887.929	27.09
888.362	17.59
888.795	15.69
889.228	19.99
889.66	20.69
890.093	16.69
890.526	18.49
890.958	14.09
891.391	16.39
891.823	16.29
892.256	9.59
892.688	12.09
893.121	13.39
893.553	20.39
893.985	17.49
894.418	16.29
894.85	10.49
895.282	14.89
895.715	17.89
896.147	15.29
896.579	15.79
897.011	14.29
897.444	18.19
897.876	9.99
898.308	23.09
898.74	15.49
899.172	10.39
899.604	17.79
900.036	13.39
900.468	18.09
900.9	6.79
901.332	17.19
901.764	12.79
902.196	15.99
902.628	16.09
903.06	22.49
903.491	25.29
903.923	19.39
904.355	19.99
904.787	23.79
905.218	25.19
905.65	24.49
906.082	15.39
906.513	10.29
906.945	21.69
907.376	15.79
907.808	16.99
908.239	21.69
908.671	20.99
909.102	22.89
909.534	22.09
909.965	47.59
910.397	94.49
910.828	313.89
911.259	468.79
911.691	212.09
912.122	101.29
912.553	52.19
912.984	32.29
913.415	24.79
913.847	26.39
914.278	11.69
914.709	8.39
915.14	16.09
915.571	17.89
916.002	14.79
916.433	16.39
916.864	17.19
917.295	12.49
917.726	21.09
918.157	17.59
918.587	28.89
919.018	19.29
919.449	19.59
919.88	21.09
920.311	28.09
920.741	50.39
921.172	166.89
921.603	152.59
922.033	63.49
922.464	43.69
922.895	19.19
923.325	20.19
923.756	10.69
924.186	11.59
924.617	20.39
925.047	37.79
925.478	53.59
925.908	40.89
926.338	25.19
926.769	20.29
927.199	19.79
927.629	5.29
928.06	13.79
928.49	17.59
928.92	13.59
929.35	9.39
929.78	8.79
930.21	7.79
930.641	6.99
931.071	9.79
931.501	-0.51
931.931	6.99
932.361	4.39
932.791	3.39
933.221	8.69
933.651	2.89
934.08	18.39
934.51	30.59
934.94	12.49
935.37	5.49
935.8	12.19
936.229	9.69
936.659	10.39
937.089	5.09
937.519	12.39
937.948	27.59
938.378	12.19
938.807	2.19
939.237	6.69
939.666	6.69
940.096	-6.31
940.525	-2.31
940.955	2.09
941.384	-0.71
941.814	-5.01
942.243	3.09
942.672	4.09
943.102	-3.01
943.531	3.99
943.96	2.09
944.39	-0.91
944.819	-1.11
945.248	0.79
945.677	-2.51
946.106	4.79
946.535	6.49
946.964	-5.01
947.393	5.49
947.822	6.59
948.251	-3.01
948.68	5.29
949.109	8.19
949.538	7.49
949.967	1.59
950.396	-0.01
950.825	0.19
951.254	-1.81
951.682	-7.81
952.111	2.79
952.54	3.89
952.969	-3.91
953.397	-5.71
953.826	-7.81
954.254	-7.11
954.683	1.79
955.112	-4.81
955.54	-3.01
955.969	-3.71
956.397	1.89
956.826	-4.31
957.254	-0.61
957.682	-2.01
958.111	5.59
958.539	-2.41
958.967	2.29
959.396	-4.91
959.824	2.29
960.252	3.69
960.68	-4.91
961.109	-6.31
961.537	-9.31
961.965	-0.81
962.393	-1.71
962.821	-4.91
963.249	-4.21
963.677	0.99
964.105	8.59
964.533	37.79
964.961	38.49
965.389	16.29
965.817	9.69
966.245	1.09
966.672	-3.61
967.1	-3.21
967.528	-0.11
967.956	-3.71
968.383	-0.61
968.811	-0.01
969.239	-1.81
969.666	-6.81
970.094	0.89
970.522	3.09
970.949	-2.01
971.377	-6.21
971.804	-3.51
972.232	-10.01
972.659	-5.01
973.087	-5.21
973.514	-6.71
973.941	-4.01
974.369	4.09
974.796	-1.51
975.223	1.79
975.651	-3.21
976.078	0.99
976.505	0.59
976.932	-2.91
977.359	16.69
977.786	6.89
978.214	-5.11
978.641	2.19
979.068	-1.21
979.495	-6.51
979.922	1.89
980.349	-1.51
980.776	0.49
981.202	3.39
981.629	1.59
982.056	2.99
982.483	-0.31
982.91	0.59
983.337	-3.01
983.763	2.49
984.19	-6.41
984.617	-7.71
985.043	-6.41
985.47	-4.11
985.897	-2.61
986.323	-10.41
986.75	-3.41
987.176	-1.11
987.603	-5.91
988.029	0.39
988.456	-2.31
988.882	1.09
989.308	-11.21
989.735	-7.61
990.161	-3.51
990.587	-3.11
991.014	5.99
991.44	4.49
991.866	-1.41
992.292	-6.31
992.719	-0.31
993.145	5.09
993.571	-13.41
993.997	-7.31
994.423	-5.81
994.849	-5.91
995.275	-2.11
995.701	1.29
996.127	-4.51
996.553	-4.21
996.979	-2.11
997.405	2.69
997.83	-6.61
998.256	-0.81
998.682	-2.81
999.108	-10.51
999.534	-0.31
999.959	-0.71
1000.385	-1.71
1000.811	-6.01
1001.236	-11.21
1001.662	-9.71
1002.087	-14.31
1002.513	-3.21
1002.938	0.99
1003.364	-7.21
1003.789	-6.01
1004.215	1.79
1004.64	-7.61
1005.066	2.99
1005.491	3.29
1005.916	-3.81
1006.342	-1.91
1006.767	-5.01
1007.192	5.49
1007.617	-8.81
1008.042	-3.41
1008.468	-9.81
1008.893	-2.01
1009.318	-6.61
1009.743	-0.01
1010.168	4.29
1010.593	1.49
1011.018	-8.31
1011.443	1.79
1011.868	6.79
1012.293	-6.21
1012.718	-8.51
1013.143	0.69
1013.567	5.69
1013.992	-6.51
1014.417	-13.81
1014.842	0.29
1015.267	-6.11
1015.691	2.49
1016.116	-0.71
1016.541	0.59
1016.965	2.99
1017.39	-0.71
1017.814	-1.71
1018.239	5.19
1018.663	-4.61
1019.088	-8.31
1019.512	-7.61
1019.937	-4.11
1020.361	-3.91
1020.785	-7.51
1021.21	-1.01
1021.634	-2.91
1022.058	-3.61
1022.483	1.09
1022.907	-6.31
1023.331	-3.81
1023.755	-4.21
1024.179	-0.01
1024.604	-6.11
1025.028	-12.11
1025.452	-1.41
1025.876	-2.01
1026.3	0.59
1026.724	-10.31
1027.148	-2.51
1027.572	-8.81
1027.996	-1.31
1028.42	-8.61
1028.843	-6.41
1029.267	-4.41
1029.691	-7.41
1030.115	-10.91
1030.539	-13.81
1030.962	-7.91
1031.386	-11.61
1031.81	-5.21
1032.233	-7.21
1032.657	-3.71
1033.08	-6.41
1033.504	-7.31
1033.927	-5.21
1034.351	1.19
1034.774	-6.81
1035.198	-5.51
1035.621	-7.81
1036.045	-7.21
1036.468	-1.21
1036.891	-13.91
1037.315	-6.71
1037.738	-8.01
1038.161	2.39
1038.584	-2.11
1039.008	-5.41
1039.431	1.99
1039.854	-2.31
1040.277	-14.51
1040.7	-7.41
1041.123	-1.31
1041.546	-6.81
1041.969	0.49
1042.392	-0.01
1042.815	-4.91
1043.238	-1.81
1043.661	0.89
1044.084	-8.91
1044.507	-2.91
1044.93	-3.91
1045.352	-10.01
1045.775	-9.11
1046.198	-5.51
1046.621	-8.21
1047.043	0.89
1047.466	3.99
1047.889	-5.41
1048.311	-6.51
1048.734	-6.11
1049.156	-7.31
1049.579	-0.11
1050.001	-4.21
1050.424	0.79
1050.846	-1.31
1051.269	-8.51
1051.691	-11.31
1052.113	-5.61
1052.536	-4.41
1052.958	0.09
1053.38	-8.71
1053.802	-10.41
1054.225	-5.81
1054.647	-8.91
1055.069	-8.71
1055.491	2.19
1055.913	-13.81
1056.335	-3.21
1056.757	-7.31
1057.179	-11.91
1057.601	-11.71
1058.023	-7.71
1058.445	-7.61
1058.867	-2.11
1059.289	-2.81
1059.711	-8.71
1060.133	-4.01
1060.555	-0.61
1060.976	-10.31
1061.398	-6.71
1061.82	-10.41
1062.241	-7.81
1062.663	-5.51
1063.085	-0.41
1063.506	-3.71
1063.928	-2.31
1064.35	-1.91
1064.771	-8.01
1065.193	-9.11
1065.614	-7.81
1066.035	-3.61
1066.457	-6.51
1066.878	2.69
1067.3	-10.51
1067.721	-1.61
1068.142	-4.31
1068.564	-4.91
1068.985	-9.41
1069.406	-4.51
1069.827	-5.21
1070.248	-6.21
1070.67	-3.81
1071.091	-6.71
1071.512	-3.21
1071.933	-3.31
1072.354	-11.11
1072.775	-10.51
1073.196	-11.61
1073.617	-5.71
1074.038	-8.01
1074.459	-3.51
1074.88	-4.51
1075.3	-1.41
1075.721	-11.11
1076.142	3.29
1076.563	-3.61
1076.983	-15.01
1077.404	-7.21
1077.825	-11.51
1078.246	-2.91
1078.666	-14.41
1079.087	-7.71
1079.507	-11.31
1079.928	-0.21
1080.348	-5.31
1080.769	-11.41
1081.189	-4.21
1081.61	-5.01
1082.03	-7.81
1082.451	-14.21
1082.871	-2.31
1083.291	-8.21
1083.711	-5.61
1084.132	-9.91
1084.552	-3.11
1084.972	-2.41
1085.392	-11.01
1085.813	-12.51
1086.233	-13.21
1086.653	-5.91
1087.073	-6.61
1087.493	-8.71
1087.913	-9.01
1088.333	-8.51
1088.753	-7.21
1089.173	5.39
1089.593	-4.91
1090.013	-5.81
1090.433	3.19
1090.852	-4.51
1091.272	-6.41
1091.692	-6.91
1092.112	-7.01
1092.531	-11.11
1092.951	-20.01
1093.371	-1.91
1093.79	-4.91
1094.21	-2.61
1094.63	-5.11
1095.049	-8.71
1095.469	-3.91
1095.888	-1.41
1096.308	-0.91
1096.727	6.39
1097.146	-10.31
1097.566	3.59
1097.985	-5.51
1098.405	-2.61
1098.824	-7.01
1099.243	-8.21
1099.662	-12.81
1100.082	-1.11
1100.501	0.69
1100.92	-8.11
1101.339	-8.71
1101.758	-5.81
