Data from 20171114-ORNL-Ar_H_NY_Subt18_08-08-24-938.txt Node
Date: Tue Nov 14 08:08:24 EST 2017
User: Ender
Spectrometer: HR+D1039
Trigger mode: 0
Integration Time (sec): 2.730000E-2
Scans to average: 10
Electric dark correction enabled: true
Nonlinearity correction enabled: false
Boxcar width: 0
XAxis mode: Wavelengths
Number of Pixels in Spectrum: 2048
>>>>>Begin Spectral Data<<<<<
187.836	-2.19
188.309	-2.19
188.782	-2.19
189.255	-0.09
189.728	-3.59
190.201	6.21
190.674	5.81
191.147	2.31
191.619	-10.39
192.092	0.31
192.565	3.71
193.038	0.81
193.511	0.81
193.984	1.81
194.456	-5.79
194.929	1.71
195.402	1.11
195.874	-2.49
196.347	-1.69
196.82	-6.99
197.292	6.41
197.765	-6.39
198.237	-7.39
198.71	2.51
199.182	-0.79
199.655	0.11
200.127	1.41
200.6	-1.99
201.072	-6.89
201.544	-6.59
202.017	-3.09
202.489	-0.39
202.961	-0.39
203.433	-8.09
203.906	-4.49
204.378	-4.99
204.85	-3.79
205.322	-6.19
205.794	-1.99
206.266	-6.29
206.739	-12.29
207.211	-5.49
207.683	-8.39
208.155	-5.99
208.627	-5.89
209.099	-5.19
209.57	-1.59
210.042	-9.29
210.514	-9.29
210.986	-5.79
211.458	-10.19
211.93	-2.79
212.402	-1.49
212.873	-4.69
213.345	-10.99
213.817	-12.59
214.288	-2.69
214.76	-15.09
215.232	-8.29
215.703	-5.39
216.175	2.21
216.646	-5.89
217.118	-12.09
217.589	-3.49
218.061	-1.79
218.532	-10.29
219.004	-2.69
219.475	-7.79
219.946	-4.09
220.418	-1.29
220.889	5.41
221.36	5.51
221.832	-2.99
222.303	-5.89
222.774	1.01
223.245	-5.79
223.717	-5.99
224.188	-9.89
224.659	-6.49
225.13	-5.09
225.601	-4.19
226.072	-0.39
226.543	-3.89
227.014	1.51
227.485	0.01
227.956	-5.09
228.427	-2.79
228.898	6.21
229.369	2.11
229.839	-3.09
230.31	-6.59
230.781	0.61
231.252	-1.29
231.722	-2.59
232.193	-6.89
232.664	-1.69
233.135	-3.49
233.605	-7.09
234.076	-9.89
234.546	0.11
235.017	1.01
235.487	-5.99
235.958	3.11
236.428	-1.69
236.899	-3.39
237.369	-0.29
237.84	-11.29
238.31	0.11
238.78	-1.79
239.251	-3.59
239.721	-2.19
240.191	-0.09
240.662	-2.49
241.132	-1.89
241.602	-1.29
242.072	0.81
242.542	5.81
243.013	-2.19
243.483	3.21
243.953	0.11
244.423	0.01
244.893	-1.09
245.363	0.91
245.833	2.41
246.303	-3.69
246.773	7.61
247.243	3.01
247.712	-0.19
248.182	5.71
248.652	1.71
249.122	-9.19
249.592	-2.39
250.061	1.71
250.531	11.81
251.001	-1.69
251.471	2.81
251.94	6.21
252.41	-1.69
252.879	-8.39
253.349	8.91
253.818	6.11
254.288	5.71
254.757	5.01
255.227	-7.09
255.696	-0.99
256.166	1.51
256.635	2.41
257.105	3.61
257.574	2.01
258.043	2.21
258.513	-1.59
258.982	6.21
259.451	-3.39
259.92	1.01
260.389	11.01
260.859	11.31
261.328	2.91
261.797	4.61
262.266	-0.09
262.735	12.51
263.204	6.21
263.673	-0.49
264.142	5.01
264.611	-1.89
265.08	-0.29
265.549	-2.89
266.018	7.01
266.487	-0.89
266.955	-3.19
267.424	-1.79
267.893	3.21
268.362	2.81
268.83	2.71
269.299	18.61
269.768	-0.29
270.236	5.91
270.705	1.91
271.174	8.31
271.642	9.91
272.111	3.41
272.579	1.31
273.048	4.81
273.516	4.61
273.985	9.71
274.453	5.91
274.922	14.31
275.39	6.21
275.858	4.51
276.327	10.51
276.795	14.01
277.263	7.91
277.731	22.71
278.2	18.61
278.668	20.11
279.136	14.81
279.604	8.11
280.072	14.01
280.54	8.81
281.008	7.81
281.477	14.31
281.945	10.41
282.413	16.71
282.881	16.61
283.348	4.71
283.816	15.51
284.284	11.71
284.752	16.61
285.22	12.11
285.688	14.61
286.156	9.01
286.623	21.61
287.091	16.91
287.559	14.91
288.026	16.21
288.494	12.81
288.962	7.81
289.429	6.81
289.897	13.91
290.364	11.71
290.832	15.01
291.3	14.51
291.767	15.51
292.234	15.91
292.702	8.91
293.169	17.41
293.637	15.61
294.104	17.01
294.571	9.01
295.039	6.61
295.506	16.51
295.973	12.71
296.44	12.81
296.908	11.01
297.375	9.61
297.842	14.51
298.309	15.81
298.776	14.81
299.243	20.01
299.71	11.21
300.177	22.91
300.644	19.91
301.111	18.91
301.578	24.21
302.045	15.31
302.512	20.41
302.979	24.11
303.446	21.01
303.913	18.91
304.379	12.51
304.846	27.31
305.313	24.31
305.78	24.81
306.246	22.91
306.713	22.51
307.18	24.81
307.646	27.01
308.113	24.71
308.579	21.61
309.046	27.71
309.512	25.11
309.979	19.81
310.445	28.01
310.912	27.21
311.378	28.31
311.845	29.41
312.311	30.71
312.777	29.51
313.244	31.71
313.71	35.21
314.176	32.51
314.642	23.71
315.109	30.41
315.575	30.11
316.041	37.21
316.507	26.51
316.973	31.41
317.439	37.71
317.905	35.11
318.371	33.91
318.837	34.91
319.303	32.21
319.769	27.21
320.235	35.51
320.701	34.11
321.167	35.61
321.633	29.91
322.099	32.41
322.564	40.11
323.03	36.91
323.496	40.61
323.962	39.71
324.427	37.61
324.893	40.51
325.359	40.81
325.824	39.71
326.29	34.21
326.755	44.31
327.221	34.61
327.686	42.21
328.152	50.51
328.617	42.11
329.083	46.61
329.548	50.81
330.014	48.61
330.479	43.91
330.944	43.31
331.41	41.01
331.875	40.71
332.34	40.01
332.805	40.61
333.271	51.11
333.736	43.61
334.201	53.01
334.666	48.91
335.131	50.91
335.596	51.81
336.061	50.71
336.526	45.21
336.991	44.91
337.456	49.01
337.921	48.11
338.386	46.81
338.851	46.91
339.316	45.71
339.781	47.91
340.246	52.51
340.711	51.21
341.175	52.91
341.64	47.11
342.105	53.51
342.569	54.61
343.034	60.31
343.499	53.91
343.963	56.11
344.428	71.01
344.893	56.61
345.357	63.01
345.822	62.51
346.286	75.41
346.751	70.11
347.215	65.81
347.679	78.41
348.144	99.81
348.608	92.61
349.073	72.01
349.537	73.71
350.001	83.81
350.465	91.31
350.93	82.31
351.394	86.41
351.858	78.81
352.322	88.61
352.786	91.01
353.25	99.51
353.715	111.11
354.179	105.11
354.643	136.21
355.107	134.81
355.571	109.11
356.035	108.01
356.498	122.71
356.962	122.51
357.426	132.31
357.89	123.91
358.354	87.21
358.818	81.21
359.281	80.31
359.745	73.21
360.209	75.01
360.673	74.01
361.136	80.21
361.6	82.81
362.064	86.41
362.527	86.61
362.991	92.81
363.454	82.81
363.918	72.51
364.381	78.61
364.845	84.01
365.308	90.01
365.772	92.61
366.235	86.01
366.698	84.91
367.162	94.31
367.625	89.01
368.088	91.01
368.552	95.21
369.015	90.71
369.478	92.51
369.941	103.01
370.404	97.71
370.867	102.31
371.331	109.71
371.794	113.01
372.257	109.11
372.72	113.91
373.183	106.81
373.646	95.91
374.109	98.11
374.572	110.51
375.035	100.21
375.497	112.21
375.96	111.21
376.423	104.31
376.886	120.61
377.349	112.01
377.811	103.71
378.274	112.91
378.737	109.01
379.199	109.01
379.662	115.01
380.125	109.91
380.587	119.41
381.05	114.51
381.512	119.41
381.975	128.11
382.437	124.81
382.9	113.31
383.362	129.81
383.825	137.51
384.287	127.21
384.75	128.01
385.212	142.41
385.674	141.91
386.136	144.11
386.599	130.11
387.061	122.61
387.523	123.51
387.985	137.31
388.447	138.01
388.91	132.01
389.372	137.11
389.834	140.11
390.296	141.71
390.758	139.21
391.22	145.61
391.682	171.71
392.144	193.81
392.606	170.11
393.068	152.41
393.529	156.11
393.991	153.41
394.453	135.71
394.915	139.81
395.377	148.01
395.838	156.21
396.3	137.01
396.762	142.41
397.224	142.71
397.685	133.41
398.147	136.51
398.608	132.91
399.07	136.21
399.531	147.51
399.993	153.61
400.454	165.81
400.916	155.81
401.377	148.91
401.839	159.11
402.3	156.91
402.762	174.31
403.223	188.71
403.684	178.61
404.145	165.01
404.607	172.91
405.068	172.81
405.529	179.61
405.99	191.31
406.451	183.41
406.913	177.31
407.374	171.21
407.835	173.51
408.296	166.11
408.757	179.61
409.218	196.71
409.679	187.41
410.14	185.91
410.601	186.41
411.062	189.91
411.522	185.11
411.983	188.31
412.444	190.41
412.905	195.01
413.366	200.51
413.826	204.21
414.287	231.61
414.748	276.61
415.208	260.21
415.669	228.31
416.13	221.01
416.59	213.91
417.051	227.21
417.511	227.51
417.972	254.81
418.432	264.11
418.893	317.71
419.353	268.61
419.814	216.51
420.274	192.61
420.734	198.01
421.195	213.51
421.655	207.01
422.115	208.71
422.576	211.31
423.036	212.11
423.496	215.31
423.956	231.81
424.416	245.91
424.876	281.81
425.336	274.71
425.797	282.91
426.257	271.71
426.717	262.21
427.177	247.41
427.637	233.31
428.097	248.91
428.556	255.81
429.016	281.01
429.476	272.81
429.936	287.61
430.396	291.81
430.856	300.41
431.315	336.21
431.775	360.31
432.235	395.91
432.694	366.31
433.154	372.81
433.614	409.21
434.073	356.91
434.533	300.71
434.993	283.41
435.452	289.31
435.912	315.41
436.371	303.21
436.83	296.51
437.29	274.31
437.749	265.31
438.209	261.11
438.668	290.31
439.127	307.31
439.587	280.11
440.046	264.41
440.505	276.21
440.964	296.11
441.424	348.21
441.883	339.31
442.342	275.81
442.801	248.61
443.26	243.51
443.719	233.61
444.178	234.61
444.637	221.91
445.096	237.71
445.555	234.71
446.014	248.01
446.473	236.21
446.932	254.01
447.391	246.61
447.849	247.71
448.308	236.31
448.767	245.41
449.226	259.11
449.685	262.71
450.143	270.31
450.602	255.11
451.061	246.41
451.519	252.01
451.978	254.11
452.436	254.81
452.895	259.51
453.353	269.41
453.812	260.71
454.27	260.91
454.729	260.41
455.187	268.71
455.646	264.81
456.104	267.11
456.562	276.41
457.021	278.71
457.479	269.41
457.937	294.21
458.395	284.41
458.854	274.71
459.312	272.41
459.77	305.91
460.228	272.21
460.686	257.61
461.144	276.91
461.602	265.11
462.06	252.41
462.518	274.31
462.976	273.41
463.434	276.91
463.892	281.91
464.35	292.01
464.808	306.81
465.266	289.21
465.724	286.51
466.181	297.31
466.639	289.01
467.097	308.61
467.555	319.71
468.012	325.11
468.47	339.41
468.928	352.81
469.385	364.81
469.843	374.91
470.3	379.01
470.758	389.51
471.215	410.51
471.673	437.81
472.13	431.61
472.588	449.61
473.045	402.81
473.503	407.91
473.96	426.41
474.417	440.91
474.875	459.31
475.332	501.91
475.789	489.11
476.246	497.61
476.704	517.21
477.161	538.71
477.618	563.41
478.075	596.81
478.532	645.71
478.989	730.21
479.446	846.91
479.903	807.51
480.36	821.51
480.817	870.01
481.274	973.11
481.731	1072.01
482.188	1166.21
482.645	1286.21
483.102	1369.31
483.558	1510.81
484.015	1542.91
484.472	1505.01
484.929	1471.41
485.385	1429.21
485.842	1392.71
486.299	1338.41
486.755	1297.71
487.212	1106.91
487.668	942.51
488.125	881.01
488.582	795.71
489.038	780.71
489.494	742.81
489.951	716.71
490.407	699.71
490.864	688.11
491.32	679.71
491.776	671.81
492.233	684.11
492.689	654.01
493.145	646.71
493.602	634.11
494.058	651.41
494.514	653.21
494.97	671.51
495.426	683.21
495.882	660.71
496.338	653.51
496.794	657.91
497.251	651.11
497.707	673.31
498.163	665.61
498.618	674.51
499.074	681.61
499.53	711.51
499.986	709.01
500.442	686.21
500.898	662.01
501.354	654.51
501.809	667.61
502.265	657.41
502.721	670.41
503.177	683.41
503.632	691.91
504.088	698.71
504.543	719.51
504.999	733.81
505.455	695.31
505.91	668.31
506.366	677.41
506.821	665.71
507.277	669.91
507.732	667.51
508.187	667.31
508.643	677.21
509.098	677.91
509.553	704.81
510.009	721.01
510.464	706.51
510.919	729.61
511.375	748.21
511.83	762.51
512.285	771.91
512.74	803.01
513.195	839.51
513.65	822.61
514.105	808.11
514.56	806.31
515.015	840.81
515.47	848.11
515.925	837.51
516.38	836.11
516.835	832.51
517.29	829.01
517.745	827.81
518.2	808.51
518.655	794.21
519.109	799.61
519.564	789.21
520.019	775.31
520.474	768.81
520.928	775.21
521.383	763.31
521.838	757.51
522.292	757.11
522.747	770.21
523.201	753.11
523.656	747.51
524.11	742.71
524.565	746.61
525.019	735.81
525.474	745.51
525.928	740.51
526.382	740.91
526.837	751.91
527.291	756.51
527.745	744.61
528.2	747.01
528.654	746.91
529.108	726.31
529.562	732.71
530.016	732.61
530.47	744.31
530.925	730.21
531.379	737.51
531.833	750.01
532.287	741.91
532.741	741.51
533.195	744.11
533.649	755.81
534.103	769.81
534.556	758.71
535.01	760.41
535.464	755.71
535.918	772.21
536.372	760.01
536.826	758.31
537.279	754.11
537.733	763.21
538.187	756.91
538.64	762.21
539.094	774.91
539.548	785.41
540.001	773.21
540.455	773.61
540.908	783.31
541.362	795.11
541.815	796.21
542.269	817.71
542.722	803.51
543.175	821.91
543.629	816.11
544.082	842.51
544.536	835.01
544.989	841.11
545.442	848.31
545.895	855.11
546.349	848.31
546.802	860.31
547.255	859.71
547.708	866.51
548.161	869.61
548.614	876.51
549.067	879.51
549.52	883.71
549.973	873.81
550.426	868.01
550.879	841.61
551.332	867.71
551.785	871.71
552.238	862.41
552.691	879.11
553.144	897.01
553.596	913.31
554.049	924.31
554.502	958.41
554.955	975.21
555.407	961.71
555.86	962.51
556.313	957.51
556.765	942.91
557.218	947.61
557.67	946.11
558.123	943.61
558.576	938.61
559.028	936.01
559.48	949.91
559.933	939.21
560.385	895.81
560.838	872.11
561.29	842.61
561.742	847.91
562.195	815.91
562.647	822.41
563.099	828.91
563.551	829.11
564.004	843.11
564.456	832.41
564.908	815.81
565.36	797.71
565.812	780.61
566.264	761.01
566.716	765.91
567.168	747.81
567.62	755.61
568.072	744.31
568.524	736.41
568.976	746.21
569.428	732.01
569.88	723.41
570.332	732.01
570.784	738.51
571.235	741.51
571.687	745.61
572.139	754.21
572.59	760.71
573.042	764.31
573.494	767.51
573.945	753.21
574.397	740.41
574.849	732.71
575.3	743.11
575.752	735.21
576.203	734.11
576.655	735.01
577.106	729.61
577.557	715.41
578.009	720.61
578.46	721.01
578.912	706.81
579.363	724.41
579.814	721.61
580.265	714.41
580.717	719.01
581.168	714.51
581.619	723.31
582.07	731.51
582.521	728.31
582.972	722.91
583.423	719.91
583.875	726.01
584.326	735.01
584.777	763.51
585.227	782.51
585.678	821.21
586.129	855.31
586.58	885.41
587.031	907.71
587.482	959.71
587.933	1009.71
588.384	965.71
588.834	882.51
589.285	834.71
589.736	833.21
590.186	834.01
590.637	828.41
591.088	801.41
591.538	788.11
591.989	787.61
592.439	790.91
592.89	774.41
593.34	747.11
593.791	756.31
594.241	748.71
594.692	751.51
595.142	746.91
595.593	743.91
596.043	750.61
596.493	758.11
596.943	759.31
597.394	774.81
597.844	775.01
598.294	788.11
598.744	813.71
599.195	832.41
599.645	883.81
600.095	917.81
600.545	983.51
600.995	1043.61
601.445	1095.31
601.895	1167.91
602.345	1207.71
602.795	1195.11
603.245	1137.01
603.695	1073.31
604.145	1029.81
604.594	985.11
605.044	922.11
605.494	865.31
605.944	815.71
606.393	793.01
606.843	785.71
607.293	786.81
607.743	779.61
608.192	788.11
608.642	809.41
609.091	813.81
609.541	819.21
609.99	820.41
610.44	812.21
610.889	758.51
611.339	744.31
611.788	726.31
612.238	745.01
612.687	745.21
613.136	745.01
613.586	759.61
614.035	760.91
614.484	770.11
614.933	769.81
615.383	759.71
615.832	757.11
616.281	755.41
616.73	724.21
617.179	704.11
617.628	680.41
618.077	685.31
618.526	665.21
618.975	653.71
619.424	661.61
619.873	648.41
620.322	658.51
620.771	659.01
621.22	646.01
621.669	640.61
622.118	629.61
622.567	626.61
623.015	621.11
623.464	609.31
623.913	590.71
624.361	592.91
624.81	602.21
625.259	589.71
625.707	593.81
626.156	599.61
626.604	603.11
627.053	604.11
627.501	603.51
627.95	614.31
628.398	623.31
628.847	606.31
629.295	605.61
629.744	614.51
630.192	610.21
630.64	595.51
631.089	595.81
631.537	580.41
631.985	572.51
632.433	581.71
632.881	571.01
633.33	586.41
633.778	580.81
634.226	570.51
634.674	579.31
635.122	593.71
635.57	600.41
636.018	617.91
636.466	610.61
636.914	597.81
637.362	610.11
637.81	620.31
638.258	613.11
638.705	624.41
639.153	653.61
639.601	659.11
640.049	691.81
640.497	725.91
640.944	732.11
641.392	690.71
641.84	658.31
642.287	620.61
642.735	599.01
643.182	611.61
643.63	609.51
644.078	605.51
644.525	614.61
644.973	622.01
645.42	644.21
645.867	662.41
646.315	676.11
646.762	694.71
647.21	728.21
647.657	752.01
648.104	790.01
648.551	815.81
648.999	876.71
649.446	959.51
649.893	1037.71
650.34	1198.11
650.787	1414.81
651.234	1738.41
651.682	2262.21
652.129	3055.41
652.576	4371.21
653.023	6353.41
653.47	8539.21
653.917	10528.91
654.363	12112.61
654.81	13278.71
655.257	12577.41
655.704	8332.41
656.151	5064.21
656.598	3314.11
657.044	2385.51
657.491	1850.41
657.938	1493.11
658.385	1258.61
658.831	1104.51
659.278	980.01
659.724	889.81
660.171	825.71
660.618	751.41
661.064	719.31
661.511	702.91
661.957	690.21
662.404	682.61
662.85	679.61
663.296	668.41
663.743	600.81
664.189	570.41
664.635	564.51
665.082	558.91
665.528	568.51
665.974	552.01
666.42	543.61
666.867	539.91
667.313	520.91
667.759	505.71
668.205	495.41
668.651	488.31
669.097	493.81
669.543	473.71
669.989	480.71
670.435	466.31
670.881	478.91
671.327	484.51
671.773	506.01
672.219	530.71
672.665	585.61
673.11	632.61
673.556	682.41
674.002	716.71
674.448	709.51
674.893	605.61
675.339	518.71
675.785	473.41
676.23	456.41
676.676	426.91
677.122	417.51
677.567	401.71
678.013	401.61
678.458	385.91
678.904	397.11
679.349	369.31
679.794	375.91
680.24	379.01
680.685	375.01
681.131	372.51
681.576	377.81
682.021	385.51
682.466	380.91
682.912	371.21
683.357	391.91
683.802	413.41
684.247	455.11
684.692	500.71
685.137	542.81
685.583	580.51
686.028	607.91
686.473	567.61
686.918	477.01
687.363	445.01
687.807	425.21
688.252	400.31
688.697	381.71
689.142	369.51
689.587	366.01
690.032	349.81
690.477	369.31
690.921	379.31
691.366	411.41
691.811	435.71
692.255	466.71
692.7	504.41
693.145	547.21
693.589	778.51
694.034	1258.21
694.478	1686.81
694.923	1868.21
695.367	2437.41
695.812	1283.81
696.256	545.21
696.701	410.11
697.145	370.71
697.59	359.51
698.034	346.11
698.478	350.41
698.922	351.11
699.367	353.91
699.811	363.51
700.255	384.21
700.699	417.11
701.143	457.61
701.588	517.41
702.032	552.31
702.476	553.01
702.92	525.51
703.364	547.71
703.808	709.71
704.252	1156.81
704.696	1596.01
705.14	1809.11
705.584	2281.91
706.027	1169.11
706.471	571.21
706.915	431.71
707.359	376.01
707.803	351.71
708.246	336.91
708.69	340.31
709.134	346.41
709.577	344.21
710.021	341.51
710.465	326.11
710.908	326.51
711.352	325.71
711.795	341.01
712.239	381.81
712.682	413.01
713.126	436.31
713.569	491.01
714.012	387.71
714.456	328.21
714.899	310.11
715.342	299.51
715.786	281.31
716.229	275.51
716.672	272.91
717.115	265.91
717.558	270.21
718.002	271.21
718.445	286.51
718.888	302.41
719.331	317.71
719.774	332.31
720.217	324.41
720.66	303.51
721.103	293.71
721.546	281.31
721.989	269.91
722.432	256.41
722.874	257.71
723.317	248.61
723.76	251.61
724.203	281.91
724.645	347.11
725.088	478.61
725.531	616.21
725.974	695.11
726.416	597.51
726.859	330.61
727.301	261.61
727.744	256.41
728.187	248.21
728.629	261.91
729.071	265.71
729.514	283.81
729.956	297.31
730.399	304.31
730.841	305.01
731.283	298.11
731.726	283.31
732.168	275.81
732.61	290.01
733.053	308.51
733.495	339.11
733.937	382.11
734.379	430.71
734.821	476.61
735.263	611.51
735.705	935.41
736.148	1766.11
736.59	2841.91
737.032	3281.41
737.474	2691.21
737.916	898.71
738.357	475.31
738.799	354.91
739.241	327.71
739.683	314.01
740.125	315.91
740.567	325.11
741.008	340.71
741.45	342.11
741.892	350.41
742.334	375.81
742.775	388.41
743.217	378.91
743.658	303.21
744.1	277.81
744.542	283.81
744.983	344.71
745.425	369.51
745.866	372.91
746.307	301.81
746.749	299.31
747.19	358.01
747.632	509.51
748.073	1002.71
748.514	2061.91
748.956	3096.11
749.397	3909.51
749.838	3240.11
750.279	3168.61
750.72	1623.41
751.162	597.41
751.603	352.61
752.044	283.91
752.485	233.61
752.926	228.81
753.367	218.01
753.808	208.21
754.249	207.31
754.69	198.21
755.131	200.81
755.572	198.21
756.013	196.81
756.453	202.81
756.894	198.71
757.335	212.31
757.776	212.61
758.216	209.01
758.657	217.01
759.098	222.91
759.538	246.51
759.979	296.61
760.42	417.61
760.86	796.41
761.301	2063.31
761.741	4899.11
762.182	6846.81
762.622	4858.11
763.063	1424.81
763.503	586.61
763.943	355.71
764.384	318.01
764.824	313.61
765.264	309.01
765.705	258.01
766.145	203.61
766.585	188.81
767.025	192.31
767.465	182.91
767.906	211.51
768.346	248.91
768.786	262.91
769.226	247.21
769.666	341.51
770.106	702.41
770.546	1730.31
770.986	2836.31
771.426	2525.51
771.866	861.21
772.306	353.41
772.745	214.21
773.185	178.51
773.625	173.01
774.065	165.31
774.505	180.91
774.944	232.61
775.384	432.71
775.824	698.31
776.263	669.61
776.703	321.51
777.142	179.21
777.582	146.01
778.021	134.61
778.461	145.91
778.9	137.81
779.34	136.71
779.779	117.41
780.219	115.21
780.658	115.91
781.097	121.61
781.537	123.91
781.976	115.61
782.415	116.61
782.855	112.41
783.294	113.51
783.733	107.91
784.172	107.61
784.611	114.81
785.05	119.11
785.489	118.11
785.928	127.01
786.367	128.11
786.806	120.71
787.245	142.61
787.684	140.01
788.123	159.01
788.562	153.41
789.001	136.11
789.44	128.31
789.879	129.51
790.317	129.71
790.756	134.41
791.195	144.01
791.634	165.01
792.072	214.51
792.511	415.51
792.95	1133.31
793.388	2294.91
793.827	2031.51
794.265	729.21
794.704	299.71
795.142	194.71
795.581	166.31
796.019	144.51
796.458	145.21
796.896	135.11
797.334	145.31
797.773	169.11
798.211	239.71
798.649	493.31
799.087	1129.81
799.526	1749.01
799.964	2207.31
800.402	2134.11
800.84	820.31
801.278	331.41
801.716	203.91
802.154	164.01
802.592	155.41
803.03	147.21
803.468	145.51
803.906	154.71
804.344	165.21
804.782	155.21
805.22	156.81
805.658	139.51
806.096	154.81
806.533	166.21
806.971	187.71
807.409	242.31
807.847	356.81
808.284	761.61
808.722	2089.71
809.16	3548.31
809.597	3470.81
810.035	5887.71
810.472	6090.91
810.91	2243.71
811.347	870.11
811.785	444.01
812.222	277.11
812.66	211.91
813.097	181.41
813.535	154.71
813.972	141.51
814.409	127.41
814.846	117.01
815.284	119.71
815.721	109.31
816.158	110.51
816.595	125.21
817.032	166.41
817.47	193.01
817.907	136.91
818.344	114.71
818.781	104.91
819.218	104.61
819.655	129.51
820.092	206.81
820.529	222.71
820.966	184.81
821.403	134.21
821.839	111.11
822.276	106.61
822.713	130.31
823.15	149.11
823.587	124.01
824.023	173.01
824.46	333.41
824.897	987.91
825.333	1443.71
825.77	625.51
826.206	249.41
826.643	153.41
827.08	110.51
827.516	89.91
827.953	83.71
828.389	81.41
828.825	79.91
829.262	74.11
829.698	66.51
830.135	75.21
830.571	67.81
831.007	69.41
831.443	65.01
831.88	62.11
832.316	64.71
832.752	68.71
833.188	73.01
833.624	70.21
834.06	73.71
834.497	74.51
834.933	76.01
835.369	85.31
835.805	71.61
836.241	81.11
836.677	84.81
837.112	95.61
837.548	106.71
837.984	142.61
838.42	219.61
838.856	564.11
839.292	1674.31
839.727	2462.01
840.163	1162.01
840.599	1031.01
841.034	2223.61
841.47	2246.21
841.906	833.81
842.341	358.11
842.777	218.61
843.212	231.41
843.648	215.91
844.083	132.01
844.519	93.41
844.954	80.31
845.39	67.41
845.825	60.41
846.261	62.11
846.696	60.81
847.131	62.41
847.566	62.11
848.002	57.21
848.437	67.61
848.872	67.91
849.307	71.81
849.742	96.91
850.177	204.21
850.613	607.61
851.048	939.41
851.483	406.71
851.918	168.51
852.353	92.71
852.788	56.31
853.223	56.51
853.657	55.01
854.092	51.81
854.527	47.01
854.962	41.81
855.397	49.91
855.832	54.91
856.266	44.01
856.701	42.21
857.136	43.51
857.57	45.71
858.005	56.11
858.44	68.01
858.874	46.41
859.309	55.41
859.743	41.51
860.178	48.41
860.612	44.21
861.047	55.61
861.481	72.91
861.915	79.11
862.35	52.31
862.784	35.21
863.218	43.21
863.653	41.71
864.087	56.71
864.521	56.31
864.955	78.61
865.39	165.91
865.824	183.01
866.258	127.21
866.692	185.71
867.126	190.11
867.56	105.81
867.994	60.61
868.428	42.71
868.862	45.01
869.296	65.41
869.73	58.11
870.164	58.21
870.598	49.61
871.031	38.01
871.465	32.31
871.899	32.91
872.333	25.11
872.766	24.51
873.2	22.31
873.634	28.71
874.067	28.51
874.501	28.21
874.935	39.91
875.368	30.91
875.802	33.21
876.235	22.01
876.669	26.01
877.102	25.41
877.535	30.41
877.969	27.11
878.402	24.31
878.836	21.51
879.269	27.61
879.702	27.11
880.135	16.71
880.569	26.21
881.002	24.91
881.435	20.71
881.868	18.01
882.301	26.51
882.734	19.71
883.167	24.31
883.601	21.21
884.034	23.31
884.467	19.41
884.899	17.01
885.332	20.51
885.765	16.51
886.198	15.31
886.631	18.81
887.064	19.31
887.497	20.61
887.929	21.91
888.362	13.91
888.795	13.91
889.228	20.51
889.66	25.11
890.093	23.11
890.526	19.11
890.958	20.21
891.391	19.41
891.823	22.71
892.256	13.61
892.688	10.21
893.121	15.31
893.553	15.01
893.985	24.91
894.418	21.11
894.85	17.01
895.282	15.11
895.715	18.11
896.147	16.51
896.579	16.41
897.011	18.11
897.444	18.41
897.876	13.91
898.308	15.81
898.74	20.21
899.172	15.31
899.604	23.71
900.036	24.21
900.468	17.61
900.9	15.91
901.332	21.41
901.764	17.11
902.196	15.81
902.628	13.21
903.06	15.11
903.491	34.91
903.923	21.41
904.355	20.11
904.787	26.11
905.218	21.41
905.65	19.11
906.082	16.21
906.513	15.91
906.945	19.31
907.376	8.71
907.808	21.41
908.239	26.71
908.671	18.71
909.102	20.01
909.534	30.71
909.965	53.91
910.397	96.71
910.828	339.11
911.259	502.71
911.691	242.81
912.122	109.61
912.553	60.61
912.984	37.81
913.415	30.71
913.847	31.31
914.278	17.41
914.709	16.21
915.14	18.51
915.571	16.21
916.002	15.01
916.433	20.91
916.864	18.91
917.295	19.31
917.726	23.51
918.157	16.51
918.587	33.81
919.018	19.11
919.449	23.11
919.88	26.71
920.311	34.01
920.741	55.11
921.172	178.21
921.603	154.41
922.033	72.41
922.464	48.21
922.895	24.51
923.325	25.21
923.756	12.11
924.186	13.81
924.617	17.41
925.047	20.01
925.478	23.01
925.908	19.41
926.338	14.71
926.769	6.61
927.199	13.41
927.629	7.31
928.06	16.01
928.49	10.51
928.92	15.11
929.35	7.71
929.78	8.21
930.21	6.21
930.641	4.61
931.071	9.81
931.501	1.91
931.931	13.71
932.361	9.91
932.791	2.11
933.221	3.01
933.651	2.61
934.08	17.21
934.51	32.11
934.94	9.11
935.37	14.31
935.8	11.71
936.229	2.21
936.659	13.61
937.089	8.91
937.519	23.11
937.948	24.41
938.378	15.61
938.807	8.01
939.237	4.31
939.666	1.01
940.096	-2.29
940.525	5.81
940.955	1.31
941.384	5.31
941.814	-6.79
942.243	-2.99
942.672	-2.49
943.102	-0.79
943.531	-3.69
943.96	3.41
944.39	2.61
944.819	-1.89
945.248	3.11
945.677	-1.29
946.106	1.11
946.535	0.81
946.964	1.01
947.393	3.41
947.822	7.91
948.251	-5.89
948.68	5.01
949.109	3.51
949.538	3.61
949.967	3.01
950.396	2.31
950.825	-0.49
951.254	3.51
951.682	-5.49
952.111	0.01
952.54	1.51
952.969	-4.09
953.397	-8.09
953.826	3.11
954.254	-5.89
954.683	8.11
955.112	-5.19
955.54	2.91
955.969	5.31
956.397	-0.69
956.826	-0.49
957.254	8.41
957.682	0.61
958.111	3.41
958.539	-3.79
958.967	-1.79
959.396	-2.89
959.824	2.01
960.252	0.01
960.68	-8.39
961.109	-3.69
961.537	-4.89
961.965	-1.19
962.393	-0.99
962.821	-6.09
963.249	2.61
963.677	4.31
964.105	6.61
964.533	50.91
964.961	40.61
965.389	22.21
965.817	4.71
966.245	1.41
966.672	5.31
967.1	-8.29
967.528	0.91
967.956	-7.29
968.383	1.91
968.811	-6.69
969.239	4.51
969.666	-2.39
970.094	-0.19
970.522	3.81
970.949	-7.99
971.377	-10.49
971.804	0.91
972.232	-1.09
972.659	-3.39
973.087	-0.89
973.514	0.61
973.941	-6.09
974.369	5.01
974.796	3.01
975.223	4.01
975.651	-3.09
976.078	-0.19
976.505	1.91
976.932	5.91
977.359	9.81
977.786	16.81
978.214	2.01
978.641	-6.09
979.068	-1.19
979.495	-6.79
979.922	-1.39
980.349	-9.19
980.776	7.31
981.202	-3.49
981.629	0.51
982.056	2.21
982.483	-9.89
982.91	6.31
983.337	-9.39
983.763	0.11
984.19	-6.69
984.617	-1.29
985.043	-10.89
985.47	3.01
985.897	-8.49
986.323	-9.69
986.75	0.21
987.176	1.91
987.603	0.01
988.029	1.51
988.456	-2.79
988.882	6.81
989.308	-5.89
989.735	-7.89
990.161	-0.29
990.587	-3.29
991.014	1.11
991.44	0.41
991.866	-3.29
992.292	-12.89
992.719	-5.29
993.145	2.11
993.571	-7.49
993.997	-4.49
994.423	-4.09
994.849	-8.29
995.275	-1.69
995.701	-5.19
996.127	-1.19
996.553	1.31
996.979	-5.09
997.405	-1.19
997.83	-4.19
998.256	-7.89
998.682	-9.79
999.108	-4.79
999.534	-5.09
999.959	-4.39
1000.385	-5.69
1000.811	-3.39
1001.236	-5.59
1001.662	-9.79
1002.087	-6.89
1002.513	-2.29
1002.938	5.01
1003.364	3.61
1003.789	-2.29
1004.215	2.81
1004.64	-0.39
1005.066	2.41
1005.491	3.31
1005.916	2.71
1006.342	-4.59
1006.767	-4.99
1007.192	-1.39
1007.617	-9.89
1008.042	-6.69
1008.468	-2.99
1008.893	-5.89
1009.318	-0.39
1009.743	-1.49
1010.168	2.51
1010.593	2.61
1011.018	-4.79
1011.443	-3.39
1011.868	-1.09
1012.293	-4.49
1012.718	-8.09
1013.143	3.61
1013.567	4.41
1013.992	-4.89
1014.417	-12.69
1014.842	-1.89
1015.267	-5.19
1015.691	-8.59
1016.116	1.61
1016.541	-3.29
1016.965	-0.49
1017.39	-0.59
1017.814	2.61
1018.239	-1.19
1018.663	-1.09
1019.088	-11.99
1019.512	-5.99
1019.937	2.41
1020.361	-2.79
1020.785	-6.89
1021.21	-5.89
1021.634	-5.49
1022.058	2.01
1022.483	4.01
1022.907	-2.79
1023.331	-10.89
1023.755	0.31
1024.179	-2.99
1024.604	-4.19
1025.028	-3.99
1025.452	-3.79
1025.876	-6.59
1026.3	-0.89
1026.724	-7.09
1027.148	-3.49
1027.572	-6.99
1027.996	-4.19
1028.42	-6.89
1028.843	-10.89
1029.267	-6.79
1029.691	-0.79
1030.115	-2.89
1030.539	-5.49
1030.962	-6.29
1031.386	-8.09
1031.81	-0.59
1032.233	-4.79
1032.657	-8.29
1033.08	-2.19
1033.504	-8.49
1033.927	-2.29
1034.351	-3.89
1034.774	-7.99
1035.198	-0.39
1035.621	-6.69
1036.045	-9.59
1036.468	3.71
1036.891	-8.59
1037.315	-5.69
1037.738	-11.69
1038.161	2.11
1038.584	-9.49
1039.008	0.31
1039.431	-4.19
1039.854	-4.79
1040.277	-10.39
1040.7	-11.19
1041.123	-1.39
1041.546	-9.49
1041.969	-3.89
1042.392	-8.49
1042.815	-1.49
1043.238	1.71
1043.661	-2.49
1044.084	-3.49
1044.507	-4.29
1044.93	-1.99
1045.352	-4.49
1045.775	-0.69
1046.198	-8.09
1046.621	-11.29
1047.043	-3.49
1047.466	6.11
1047.889	-0.79
1048.311	-1.89
1048.734	-5.29
1049.156	-6.59
1049.579	-3.89
1050.001	-8.89
1050.424	-2.89
1050.846	-0.29
1051.269	-4.69
1051.691	-5.89
1052.113	-6.09
1052.536	1.61
1052.958	-4.29
1053.38	-2.69
1053.802	-7.59
1054.225	5.51
1054.647	-16.99
1055.069	-4.89
1055.491	0.81
1055.913	-9.99
1056.335	-2.49
1056.757	-8.79
1057.179	-9.99
1057.601	-8.39
1058.023	-1.49
1058.445	-6.69
1058.867	-1.29
1059.289	-1.89
1059.711	-9.49
1060.133	-0.59
1060.555	-5.29
1060.976	-7.29
1061.398	-5.49
1061.82	-3.49
1062.241	-9.59
1062.663	-7.99
1063.085	-4.19
1063.506	-7.39
1063.928	-3.69
1064.35	-2.59
1064.771	-9.39
1065.193	-7.69
1065.614	-5.29
1066.035	-6.39
1066.457	-6.69
1066.878	-0.29
1067.3	-4.39
1067.721	-6.39
1068.142	-6.99
1068.564	-4.29
1068.985	-3.39
1069.406	-1.29
1069.827	-7.19
1070.248	-2.79
1070.67	-6.49
1071.091	-4.59
1071.512	-1.09
1071.933	-6.99
1072.354	-14.69
1072.775	-5.39
1073.196	-3.69
1073.617	-0.89
1074.038	-9.49
1074.459	-2.09
1074.88	-8.79
1075.3	-2.49
1075.721	-5.89
1076.142	-0.09
1076.563	-2.69
1076.983	-9.09
1077.404	-10.09
1077.825	-7.89
1078.246	-5.89
1078.666	-12.29
1079.087	-8.29
1079.507	-2.69
1079.928	-5.99
1080.348	-0.49
1080.769	-3.39
1081.189	-5.99
1081.61	-5.39
1082.03	-7.99
1082.451	-7.49
1082.871	-8.59
1083.291	-9.19
1083.711	-3.39
1084.132	-1.79
1084.552	-5.59
1084.972	-2.69
1085.392	-12.49
1085.813	-8.19
1086.233	-2.79
1086.653	-4.09
1087.073	-8.09
1087.493	2.21
1087.913	-6.39
1088.333	-5.99
1088.753	-5.69
1089.173	-1.89
1089.593	-6.39
1090.013	-1.99
1090.433	-2.49
1090.852	-0.99
1091.272	-4.89
1091.692	-2.09
1092.112	-5.69
1092.531	-11.19
1092.951	-11.39
1093.371	-5.09
1093.79	1.21
1094.21	-2.69
1094.63	-5.79
1095.049	-5.79
1095.469	-3.79
1095.888	-4.29
1096.308	3.91
1096.727	5.31
1097.146	-5.39
1097.566	-1.69
1097.985	-4.59
1098.405	-0.39
1098.824	-5.59
1099.243	-2.49
1099.662	-6.89
1100.082	-7.99
1100.501	-2.89
1100.92	-12.39
1101.339	-6.39
1101.758	-7.69
