Data from 20171114-ORNL-Ar_H_NY_Subt18_08-08-41-891.txt Node
Date: Tue Nov 14 08:08:41 EST 2017
User: Ender
Spectrometer: HR+D1039
Trigger mode: 0
Integration Time (sec): 2.730000E-2
Scans to average: 10
Electric dark correction enabled: true
Nonlinearity correction enabled: false
Boxcar width: 0
XAxis mode: Wavelengths
Number of Pixels in Spectrum: 2048
>>>>>Begin Spectral Data<<<<<
187.836	-2.61
188.309	-2.61
188.782	-2.61
189.255	0.89
189.728	-0.21
190.201	6.79
190.674	1.69
191.147	2.79
191.619	-8.31
192.092	-4.01
192.565	6.59
193.038	-4.61
193.511	-3.11
193.984	3.39
194.456	-2.31
194.929	1.19
195.402	1.69
195.874	0.09
196.347	-3.41
196.82	0.39
197.292	5.09
197.765	-0.51
198.237	-6.21
198.71	5.79
199.182	-2.21
199.655	0.39
200.127	2.39
200.6	-4.11
201.072	-4.41
201.544	-6.11
202.017	1.79
202.489	6.49
202.961	-4.01
203.433	-4.71
203.906	-8.81
204.378	-5.61
204.85	-2.21
205.322	-4.71
205.794	-5.11
206.266	-4.61
206.739	-11.41
207.211	2.49
207.683	-11.31
208.155	-6.01
208.627	-11.51
209.099	-3.11
209.57	-10.51
210.042	-6.21
210.514	-7.21
210.986	-1.21
211.458	-6.41
211.93	-4.01
212.402	-1.91
212.873	-9.51
213.345	-10.11
213.817	-14.31
214.288	-9.91
214.76	-5.11
215.232	-8.11
215.703	-5.61
216.175	-9.31
216.646	-8.01
217.118	-9.01
217.589	-15.91
218.061	-4.41
218.532	0.39
219.004	-7.51
219.475	-5.31
219.946	-3.01
220.418	-2.71
220.889	4.29
221.36	2.09
221.832	-6.11
222.303	0.59
222.774	2.29
223.245	-11.01
223.717	-8.51
224.188	-3.61
224.659	-7.71
225.13	-6.81
225.601	1.99
226.072	0.79
226.543	-4.81
227.014	4.19
227.485	-2.51
227.956	-6.01
228.427	-4.01
228.898	1.29
229.369	4.29
229.839	1.19
230.31	-9.21
230.781	-1.51
231.252	-4.91
231.722	-7.11
232.193	-5.91
232.664	-2.31
233.135	-4.11
233.605	-2.01
234.076	-2.01
234.546	-3.71
235.017	4.99
235.487	-0.61
235.958	0.99
236.428	-8.01
236.899	-0.71
237.369	-3.91
237.84	-5.11
238.31	-5.61
238.78	-3.11
239.251	-6.61
239.721	-3.01
240.191	-2.51
240.662	-7.01
241.132	0.49
241.602	-1.21
242.072	3.19
242.542	5.19
243.013	-6.91
243.483	1.79
243.953	3.29
244.423	-0.51
244.893	-9.21
245.363	0.39
245.833	-1.71
246.303	0.59
246.773	4.59
247.243	-4.11
247.712	-2.91
248.182	1.99
248.652	1.89
249.122	-9.31
249.592	0.29
250.061	5.99
250.531	6.39
251.001	1.29
251.471	6.99
251.94	12.39
252.41	0.39
252.879	-8.91
253.349	6.19
253.818	13.19
254.288	0.39
254.757	5.29
255.227	-3.61
255.696	-3.81
256.166	-1.21
256.635	0.59
257.105	2.99
257.574	2.39
258.043	8.29
258.513	-2.01
258.982	3.19
259.451	-3.11
259.92	2.19
260.389	2.19
260.859	7.49
261.328	2.99
261.797	1.89
262.266	5.29
262.735	9.29
263.204	5.39
263.673	-3.01
264.142	-1.51
264.611	-4.51
265.08	-5.31
265.549	-0.21
266.018	-0.61
266.487	-4.51
266.955	-5.81
267.424	-3.81
267.893	4.39
268.362	-3.01
268.83	-1.01
269.299	8.09
269.768	1.19
270.236	-0.11
270.705	-1.91
271.174	1.69
271.642	-4.61
272.111	-2.11
272.579	0.19
273.048	0.09
273.516	2.99
273.985	4.99
274.453	5.39
274.922	10.49
275.39	3.49
275.858	1.79
276.327	7.79
276.795	10.29
277.263	-1.11
277.731	6.69
278.2	14.39
278.668	5.99
279.136	9.79
279.604	-0.31
280.072	7.29
280.54	3.89
281.008	2.49
281.477	11.19
281.945	7.59
282.413	12.09
282.881	12.99
283.348	0.39
283.816	4.59
284.284	11.39
284.752	17.79
285.22	8.29
285.688	6.29
286.156	8.29
286.623	19.59
287.091	5.59
287.559	16.79
288.026	11.99
288.494	4.39
288.962	2.39
289.429	2.99
289.897	10.29
290.364	7.79
290.832	11.19
291.3	12.69
291.767	18.09
292.234	12.09
292.702	11.09
293.169	14.49
293.637	16.19
294.104	12.99
294.571	2.19
295.039	8.29
295.506	11.59
295.973	15.49
296.44	8.39
296.908	8.09
297.375	12.99
297.842	17.69
298.309	9.39
298.776	11.19
299.243	24.39
299.71	10.99
300.177	15.09
300.644	13.69
301.111	12.19
301.578	14.59
302.045	13.39
302.512	20.89
302.979	20.99
303.446	13.99
303.913	14.09
304.379	12.79
304.846	20.09
305.313	15.89
305.78	16.19
306.246	16.69
306.713	21.69
307.18	20.39
307.646	23.99
308.113	15.49
308.579	25.49
309.046	18.59
309.512	22.69
309.979	13.09
310.445	22.39
310.912	26.79
311.378	25.89
311.845	23.99
312.311	23.19
312.777	30.59
313.244	27.39
313.71	36.79
314.176	21.79
314.642	23.39
315.109	28.39
315.575	28.49
316.041	27.49
316.507	20.29
316.973	30.89
317.439	20.49
317.905	32.29
318.371	35.29
318.837	24.39
319.303	24.49
319.769	23.59
320.235	26.69
320.701	17.79
321.167	31.89
321.633	28.79
322.099	25.69
322.564	31.89
323.03	25.29
323.496	30.49
323.962	26.99
324.427	29.89
324.893	33.69
325.359	29.49
325.824	32.99
326.29	30.69
326.755	32.39
327.221	32.99
327.686	33.79
328.152	32.99
328.617	30.79
329.083	38.99
329.548	44.09
330.014	32.99
330.479	33.79
330.944	39.79
331.41	35.39
331.875	39.89
332.34	35.59
332.805	37.49
333.271	34.49
333.736	28.19
334.201	43.79
334.666	40.39
335.131	40.99
335.596	37.29
336.061	37.39
336.526	31.49
336.991	35.29
337.456	40.29
337.921	38.99
338.386	36.59
338.851	36.39
339.316	46.09
339.781	43.89
340.246	41.69
340.711	39.69
341.175	44.59
341.64	37.39
342.105	48.39
342.569	44.49
343.034	47.89
343.499	43.79
343.963	41.09
344.428	54.19
344.893	48.09
345.357	55.69
345.822	47.89
346.286	57.59
346.751	60.59
347.215	55.39
347.679	62.49
348.144	80.29
348.608	68.69
349.073	61.19
349.537	63.09
350.001	69.09
350.465	76.79
350.93	69.79
351.394	71.89
351.858	69.19
352.322	76.49
352.786	68.69
353.25	85.09
353.715	99.89
354.179	83.89
354.643	103.09
355.107	98.49
355.571	84.59
356.035	88.09
356.498	97.29
356.962	98.89
357.426	103.49
357.89	97.59
358.354	75.89
358.818	70.39
359.281	64.09
359.745	70.89
360.209	65.09
360.673	62.29
361.136	70.39
361.6	73.99
362.064	70.59
362.527	70.09
362.991	78.39
363.454	69.19
363.918	69.39
364.381	71.69
364.845	72.69
365.308	77.09
365.772	74.69
366.235	76.59
366.698	72.19
367.162	72.09
367.625	68.39
368.088	78.09
368.552	78.59
369.015	79.39
369.478	81.29
369.941	87.79
370.404	79.89
370.867	90.49
371.331	90.19
371.794	90.79
372.257	90.59
372.72	90.99
373.183	96.39
373.646	82.59
374.109	83.69
374.572	88.89
375.035	89.59
375.497	96.59
375.96	97.99
376.423	96.29
376.886	101.59
377.349	98.79
377.811	89.59
378.274	86.29
378.737	94.79
379.199	98.09
379.662	102.39
380.125	99.89
380.587	95.99
381.05	94.99
381.512	106.49
381.975	113.69
382.437	113.39
382.9	107.49
383.362	109.09
383.825	121.39
384.287	115.39
384.75	104.79
385.212	115.79
385.674	121.79
386.136	123.59
386.599	114.99
387.061	112.19
387.523	116.79
387.985	120.49
388.447	121.19
388.91	125.09
389.372	121.09
389.834	113.49
390.296	117.19
390.758	116.99
391.22	127.89
391.682	137.69
392.144	155.69
392.606	149.09
393.068	134.59
393.529	142.79
393.991	126.99
394.453	127.69
394.915	122.99
395.377	123.59
395.838	130.79
396.3	127.09
396.762	131.29
397.224	128.99
397.685	126.29
398.147	126.19
398.608	121.59
399.07	128.99
399.531	126.69
399.993	133.99
400.454	144.29
400.916	141.29
401.377	141.19
401.839	144.29
402.3	145.89
402.762	155.19
403.223	168.09
403.684	158.09
404.145	152.59
404.607	153.09
405.068	149.99
405.529	156.59
405.99	170.59
406.451	161.09
406.913	162.19
407.374	157.39
407.835	152.79
408.296	159.89
408.757	170.29
409.218	182.99
409.679	169.69
410.14	165.89
410.601	167.39
411.062	168.69
411.522	174.59
411.983	174.19
412.444	167.79
412.905	172.79
413.366	178.09
413.826	198.39
414.287	211.79
414.748	251.79
415.208	243.09
415.669	199.89
416.13	202.69
416.59	203.69
417.051	216.29
417.511	219.49
417.972	238.49
418.432	240.19
418.893	283.39
419.353	244.69
419.814	197.89
420.274	185.39
420.734	179.49
421.195	179.49
421.655	184.29
422.115	194.59
422.576	188.99
423.036	195.69
423.496	202.29
423.956	212.79
424.416	226.29
424.876	255.39
425.336	250.09
425.797	249.69
426.257	248.79
426.717	236.99
427.177	226.19
427.637	223.19
428.097	225.39
428.556	233.99
429.016	261.09
429.476	254.39
429.936	256.49
430.396	269.29
430.856	272.19
431.315	298.09
431.775	331.19
432.235	358.69
432.694	334.79
433.154	341.99
433.614	376.19
434.073	320.29
434.533	268.49
434.993	253.19
435.452	271.59
435.912	277.39
436.371	276.79
436.83	262.29
437.29	250.79
437.749	241.39
438.209	239.49
438.668	267.39
439.127	277.89
439.587	263.19
440.046	240.99
440.505	259.29
440.964	270.49
441.424	315.09
441.883	299.89
442.342	257.19
442.801	220.89
443.26	221.79
443.719	226.09
444.178	222.59
444.637	205.49
445.096	216.09
445.555	220.09
446.014	225.59
446.473	224.79
446.932	238.09
447.391	227.89
447.849	229.69
448.308	219.19
448.767	216.09
449.226	235.69
449.685	238.69
450.143	247.39
450.602	234.59
451.061	223.69
451.519	235.09
451.978	231.79
452.436	230.49
452.895	238.59
453.353	253.49
453.812	242.39
454.27	237.69
454.729	241.19
455.187	242.29
455.646	240.89
456.104	250.69
456.562	261.69
457.021	259.69
457.479	258.89
457.937	270.09
458.395	259.79
458.854	244.99
459.312	262.29
459.77	268.89
460.228	260.29
460.686	241.99
461.144	247.19
461.602	242.89
462.06	242.59
462.518	261.29
462.976	258.29
463.434	260.99
463.892	267.49
464.35	271.29
464.808	296.59
465.266	271.79
465.724	273.59
466.181	270.19
466.639	277.19
467.097	293.99
467.555	298.09
468.012	309.59
468.47	310.99
468.928	330.69
469.385	342.89
469.843	347.39
470.3	352.09
470.758	362.89
471.215	396.19
471.673	407.89
472.13	402.99
472.588	415.39
473.045	375.09
473.503	381.29
473.96	394.79
474.417	407.89
474.875	433.39
475.332	472.59
475.789	452.89
476.246	462.59
476.704	482.69
477.161	499.19
477.618	513.49
478.075	547.49
478.532	597.89
478.989	665.99
479.446	776.79
479.903	741.29
480.36	782.09
480.817	814.49
481.274	901.69
481.731	986.79
482.188	1065.79
482.645	1178.19
483.102	1270.39
483.558	1363.89
484.015	1428.29
484.472	1397.19
484.929	1366.49
485.385	1322.09
485.842	1278.09
486.299	1238.09
486.755	1214.29
487.212	1038.19
487.668	881.39
488.125	804.29
488.582	752.29
489.038	726.99
489.494	700.99
489.951	676.59
490.407	656.69
490.864	633.49
491.32	629.19
491.776	634.09
492.233	633.19
492.689	596.29
493.145	603.09
493.602	601.29
494.058	608.69
494.514	621.09
494.97	638.99
495.426	638.29
495.882	619.89
496.338	608.79
496.794	618.89
497.251	607.69
497.707	631.99
498.163	631.79
498.618	634.69
499.074	637.79
499.53	667.99
499.986	665.89
500.442	635.79
500.898	614.69
501.354	609.69
501.809	611.39
502.265	622.39
502.721	624.29
503.177	637.79
503.632	646.39
504.088	655.29
504.543	665.59
504.999	693.59
505.455	655.29
505.91	638.29
506.366	634.99
506.821	629.59
507.277	629.39
507.732	628.39
508.187	633.89
508.643	648.29
509.098	637.49
509.553	663.39
510.009	670.79
510.464	683.49
510.919	694.49
511.375	705.39
511.83	712.29
512.285	718.09
512.74	750.29
513.195	778.89
513.65	768.99
514.105	762.09
514.56	760.39
515.015	784.79
515.47	794.59
515.925	770.39
516.38	771.99
516.835	786.19
517.29	771.29
517.745	764.09
518.2	757.49
518.655	750.59
519.109	744.19
519.564	741.59
520.019	735.09
520.474	728.99
520.928	733.49
521.383	717.49
521.838	714.09
522.292	715.49
522.747	712.29
523.201	707.79
523.656	698.99
524.11	686.39
524.565	702.89
525.019	681.29
525.474	701.69
525.928	704.59
526.382	704.19
526.837	704.79
527.291	701.99
527.745	694.69
528.2	713.09
528.654	683.79
529.108	690.59
529.562	683.39
530.016	697.59
530.47	692.49
530.925	687.49
531.379	684.89
531.833	700.19
532.287	705.19
532.741	701.99
533.195	709.49
533.649	717.29
534.103	715.59
534.556	705.59
535.01	706.29
535.464	700.59
535.918	721.99
536.372	721.09
536.826	724.19
537.279	700.09
537.733	714.59
538.187	712.39
538.64	712.89
539.094	722.79
539.548	733.09
540.001	722.59
540.455	725.69
540.908	731.29
541.362	745.09
541.815	752.79
542.269	768.29
542.722	757.99
543.175	774.69
543.629	772.19
544.082	782.59
544.536	791.59
544.989	781.79
545.442	792.99
545.895	795.99
546.349	797.79
546.802	806.19
547.255	802.79
547.708	799.89
548.161	818.39
548.614	837.89
549.067	838.69
549.52	810.59
549.973	805.19
550.426	817.99
550.879	789.69
551.332	820.19
551.785	803.29
552.238	818.59
552.691	833.09
553.144	840.69
553.596	852.79
554.049	874.39
554.502	888.69
554.955	911.99
555.407	912.19
555.86	896.89
556.313	891.59
556.765	887.29
557.218	896.49
557.67	891.59
558.123	885.59
558.576	875.79
559.028	875.79
559.48	885.89
559.933	881.69
560.385	853.69
560.838	820.39
561.29	799.89
561.742	803.19
562.195	780.69
562.647	767.49
563.099	784.29
563.551	784.19
564.004	801.09
564.456	782.69
564.908	760.39
565.36	743.59
565.812	743.99
566.264	730.49
566.716	722.29
567.168	708.29
567.62	719.59
568.072	700.29
568.524	707.49
568.976	691.79
569.428	684.19
569.88	677.09
570.332	692.29
570.784	695.59
571.235	701.59
571.687	709.19
572.139	712.79
572.59	721.09
573.042	719.09
573.494	718.09
573.945	723.49
574.397	697.19
574.849	698.79
575.3	717.79
575.752	691.19
576.203	686.99
576.655	700.09
577.106	681.69
577.557	680.39
578.009	673.69
578.46	675.79
578.912	667.69
579.363	675.89
579.814	677.99
580.265	675.19
580.717	681.39
581.168	679.49
581.619	680.39
582.07	692.09
582.521	676.19
582.972	677.59
583.423	678.79
583.875	676.49
584.326	691.79
584.777	704.69
585.227	732.39
585.678	745.49
586.129	780.89
586.58	797.69
587.031	824.39
587.482	869.79
587.933	902.79
588.384	874.69
588.834	808.39
589.285	778.49
589.736	786.49
590.186	779.79
590.637	775.19
591.088	749.59
591.538	744.79
591.989	741.59
592.439	744.59
592.89	723.99
593.34	710.49
593.791	711.79
594.241	713.29
594.692	710.09
595.142	708.59
595.593	709.89
596.043	712.99
596.493	714.19
596.943	715.29
597.394	729.29
597.844	721.39
598.294	744.59
598.744	768.39
599.195	790.79
599.645	831.09
600.095	870.59
600.545	925.99
600.995	982.69
601.445	1036.89
601.895	1097.99
602.345	1149.19
602.795	1130.39
603.245	1088.39
603.695	1029.19
604.145	978.89
604.594	930.59
605.044	878.69
605.494	815.19
605.944	766.69
606.393	753.39
606.843	735.49
607.293	743.19
607.743	745.59
608.192	751.29
608.642	761.89
609.091	772.19
609.541	773.09
609.99	776.49
610.44	773.59
610.889	728.39
611.339	708.79
611.788	690.39
612.238	708.29
612.687	719.19
613.136	707.49
613.586	715.69
614.035	711.09
614.484	724.19
614.933	725.89
615.383	714.79
615.832	711.59
616.281	707.99
616.73	690.29
617.179	662.99
617.628	646.99
618.077	648.29
618.526	627.69
618.975	620.39
619.424	622.99
619.873	611.09
620.322	633.59
620.771	623.99
621.22	616.99
621.669	598.79
622.118	586.89
622.567	588.09
623.015	577.59
623.464	574.19
623.913	581.99
624.361	560.29
624.81	556.59
625.259	565.79
625.707	562.69
626.156	562.09
626.604	577.79
627.053	568.09
627.501	567.29
627.95	578.99
628.398	596.89
628.847	575.89
629.295	577.59
629.744	583.59
630.192	574.99
630.64	571.29
631.089	554.69
631.537	550.99
631.985	540.39
632.433	538.09
632.881	537.19
633.33	547.89
633.778	538.29
634.226	533.19
634.674	552.19
635.122	559.69
635.57	558.89
636.018	571.09
636.466	571.39
636.914	562.49
637.362	578.89
637.81	593.39
638.258	590.99
638.705	596.19
639.153	622.09
639.601	631.19
640.049	647.09
640.497	681.69
640.944	709.09
641.392	652.39
641.84	626.39
642.287	599.79
642.735	568.19
643.182	569.89
643.63	566.39
644.078	569.99
644.525	584.29
644.973	586.99
645.42	601.59
645.867	622.59
646.315	647.29
646.762	664.79
647.21	696.89
647.657	710.29
648.104	741.89
648.551	769.99
648.999	819.89
649.446	894.89
649.893	980.29
650.34	1121.09
650.787	1331.59
651.234	1651.49
651.682	2120.09
652.129	2893.49
652.576	4109.39
653.023	5978.19
653.47	8050.39
653.917	9932.59
654.363	11427.09
654.81	12528.79
655.257	11889.59
655.704	7837.59
656.151	4743.29
656.598	3113.79
657.044	2248.49
657.491	1757.69
657.938	1403.59
658.385	1187.89
658.831	1047.09
659.278	924.79
659.724	833.09
660.171	780.69
660.618	718.59
661.064	687.79
661.511	665.29
661.957	661.39
662.404	653.09
662.85	650.79
663.296	627.39
663.743	566.09
664.189	542.69
664.635	546.89
665.082	539.99
665.528	534.29
665.974	525.89
666.42	519.79
666.867	517.79
667.313	490.29
667.759	479.29
668.205	460.29
668.651	465.29
669.097	457.79
669.543	453.49
669.989	450.79
670.435	454.19
670.881	448.79
671.327	458.09
671.773	490.09
672.219	508.29
672.665	559.99
673.11	600.99
673.556	649.39
674.002	683.09
674.448	681.49
674.893	572.99
675.339	491.99
675.785	452.19
676.23	434.49
676.676	413.09
677.122	387.59
677.567	380.69
678.013	388.19
678.458	373.99
678.904	369.49
679.349	366.49
679.794	367.89
680.24	368.59
680.685	357.39
681.131	363.39
681.576	361.09
682.021	360.39
682.466	360.19
682.912	359.39
683.357	367.49
683.802	404.99
684.247	429.59
684.692	466.69
685.137	511.29
685.583	546.89
686.028	577.69
686.473	525.59
686.918	462.59
687.363	439.19
687.807	399.59
688.252	374.79
688.697	366.69
689.142	351.09
689.587	341.49
690.032	331.19
690.477	353.49
690.921	372.09
691.366	397.39
691.811	412.59
692.255	443.49
692.7	472.79
693.145	532.49
693.589	738.29
694.034	1200.29
694.478	1596.39
694.923	1778.79
695.367	2311.89
695.812	1239.39
696.256	508.79
696.701	375.19
697.145	352.69
697.59	343.89
698.034	329.29
698.478	332.69
698.922	331.19
699.367	324.79
699.811	344.19
700.255	367.59
700.699	385.69
701.143	441.89
701.588	490.49
702.032	533.39
702.476	530.39
702.92	515.99
703.364	517.69
703.808	682.29
704.252	1102.09
704.696	1513.99
705.14	1714.19
705.584	2179.29
706.027	1102.19
706.471	538.39
706.915	413.09
707.359	371.39
707.803	329.19
708.246	325.39
708.69	329.59
709.134	322.29
709.577	316.19
710.021	321.89
710.465	323.09
710.908	316.69
711.352	310.69
711.795	323.19
712.239	370.79
712.682	400.59
713.126	421.99
713.569	460.39
714.012	369.69
714.456	312.49
714.899	296.59
715.342	283.49
715.786	271.39
716.229	269.29
716.672	269.69
717.115	266.29
717.558	261.19
718.002	256.39
718.445	280.49
718.888	299.49
719.331	301.69
719.774	316.89
720.217	311.99
720.66	282.19
721.103	274.39
721.546	260.59
721.989	258.09
722.432	244.99
722.874	247.69
723.317	239.19
723.76	241.59
724.203	271.89
724.645	328.49
725.088	471.09
725.531	585.19
725.974	649.99
726.416	570.39
726.859	314.79
727.301	259.99
727.744	241.69
728.187	243.29
728.629	236.99
729.071	255.79
729.514	269.69
729.956	282.29
730.399	295.99
730.841	294.09
731.283	286.29
731.726	274.89
732.168	276.09
732.61	277.99
733.053	301.29
733.495	328.59
733.937	369.89
734.379	412.79
734.821	455.89
735.263	567.89
735.705	905.09
736.148	1696.99
736.59	2719.09
737.032	3130.79
737.474	2553.29
737.916	846.89
738.357	447.69
738.799	346.09
739.241	319.29
739.683	299.69
740.125	300.29
740.567	312.69
741.008	335.29
741.45	321.59
741.892	330.29
742.334	367.59
742.775	377.59
743.217	354.99
743.658	278.59
744.1	271.29
744.542	271.19
744.983	335.09
745.425	361.89
745.866	361.79
746.307	292.59
746.749	289.49
747.19	348.99
747.632	480.29
748.073	959.09
748.514	2014.69
748.956	2978.29
749.397	3751.59
749.838	3111.79
750.279	3032.09
750.72	1554.49
751.162	575.19
751.603	336.09
752.044	261.39
752.485	213.79
752.926	216.59
753.367	204.19
753.808	204.19
754.249	204.09
754.69	198.39
755.131	190.59
755.572	191.89
756.013	187.19
756.453	193.29
756.894	203.29
757.335	192.29
757.776	207.59
758.216	203.39
758.657	201.79
759.098	211.99
759.538	230.99
759.979	292.89
760.42	400.69
760.86	774.69
761.301	2013.69
761.741	4716.89
762.182	6550.39
762.622	4642.59
763.063	1375.89
763.503	555.99
763.943	345.69
764.384	288.79
764.824	270.59
765.264	264.69
765.705	229.19
766.145	193.49
766.585	178.09
767.025	174.69
767.465	166.69
767.906	191.09
768.346	211.99
768.786	226.79
769.226	226.29
769.666	336.09
770.106	668.69
770.546	1676.39
770.986	2730.49
771.426	2408.99
771.866	829.89
772.306	339.89
772.745	217.89
773.185	175.39
773.625	170.19
774.065	161.39
774.505	165.99
774.944	230.99
775.384	390.79
775.824	628.79
776.263	594.99
776.703	294.49
777.142	160.99
777.582	138.89
778.021	128.49
778.461	134.89
778.9	135.09
779.34	131.09
779.779	118.49
780.219	110.09
780.658	118.99
781.097	110.69
781.537	116.09
781.976	112.79
782.415	107.89
782.855	106.59
783.294	107.79
783.733	115.39
784.172	112.19
784.611	107.89
785.05	110.49
785.489	119.59
785.928	118.49
786.367	125.49
786.806	125.99
787.245	133.19
787.684	143.39
788.123	151.59
788.562	138.59
789.001	129.69
789.44	124.69
789.879	119.89
790.317	123.19
790.756	131.29
791.195	135.69
791.634	151.89
792.072	217.59
792.511	402.89
792.95	1072.89
793.388	2187.99
793.827	1942.19
794.265	696.89
794.704	296.49
795.142	186.69
795.581	159.29
796.019	141.19
796.458	134.69
796.896	127.69
797.334	139.49
797.773	161.29
798.211	235.69
798.649	476.79
799.087	1081.29
799.526	1674.99
799.964	2109.99
800.402	2043.99
800.84	795.29
801.278	316.99
801.716	190.39
802.154	163.49
802.592	152.19
803.03	145.59
803.468	138.99
803.906	149.59
804.344	155.19
804.782	140.09
805.22	139.19
805.658	137.99
806.096	152.09
806.533	161.59
806.971	187.99
807.409	237.69
807.847	341.69
808.284	720.29
808.722	2001.49
809.16	3417.29
809.597	3368.29
810.035	5669.09
810.472	5843.09
810.91	2166.89
811.347	842.09
811.785	419.89
812.222	268.19
812.66	207.69
813.097	175.39
813.535	141.69
813.972	135.89
814.409	124.69
814.846	117.89
815.284	114.79
815.721	107.39
816.158	106.19
816.595	118.29
817.032	161.89
817.47	184.99
817.907	140.79
818.344	103.69
818.781	100.99
819.218	107.49
819.655	139.49
820.092	196.89
820.529	223.39
820.966	180.99
821.403	123.49
821.839	103.69
822.276	103.39
822.713	129.29
823.15	142.19
823.587	125.59
824.023	160.09
824.46	332.09
824.897	959.69
825.333	1384.29
825.77	603.39
826.206	245.79
826.643	143.69
827.08	105.09
827.516	87.39
827.953	80.59
828.389	89.89
828.825	72.29
829.262	67.39
829.698	74.09
830.135	68.19
830.571	66.09
831.007	67.49
831.443	64.19
831.88	61.59
832.316	67.79
832.752	68.79
833.188	63.29
833.624	66.19
834.06	64.89
834.497	68.49
834.933	75.49
835.369	78.09
835.805	74.89
836.241	74.09
836.677	83.89
837.112	89.29
837.548	108.19
837.984	141.19
838.42	218.19
838.856	544.89
839.292	1623.89
839.727	2354.49
840.163	1128.39
840.599	1003.39
841.034	2133.39
841.47	2160.09
841.906	805.39
842.341	342.89
842.777	209.49
843.212	217.09
843.648	195.59
844.083	119.59
844.519	83.79
844.954	73.79
845.39	59.89
845.825	60.49
846.261	60.79
846.696	53.29
847.131	56.59
847.566	60.99
848.002	54.09
848.437	59.79
848.872	63.49
849.307	70.59
849.742	84.39
850.177	201.19
850.613	607.29
851.048	910.89
851.483	390.69
851.918	162.19
852.353	90.19
852.788	54.29
853.223	48.49
853.657	46.19
854.092	49.49
854.527	42.89
854.962	42.99
855.397	47.09
855.832	54.89
856.266	42.69
856.701	38.79
857.136	41.69
857.57	46.29
858.005	51.99
858.44	57.89
858.874	48.09
859.309	55.89
859.743	39.09
860.178	46.79
860.612	43.49
861.047	56.79
861.481	72.29
861.915	81.69
862.35	54.29
862.784	32.99
863.218	40.19
863.653	36.59
864.087	46.79
864.521	53.19
864.955	79.09
865.39	167.39
865.824	179.49
866.258	127.99
866.692	182.89
867.126	186.29
867.56	114.19
867.994	54.29
868.428	41.59
868.862	46.49
869.296	51.19
869.73	56.89
870.164	52.89
870.598	53.39
871.031	44.19
871.465	34.89
871.899	31.99
872.333	23.59
872.766	31.19
873.2	28.09
873.634	33.79
874.067	24.89
874.501	25.59
874.935	37.29
875.368	28.59
875.802	30.89
876.235	22.79
876.669	24.79
877.102	20.59
877.535	26.29
877.969	22.79
878.402	29.59
878.836	26.19
879.269	24.89
879.702	22.29
880.135	22.99
880.569	20.59
881.002	28.19
881.435	23.39
881.868	14.09
882.301	25.29
882.734	17.59
883.167	18.59
883.601	23.89
884.034	20.69
884.467	16.89
884.899	17.29
885.332	18.39
885.765	14.89
886.198	15.09
886.631	17.09
887.064	14.59
887.497	18.79
887.929	23.39
888.362	18.19
888.795	12.29
889.228	21.69
889.66	19.39
890.093	21.99
890.526	14.39
890.958	17.19
891.391	15.79
891.823	21.19
892.256	18.29
892.688	15.99
893.121	18.59
893.553	15.59
893.985	27.69
894.418	20.59
894.85	13.39
895.282	21.79
895.715	15.09
896.147	20.19
896.579	17.29
897.011	13.69
897.444	16.29
897.876	11.89
898.308	16.19
898.74	13.09
899.172	11.79
899.604	20.59
900.036	23.19
900.468	12.79
900.9	15.79
901.332	20.99
901.764	13.89
902.196	24.79
902.628	21.69
903.06	27.49
903.491	29.89
903.923	25.99
904.355	16.49
904.787	25.49
905.218	14.99
905.65	18.79
906.082	11.89
906.513	12.09
906.945	12.39
907.376	10.39
907.808	21.79
908.239	21.29
908.671	17.69
909.102	20.59
909.534	29.59
909.965	53.99
910.397	95.99
910.828	333.39
911.259	485.19
911.691	222.79
912.122	110.89
912.553	60.79
912.984	32.49
913.415	25.99
913.847	28.19
914.278	18.79
914.709	11.99
915.14	18.49
915.571	15.39
916.002	9.39
916.433	20.89
916.864	18.59
917.295	12.49
917.726	21.99
918.157	18.19
918.587	29.49
919.018	26.19
919.449	18.09
919.88	28.69
920.311	41.89
920.741	53.69
921.172	169.69
921.603	154.29
922.033	74.69
922.464	44.59
922.895	27.19
923.325	20.09
923.756	14.39
924.186	11.99
924.617	20.09
925.047	17.79
925.478	24.09
925.908	24.29
926.338	15.39
926.769	10.39
927.199	16.99
927.629	7.69
928.06	22.39
928.49	11.59
928.92	22.49
929.35	10.19
929.78	10.59
930.21	8.69
930.641	9.29
931.071	10.49
931.501	2.29
931.931	9.09
932.361	9.09
932.791	4.09
933.221	5.89
933.651	6.49
934.08	15.99
934.51	26.99
934.94	8.59
935.37	9.69
935.8	10.59
936.229	10.89
936.659	12.09
937.089	-1.51
937.519	13.69
937.948	22.89
938.378	21.49
938.807	6.49
939.237	12.49
939.666	5.99
940.096	-4.71
940.525	1.99
940.955	-3.11
941.384	3.09
941.814	-7.21
942.243	-2.01
942.672	5.69
943.102	-2.01
943.531	-1.01
943.96	5.69
944.39	4.79
944.819	-2.91
945.248	5.49
945.677	4.99
946.106	2.89
946.535	3.39
946.964	1.89
947.393	5.39
947.822	1.39
948.251	-3.71
948.68	-4.01
949.109	0.89
949.538	-2.11
949.967	-1.31
950.396	-3.71
950.825	1.49
951.254	2.69
951.682	-2.41
952.111	3.99
952.54	2.19
952.969	0.19
953.397	-6.91
953.826	3.99
954.254	-4.01
954.683	-2.81
955.112	0.49
955.54	-5.71
955.969	-1.81
956.397	-1.81
956.826	-2.11
957.254	-1.11
957.682	4.19
958.111	4.19
958.539	0.19
958.967	-0.11
959.396	-1.31
959.824	8.69
960.252	6.49
960.68	-5.21
961.109	-3.41
961.537	-4.91
961.965	-0.71
962.393	2.79
962.821	-7.41
963.249	-4.81
963.677	6.09
964.105	-1.61
964.533	51.69
964.961	43.29
965.389	16.29
965.817	5.79
966.245	2.89
966.672	0.69
967.1	-9.01
967.528	-2.61
967.956	-2.91
968.383	-1.81
968.811	-3.01
969.239	0.89
969.666	-3.21
970.094	-1.21
970.522	5.09
970.949	-6.61
971.377	-5.11
971.804	-6.01
972.232	-2.01
972.659	-2.21
973.087	-4.31
973.514	-3.01
973.941	-8.61
974.369	6.69
974.796	0.39
975.223	-0.31
975.651	-3.21
976.078	-3.11
976.505	0.49
976.932	3.19
977.359	16.89
977.786	11.39
978.214	0.59
978.641	-0.21
979.068	-1.11
979.495	-1.41
979.922	0.09
980.349	-2.01
980.776	4.79
981.202	-1.31
981.629	8.29
982.056	-0.11
982.483	-5.61
982.91	2.19
983.337	-5.81
983.763	8.39
984.19	-8.31
984.617	-2.81
985.043	-1.51
985.47	-4.01
985.897	-5.91
986.323	-10.71
986.75	7.59
987.176	-0.41
987.603	-2.91
988.029	-2.61
988.456	-1.31
988.882	1.59
989.308	-9.21
989.735	-2.51
990.161	-3.41
990.587	-4.21
991.014	2.69
991.44	6.99
991.866	-4.11
992.292	-8.01
992.719	-5.31
993.145	5.49
993.571	-6.61
993.997	-5.11
994.423	-1.11
994.849	-0.71
995.275	6.29
995.701	1.49
996.127	-2.01
996.553	1.09
996.979	-7.31
997.405	-2.81
997.83	-2.11
998.256	-7.01
998.682	-3.71
999.108	-6.41
999.534	3.09
999.959	-1.51
1000.385	-4.21
1000.811	-2.21
1001.236	-5.81
1001.662	-6.41
1002.087	-7.21
1002.513	0.09
1002.938	6.69
1003.364	-2.81
1003.789	-3.31
1004.215	3.19
1004.64	3.09
1005.066	-0.61
1005.491	-2.21
1005.916	-0.91
1006.342	1.69
1006.767	-6.51
1007.192	3.49
1007.617	-5.51
1008.042	-6.81
1008.468	-10.21
1008.893	-8.31
1009.318	-2.71
1009.743	4.59
1010.168	2.29
1010.593	-1.91
1011.018	-9.61
1011.443	2.29
1011.868	3.39
1012.293	3.39
1012.718	-0.71
1013.143	-1.01
1013.567	1.99
1013.992	-5.41
1014.417	-8.71
1014.842	-3.31
1015.267	-11.01
1015.691	-2.01
1016.116	4.19
1016.541	-3.01
1016.965	4.59
1017.39	5.39
1017.814	-1.71
1018.239	-1.91
1018.663	-4.41
1019.088	-6.71
1019.512	-2.21
1019.937	-3.11
1020.361	-8.01
1020.785	-11.71
1021.21	-1.91
1021.634	-7.41
1022.058	0.09
1022.483	1.69
1022.907	-4.21
1023.331	-5.41
1023.755	-5.61
1024.179	0.59
1024.604	-3.81
1025.028	-11.81
1025.452	-3.61
1025.876	3.39
1026.3	2.39
1026.724	-13.31
1027.148	-4.01
1027.572	-7.81
1027.996	-5.51
1028.42	-5.31
1028.843	-4.01
1029.267	-9.71
1029.691	-4.11
1030.115	-8.71
1030.539	-4.61
1030.962	-5.11
1031.386	-8.71
1031.81	-4.41
1032.233	-2.11
1032.657	-3.91
1033.08	-2.81
1033.504	-0.91
1033.927	-1.21
1034.351	-1.31
1034.774	-2.61
1035.198	3.99
1035.621	-7.01
1036.045	-12.81
1036.468	-4.91
1036.891	-10.51
1037.315	-8.41
1037.738	-9.21
1038.161	-3.81
1038.584	-9.41
1039.008	-3.41
1039.431	-5.01
1039.854	-6.11
1040.277	-10.01
1040.7	-5.51
1041.123	-0.31
1041.546	-6.11
1041.969	-6.01
1042.392	-6.31
1042.815	-6.61
1043.238	-0.51
1043.661	3.19
1044.084	-5.81
1044.507	-4.41
1044.93	-7.21
1045.352	-5.31
1045.775	0.99
1046.198	-6.91
1046.621	-3.31
1047.043	4.49
1047.466	4.89
1047.889	-5.01
1048.311	-6.71
1048.734	-1.91
1049.156	-3.41
1049.579	-0.11
1050.001	-8.41
1050.424	2.99
1050.846	-2.21
1051.269	-5.61
1051.691	-4.91
1052.113	-3.01
1052.536	-4.41
1052.958	-6.41
1053.38	-2.81
1053.802	-7.61
1054.225	-0.01
1054.647	-7.51
1055.069	-5.71
1055.491	-1.61
1055.913	-7.31
1056.335	2.59
1056.757	-5.81
1057.179	-9.21
1057.601	-6.91
1058.023	-5.01
1058.445	-7.51
1058.867	-5.11
1059.289	-3.41
1059.711	-11.31
1060.133	-2.91
1060.555	-4.71
1060.976	-7.51
1061.398	-2.71
1061.82	-9.51
1062.241	-6.21
1062.663	-10.21
1063.085	0.69
1063.506	-0.41
1063.928	-4.61
1064.35	-2.01
1064.771	-14.01
1065.193	-1.81
1065.614	-11.91
1066.035	-2.81
1066.457	-5.41
1066.878	-0.51
1067.3	-4.51
1067.721	-6.41
1068.142	-7.21
1068.564	0.09
1068.985	-1.31
1069.406	-7.71
1069.827	-3.51
1070.248	-2.81
1070.67	-7.31
1071.091	-3.61
1071.512	-2.41
1071.933	-5.21
1072.354	-5.71
1072.775	-6.51
1073.196	-9.11
1073.617	-4.81
1074.038	-7.71
1074.459	-8.51
1074.88	-4.41
1075.3	7.09
1075.721	-3.71
1076.142	-0.91
1076.563	-2.21
1076.983	-8.11
1077.404	-2.51
1077.825	-2.71
1078.246	-0.21
1078.666	-9.51
1079.087	-3.51
1079.507	-4.61
1079.928	1.09
1080.348	-6.01
1080.769	-0.11
1081.189	0.99
1081.61	-4.21
1082.03	-7.31
1082.451	-1.81
1082.871	-2.91
1083.291	-7.11
1083.711	-10.71
1084.132	-4.71
1084.552	-4.51
1084.972	-2.51
1085.392	-6.01
1085.813	-12.71
1086.233	-6.81
1086.653	-5.51
1087.073	-0.91
1087.493	-6.11
1087.913	-13.91
1088.333	0.49
1088.753	-6.61
1089.173	-2.81
1089.593	-2.61
1090.013	2.29
1090.433	9.19
1090.852	-4.61
1091.272	0.69
1091.692	-6.91
1092.112	0.79
1092.531	-6.11
1092.951	-11.61
1093.371	0.39
1093.79	1.09
1094.21	-8.81
1094.63	-3.31
1095.049	-0.11
1095.469	-0.71
1095.888	-1.71
1096.308	-1.11
1096.727	4.99
1097.146	-2.31
1097.566	0.79
1097.985	-9.31
1098.405	-2.31
1098.824	-7.31
1099.243	-5.11
1099.662	-10.11
1100.082	-8.31
1100.501	-4.11
1100.92	-7.41
1101.339	0.19
1101.758	-1.41
