Data from 20171114-ORNL-Ar_H_NY_Subt18_08-05-03-755.txt Node
Date: Tue Nov 14 08:05:03 EST 2017
User: Ender
Spectrometer: HR+D1039
Trigger mode: 0
Integration Time (sec): 2.730000E-2
Scans to average: 10
Electric dark correction enabled: true
Nonlinearity correction enabled: false
Boxcar width: 0
XAxis mode: Wavelengths
Number of Pixels in Spectrum: 2048
>>>>>Begin Spectral Data<<<<<
187.836	-5.63
188.309	-5.63
188.782	-5.63
189.255	-2.83
189.728	-0.13
190.201	7.27
190.674	0.27
191.147	4.57
191.619	-8.53
192.092	3.77
192.565	5.37
193.038	0.57
193.511	1.57
193.984	0.67
194.456	0.77
194.929	-3.93
195.402	-4.63
195.874	0.87
196.347	1.67
196.82	-7.33
197.292	2.37
197.765	-8.83
198.237	-5.23
198.71	0.77
199.182	1.47
199.655	5.37
200.127	8.37
200.6	-1.23
201.072	-2.43
201.544	2.87
202.017	-6.33
202.489	3.17
202.961	-3.43
203.433	-2.93
203.906	-3.33
204.378	-8.13
204.85	0.17
205.322	-7.63
205.794	-0.53
206.266	-3.53
206.739	-4.93
207.211	-1.53
207.683	-7.93
208.155	-4.03
208.627	-5.83
209.099	-1.83
209.57	-9.63
210.042	-3.73
210.514	-3.53
210.986	2.07
211.458	-6.73
211.93	-6.53
212.402	3.67
212.873	-7.73
213.345	-12.13
213.817	-15.53
214.288	-2.83
214.76	-9.33
215.232	-0.13
215.703	-2.93
216.175	-4.03
216.646	-5.13
217.118	-6.53
217.589	-3.03
218.061	-2.03
218.532	-3.63
219.004	-3.43
219.475	-1.73
219.946	-6.63
220.418	-4.33
220.889	-0.33
221.36	-5.83
221.832	-5.83
222.303	-9.73
222.774	-1.23
223.245	-13.13
223.717	-4.83
224.188	0.27
224.659	-12.63
225.13	-3.63
225.601	-2.33
226.072	-1.23
226.543	2.77
227.014	-0.93
227.485	-2.53
227.956	-6.33
228.427	-0.93
228.898	1.87
229.369	0.77
229.839	-3.03
230.31	-10.03
230.781	1.97
231.252	-2.43
231.722	0.17
232.193	-0.73
232.664	3.47
233.135	-2.63
233.605	1.67
234.076	-7.63
234.546	3.37
235.017	7.17
235.487	1.87
235.958	0.77
236.428	-2.13
236.899	12.17
237.369	2.57
237.84	-0.63
238.31	12.87
238.78	5.97
239.251	3.57
239.721	-1.23
240.191	0.47
240.662	4.57
241.132	-2.43
241.602	-5.13
242.072	-1.03
242.542	6.87
243.013	1.27
243.483	4.27
243.953	3.77
244.423	-0.43
244.893	-2.73
245.363	6.97
245.833	6.57
246.303	1.37
246.773	8.67
247.243	4.07
247.712	11.27
248.182	7.07
248.652	6.37
249.122	-1.83
249.592	14.57
250.061	24.27
250.531	35.17
251.001	15.67
251.471	28.87
251.94	20.57
252.41	14.97
252.879	2.97
253.349	15.87
253.818	11.57
254.288	5.87
254.757	8.47
255.227	2.47
255.696	4.17
256.166	7.47
256.635	9.77
257.105	10.17
257.574	9.27
258.043	10.37
258.513	12.47
258.982	17.37
259.451	6.27
259.92	15.57
260.389	12.87
260.859	22.27
261.328	12.47
261.797	21.87
262.266	15.87
262.735	11.77
263.204	9.17
263.673	6.67
264.142	10.57
264.611	6.27
265.08	2.67
265.549	-2.23
266.018	14.67
266.487	4.37
266.955	1.87
267.424	3.57
267.893	10.47
268.362	4.07
268.83	1.97
269.299	12.37
269.768	6.37
270.236	13.87
270.705	3.37
271.174	11.27
271.642	8.47
272.111	12.07
272.579	15.97
273.048	30.77
273.516	31.57
273.985	31.77
274.453	28.97
274.922	20.37
275.39	13.07
275.858	6.17
276.327	14.07
276.795	16.77
277.263	16.87
277.731	33.57
278.2	55.87
278.668	65.47
279.136	53.57
279.604	16.57
280.072	15.17
280.54	11.57
281.008	11.97
281.477	14.77
281.945	17.47
282.413	17.57
282.881	20.37
283.348	14.07
283.816	17.27
284.284	10.37
284.752	27.87
285.22	13.57
285.688	15.47
286.156	29.27
286.623	47.37
287.091	56.87
287.559	31.17
288.026	17.47
288.494	15.17
288.962	12.47
289.429	10.67
289.897	19.67
290.364	14.37
290.832	19.67
291.3	10.67
291.767	24.37
292.234	21.47
292.702	17.37
293.169	20.77
293.637	24.77
294.104	20.17
294.571	14.87
295.039	14.77
295.506	12.37
295.973	23.57
296.44	16.47
296.908	23.67
297.375	21.97
297.842	26.87
298.309	20.37
298.776	17.17
299.243	22.77
299.71	16.27
300.177	20.07
300.644	24.37
301.111	21.97
301.578	22.27
302.045	14.47
302.512	21.27
302.979	24.17
303.446	22.37
303.913	20.17
304.379	24.77
304.846	31.37
305.313	31.67
305.78	26.57
306.246	25.57
306.713	27.47
307.18	29.17
307.646	32.27
308.113	32.27
308.579	27.07
309.046	27.77
309.512	25.27
309.979	21.87
310.445	29.27
310.912	27.37
311.378	33.57
311.845	31.07
312.311	34.87
312.777	39.77
313.244	33.27
313.71	37.27
314.176	34.27
314.642	32.37
315.109	32.97
315.575	35.97
316.041	39.17
316.507	35.87
316.973	43.97
317.439	35.67
317.905	39.97
318.371	44.77
318.837	34.47
319.303	37.67
319.769	37.97
320.235	32.27
320.701	35.17
321.167	40.77
321.633	35.57
322.099	43.27
322.564	46.27
323.03	42.37
323.496	38.77
323.962	44.87
324.427	32.97
324.893	39.47
325.359	35.57
325.824	41.27
326.29	42.77
326.755	43.37
327.221	44.07
327.686	39.67
328.152	50.07
328.617	44.37
329.083	47.07
329.548	44.37
330.014	45.87
330.479	38.17
330.944	43.17
331.41	46.57
331.875	49.87
332.34	45.07
332.805	42.87
333.271	49.07
333.736	47.17
334.201	55.37
334.666	56.37
335.131	57.17
335.596	50.27
336.061	53.87
336.526	41.47
336.991	48.37
337.456	54.37
337.921	50.27
338.386	47.27
338.851	39.57
339.316	51.77
339.781	47.57
340.246	58.17
340.711	52.07
341.175	61.17
341.64	46.07
342.105	53.67
342.569	55.17
343.034	60.67
343.499	57.57
343.963	54.87
344.428	63.47
344.893	58.67
345.357	66.67
345.822	60.77
346.286	69.57
346.751	78.47
347.215	69.77
347.679	72.57
348.144	103.07
348.608	89.47
349.073	76.67
349.537	75.07
350.001	76.47
350.465	88.57
350.93	77.97
351.394	81.57
351.858	78.37
352.322	89.17
352.786	76.07
353.25	101.67
353.715	108.77
354.179	97.97
354.643	125.27
355.107	125.17
355.571	105.37
356.035	102.27
356.498	116.67
356.962	122.07
357.426	136.77
357.89	121.27
358.354	90.97
358.818	84.67
359.281	88.07
359.745	84.67
360.209	72.37
360.673	71.47
361.136	78.97
361.6	86.27
362.064	85.77
362.527	88.27
362.991	88.37
363.454	85.17
363.918	80.87
364.381	80.17
364.845	84.57
365.308	85.57
365.772	87.37
366.235	84.97
366.698	87.77
367.162	86.17
367.625	91.57
368.088	94.67
368.552	88.77
369.015	88.27
369.478	94.07
369.941	95.77
370.404	92.67
370.867	105.07
371.331	104.27
371.794	111.47
372.257	113.07
372.72	118.87
373.183	107.47
373.646	104.37
374.109	101.87
374.572	109.17
375.035	102.87
375.497	106.47
375.96	106.97
376.423	103.67
376.886	116.57
377.349	111.87
377.811	105.57
378.274	106.27
378.737	101.57
379.199	111.57
379.662	107.97
380.125	118.57
380.587	116.47
381.05	122.97
381.512	128.27
381.975	132.17
382.437	130.67
382.9	123.17
383.362	133.27
383.825	139.17
384.287	148.57
384.75	137.27
385.212	138.37
385.674	133.77
386.136	141.77
386.599	126.27
387.061	122.67
387.523	123.57
387.985	135.17
388.447	141.47
388.91	145.97
389.372	154.07
389.834	144.27
390.296	147.47
390.758	153.77
391.22	164.17
391.682	208.57
392.144	292.57
392.606	225.97
393.068	158.67
393.529	164.17
393.991	150.57
394.453	137.27
394.915	150.97
395.377	187.67
395.838	213.47
396.3	157.97
396.762	142.27
397.224	127.47
397.685	128.17
398.147	131.67
398.608	128.47
399.07	122.57
399.531	128.57
399.993	139.67
400.454	146.67
400.916	142.47
401.377	136.47
401.839	145.57
402.3	144.07
402.762	161.47
403.223	172.27
403.684	159.57
404.145	158.17
404.607	158.87
405.068	158.47
405.529	166.27
405.99	183.77
406.451	171.77
406.913	170.57
407.374	151.27
407.835	159.27
408.296	159.07
408.757	167.77
409.218	179.57
409.679	174.97
410.14	166.47
410.601	170.87
411.062	180.87
411.522	186.77
411.983	185.77
412.444	172.07
412.905	176.17
413.366	171.17
413.826	187.17
414.287	209.37
414.748	251.97
415.208	236.47
415.669	201.87
416.13	198.47
416.59	193.37
417.051	212.57
417.511	212.97
417.972	230.77
418.432	232.77
418.893	275.57
419.353	236.37
419.814	190.57
420.274	175.57
420.734	171.37
421.195	190.87
421.655	184.07
422.115	194.07
422.576	178.27
423.036	192.07
423.496	191.07
423.956	205.17
424.416	222.47
424.876	249.17
425.336	253.97
425.797	253.87
426.257	242.47
426.717	231.27
427.177	235.07
427.637	214.27
428.097	221.67
428.556	239.67
429.016	259.07
429.476	254.07
429.936	264.37
430.396	274.37
430.856	287.07
431.315	305.47
431.775	341.67
432.235	370.07
432.694	334.57
433.154	344.97
433.614	382.07
434.073	323.37
434.533	274.87
434.993	274.57
435.452	269.87
435.912	281.37
436.371	284.37
436.83	273.07
437.29	256.87
437.749	232.47
438.209	230.67
438.668	266.37
439.127	286.17
439.587	256.97
440.046	238.57
440.505	255.27
440.964	268.07
441.424	318.17
441.883	302.27
442.342	255.67
442.801	217.67
443.26	209.77
443.719	210.67
444.178	205.67
444.637	200.57
445.096	212.67
445.555	210.57
446.014	217.17
446.473	218.97
446.932	227.07
447.391	215.57
447.849	225.37
448.308	211.27
448.767	215.57
449.226	224.37
449.685	227.07
450.143	235.77
450.602	227.07
451.061	215.47
451.519	221.57
451.978	220.87
452.436	223.07
452.895	228.67
453.353	246.97
453.812	223.17
454.27	236.77
454.729	221.67
455.187	237.67
455.646	233.77
456.104	236.67
456.562	252.57
457.021	248.37
457.479	249.47
457.937	271.77
458.395	260.17
458.854	238.37
459.312	245.37
459.77	258.47
460.228	247.67
460.686	238.47
461.144	242.57
461.602	237.17
462.06	231.07
462.518	238.17
462.976	252.37
463.434	251.27
463.892	258.77
464.35	264.27
464.808	276.37
465.266	255.87
465.724	255.97
466.181	262.67
466.639	261.77
467.097	272.87
467.555	291.87
468.012	288.27
468.47	293.67
468.928	314.27
469.385	327.77
469.843	338.07
470.3	336.27
470.758	351.67
471.215	367.17
471.673	395.17
472.13	388.87
472.588	394.27
473.045	354.67
473.503	362.27
473.96	379.47
474.417	387.57
474.875	418.17
475.332	465.07
475.789	444.77
476.246	452.37
476.704	470.97
477.161	489.67
477.618	513.57
478.075	542.27
478.532	592.67
478.989	664.47
479.446	775.17
479.903	746.97
480.36	776.87
480.817	833.27
481.274	947.37
481.731	1051.47
482.188	1124.47
482.645	1277.17
483.102	1385.67
483.558	1515.37
484.015	1557.27
484.472	1543.47
484.929	1495.17
485.385	1436.17
485.842	1399.57
486.299	1342.67
486.755	1267.07
487.212	1071.17
487.668	907.87
488.125	825.27
488.582	753.97
489.038	719.97
489.494	691.67
489.951	662.57
490.407	644.07
490.864	625.97
491.32	620.17
491.776	619.47
492.233	622.57
492.689	588.07
493.145	583.57
493.602	574.27
494.058	584.77
494.514	597.37
494.97	610.07
495.426	626.47
495.882	604.37
496.338	580.77
496.794	609.67
497.251	604.37
497.707	618.87
498.163	616.77
498.618	623.77
499.074	634.97
499.53	649.57
499.986	651.67
500.442	631.97
500.898	605.07
501.354	590.57
501.809	609.97
502.265	620.87
502.721	648.17
503.177	646.07
503.632	638.97
504.088	656.37
504.543	687.97
504.999	679.67
505.455	641.27
505.91	608.47
506.366	608.37
506.821	601.27
507.277	601.17
507.732	601.97
508.187	595.77
508.643	600.57
509.098	606.57
509.553	619.47
510.009	638.47
510.464	648.17
510.919	667.47
511.375	662.37
511.83	674.07
512.285	699.17
512.74	719.87
513.195	756.77
513.65	736.67
514.105	749.57
514.56	740.57
515.015	754.47
515.47	775.37
515.925	761.67
516.38	756.07
516.835	769.27
517.29	756.97
517.745	738.77
518.2	730.47
518.655	718.67
519.109	707.77
519.564	700.97
520.019	699.77
520.474	699.57
520.928	700.57
521.383	685.87
521.838	679.57
522.292	674.87
522.747	681.07
523.201	677.47
523.656	662.37
524.11	659.97
524.565	660.67
525.019	668.97
525.474	674.77
525.928	677.07
526.382	665.97
526.837	675.17
527.291	669.87
527.745	665.57
528.2	671.77
528.654	662.57
529.108	654.67
529.562	660.67
530.016	661.97
530.47	660.87
530.925	658.17
531.379	664.27
531.833	672.57
532.287	671.67
532.741	668.67
533.195	677.57
533.649	679.67
534.103	700.27
534.556	671.07
535.01	686.37
535.464	679.37
535.918	693.47
536.372	694.27
536.826	683.67
537.279	669.87
537.733	675.67
538.187	683.07
538.64	692.47
539.094	692.77
539.548	707.17
540.001	680.67
540.455	686.27
540.908	696.67
541.362	701.37
541.815	708.07
542.269	724.07
542.722	717.57
543.175	738.67
543.629	732.17
544.082	738.87
544.536	750.27
544.989	753.07
545.442	758.07
545.895	751.47
546.349	743.37
546.802	755.37
547.255	760.67
547.708	767.67
548.161	776.07
548.614	785.57
549.067	784.27
549.52	778.97
549.973	778.87
550.426	769.47
550.879	752.17
551.332	750.57
551.785	764.57
552.238	762.27
552.691	781.67
553.144	784.77
553.596	800.87
554.049	802.97
554.502	839.57
554.955	864.87
555.407	858.47
555.86	843.77
556.313	848.77
556.765	833.17
557.218	840.97
557.67	832.17
558.123	833.67
558.576	833.57
559.028	823.97
559.48	836.47
559.933	817.37
560.385	793.37
560.838	762.47
561.29	738.27
561.742	739.47
562.195	725.27
562.647	715.07
563.099	731.27
563.551	725.07
564.004	738.97
564.456	729.37
564.908	726.37
565.36	713.07
565.812	685.97
566.264	688.67
566.716	692.17
567.168	662.27
567.62	681.47
568.072	672.67
568.524	656.17
568.976	643.47
569.428	626.87
569.88	637.97
570.332	631.57
570.784	641.87
571.235	644.77
571.687	645.47
572.139	654.87
572.59	666.07
573.042	670.77
573.494	660.17
573.945	658.67
574.397	641.87
574.849	647.67
575.3	650.57
575.752	653.67
576.203	641.47
576.655	635.57
577.106	632.27
577.557	622.07
578.009	627.57
578.46	623.47
578.912	629.17
579.363	621.17
579.814	626.47
580.265	624.57
580.717	628.17
581.168	621.47
581.619	632.97
582.07	641.37
582.521	629.97
582.972	629.37
583.423	641.07
583.875	631.47
584.326	651.07
584.777	703.97
585.227	779.47
585.678	870.87
586.129	963.37
586.58	1033.37
587.031	1112.67
587.482	1289.77
587.933	1466.67
588.384	1264.67
588.834	934.27
589.285	759.77
589.736	731.37
590.186	714.37
590.637	716.17
591.088	685.47
591.538	680.47
591.989	672.27
592.439	677.87
592.89	661.47
593.34	660.07
593.791	668.47
594.241	650.17
594.692	657.17
595.142	643.27
595.593	643.77
596.043	657.77
596.493	663.47
596.943	661.97
597.394	664.07
597.844	657.17
598.294	670.27
598.744	696.67
599.195	713.27
599.645	749.57
600.095	787.17
600.545	846.37
600.995	893.07
601.445	958.67
601.895	1004.37
602.345	1046.97
602.795	1032.67
603.245	991.17
603.695	928.37
604.145	883.27
604.594	848.77
605.044	792.07
605.494	737.87
605.944	698.57
606.393	687.77
606.843	671.17
607.293	676.07
607.743	671.17
608.192	693.67
608.642	702.77
609.091	701.07
609.541	709.77
609.99	716.87
610.44	709.27
610.889	662.17
611.339	650.07
611.788	638.57
612.238	636.17
612.687	658.07
613.136	665.17
613.586	683.87
614.035	686.67
614.484	701.57
614.933	699.77
615.383	690.47
615.832	682.67
616.281	665.97
616.73	624.47
617.179	612.17
617.628	596.97
618.077	578.87
618.526	567.87
618.975	563.57
619.424	568.47
619.873	565.07
620.322	559.87
620.771	558.17
621.22	553.47
621.669	542.07
622.118	535.77
622.567	526.17
623.015	519.07
623.464	525.67
623.913	510.47
624.361	505.17
624.81	511.17
625.259	503.77
625.707	514.27
626.156	515.27
626.604	528.17
627.053	518.77
627.501	516.77
627.95	521.87
628.398	528.77
628.847	511.97
629.295	518.67
629.744	530.97
630.192	514.17
630.64	520.87
631.089	509.47
631.537	526.67
631.985	531.27
632.433	551.17
632.881	556.57
633.33	609.47
633.778	577.37
634.226	514.17
634.674	520.57
635.122	529.57
635.57	548.27
636.018	570.87
636.466	539.57
636.914	506.07
637.362	518.57
637.81	523.37
638.258	528.27
638.705	525.97
639.153	553.27
639.601	555.27
640.049	571.97
640.497	615.27
640.944	630.47
641.392	587.07
641.84	556.87
642.287	524.17
642.735	514.97
643.182	519.17
643.63	522.87
644.078	522.87
644.525	539.57
644.973	539.47
645.42	554.97
645.867	565.97
646.315	576.07
646.762	598.97
647.21	631.87
647.657	643.97
648.104	684.17
648.551	703.47
648.999	756.57
649.446	837.37
649.893	907.67
650.34	1054.37
650.787	1276.17
651.234	1562.47
651.682	2023.87
652.129	2813.77
652.576	4045.07
653.023	5995.47
653.47	8240.37
653.917	10434.17
654.363	12097.37
654.81	13534.87
655.257	12882.37
655.704	8342.17
656.151	4911.17
656.598	3164.97
657.044	2233.57
657.491	1719.57
657.938	1374.97
658.385	1134.57
658.831	996.57
659.278	880.57
659.724	781.67
660.171	724.07
660.618	663.07
661.064	626.77
661.511	604.77
661.957	585.87
662.404	582.87
662.85	587.67
663.296	559.87
663.743	508.87
664.189	483.07
664.635	487.57
665.082	470.97
665.528	468.87
665.974	468.37
666.42	459.97
666.867	449.17
667.313	436.77
667.759	431.87
668.205	434.97
668.651	440.27
669.097	445.77
669.543	452.67
669.989	425.37
670.435	411.17
670.881	395.77
671.327	411.17
671.773	422.77
672.219	435.67
672.665	484.17
673.11	523.27
673.556	554.37
674.002	602.37
674.448	590.77
674.893	487.47
675.339	422.67
675.785	387.57
676.23	366.87
676.676	356.17
677.122	342.77
677.567	337.27
678.013	326.57
678.458	317.47
678.904	327.67
679.349	313.27
679.794	324.77
680.24	321.67
680.685	321.17
681.131	310.87
681.576	306.77
682.021	315.07
682.466	310.27
682.912	309.27
683.357	318.37
683.802	331.27
684.247	364.37
684.692	406.27
685.137	441.57
685.583	484.27
686.028	505.07
686.473	460.07
686.918	390.07
687.363	372.47
687.807	345.97
688.252	324.97
688.697	309.87
689.142	302.57
689.587	291.57
690.032	281.97
690.477	303.87
690.921	307.77
691.366	341.47
691.811	365.77
692.255	376.57
692.7	409.37
693.145	444.07
693.589	601.97
694.034	983.37
694.478	1342.17
694.923	1535.77
695.367	2037.97
695.812	1064.37
696.256	448.47
696.701	327.47
697.145	302.37
697.59	293.87
698.034	284.47
698.478	293.87
698.922	293.77
699.367	292.47
699.811	307.97
700.255	303.97
700.699	336.47
701.143	380.27
701.588	430.47
702.032	457.27
702.476	452.97
702.92	436.77
703.364	428.27
703.808	548.17
704.252	897.17
704.696	1269.07
705.14	1495.37
705.584	1912.17
706.027	950.27
706.471	465.27
706.915	355.57
707.359	315.87
707.803	288.17
708.246	274.67
708.69	273.17
709.134	275.07
709.577	272.67
710.021	282.27
710.465	274.57
710.908	265.07
711.352	261.17
711.795	269.27
712.239	300.37
712.682	332.27
713.126	362.77
713.569	415.97
714.012	331.67
714.456	285.87
714.899	267.07
715.342	245.67
715.786	236.37
716.229	226.87
716.672	229.17
717.115	223.97
717.558	215.97
718.002	222.97
718.445	232.47
718.888	244.77
719.331	259.27
719.774	271.57
720.217	269.97
720.66	249.77
721.103	241.37
721.546	224.27
721.989	217.57
722.432	208.47
722.874	204.77
723.317	209.37
723.76	205.77
724.203	223.97
724.645	282.67
725.088	391.37
725.531	499.47
725.974	585.87
726.416	494.57
726.859	272.77
727.301	215.87
727.744	212.07
728.187	203.67
728.629	214.87
729.071	211.87
729.514	235.37
729.956	232.77
730.399	244.87
730.841	256.07
731.283	246.97
731.726	233.27
732.168	226.67
732.61	237.37
733.053	250.77
733.495	271.17
733.937	304.67
734.379	348.37
734.821	378.87
735.263	479.47
735.705	714.87
736.148	1343.67
736.59	2249.17
737.032	2743.67
737.474	2218.57
737.916	709.17
738.357	370.87
738.799	290.07
739.241	261.87
739.683	245.67
740.125	253.07
740.567	258.57
741.008	277.17
741.45	272.57
741.892	277.37
742.334	309.07
742.775	318.97
743.217	296.47
743.658	233.27
744.1	219.97
744.542	224.57
744.983	273.27
745.425	306.27
745.866	298.37
746.307	256.27
746.749	244.07
747.19	286.27
747.632	394.37
748.073	743.67
748.514	1602.97
748.956	2510.07
749.397	3134.67
749.838	2597.57
750.279	2648.27
750.72	1333.47
751.162	479.17
751.603	275.47
752.044	219.07
752.485	191.07
752.926	176.27
753.367	177.77
753.808	167.57
754.249	171.67
754.69	166.07
755.131	161.77
755.572	160.47
756.013	155.67
756.453	165.17
756.894	160.27
757.335	170.07
757.776	173.57
758.216	170.37
758.657	171.37
759.098	185.47
759.538	195.27
759.979	228.57
760.42	322.17
760.86	599.97
761.301	1541.37
761.741	3811.77
762.182	5789.87
762.622	4062.37
763.063	1170.37
763.503	478.07
763.943	308.17
764.384	305.77
764.824	372.57
765.264	412.67
765.705	286.17
766.145	190.87
766.585	169.57
767.025	162.37
767.465	166.17
767.906	224.67
768.346	302.27
768.786	314.27
769.226	230.47
769.666	270.87
770.106	527.77
770.546	1332.27
770.986	2341.57
771.426	2120.37
771.866	698.67
772.306	288.27
772.745	180.37
773.185	160.37
773.625	149.17
774.065	143.27
774.505	175.17
774.944	270.87
775.384	620.87
775.824	1156.17
776.263	1150.87
776.703	477.67
777.142	204.37
777.582	144.87
778.021	125.57
778.461	127.07
778.9	123.87
779.34	119.07
779.779	108.17
780.219	95.67
780.658	98.77
781.097	94.17
781.537	99.57
781.976	97.97
782.415	96.87
782.855	90.67
783.294	90.97
783.733	90.27
784.172	96.47
784.611	85.97
785.05	96.07
785.489	99.17
785.928	100.47
786.367	108.47
786.806	104.77
787.245	113.97
787.684	119.07
788.123	140.97
788.562	115.97
789.001	106.77
789.44	108.27
789.879	107.97
790.317	100.77
790.756	108.47
791.195	110.97
791.634	125.37
792.072	180.57
792.511	312.67
792.95	849.47
793.388	1879.67
793.827	1741.67
794.265	598.77
794.704	244.47
795.142	160.47
795.581	136.17
796.019	122.07
796.458	112.87
796.896	111.17
797.334	117.57
797.773	139.67
798.211	189.07
798.649	367.37
799.087	880.27
799.526	1389.07
799.964	1751.67
800.402	1797.07
800.84	666.97
801.278	262.97
801.716	162.57
802.154	132.07
802.592	125.87
803.03	122.57
803.468	115.47
803.906	119.47
804.344	132.87
804.782	126.07
805.22	114.07
805.658	116.67
806.096	129.67
806.533	134.67
806.971	152.17
807.409	185.27
807.847	270.67
808.284	556.27
808.722	1599.87
809.16	2923.37
809.597	2683.47
810.035	4752.27
810.472	5250.47
810.91	1867.17
811.347	707.27
811.785	357.97
812.222	226.97
812.66	169.77
813.097	141.77
813.535	123.97
813.972	112.87
814.409	102.97
814.846	92.27
815.284	100.67
815.721	87.57
816.158	97.77
816.595	105.77
817.032	163.57
817.47	178.57
817.907	147.07
818.344	142.67
818.781	100.67
819.218	91.57
819.655	108.47
820.092	166.37
820.529	196.57
820.966	163.87
821.403	118.17
821.839	98.07
822.276	91.27
822.713	112.27
823.15	116.97
823.587	104.87
824.023	123.57
824.46	255.17
824.897	777.27
825.333	1215.17
825.77	518.17
826.206	201.57
826.643	122.27
827.08	87.87
827.516	70.17
827.953	68.57
828.389	70.57
828.825	63.57
829.262	59.97
829.698	54.17
830.135	51.67
830.571	51.07
831.007	59.57
831.443	53.77
831.88	59.47
832.316	53.07
832.752	53.47
833.188	58.57
833.624	55.87
834.06	61.17
834.497	59.07
834.933	65.07
835.369	63.37
835.805	57.67
836.241	67.97
836.677	65.57
837.112	75.27
837.548	85.97
837.984	102.77
838.42	172.07
838.856	420.17
839.292	1307.57
839.727	2073.27
840.163	953.37
840.599	796.07
841.034	1771.47
841.47	1920.97
841.906	690.37
842.341	290.97
842.777	199.97
843.212	294.17
843.648	300.17
844.083	140.97
844.519	88.17
844.954	67.17
845.39	49.27
845.825	52.37
846.261	50.07
846.696	45.07
847.131	42.67
847.566	48.77
848.002	40.77
848.437	54.37
848.872	49.57
849.307	53.07
849.742	71.27
850.177	152.17
850.613	473.17
851.048	774.87
851.483	338.17
851.918	136.97
852.353	78.67
852.788	54.27
853.223	52.07
853.657	46.67
854.092	42.87
854.527	33.07
854.962	30.57
855.397	42.47
855.832	40.17
856.266	30.87
856.701	35.17
857.136	30.97
857.57	32.57
858.005	43.17
858.44	50.87
858.874	42.47
859.309	49.67
859.743	39.17
860.178	38.87
860.612	39.77
861.047	49.77
861.481	56.57
861.915	57.77
862.35	44.77
862.784	31.37
863.218	32.67
863.653	32.57
864.087	35.67
864.521	48.67
864.955	64.47
865.39	141.67
865.824	153.77
866.258	107.37
866.692	148.37
867.126	157.77
867.56	94.97
867.994	47.47
868.428	34.87
868.862	46.37
869.296	52.87
869.73	50.57
870.164	46.57
870.598	42.57
871.031	28.77
871.465	20.97
871.899	30.17
872.333	18.27
872.766	25.67
873.2	19.77
873.634	26.17
874.067	22.87
874.501	22.57
874.935	28.27
875.368	24.47
875.802	25.87
876.235	24.97
876.669	22.87
877.102	22.27
877.535	24.37
877.969	19.27
878.402	24.07
878.836	17.67
879.269	18.07
879.702	24.37
880.135	13.27
880.569	15.07
881.002	22.57
881.435	20.37
881.868	14.97
882.301	20.17
882.734	15.07
883.167	19.87
883.601	15.07
884.034	24.37
884.467	13.37
884.899	16.27
885.332	16.77
885.765	8.77
886.198	9.97
886.631	16.07
887.064	18.27
887.497	18.57
887.929	21.57
888.362	15.07
888.795	14.87
889.228	13.87
889.66	17.07
890.093	18.37
890.526	18.67
890.958	20.97
891.391	19.47
891.823	22.57
892.256	20.07
892.688	7.57
893.121	15.87
893.553	14.67
893.985	22.87
894.418	13.17
894.85	12.37
895.282	13.87
895.715	14.37
896.147	17.47
896.579	15.27
897.011	11.17
897.444	17.27
897.876	16.07
898.308	16.57
898.74	15.77
899.172	13.17
899.604	18.67
900.036	20.67
900.468	9.47
900.9	17.07
901.332	11.07
901.764	8.37
902.196	11.67
902.628	13.77
903.06	14.07
903.491	32.17
903.923	19.67
904.355	15.77
904.787	22.57
905.218	23.77
905.65	14.87
906.082	8.97
906.513	16.37
906.945	17.77
907.376	11.17
907.808	17.97
908.239	19.17
908.671	17.27
909.102	18.07
909.534	20.37
909.965	38.87
910.397	80.47
910.828	272.17
911.259	426.07
911.691	194.57
912.122	96.97
912.553	46.37
912.984	28.97
913.415	27.97
913.847	18.97
914.278	14.47
914.709	13.77
915.14	20.17
915.571	14.87
916.002	12.27
916.433	24.47
916.864	10.87
917.295	12.37
917.726	16.67
918.157	11.07
918.587	24.87
919.018	19.67
919.449	17.57
919.88	15.77
920.311	24.37
920.741	38.17
921.172	148.27
921.603	134.77
922.033	58.77
922.464	41.97
922.895	13.07
923.325	19.47
923.756	19.37
924.186	11.27
924.617	23.67
925.047	42.97
925.478	55.37
925.908	41.77
926.338	22.77
926.769	13.77
927.199	15.37
927.629	14.77
928.06	16.37
928.49	13.17
928.92	18.77
929.35	4.17
929.78	11.97
930.21	5.27
930.641	10.67
931.071	13.07
931.501	-1.73
931.931	5.57
932.361	6.77
932.791	5.77
933.221	4.47
933.651	4.67
934.08	10.67
934.51	21.67
934.94	7.57
935.37	4.57
935.8	5.57
936.229	3.57
936.659	11.77
937.089	1.47
937.519	6.17
937.948	17.87
938.378	14.27
938.807	8.07
939.237	4.77
939.666	12.97
940.096	-3.03
940.525	3.97
940.955	1.87
941.384	7.77
941.814	-2.63
942.243	-7.13
942.672	4.57
943.102	-6.53
943.531	-5.13
943.96	3.97
944.39	1.97
944.819	8.37
945.248	4.57
945.677	7.97
946.106	4.97
946.535	11.27
946.964	8.07
947.393	0.37
947.822	1.37
948.251	-2.93
948.68	1.87
949.109	2.77
949.538	11.67
949.967	0.17
950.396	-0.33
950.825	2.97
951.254	-2.53
951.682	-4.23
952.111	0.57
952.54	2.37
952.969	-4.03
953.397	-4.13
953.826	-0.03
954.254	-5.73
954.683	0.97
955.112	-7.93
955.54	-1.43
955.969	-3.43
956.397	-1.63
956.826	-5.13
957.254	2.37
957.682	0.77
958.111	5.47
958.539	2.27
958.967	-5.33
959.396	0.07
959.824	3.47
960.252	3.07
960.68	-6.03
961.109	-5.63
961.537	-2.43
961.965	-0.93
962.393	-2.03
962.821	-6.03
963.249	1.57
963.677	6.37
964.105	2.37
964.533	33.07
964.961	32.57
965.389	25.87
965.817	8.67
966.245	8.47
966.672	-2.83
967.1	-10.53
967.528	-2.83
967.956	-1.13
968.383	-1.43
968.811	-1.83
969.239	1.37
969.666	-1.63
970.094	-1.33
970.522	3.47
970.949	-1.43
971.377	-2.63
971.804	-6.13
972.232	4.07
972.659	-3.03
973.087	-0.13
973.514	-0.73
973.941	-6.73
974.369	7.17
974.796	3.07
975.223	-1.23
975.651	5.07
976.078	-0.73
976.505	2.47
976.932	0.67
977.359	11.37
977.786	10.67
978.214	2.47
978.641	-4.73
979.068	-7.43
979.495	-2.63
979.922	0.87
980.349	-3.63
980.776	6.47
981.202	1.47
981.629	5.07
982.056	1.47
982.483	0.17
982.91	7.67
983.337	-8.43
983.763	-0.43
984.19	-7.33
984.617	-9.33
985.043	-5.93
985.47	-0.63
985.897	-4.83
986.323	-9.33
986.75	5.77
987.176	-1.33
987.603	-2.23
988.029	0.57
988.456	-3.93
988.882	-1.53
989.308	-12.63
989.735	-3.53
990.161	2.57
990.587	-3.93
991.014	-3.63
991.44	13.17
991.866	0.37
992.292	-4.03
992.719	-3.73
993.145	0.97
993.571	-0.83
993.997	-3.83
994.423	3.57
994.849	0.97
995.275	2.07
995.701	1.57
996.127	-5.93
996.553	-0.93
996.979	-1.93
997.405	-3.13
997.83	-7.93
998.256	-5.63
998.682	-6.33
999.108	-8.03
999.534	-0.73
999.959	2.57
1000.385	3.17
1000.811	4.17
1001.236	-6.13
1001.662	-5.43
1002.087	-5.33
1002.513	0.67
1002.938	3.27
1003.364	-1.93
1003.789	-5.03
1004.215	-1.63
1004.64	-3.33
1005.066	4.07
1005.491	2.77
1005.916	0.67
1006.342	-1.83
1006.767	-13.93
1007.192	3.67
1007.617	-8.43
1008.042	-5.73
1008.468	-5.83
1008.893	-5.33
1009.318	-0.83
1009.743	0.17
1010.168	1.97
1010.593	3.27
1011.018	-7.83
1011.443	-3.03
1011.868	6.77
1012.293	2.67
1012.718	-9.23
1013.143	0.77
1013.567	0.77
1013.992	-1.03
1014.417	-14.23
1014.842	5.67
1015.267	-2.23
1015.691	-4.03
1016.116	0.97
1016.541	3.67
1016.965	2.77
1017.39	6.77
1017.814	1.77
1018.239	-3.83
1018.663	-8.33
1019.088	-10.43
1019.512	-2.83
1019.937	-5.93
1020.361	-5.03
1020.785	-7.63
1021.21	-3.93
1021.634	-2.03
1022.058	-0.73
1022.483	9.27
1022.907	-7.03
1023.331	-7.13
1023.755	-5.33
1024.179	-0.93
1024.604	-6.83
1025.028	-9.33
1025.452	-3.33
1025.876	1.97
1026.3	0.87
1026.724	-13.63
1027.148	-3.23
1027.572	-6.43
1027.996	-4.03
1028.42	-12.23
1028.843	-3.93
1029.267	-4.93
1029.691	-3.53
1030.115	-6.63
1030.539	-9.43
1030.962	-6.13
1031.386	-11.83
1031.81	0.97
1032.233	0.57
1032.657	-3.73
1033.08	2.47
1033.504	-2.73
1033.927	-2.73
1034.351	-4.83
1034.774	-2.13
1035.198	-2.03
1035.621	-3.63
1036.045	-8.63
1036.468	0.27
1036.891	-8.93
1037.315	-11.73
1037.738	-8.63
1038.161	1.47
1038.584	-3.33
1039.008	-2.93
1039.431	-5.53
1039.854	-2.63
1040.277	-7.73
1040.7	-9.13
1041.123	-1.63
1041.546	-8.43
1041.969	-4.13
1042.392	-8.93
1042.815	-3.43
1043.238	1.87
1043.661	8.47
1044.084	-6.23
1044.507	-2.03
1044.93	-6.63
1045.352	-5.53
1045.775	0.67
1046.198	2.57
1046.621	-2.43
1047.043	0.07
1047.466	4.47
1047.889	1.77
1048.311	-6.73
1048.734	-2.53
1049.156	-7.33
1049.579	-0.93
1050.001	1.27
1050.424	-1.63
1050.846	-6.33
1051.269	-5.93
1051.691	-5.63
1052.113	-5.23
1052.536	1.57
1052.958	-5.83
1053.38	-2.23
1053.802	-6.73
1054.225	-1.83
1054.647	-8.53
1055.069	-3.53
1055.491	-0.03
1055.913	-7.43
1056.335	0.77
1056.757	-3.33
1057.179	-7.83
1057.601	-6.73
1058.023	-1.63
1058.445	-0.03
1058.867	-1.73
1059.289	3.67
1059.711	-7.13
1060.133	0.67
1060.555	-0.73
1060.976	-9.53
1061.398	-2.73
1061.82	-6.43
1062.241	-6.73
1062.663	-7.53
1063.085	-7.03
1063.506	3.97
1063.928	-1.73
1064.35	1.27
1064.771	-11.43
1065.193	3.87
1065.614	-4.53
1066.035	-1.63
1066.457	-3.23
1066.878	2.47
1067.3	-8.13
1067.721	-5.03
1068.142	-6.43
1068.564	-2.83
1068.985	-4.23
1069.406	-8.33
1069.827	-5.13
1070.248	-1.83
1070.67	-5.73
1071.091	-6.73
1071.512	-4.43
1071.933	-8.03
1072.354	-7.23
1072.775	-10.33
1073.196	-11.23
1073.617	1.07
1074.038	-10.03
1074.459	4.17
1074.88	-7.73
1075.3	-0.43
1075.721	-4.23
1076.142	2.07
1076.563	-6.43
1076.983	-11.63
1077.404	-5.03
1077.825	-8.23
1078.246	-6.53
1078.666	-8.43
1079.087	-2.73
1079.507	-8.23
1079.928	-1.13
1080.348	0.27
1080.769	-4.53
1081.189	1.77
1081.61	-4.43
1082.03	-5.63
1082.451	-8.53
1082.871	-5.13
1083.291	-6.43
1083.711	-7.73
1084.132	-8.83
1084.552	-10.73
1084.972	-0.43
1085.392	-13.53
1085.813	-10.23
1086.233	-5.03
1086.653	-6.63
1087.073	-1.53
1087.493	-6.03
1087.913	-8.03
1088.333	-11.53
1088.753	-3.53
1089.173	2.07
1089.593	-1.73
1090.013	-1.93
1090.433	-2.23
1090.852	-5.43
1091.272	-7.83
1091.692	-3.43
1092.112	-4.23
1092.531	-9.93
1092.951	-15.53
1093.371	-4.83
1093.79	0.07
1094.21	-0.83
1094.63	-2.63
1095.049	-1.43
1095.469	-2.13
1095.888	-0.93
1096.308	1.87
1096.727	3.07
1097.146	-7.53
1097.566	1.87
1097.985	-7.63
1098.405	-2.73
1098.824	-3.93
1099.243	-4.33
1099.662	-9.13
1100.082	-3.93
1100.501	1.07
1100.92	-5.93
1101.339	-3.63
1101.758	-6.83
