Data from 20171114-ORNL-Ar_H_NY_Subt18_08-06-38-477.txt Node
Date: Tue Nov 14 08:06:38 EST 2017
User: Ender
Spectrometer: HR+D1039
Trigger mode: 0
Integration Time (sec): 2.730000E-2
Scans to average: 10
Electric dark correction enabled: true
Nonlinearity correction enabled: false
Boxcar width: 0
XAxis mode: Wavelengths
Number of Pixels in Spectrum: 2048
>>>>>Begin Spectral Data<<<<<
187.836	-1.52
188.309	-1.52
188.782	-1.52
189.255	0.78
189.728	-3.62
190.201	-1.32
190.674	4.28
191.147	2.68
191.619	-10.32
192.092	2.78
192.565	4.88
193.038	-1.72
193.511	-2.42
193.984	0.68
194.456	-3.72
194.929	4.78
195.402	-2.22
195.874	5.98
196.347	-4.12
196.82	-5.22
197.292	0.98
197.765	2.88
198.237	-6.62
198.71	0.98
199.182	-1.12
199.655	2.88
200.127	0.98
200.6	-1.72
201.072	4.78
201.544	-5.92
202.017	-4.32
202.489	4.88
202.961	-1.32
203.433	1.58
203.906	-10.82
204.378	-6.62
204.85	-1.42
205.322	-7.02
205.794	-0.72
206.266	2.38
206.739	-7.62
207.211	1.28
207.683	-7.02
208.155	0.38
208.627	-5.52
209.099	-4.92
209.57	-8.02
210.042	-4.52
210.514	-6.52
210.986	-5.12
211.458	-15.42
211.93	-3.52
212.402	-0.62
212.873	-4.82
213.345	-8.02
213.817	-7.82
214.288	4.48
214.76	-2.62
215.232	0.78
215.703	-2.92
216.175	-4.02
216.646	-5.42
217.118	-8.32
217.589	-3.72
218.061	-0.92
218.532	-9.02
219.004	1.48
219.475	-6.22
219.946	-0.62
220.418	-6.32
220.889	-2.82
221.36	-0.82
221.832	-8.62
222.303	-4.82
222.774	-6.92
223.245	-5.72
223.717	-8.12
224.188	-1.92
224.659	-10.82
225.13	-11.82
225.601	-1.52
226.072	0.28
226.543	-0.22
227.014	-1.42
227.485	4.38
227.956	-3.72
228.427	-2.22
228.898	2.98
229.369	4.98
229.839	-0.82
230.31	-6.82
230.781	3.08
231.252	-2.02
231.722	-1.52
232.193	-3.42
232.664	-1.72
233.135	0.78
233.605	-3.82
234.076	-0.82
234.546	-2.92
235.017	-0.12
235.487	1.28
235.958	-3.42
236.428	-8.22
236.899	-0.42
237.369	7.08
237.84	-8.62
238.31	4.98
238.78	-1.42
239.251	-9.52
239.721	-4.52
240.191	1.58
240.662	0.88
241.132	1.68
241.602	-6.42
242.072	6.98
242.542	11.18
243.013	-2.52
243.483	3.48
243.953	0.18
244.423	-4.62
244.893	-7.92
245.363	8.18
245.833	-3.62
246.303	-1.92
246.773	-1.82
247.243	0.28
247.712	-0.22
248.182	3.08
248.652	6.28
249.122	-5.92
249.592	2.28
250.061	7.08
250.531	14.78
251.001	-4.92
251.471	10.98
251.94	9.78
252.41	3.68
252.879	1.08
253.349	11.18
253.818	6.08
254.288	2.58
254.757	1.58
255.227	3.08
255.696	-2.02
256.166	4.08
256.635	5.88
257.105	7.18
257.574	-1.52
258.043	8.78
258.513	-1.12
258.982	4.48
259.451	6.58
259.92	5.78
260.389	5.28
260.859	13.68
261.328	5.88
261.797	6.98
262.266	1.98
262.735	11.48
263.204	6.28
263.673	4.98
264.142	7.18
264.611	3.28
265.08	-5.62
265.549	4.88
266.018	7.38
266.487	-0.72
266.955	-4.32
267.424	1.58
267.893	1.58
268.362	-3.12
268.83	5.38
269.299	12.98
269.768	5.18
270.236	6.18
270.705	1.98
271.174	8.68
271.642	6.78
272.111	7.68
272.579	7.18
273.048	8.38
273.516	6.68
273.985	7.98
274.453	17.58
274.922	19.78
275.39	6.48
275.858	9.28
276.327	10.68
276.795	15.48
277.263	3.28
277.731	19.38
278.2	22.38
278.668	17.98
279.136	18.28
279.604	8.78
280.072	14.98
280.54	10.48
281.008	12.58
281.477	14.88
281.945	16.18
282.413	16.58
282.881	17.78
283.348	8.98
283.816	15.18
284.284	12.08
284.752	21.18
285.22	13.18
285.688	14.28
286.156	9.78
286.623	23.58
287.091	13.28
287.559	14.68
288.026	15.68
288.494	18.28
288.962	2.98
289.429	14.58
289.897	23.48
290.364	13.78
290.832	18.88
291.3	22.48
291.767	20.88
292.234	22.28
292.702	16.68
293.169	24.08
293.637	24.68
294.104	20.78
294.571	12.38
295.039	5.18
295.506	18.18
295.973	22.38
296.44	15.88
296.908	25.78
297.375	12.98
297.842	22.68
298.309	11.58
298.776	14.58
299.243	20.08
299.71	19.28
300.177	22.28
300.644	17.08
301.111	21.28
301.578	27.28
302.045	16.58
302.512	27.68
302.979	28.48
303.446	24.88
303.913	23.18
304.379	28.08
304.846	30.78
305.313	20.58
305.78	18.08
306.246	24.68
306.713	24.68
307.18	29.38
307.646	26.28
308.113	30.78
308.579	24.88
309.046	24.28
309.512	30.38
309.979	20.28
310.445	29.38
310.912	24.88
311.378	33.38
311.845	30.18
312.311	32.88
312.777	35.18
313.244	32.28
313.71	38.08
314.176	32.48
314.642	28.38
315.109	30.58
315.575	38.18
316.041	41.68
316.507	28.48
316.973	38.88
317.439	36.98
317.905	35.48
318.371	33.88
318.837	37.28
319.303	31.88
319.769	34.98
320.235	35.98
320.701	35.28
321.167	41.48
321.633	30.58
322.099	41.98
322.564	35.18
323.03	41.88
323.496	40.48
323.962	43.58
324.427	38.48
324.893	49.58
325.359	39.28
325.824	36.28
326.29	41.28
326.755	42.68
327.221	40.78
327.686	42.18
328.152	51.08
328.617	48.88
329.083	47.48
329.548	52.58
330.014	46.98
330.479	44.38
330.944	42.78
331.41	50.88
331.875	46.58
332.34	45.48
332.805	47.98
333.271	45.48
333.736	46.38
334.201	56.88
334.666	55.08
335.131	45.98
335.596	50.48
336.061	45.78
336.526	52.18
336.991	49.28
337.456	53.88
337.921	51.08
338.386	45.68
338.851	49.18
339.316	48.68
339.781	46.78
340.246	51.38
340.711	47.18
341.175	47.38
341.64	48.58
342.105	51.08
342.569	55.08
343.034	64.58
343.499	60.18
343.963	53.98
344.428	61.88
344.893	69.38
345.357	66.28
345.822	67.88
346.286	78.28
346.751	77.38
347.215	77.58
347.679	77.28
348.144	103.88
348.608	84.88
349.073	77.18
349.537	81.88
350.001	91.88
350.465	90.48
350.93	85.28
351.394	92.68
351.858	82.68
352.322	97.88
352.786	93.28
353.25	108.08
353.715	119.48
354.179	105.28
354.643	127.08
355.107	128.18
355.571	102.58
356.035	106.78
356.498	113.68
356.962	121.58
357.426	132.38
357.89	119.18
358.354	90.58
358.818	84.98
359.281	80.88
359.745	80.28
360.209	80.98
360.673	77.68
361.136	84.28
361.6	92.38
362.064	85.48
362.527	87.38
362.991	95.48
363.454	85.28
363.918	84.78
364.381	82.68
364.845	91.78
365.308	97.48
365.772	91.78
366.235	89.88
366.698	94.88
367.162	95.18
367.625	97.08
368.088	98.08
368.552	93.48
369.015	95.98
369.478	97.08
369.941	109.08
370.404	104.38
370.867	109.38
371.331	110.98
371.794	118.18
372.257	108.68
372.72	116.78
373.183	108.18
373.646	100.88
374.109	106.98
374.572	105.68
375.035	113.08
375.497	117.58
375.96	108.68
376.423	110.88
376.886	119.68
377.349	121.18
377.811	109.98
378.274	112.88
378.737	112.48
379.199	117.18
379.662	116.28
380.125	118.38
380.587	106.98
381.05	118.08
381.512	124.68
381.975	133.88
382.437	130.98
382.9	128.28
383.362	134.28
383.825	140.28
384.287	140.18
384.75	123.58
385.212	130.98
385.674	137.18
386.136	136.18
386.599	131.88
387.061	133.28
387.523	130.08
387.985	136.58
388.447	145.78
388.91	142.98
389.372	142.18
389.834	140.08
390.296	136.68
390.758	138.68
391.22	150.58
391.682	169.78
392.144	190.28
392.606	172.28
393.068	157.58
393.529	162.48
393.991	160.18
394.453	147.28
394.915	145.68
395.377	151.38
395.838	153.88
396.3	142.58
396.762	149.58
397.224	143.78
397.685	137.88
398.147	141.38
398.608	138.68
399.07	141.88
399.531	141.48
399.993	159.88
400.454	169.98
400.916	162.58
401.377	154.78
401.839	160.58
402.3	164.88
402.762	178.68
403.223	193.48
403.684	186.78
404.145	176.18
404.607	178.28
405.068	173.68
405.529	180.68
405.99	204.18
406.451	184.78
406.913	183.18
407.374	177.58
407.835	168.58
408.296	178.38
408.757	185.18
409.218	204.38
409.679	198.68
410.14	185.58
410.601	183.98
411.062	193.48
411.522	198.88
411.983	188.78
412.444	190.88
412.905	200.08
413.366	203.48
413.826	210.68
414.287	240.98
414.748	288.78
415.208	270.18
415.669	233.48
416.13	227.88
416.59	223.18
417.051	236.48
417.511	239.28
417.972	259.98
418.432	273.48
418.893	313.58
419.353	277.58
419.814	228.38
420.274	198.18
420.734	196.98
421.195	207.48
421.655	209.88
422.115	212.78
422.576	210.28
423.036	216.08
423.496	227.28
423.956	240.78
424.416	246.48
424.876	287.38
425.336	289.78
425.797	285.58
426.257	279.28
426.717	257.68
427.177	253.38
427.637	235.68
428.097	255.98
428.556	264.38
429.016	294.18
429.476	277.68
429.936	289.38
430.396	305.38
430.856	311.98
431.315	334.18
431.775	383.38
432.235	401.68
432.694	372.08
433.154	385.08
433.614	414.18
434.073	360.98
434.533	300.38
434.993	292.48
435.452	305.68
435.912	309.28
436.371	313.98
436.83	300.28
437.29	283.18
437.749	270.08
438.209	268.28
438.668	298.88
439.127	315.48
439.587	288.48
440.046	276.28
440.505	281.78
440.964	302.78
441.424	347.58
441.883	344.48
442.342	288.98
442.801	250.08
443.26	243.78
443.719	244.98
444.178	240.28
444.637	234.38
445.096	244.98
445.555	247.68
446.014	249.08
446.473	253.78
446.932	254.18
447.391	247.38
447.849	249.88
448.308	242.08
448.767	254.38
449.226	257.88
449.685	265.38
450.143	279.98
450.602	260.08
451.061	255.98
451.519	266.18
451.978	261.88
452.436	263.08
452.895	265.38
453.353	277.58
453.812	267.18
454.27	261.28
454.729	263.88
455.187	262.68
455.646	264.08
456.104	273.48
456.562	291.18
457.021	296.98
457.479	281.78
457.937	301.48
458.395	296.88
458.854	274.08
459.312	282.48
459.77	300.58
460.228	285.58
460.686	274.18
461.144	277.38
461.602	269.18
462.06	277.98
462.518	284.18
462.976	281.68
463.434	285.38
463.892	293.18
464.35	305.48
464.808	323.28
465.266	291.88
465.724	295.28
466.181	301.38
466.639	296.98
467.097	326.28
467.555	335.98
468.012	334.68
468.47	340.58
468.928	363.48
469.385	380.28
469.843	378.88
470.3	376.28
470.758	403.58
471.215	424.78
471.673	448.88
472.13	444.88
472.588	463.48
473.045	410.78
473.503	416.28
473.96	436.78
474.417	441.58
474.875	484.38
475.332	516.68
475.789	498.98
476.246	519.08
476.704	530.88
477.161	553.58
477.618	572.48
478.075	614.38
478.532	665.28
478.989	742.68
479.446	862.78
479.903	813.58
480.36	851.28
480.817	903.48
481.274	996.98
481.731	1103.38
482.188	1187.98
482.645	1304.48
483.102	1412.28
483.558	1527.98
484.015	1576.08
484.472	1541.88
484.929	1500.48
485.385	1469.68
485.842	1426.68
486.299	1379.48
486.755	1341.08
487.212	1146.38
487.668	967.28
488.125	903.18
488.582	835.78
489.038	806.48
489.494	770.48
489.951	739.68
490.407	720.68
490.864	705.68
491.32	703.48
491.776	702.48
492.233	706.78
492.689	671.18
493.145	661.18
493.602	659.48
494.058	667.48
494.514	672.58
494.97	692.68
495.426	710.18
495.882	686.38
496.338	670.08
496.794	678.48
497.251	668.48
497.707	695.68
498.163	698.28
498.618	698.08
499.074	702.98
499.53	727.68
499.986	731.98
500.442	708.68
500.898	685.98
501.354	676.38
501.809	683.78
502.265	680.58
502.721	690.68
503.177	700.38
503.632	705.78
504.088	703.98
504.543	731.68
504.999	758.68
505.455	720.88
505.91	700.28
506.366	697.98
506.821	697.98
507.277	687.28
507.732	690.48
508.187	694.38
508.643	694.18
509.098	705.18
509.553	727.38
510.009	739.28
510.464	736.48
510.919	752.98
511.375	762.48
511.83	783.38
512.285	787.68
512.74	829.18
513.195	859.08
513.65	838.48
514.105	836.38
514.56	846.68
515.015	863.08
515.47	878.48
515.925	863.18
516.38	863.28
516.835	866.58
517.29	850.38
517.745	856.58
518.2	847.28
518.655	827.68
519.109	820.88
519.564	817.08
520.019	804.58
520.474	792.28
520.928	795.68
521.383	797.48
521.838	785.18
522.292	779.38
522.747	782.48
523.201	771.78
523.656	762.68
524.11	761.78
524.565	772.58
525.019	766.88
525.474	762.08
525.928	766.48
526.382	762.28
526.837	758.48
527.291	762.38
527.745	766.88
528.2	758.68
528.654	764.08
529.108	749.38
529.562	756.98
530.016	755.38
530.47	763.58
530.925	764.68
531.379	754.58
531.833	761.18
532.287	765.88
532.741	769.18
533.195	774.78
533.649	779.68
534.103	796.08
534.556	771.28
535.01	779.88
535.464	778.78
535.918	787.68
536.372	777.18
536.826	778.38
537.279	770.38
537.733	781.48
538.187	782.08
538.64	786.88
539.094	795.18
539.548	795.78
540.001	798.78
540.455	801.38
540.908	792.08
541.362	809.28
541.815	820.98
542.269	840.18
542.722	831.48
543.175	846.18
543.629	851.38
544.082	863.78
544.536	861.58
544.989	858.18
545.442	878.38
545.895	876.68
546.349	874.28
546.802	867.88
547.255	873.48
547.708	886.38
548.161	894.98
548.614	899.88
549.067	909.18
549.52	896.08
549.973	894.88
550.426	903.98
550.879	888.08
551.332	885.58
551.785	884.48
552.238	886.08
552.691	904.38
553.144	913.38
553.596	930.08
554.049	939.38
554.502	973.68
554.955	996.58
555.407	987.68
555.86	988.28
556.313	982.98
556.765	976.38
557.218	970.18
557.67	962.78
558.123	958.18
558.576	959.98
559.028	961.98
559.48	963.98
559.933	959.28
560.385	925.98
560.838	891.58
561.29	868.78
561.742	865.18
562.195	847.78
562.647	842.98
563.099	851.88
563.551	849.78
564.004	854.58
564.456	835.48
564.908	837.58
565.36	807.98
565.812	789.18
566.264	786.28
566.716	782.58
567.168	764.98
567.62	771.38
568.072	755.28
568.524	757.08
568.976	743.68
569.428	740.58
569.88	745.58
570.332	747.18
570.784	741.08
571.235	738.98
571.687	763.28
572.139	778.28
572.59	787.38
573.042	783.88
573.494	780.78
573.945	785.98
574.397	751.48
574.849	762.98
575.3	760.58
575.752	740.58
576.203	740.78
576.655	748.38
577.106	735.08
577.557	733.08
578.009	731.08
578.46	717.68
578.912	720.98
579.363	728.58
579.814	736.38
580.265	725.78
580.717	732.38
581.168	734.78
581.619	736.38
582.07	738.48
582.521	731.98
582.972	734.08
583.423	740.18
583.875	736.88
584.326	746.68
584.777	762.38
585.227	800.38
585.678	821.48
586.129	842.08
586.58	881.58
587.031	921.58
587.482	968.98
587.933	1008.38
588.384	956.38
588.834	879.58
589.285	849.28
589.736	838.48
590.186	843.18
590.637	844.28
591.088	807.38
591.538	802.58
591.989	790.98
592.439	788.48
592.89	781.68
593.34	761.58
593.791	773.78
594.241	765.58
594.692	762.38
595.142	767.08
595.593	759.98
596.043	764.58
596.493	766.18
596.943	774.68
597.394	786.68
597.844	788.38
598.294	801.68
598.744	817.78
599.195	844.98
599.645	885.88
600.095	931.68
600.545	989.08
600.995	1047.28
601.445	1108.58
601.895	1166.88
602.345	1233.98
602.795	1212.68
603.245	1152.98
603.695	1103.08
604.145	1036.68
604.594	999.38
605.044	935.58
605.494	882.88
605.944	817.98
606.393	815.98
606.843	785.98
607.293	787.38
607.743	785.28
608.192	804.28
608.642	810.98
609.091	811.68
609.541	826.28
609.99	821.38
610.44	830.88
610.889	772.18
611.339	759.98
611.788	732.48
612.238	745.08
612.687	752.48
613.136	750.08
613.586	773.28
614.035	762.08
614.484	773.38
614.933	764.78
615.383	762.48
615.832	770.98
616.281	762.18
616.73	723.58
617.179	698.38
617.628	690.48
618.077	679.08
618.526	672.38
618.975	670.88
619.424	668.68
619.873	667.88
620.322	663.08
620.771	654.78
621.22	652.18
621.669	642.48
622.118	636.38
622.567	630.48
623.015	620.78
623.464	617.38
623.913	601.18
624.361	602.48
624.81	596.08
625.259	597.58
625.707	602.68
626.156	601.78
626.604	606.98
627.053	603.18
627.501	616.38
627.95	617.88
628.398	631.28
628.847	621.98
629.295	617.58
629.744	620.08
630.192	605.38
630.64	610.48
631.089	594.58
631.537	584.38
631.985	577.28
632.433	588.08
632.881	577.68
633.33	591.68
633.778	580.58
634.226	568.38
634.674	583.68
635.122	590.68
635.57	597.58
636.018	609.58
636.466	609.88
636.914	598.38
637.362	613.38
637.81	619.88
638.258	628.18
638.705	619.98
639.153	648.88
639.601	663.18
640.049	692.08
640.497	721.08
640.944	743.18
641.392	694.98
641.84	666.38
642.287	629.68
642.735	609.18
643.182	608.08
643.63	605.58
644.078	605.58
644.525	618.58
644.973	622.28
645.42	637.98
645.867	658.18
646.315	679.68
646.762	699.08
647.21	727.08
647.657	751.38
648.104	788.18
648.551	809.38
648.999	872.08
649.446	949.38
649.893	1035.28
650.34	1178.98
650.787	1412.08
651.234	1724.78
651.682	2226.08
652.129	3019.58
652.576	4271.38
653.023	6266.08
653.47	8474.68
653.917	10502.38
654.363	12161.98
654.81	13364.28
655.257	12702.38
655.704	8416.98
656.151	5080.88
656.598	3339.68
657.044	2402.38
657.491	1858.38
657.938	1490.88
658.385	1267.18
658.831	1102.88
659.278	983.98
659.724	889.68
660.171	826.38
660.618	744.88
661.064	725.98
661.511	702.58
661.957	691.08
662.404	676.28
662.85	688.58
663.296	654.08
663.743	597.58
664.189	572.18
664.635	570.38
665.082	567.68
665.528	562.58
665.974	558.48
666.42	549.88
666.867	542.88
667.313	520.18
667.759	494.08
668.205	483.98
668.651	487.08
669.097	480.18
669.543	481.08
669.989	482.58
670.435	478.38
670.881	473.38
671.327	479.28
671.773	500.58
672.219	521.28
672.665	588.28
673.11	630.48
673.556	677.18
674.002	723.68
674.448	707.28
674.893	585.48
675.339	512.88
675.785	472.98
676.23	452.28
676.676	424.88
677.122	412.58
677.567	400.98
678.013	397.88
678.458	390.18
678.904	387.58
679.349	381.88
679.794	378.18
680.24	381.28
680.685	375.78
681.131	372.78
681.576	379.78
682.021	380.88
682.466	373.98
682.912	379.38
683.357	379.68
683.802	412.98
684.247	439.58
684.692	491.18
685.137	534.48
685.583	576.38
686.028	602.98
686.473	560.38
686.918	484.38
687.363	446.88
687.807	421.78
688.252	392.38
688.697	382.08
689.142	355.48
689.587	359.58
690.032	348.78
690.477	372.78
690.921	383.28
691.366	412.48
691.811	424.98
692.255	463.18
692.7	495.48
693.145	541.88
693.589	746.28
694.034	1227.88
694.478	1648.98
694.923	1882.18
695.367	2460.68
695.812	1294.08
696.256	542.18
696.701	398.58
697.145	369.28
697.59	358.18
698.034	341.38
698.478	353.78
698.922	354.28
699.367	350.88
699.811	351.78
700.255	377.08
700.699	410.48
701.143	449.08
701.588	501.68
702.032	541.38
702.476	557.38
702.92	527.58
703.364	534.08
703.808	680.58
704.252	1105.78
704.696	1565.78
705.14	1811.18
705.584	2304.48
706.027	1142.38
706.471	565.98
706.915	429.98
707.359	384.98
707.803	345.48
708.246	337.28
708.69	339.98
709.134	327.28
709.577	335.28
710.021	345.98
710.465	320.58
710.908	322.78
711.352	327.08
711.795	330.78
712.239	373.88
712.682	420.68
713.126	440.48
713.569	493.58
714.012	386.78
714.456	331.68
714.899	308.48
715.342	298.58
715.786	279.58
716.229	273.88
716.672	280.28
717.115	274.38
717.558	271.78
718.002	270.88
718.445	285.38
718.888	303.68
719.331	309.28
719.774	335.18
720.217	321.98
720.66	312.28
721.103	283.18
721.546	271.08
721.989	263.18
722.432	251.08
722.874	258.48
723.317	241.58
723.76	257.18
724.203	272.48
724.645	341.88
725.088	470.38
725.531	617.78
725.974	689.78
726.416	595.98
726.859	326.88
727.301	261.18
727.744	246.98
728.187	251.38
728.629	251.18
729.071	264.98
729.514	281.78
729.956	294.98
730.399	304.78
730.841	311.18
731.283	291.98
731.726	290.38
732.168	281.48
732.61	282.88
733.053	313.28
733.495	337.98
733.937	382.88
734.379	425.28
734.821	470.38
735.263	582.98
735.705	907.28
736.148	1694.68
736.59	2795.68
737.032	3312.28
737.474	2672.18
737.916	879.68
738.357	467.68
738.799	353.98
739.241	324.38
739.683	306.58
740.125	309.28
740.567	326.78
741.008	342.18
741.45	336.08
741.892	336.78
742.334	375.88
742.775	385.48
743.217	374.98
743.658	293.88
744.1	279.88
744.542	284.48
744.983	342.18
745.425	384.58
745.866	377.78
746.307	296.18
746.749	296.98
747.19	356.08
747.632	483.08
748.073	938.78
748.514	2006.58
748.956	3089.78
749.397	3860.48
749.838	3226.48
750.279	3209.58
750.72	1641.28
751.162	597.98
751.603	352.38
752.044	272.48
752.485	236.58
752.926	228.98
753.367	213.48
753.808	205.58
754.249	213.28
754.69	196.48
755.131	194.68
755.572	200.18
756.013	200.78
756.453	200.28
756.894	202.18
757.335	204.68
757.776	209.48
758.216	215.08
758.657	215.18
759.098	222.88
759.538	242.08
759.979	293.58
760.42	402.28
760.86	761.38
761.301	1967.78
761.741	4768.28
762.182	6923.88
762.622	4901.68
763.063	1414.18
763.503	586.38
763.943	363.58
764.384	305.88
764.824	300.18
765.264	296.48
765.705	238.88
766.145	211.88
766.585	195.38
767.025	186.58
767.465	177.28
767.906	208.58
768.346	237.98
768.786	246.38
769.226	241.78
769.666	345.68
770.106	664.98
770.546	1669.68
770.986	2837.98
771.426	2546.38
771.866	856.28
772.306	351.58
772.745	220.68
773.185	176.58
773.625	174.88
774.065	168.18
774.505	169.48
774.944	222.18
775.384	406.08
775.824	693.68
776.263	676.88
776.703	327.98
777.142	174.38
777.582	141.08
778.021	137.38
778.461	136.88
778.9	131.68
779.34	132.18
779.779	119.58
780.219	113.98
780.658	117.38
781.097	115.78
781.537	118.68
781.976	114.88
782.415	109.28
782.855	111.68
783.294	110.68
783.733	114.98
784.172	118.28
784.611	114.58
785.05	114.48
785.489	118.88
785.928	128.98
786.367	125.08
786.806	124.78
787.245	137.48
787.684	141.18
788.123	156.88
788.562	144.28
789.001	135.08
789.44	131.28
789.879	126.98
790.317	128.08
790.756	136.48
791.195	139.68
791.634	154.88
792.072	216.58
792.511	398.18
792.95	1078.98
793.388	2251.28
793.827	2047.28
794.265	725.88
794.704	296.88
795.142	191.18
795.581	161.58
796.019	144.88
796.458	142.58
796.896	140.98
797.334	137.98
797.773	168.68
798.211	235.58
798.649	474.08
799.087	1082.88
799.526	1722.78
799.964	2158.98
800.402	2159.98
800.84	812.18
801.278	337.88
801.716	201.38
802.154	166.88
802.592	157.78
803.03	151.88
803.468	151.48
803.906	154.28
804.344	162.08
804.782	147.78
805.22	150.88
805.658	141.68
806.096	160.08
806.533	177.38
806.971	194.48
807.409	240.98
807.847	341.78
808.284	712.08
808.722	1998.08
809.16	3561.38
809.597	3380.98
810.035	5804.08
810.472	6183.78
810.91	2251.68
811.347	866.08
811.785	440.38
812.222	275.98
812.66	208.98
813.097	179.58
813.535	154.78
813.972	142.78
814.409	124.98
814.846	120.08
815.284	123.68
815.721	110.08
816.158	111.48
816.595	115.88
817.032	157.48
817.47	194.58
817.907	145.98
818.344	115.68
818.781	103.08
819.218	99.88
819.655	128.38
820.092	207.78
820.529	230.88
820.966	189.58
821.403	132.38
821.839	112.08
822.276	104.58
822.713	126.68
823.15	149.88
823.587	129.18
824.023	160.78
824.46	322.58
824.897	965.88
825.333	1465.58
825.77	631.28
826.206	249.68
826.643	151.28
827.08	109.48
827.516	93.48
827.953	88.28
828.389	87.78
828.825	74.48
829.262	74.58
829.698	70.58
830.135	73.08
830.571	68.58
831.007	71.88
831.443	70.48
831.88	64.68
832.316	70.28
832.752	69.88
833.188	66.98
833.624	70.78
834.06	70.08
834.497	68.48
834.933	71.18
835.369	79.88
835.805	74.48
836.241	74.08
836.677	90.38
837.112	89.98
837.548	111.08
837.984	140.48
838.42	215.98
838.856	537.58
839.292	1638.28
839.727	2471.48
840.163	1161.88
840.599	999.18
841.034	2179.98
841.47	2260.68
841.906	820.08
842.341	348.38
842.777	215.58
843.212	230.28
843.648	206.68
844.083	122.48
844.519	89.78
844.954	79.48
845.39	59.38
845.825	62.28
846.261	69.48
846.696	53.28
847.131	61.28
847.566	68.88
848.002	57.68
848.437	64.28
848.872	64.98
849.307	65.68
849.742	86.38
850.177	194.58
850.613	598.98
851.048	943.58
851.483	407.18
851.918	166.78
852.353	92.08
852.788	60.68
853.223	58.18
853.657	53.18
854.092	50.58
854.527	51.58
854.962	49.08
855.397	51.88
855.832	55.08
856.266	44.68
856.701	41.28
857.136	39.28
857.57	44.78
858.005	57.98
858.44	63.48
858.874	44.38
859.309	58.08
859.743	43.88
860.178	49.18
860.612	42.68
861.047	59.08
861.481	80.58
861.915	79.88
862.35	51.88
862.784	45.28
863.218	46.28
863.653	42.08
864.087	49.28
864.521	57.78
864.955	76.18
865.39	168.48
865.824	194.38
866.258	131.48
866.692	186.78
867.126	191.48
867.56	119.18
867.994	62.68
868.428	38.98
868.862	52.78
869.296	60.08
869.73	63.78
870.164	62.98
870.598	57.48
871.031	43.28
871.465	38.88
871.899	31.38
872.333	24.38
872.766	27.18
873.2	26.08
873.634	33.08
874.067	28.38
874.501	29.68
874.935	32.68
875.368	35.48
875.802	31.18
876.235	29.08
876.669	29.58
877.102	25.78
877.535	26.18
877.969	21.98
878.402	26.38
878.836	24.78
879.269	27.28
879.702	28.18
880.135	19.98
880.569	21.78
881.002	31.08
881.435	28.38
881.868	22.48
882.301	27.18
882.734	17.88
883.167	33.08
883.601	24.28
884.034	22.28
884.467	19.68
884.899	22.68
885.332	17.68
885.765	17.68
886.198	21.08
886.631	21.38
887.064	18.08
887.497	18.78
887.929	22.18
888.362	15.08
888.795	11.98
889.228	20.58
889.66	22.78
890.093	19.08
890.526	15.78
890.958	20.48
891.391	24.48
891.823	27.68
892.256	18.58
892.688	20.28
893.121	18.98
893.553	17.88
893.985	24.18
894.418	17.28
894.85	15.38
895.282	18.98
895.715	17.28
896.147	21.88
896.579	16.58
897.011	14.08
897.444	12.68
897.876	14.38
898.308	10.18
898.74	13.68
899.172	16.18
899.604	24.68
900.036	21.98
900.468	17.58
900.9	11.88
901.332	23.28
901.764	20.18
902.196	18.38
902.628	23.18
903.06	15.08
903.491	28.58
903.923	27.28
904.355	25.78
904.787	24.88
905.218	27.08
905.65	26.38
906.082	13.98
906.513	14.18
906.945	20.18
907.376	21.98
907.808	21.68
908.239	25.38
908.671	19.88
909.102	21.18
909.534	27.58
909.965	50.18
910.397	101.38
910.828	329.28
911.259	509.18
911.691	231.98
912.122	117.38
912.553	54.98
912.984	36.38
913.415	29.38
913.847	29.38
914.278	18.88
914.709	17.08
915.14	22.68
915.571	23.88
916.002	18.68
916.433	21.18
916.864	19.08
917.295	22.58
917.726	19.78
918.157	16.88
918.587	32.98
919.018	25.58
919.449	22.18
919.88	24.18
920.311	34.18
920.741	60.48
921.172	177.58
921.603	160.18
922.033	73.28
922.464	54.08
922.895	26.78
923.325	22.28
923.756	21.18
924.186	15.28
924.617	22.18
925.047	26.78
925.478	30.08
925.908	24.88
926.338	19.18
926.769	15.58
927.199	21.68
927.629	6.58
928.06	15.08
928.49	13.38
928.92	14.08
929.35	10.08
929.78	10.78
930.21	5.78
930.641	14.48
931.071	9.48
931.501	6.38
931.931	7.78
932.361	8.18
932.791	7.38
933.221	2.78
933.651	14.28
934.08	21.48
934.51	26.48
934.94	10.28
935.37	16.08
935.8	13.38
936.229	9.78
936.659	14.28
937.089	3.68
937.519	18.98
937.948	26.18
938.378	19.08
938.807	7.08
939.237	9.68
939.666	7.38
940.096	-3.32
940.525	2.88
940.955	2.38
941.384	3.88
941.814	-7.32
942.243	7.48
942.672	5.28
943.102	-0.02
943.531	-1.32
943.96	3.18
944.39	12.68
944.819	2.78
945.248	1.38
945.677	4.68
946.106	7.08
946.535	6.78
946.964	2.08
947.393	8.58
947.822	1.78
948.251	-3.32
948.68	5.28
949.109	11.58
949.538	4.98
949.967	5.38
950.396	2.38
950.825	-0.42
951.254	1.18
951.682	-3.92
952.111	-1.92
952.54	4.38
952.969	1.08
953.397	-1.62
953.826	2.08
954.254	-13.62
954.683	-3.32
955.112	0.08
955.54	-0.62
955.969	3.28
956.397	-0.62
956.826	-7.72
957.254	1.38
957.682	7.08
958.111	1.58
958.539	1.28
958.967	1.88
959.396	-2.92
959.824	4.08
960.252	6.18
960.68	-1.72
961.109	-0.02
961.537	-0.72
961.965	1.68
962.393	0.98
962.821	-6.12
963.249	0.18
963.677	5.88
964.105	4.98
964.533	47.08
964.961	43.68
965.389	22.88
965.817	12.28
966.245	5.28
966.672	2.48
967.1	-10.52
967.528	7.28
967.956	-0.42
968.383	2.18
968.811	-0.32
969.239	0.18
969.666	-0.92
970.094	1.88
970.522	7.08
970.949	-0.52
971.377	-8.12
971.804	-0.12
972.232	0.38
972.659	3.58
973.087	-1.22
973.514	-0.22
973.941	-6.82
974.369	1.88
974.796	1.48
975.223	-1.42
975.651	-1.82
976.078	4.78
976.505	-3.32
976.932	0.58
977.359	10.58
977.786	15.38
978.214	0.08
978.641	-6.92
979.068	-1.12
979.495	-1.52
979.922	-3.02
980.349	-1.52
980.776	0.18
981.202	-2.32
981.629	2.78
982.056	1.68
982.483	-0.22
982.91	2.28
983.337	-6.62
983.763	-0.62
984.19	-3.52
984.617	-5.62
985.043	-6.82
985.47	1.58
985.897	-4.62
986.323	-12.22
986.75	0.38
987.176	-0.62
987.603	-0.22
988.029	-1.52
988.456	0.38
988.882	6.68
989.308	-5.22
989.735	-1.92
990.161	2.58
990.587	0.28
991.014	-4.12
991.44	6.98
991.866	0.78
992.292	-2.72
992.719	-4.62
993.145	7.18
993.571	-9.52
993.997	-3.72
994.423	-4.22
994.849	-3.72
995.275	3.48
995.701	0.98
996.127	-2.82
996.553	-3.22
996.979	-2.32
997.405	-7.92
997.83	-10.32
998.256	-5.52
998.682	-3.62
999.108	-11.92
999.534	-5.72
999.959	-1.42
1000.385	-1.92
1000.811	3.68
1001.236	-7.32
1001.662	-4.12
1002.087	-8.22
1002.513	-1.92
1002.938	2.28
1003.364	-5.02
1003.789	1.68
1004.215	-6.12
1004.64	-2.82
1005.066	6.28
1005.491	-1.92
1005.916	-6.72
1006.342	-2.62
1006.767	-4.92
1007.192	7.48
1007.617	-4.52
1008.042	-3.02
1008.468	-8.82
1008.893	-9.92
1009.318	2.08
1009.743	-2.62
1010.168	0.18
1010.593	2.18
1011.018	-6.92
1011.443	-2.62
1011.868	1.88
1012.293	-8.42
1012.718	-9.12
1013.143	-2.52
1013.567	1.88
1013.992	-5.62
1014.417	-16.12
1014.842	3.78
1015.267	-7.62
1015.691	-10.22
1016.116	3.78
1016.541	-1.42
1016.965	3.58
1017.39	2.18
1017.814	1.18
1018.239	-4.12
1018.663	-12.22
1019.088	-11.22
1019.512	-4.42
1019.937	-2.62
1020.361	-7.32
1020.785	-15.52
1021.21	-2.72
1021.634	0.68
1022.058	3.08
1022.483	8.18
1022.907	-1.82
1023.331	-0.52
1023.755	1.18
1024.179	1.98
1024.604	-5.92
1025.028	-4.22
1025.452	-4.02
1025.876	-1.42
1026.3	2.08
1026.724	-13.02
1027.148	-7.02
1027.572	-9.62
1027.996	-1.02
1028.42	-2.52
1028.843	-3.32
1029.267	-2.62
1029.691	-2.82
1030.115	-1.22
1030.539	-6.22
1030.962	-5.12
1031.386	-6.12
1031.81	-7.52
1032.233	-1.32
1032.657	-2.12
1033.08	-3.52
1033.504	-5.02
1033.927	-6.82
1034.351	-2.22
1034.774	-3.92
1035.198	-2.12
1035.621	-10.02
1036.045	-7.72
1036.468	-0.52
1036.891	-9.32
1037.315	-10.92
1037.738	-2.72
1038.161	-2.32
1038.584	-4.12
1039.008	-8.22
1039.431	-5.52
1039.854	2.98
1040.277	-11.42
1040.7	-8.02
1041.123	-3.02
1041.546	-7.02
1041.969	-10.42
1042.392	-5.52
1042.815	-3.02
1043.238	-1.52
1043.661	0.58
1044.084	-11.42
1044.507	-4.02
1044.93	-6.32
1045.352	-2.52
1045.775	1.88
1046.198	-5.62
1046.621	-5.12
1047.043	-2.32
1047.466	2.98
1047.889	-10.62
1048.311	-8.22
1048.734	-8.02
1049.156	-4.62
1049.579	-3.52
1050.001	1.78
1050.424	4.58
1050.846	-2.82
1051.269	2.18
1051.691	-4.22
1052.113	3.38
1052.536	-7.22
1052.958	-2.32
1053.38	-1.72
1053.802	-10.42
1054.225	2.38
1054.647	-11.72
1055.069	-1.72
1055.491	1.28
1055.913	-2.72
1056.335	7.78
1056.757	-2.42
1057.179	-9.02
1057.601	-4.82
1058.023	-4.72
1058.445	-7.42
1058.867	-5.02
1059.289	-7.22
1059.711	-0.92
1060.133	-4.02
1060.555	-4.32
1060.976	-7.12
1061.398	-5.82
1061.82	-9.92
1062.241	-6.12
1062.663	-7.32
1063.085	-4.62
1063.506	1.28
1063.928	-6.02
1064.35	3.38
1064.771	-9.02
1065.193	0.88
1065.614	-9.32
1066.035	-6.32
1066.457	-6.82
1066.878	-3.82
1067.3	-5.42
1067.721	-0.22
1068.142	1.28
1068.564	-5.32
1068.985	-6.22
1069.406	-5.52
1069.827	0.18
1070.248	0.88
1070.67	-8.12
1071.091	-1.02
1071.512	-0.12
1071.933	-4.92
1072.354	-8.02
1072.775	-6.22
1073.196	-10.52
1073.617	-3.52
1074.038	-8.22
1074.459	-4.72
1074.88	-5.22
1075.3	1.38
1075.721	-5.42
1076.142	0.48
1076.563	-3.22
1076.983	-5.72
1077.404	-3.92
1077.825	-8.72
1078.246	-2.82
1078.666	-7.72
1079.087	-12.22
1079.507	-6.42
1079.928	1.18
1080.348	3.28
1080.769	-12.32
1081.189	0.08
1081.61	-3.12
1082.03	-2.42
1082.451	0.48
1082.871	-2.72
1083.291	-3.52
1083.711	-12.22
1084.132	-6.22
1084.552	-5.62
1084.972	2.18
1085.392	-9.22
1085.813	-8.12
1086.233	-5.02
1086.653	-11.42
1087.073	-4.22
1087.493	-4.52
1087.913	-8.02
1088.333	-8.12
1088.753	-4.22
1089.173	4.08
1089.593	-1.12
1090.013	6.08
1090.433	-2.82
1090.852	-2.22
1091.272	-5.92
1091.692	-5.02
1092.112	-3.22
1092.531	-7.12
1092.951	-12.02
1093.371	-5.32
1093.79	3.18
1094.21	-5.22
1094.63	-8.92
1095.049	-7.32
1095.469	0.78
1095.888	0.58
1096.308	0.58
1096.727	0.88
1097.146	-11.32
1097.566	1.88
1097.985	-10.62
1098.405	-1.12
1098.824	-7.82
1099.243	-7.12
1099.662	-11.62
1100.082	-3.12
1100.501	-3.52
1100.92	-7.12
1101.339	-3.22
1101.758	-5.62
