Data from 20171114-ORNL-Ar_H_NY_Subt18_08-03-35-038.txt Node
Date: Tue Nov 14 08:03:35 EST 2017
User: Ender
Spectrometer: HR+D1039
Trigger mode: 0
Integration Time (sec): 2.730000E-2
Scans to average: 10
Electric dark correction enabled: true
Nonlinearity correction enabled: false
Boxcar width: 0
XAxis mode: Wavelengths
Number of Pixels in Spectrum: 2048
>>>>>Begin Spectral Data<<<<<
187.836	-8.29
188.309	-8.29
188.782	-8.29
189.255	-3.09
189.728	-0.39
190.201	5.91
190.674	-1.39
191.147	-0.59
191.619	-8.09
192.092	0.71
192.565	4.11
193.038	2.81
193.511	2.71
193.984	0.01
194.456	1.41
194.929	0.71
195.402	2.51
195.874	1.01
196.347	4.81
196.82	-9.19
197.292	6.21
197.765	3.31
198.237	-4.79
198.71	0.11
199.182	-5.19
199.655	0.21
200.127	-1.39
200.6	0.81
201.072	-6.09
201.544	-4.69
202.017	-1.99
202.489	6.91
202.961	-6.39
203.433	-3.49
203.906	-6.39
204.378	-5.39
204.85	-5.29
205.322	-12.29
205.794	3.41
206.266	-4.79
206.739	-12.29
207.211	2.41
207.683	-6.49
208.155	-5.49
208.627	-7.19
209.099	-3.69
209.57	-5.19
210.042	-2.49
210.514	-5.99
210.986	-4.59
211.458	-14.29
211.93	-6.79
212.402	-4.39
212.873	-5.39
213.345	-13.29
213.817	-15.79
214.288	-9.09
214.76	-8.29
215.232	2.01
215.703	-2.49
216.175	-5.99
216.646	-4.49
217.118	-8.49
217.589	-7.39
218.061	-0.29
218.532	-6.99
219.004	-7.09
219.475	-5.19
219.946	-4.09
220.418	-9.59
220.889	2.11
221.36	-2.79
221.832	-7.09
222.303	-7.79
222.774	-2.09
223.245	-9.49
223.717	-5.19
224.188	-4.29
224.659	-6.59
225.13	-8.19
225.601	0.21
226.072	0.41
226.543	-5.29
227.014	-1.59
227.485	-3.79
227.956	-1.69
228.427	-7.19
228.898	1.91
229.369	3.21
229.839	-4.89
230.31	-11.29
230.781	4.71
231.252	0.31
231.722	-9.19
232.193	-7.39
232.664	-4.99
233.135	-3.39
233.605	-6.29
234.076	-9.89
234.546	-2.29
235.017	2.21
235.487	-2.09
235.958	-8.99
236.428	-9.39
236.899	-6.69
237.369	-1.19
237.84	-8.69
238.31	-0.59
238.78	-3.29
239.251	-12.19
239.721	-9.89
240.191	-10.49
240.662	-7.29
241.132	-5.69
241.602	-6.89
242.072	-1.69
242.542	-0.89
243.013	-0.99
243.483	-3.19
243.953	-4.09
244.423	-7.49
244.893	-9.29
245.363	-3.09
245.833	-0.29
246.303	-13.19
246.773	2.91
247.243	-2.79
247.712	-0.49
248.182	2.21
248.652	0.51
249.122	-7.09
249.592	-3.99
250.061	4.11
250.531	4.81
251.001	-8.59
251.471	4.91
251.94	1.61
252.41	-9.39
252.879	-5.99
253.349	9.91
253.818	1.81
254.288	1.91
254.757	-6.99
255.227	-10.79
255.696	-2.99
256.166	4.71
256.635	2.31
257.105	-0.99
257.574	-4.59
258.043	-9.19
258.513	-11.39
258.982	-8.19
259.451	-4.69
259.92	-3.29
260.389	-3.79
260.859	5.41
261.328	-0.29
261.797	-1.29
262.266	-10.89
262.735	0.01
263.204	-2.09
263.673	-6.19
264.142	0.61
264.611	-8.09
265.08	-8.49
265.549	-8.29
266.018	-6.09
266.487	-6.09
266.955	-11.29
267.424	-5.19
267.893	0.81
268.362	-4.09
268.83	-5.89
269.299	1.41
269.768	-8.49
270.236	-5.99
270.705	-9.99
271.174	-8.79
271.642	-8.99
272.111	-4.09
272.579	-7.19
273.048	-3.49
273.516	-5.79
273.985	-2.49
274.453	-1.79
274.922	1.91
275.39	-1.19
275.858	-7.79
276.327	2.11
276.795	5.31
277.263	-1.89
277.731	2.61
278.2	-0.09
278.668	-1.69
279.136	-2.69
279.604	-7.09
280.072	-1.29
280.54	-4.59
281.008	-1.19
281.477	-1.09
281.945	-2.79
282.413	3.81
282.881	1.11
283.348	-3.99
283.816	-1.89
284.284	3.41
284.752	7.31
285.22	2.21
285.688	4.41
286.156	-1.39
286.623	6.81
287.091	-0.19
287.559	-0.39
288.026	-3.09
288.494	-0.79
288.962	-6.59
289.429	-6.19
289.897	8.01
290.364	1.01
290.832	7.81
291.3	1.21
291.767	-1.19
292.234	4.31
292.702	-5.59
293.169	1.61
293.637	6.31
294.104	3.11
294.571	-5.89
295.039	-7.49
295.506	-5.09
295.973	-0.19
296.44	-0.99
296.908	-0.89
297.375	-4.19
297.842	-4.89
298.309	2.41
298.776	-4.39
299.243	2.81
299.71	0.61
300.177	8.21
300.644	0.91
301.111	1.11
301.578	4.31
302.045	-3.89
302.512	0.21
302.979	3.91
303.446	4.41
303.913	-5.89
304.379	-0.59
304.846	8.01
305.313	4.21
305.78	1.41
306.246	12.41
306.713	2.71
307.18	3.11
307.646	7.21
308.113	-3.29
308.579	0.91
309.046	6.71
309.512	6.91
309.979	-6.69
310.445	0.01
310.912	6.21
311.378	6.11
311.845	5.21
312.311	1.41
312.777	10.01
313.244	5.31
313.71	10.01
314.176	-0.99
314.642	0.81
315.109	3.81
315.575	8.41
316.041	13.31
316.507	7.91
316.973	10.11
317.439	2.71
317.905	12.81
318.371	2.01
318.837	5.11
319.303	8.01
319.769	4.61
320.235	5.51
320.701	6.21
321.167	2.41
321.633	-1.29
322.099	11.61
322.564	10.51
323.03	6.61
323.496	8.21
323.962	0.51
324.427	9.01
324.893	11.91
325.359	8.31
325.824	4.71
326.29	7.91
326.755	13.41
327.221	10.61
327.686	7.11
328.152	15.61
328.617	9.41
329.083	18.11
329.548	19.01
330.014	18.41
330.479	10.01
330.944	8.81
331.41	8.91
331.875	13.81
332.34	5.21
332.805	8.61
333.271	11.81
333.736	7.61
334.201	8.21
334.666	13.51
335.131	16.01
335.596	21.81
336.061	11.61
336.526	6.01
336.991	9.41
337.456	19.81
337.921	18.01
338.386	14.01
338.851	9.61
339.316	13.11
339.781	12.61
340.246	16.31
340.711	9.91
341.175	16.11
341.64	12.91
342.105	17.61
342.569	12.41
343.034	17.31
343.499	17.61
343.963	16.71
344.428	24.81
344.893	20.71
345.357	20.71
345.822	21.61
346.286	22.51
346.751	18.81
347.215	20.61
347.679	17.41
348.144	23.71
348.608	29.51
349.073	18.61
349.537	22.51
350.001	22.11
350.465	25.11
350.93	28.41
351.394	29.61
351.858	15.51
352.322	28.11
352.786	30.01
353.25	31.91
353.715	40.91
354.179	25.11
354.643	42.31
355.107	36.41
355.571	30.71
356.035	22.81
356.498	38.31
356.962	31.81
357.426	37.61
357.89	29.51
358.354	31.11
358.818	29.51
359.281	23.91
359.745	17.01
360.209	22.41
360.673	19.51
361.136	24.11
361.6	32.41
362.064	33.01
362.527	25.51
362.991	36.41
363.454	24.91
363.918	24.81
364.381	18.91
364.845	28.61
365.308	28.51
365.772	30.41
366.235	31.11
366.698	21.71
367.162	22.51
367.625	27.61
368.088	34.21
368.552	29.91
369.015	29.01
369.478	39.61
369.941	35.11
370.404	30.21
370.867	34.31
371.331	34.91
371.794	32.71
372.257	33.91
372.72	37.81
373.183	36.11
373.646	30.11
374.109	36.41
374.572	34.41
375.035	30.71
375.497	36.71
375.96	43.21
376.423	31.41
376.886	39.11
377.349	42.21
377.811	36.41
378.274	38.61
378.737	38.41
379.199	36.71
379.662	34.61
380.125	41.01
380.587	34.91
381.05	33.61
381.512	33.51
381.975	48.51
382.437	46.31
382.9	36.41
383.362	41.31
383.825	47.41
384.287	45.21
384.75	44.91
385.212	43.51
385.674	46.61
386.136	44.11
386.599	44.91
387.061	47.01
387.523	44.31
387.985	43.21
388.447	51.11
388.91	51.61
389.372	45.61
389.834	49.31
390.296	45.51
390.758	48.51
391.22	44.51
391.682	52.51
392.144	53.51
392.606	54.21
393.068	56.51
393.529	60.91
393.991	52.61
394.453	46.21
394.915	50.81
395.377	49.61
395.838	54.01
396.3	53.31
396.762	53.01
397.224	50.71
397.685	53.81
398.147	52.61
398.608	47.41
399.07	48.81
399.531	47.41
399.993	48.01
400.454	61.11
400.916	60.11
401.377	56.01
401.839	65.31
402.3	55.11
402.762	65.81
403.223	72.81
403.684	63.81
404.145	60.31
404.607	62.81
405.068	61.51
405.529	59.91
405.99	63.81
406.451	62.51
406.913	63.91
407.374	59.11
407.835	61.21
408.296	60.41
408.757	67.01
409.218	71.81
409.679	64.41
410.14	64.11
410.601	74.21
411.062	70.01
411.522	68.81
411.983	71.31
412.444	68.11
412.905	71.61
413.366	78.01
413.826	85.41
414.287	98.11
414.748	122.61
415.208	118.81
415.669	103.51
416.13	97.11
416.59	91.41
417.051	102.01
417.511	102.91
417.972	117.41
418.432	115.21
418.893	153.21
419.353	124.61
419.814	95.11
420.274	84.31
420.734	75.91
421.195	82.01
421.655	80.41
422.115	84.01
422.576	86.41
423.036	83.01
423.496	92.81
423.956	94.61
424.416	98.21
424.876	122.11
425.336	110.51
425.797	116.91
426.257	111.11
426.717	91.31
427.177	104.71
427.637	84.21
428.097	83.21
428.556	86.41
429.016	99.21
429.476	94.91
429.936	93.91
430.396	86.61
430.856	94.51
431.315	107.11
431.775	118.91
432.235	128.81
432.694	115.81
433.154	120.21
433.614	118.91
434.073	104.21
434.533	97.31
434.993	89.01
435.452	93.21
435.912	98.81
436.371	102.71
436.83	96.71
437.29	102.51
437.749	91.51
438.209	97.91
438.668	104.31
439.127	104.21
439.587	92.61
440.046	94.71
440.505	94.11
440.964	105.21
441.424	112.01
441.883	120.41
442.342	106.31
442.801	91.71
443.26	94.61
443.719	100.01
444.178	96.51
444.637	84.01
445.096	91.31
445.555	95.31
446.014	99.01
446.473	95.71
446.932	103.31
447.391	97.51
447.849	97.21
448.308	92.81
448.767	100.01
449.226	106.91
449.685	106.41
450.143	116.81
450.602	101.61
451.061	98.11
451.519	97.21
451.978	91.61
452.436	97.31
452.895	98.21
453.353	103.61
453.812	105.71
454.27	103.11
454.729	104.31
455.187	103.51
455.646	109.31
456.104	98.81
456.562	109.41
457.021	119.11
457.479	114.11
457.937	108.71
458.395	115.31
458.854	103.71
459.312	102.71
459.77	109.11
460.228	102.61
460.686	105.81
461.144	108.81
461.602	104.41
462.06	108.21
462.518	110.41
462.976	107.21
463.434	110.81
463.892	109.71
464.35	107.81
464.808	118.01
465.266	116.11
465.724	120.51
466.181	113.31
466.639	119.61
467.097	119.81
467.555	120.81
468.012	125.11
468.47	125.01
468.928	133.21
469.385	142.91
469.843	136.81
470.3	135.31
470.758	134.31
471.215	147.61
471.673	156.81
472.13	159.31
472.588	160.21
473.045	145.31
473.503	149.81
473.96	151.21
474.417	150.01
474.875	158.51
475.332	175.01
475.789	167.81
476.246	165.81
476.704	171.01
477.161	179.01
477.618	167.91
478.075	183.21
478.532	190.61
478.989	198.81
479.446	220.11
479.903	204.11
480.36	200.51
480.817	185.11
481.274	202.41
481.731	200.01
482.188	193.11
482.645	204.01
483.102	209.61
483.558	228.41
484.015	227.51
484.472	226.51
484.929	222.91
485.385	228.51
485.842	226.71
486.299	233.61
486.755	253.01
487.212	233.01
487.668	215.31
488.125	225.11
488.582	211.71
489.038	215.41
489.494	213.81
489.951	213.11
490.407	215.21
490.864	211.21
491.32	224.31
491.776	218.71
492.233	225.61
492.689	209.31
493.145	220.91
493.602	216.71
494.058	218.91
494.514	222.31
494.97	233.21
495.426	231.51
495.882	223.01
496.338	224.71
496.794	224.31
497.251	221.41
497.707	233.91
498.163	227.51
498.618	233.81
499.074	228.51
499.53	243.11
499.986	243.91
500.442	227.21
500.898	227.01
501.354	231.71
501.809	231.61
502.265	231.61
502.721	241.21
503.177	241.71
503.632	249.91
504.088	242.71
504.543	253.91
504.999	255.11
505.455	244.61
505.91	237.51
506.366	241.71
506.821	241.81
507.277	243.11
507.732	238.71
508.187	234.91
508.643	250.21
509.098	234.21
509.553	252.81
510.009	252.71
510.464	251.11
510.919	260.11
511.375	260.41
511.83	265.31
512.285	263.51
512.74	285.31
513.195	291.31
513.65	291.31
514.105	289.51
514.56	292.51
515.015	299.11
515.47	300.11
515.925	288.51
516.38	296.71
516.835	303.91
517.29	293.01
517.745	288.31
518.2	284.31
518.655	270.21
519.109	282.21
519.564	276.91
520.019	267.51
520.474	265.51
520.928	271.11
521.383	268.41
521.838	263.21
522.292	264.71
522.747	267.01
523.201	263.91
523.656	258.61
524.11	257.71
524.565	251.01
525.019	249.41
525.474	255.41
525.928	260.41
526.382	247.31
526.837	248.41
527.291	257.11
527.745	248.01
528.2	246.41
528.654	247.31
529.108	240.61
529.562	239.01
530.016	245.41
530.47	243.21
530.925	240.01
531.379	236.81
531.833	241.41
532.287	246.31
532.741	245.61
533.195	242.61
533.649	241.21
534.103	247.41
534.556	232.71
535.01	237.01
535.464	235.31
535.918	253.91
536.372	249.91
536.826	249.11
537.279	238.71
537.733	241.31
538.187	241.91
538.64	247.81
539.094	245.81
539.548	251.91
540.001	243.71
540.455	243.41
540.908	249.21
541.362	255.91
541.815	261.51
542.269	263.71
542.722	260.71
543.175	262.71
543.629	268.81
544.082	273.61
544.536	271.91
544.989	272.01
545.442	284.71
545.895	277.31
546.349	279.21
546.802	274.51
547.255	277.61
547.708	279.91
548.161	286.41
548.614	281.91
549.067	277.41
549.52	281.71
549.973	275.61
550.426	273.81
550.879	258.11
551.332	268.11
551.785	277.41
552.238	266.11
552.691	277.81
553.144	277.21
553.596	288.81
554.049	286.81
554.502	302.41
554.955	316.71
555.407	308.91
555.86	320.81
556.313	297.91
556.765	291.91
557.218	301.71
557.67	288.91
558.123	287.11
558.576	293.71
559.028	295.11
559.48	297.31
559.933	291.61
560.385	279.21
560.838	274.21
561.29	253.61
561.742	259.31
562.195	253.51
562.647	244.41
563.099	262.71
563.551	259.01
564.004	260.81
564.456	257.11
564.908	248.21
565.36	241.81
565.812	234.81
566.264	229.51
566.716	228.61
567.168	222.11
567.62	229.61
568.072	221.31
568.524	225.61
568.976	225.71
569.428	213.41
569.88	217.31
570.332	216.01
570.784	214.81
571.235	216.11
571.687	221.61
572.139	223.51
572.59	222.21
573.042	222.61
573.494	220.71
573.945	217.81
574.397	209.41
574.849	217.21
575.3	208.31
575.752	214.01
576.203	204.71
576.655	218.71
577.106	202.21
577.557	204.11
578.009	211.51
578.46	207.81
578.912	202.31
579.363	201.21
579.814	201.31
580.265	199.01
580.717	203.31
581.168	198.01
581.619	206.41
582.07	204.11
582.521	206.01
582.972	196.91
583.423	203.71
583.875	196.81
584.326	205.01
584.777	206.21
585.227	212.81
585.678	219.51
586.129	212.91
586.58	224.91
587.031	229.01
587.482	240.01
587.933	251.21
588.384	233.51
588.834	240.01
589.285	240.61
589.736	239.11
590.186	240.41
590.637	237.01
591.088	223.91
591.538	221.91
591.989	225.41
592.439	222.51
592.89	223.71
593.34	208.91
593.791	209.21
594.241	204.91
594.692	204.91
595.142	198.01
595.593	209.81
596.043	210.91
596.493	203.91
596.943	210.71
597.394	211.91
597.844	214.01
598.294	214.61
598.744	229.91
599.195	238.11
599.645	248.01
600.095	262.51
600.545	287.01
600.995	311.31
601.445	329.31
601.895	362.41
602.345	376.31
602.795	362.61
603.245	334.81
603.695	314.21
604.145	289.01
604.594	278.61
605.044	258.51
605.494	230.11
605.944	215.11
606.393	215.01
606.843	216.61
607.293	207.11
607.743	212.51
608.192	214.21
608.642	227.41
609.091	222.61
609.541	223.51
609.99	223.71
610.44	220.11
610.889	212.51
611.339	197.21
611.788	192.91
612.238	198.31
612.687	206.31
613.136	202.61
613.586	206.61
614.035	196.71
614.484	205.61
614.933	202.81
615.383	212.21
615.832	208.01
616.281	199.41
616.73	198.01
617.179	192.91
617.628	180.81
618.077	179.81
618.526	170.91
618.975	174.21
619.424	184.61
619.873	178.81
620.322	174.91
620.771	163.71
621.22	167.31
621.669	166.81
622.118	159.71
622.567	159.01
623.015	150.11
623.464	156.21
623.913	153.91
624.361	152.51
624.81	151.41
625.259	156.21
625.707	156.41
626.156	153.01
626.604	151.71
627.053	154.71
627.501	156.81
627.95	163.61
628.398	159.21
628.847	157.11
629.295	150.21
629.744	166.81
630.192	166.41
630.64	155.11
631.089	149.11
631.537	148.51
631.985	137.11
632.433	140.91
632.881	143.81
633.33	137.41
633.778	133.61
634.226	132.11
634.674	143.21
635.122	138.21
635.57	145.11
636.018	149.11
636.466	147.31
636.914	141.71
637.362	148.51
637.81	158.21
638.258	156.21
638.705	153.81
639.153	165.11
639.601	158.31
640.049	172.21
640.497	181.51
640.944	192.71
641.392	156.71
641.84	153.91
642.287	145.31
642.735	128.11
643.182	135.41
643.63	136.11
644.078	129.81
644.525	134.61
644.973	126.31
645.42	125.71
645.867	123.81
646.315	140.01
646.762	131.71
647.21	137.11
647.657	130.71
648.104	138.61
648.551	123.71
648.999	124.01
649.446	120.81
649.893	118.91
650.34	122.11
650.787	119.61
651.234	127.31
651.682	126.41
652.129	131.21
652.576	133.01
653.023	149.51
653.47	159.11
653.917	158.21
654.363	171.11
654.81	178.01
655.257	174.41
655.704	150.11
656.151	135.41
656.598	125.71
657.044	120.91
657.491	120.31
657.938	119.71
658.385	123.91
658.831	123.71
659.278	131.31
659.724	118.61
660.171	123.61
660.618	110.31
661.064	112.61
661.511	116.11
661.957	120.91
662.404	118.51
662.85	125.61
663.296	126.71
663.743	120.41
664.189	118.71
664.635	116.21
665.082	121.51
665.528	124.31
665.974	120.41
666.42	120.61
666.867	111.91
667.313	110.11
667.759	106.31
668.205	104.31
668.651	109.31
669.097	105.71
669.543	108.61
669.989	109.51
670.435	102.11
670.881	106.91
671.327	108.31
671.773	118.41
672.219	129.31
672.665	137.41
673.11	155.81
673.556	172.41
674.002	191.41
674.448	194.81
674.893	151.51
675.339	130.81
675.785	114.51
676.23	105.51
676.676	101.61
677.122	95.71
677.567	94.71
678.013	95.91
678.458	80.41
678.904	89.31
679.349	80.51
679.794	90.21
680.24	87.51
680.685	91.21
681.131	86.81
681.576	86.71
682.021	100.41
682.466	90.91
682.912	84.21
683.357	85.41
683.802	106.61
684.247	99.01
684.692	116.91
685.137	128.31
685.583	157.11
686.028	163.01
686.473	146.61
686.918	117.41
687.363	114.61
687.807	108.41
688.252	93.51
688.697	95.91
689.142	87.31
689.587	81.11
690.032	78.41
690.477	84.41
690.921	88.61
691.366	100.81
691.811	105.01
692.255	117.81
692.7	130.21
693.145	137.71
693.589	198.01
694.034	336.11
694.478	478.71
694.923	572.01
695.367	778.21
695.812	375.81
696.256	139.11
696.701	95.91
697.145	87.91
697.59	85.21
698.034	83.61
698.478	83.71
698.922	78.91
699.367	80.51
699.811	89.61
700.255	91.11
700.699	103.91
701.143	119.11
701.588	142.01
702.032	157.81
702.476	147.51
702.92	139.01
703.364	135.51
703.808	170.91
704.252	292.31
704.696	452.61
705.14	542.11
705.584	718.81
706.027	337.61
706.471	147.81
706.915	98.81
707.359	81.61
707.803	81.81
708.246	77.61
708.69	90.31
709.134	85.91
709.577	76.91
710.021	81.01
710.465	80.51
710.908	78.41
711.352	74.71
711.795	75.71
712.239	94.21
712.682	98.01
713.126	117.61
713.569	135.01
714.012	103.51
714.456	74.71
714.899	75.21
715.342	68.11
715.786	54.51
716.229	61.01
716.672	63.71
717.115	61.01
717.558	63.51
718.002	59.71
718.445	61.91
718.888	78.51
719.331	76.81
719.774	84.61
720.217	84.41
720.66	69.71
721.103	62.51
721.546	63.21
721.989	64.01
722.432	51.01
722.874	61.91
723.317	50.91
723.76	58.41
724.203	69.81
724.645	77.61
725.088	116.11
725.531	164.41
725.974	200.81
726.416	163.31
726.859	88.61
727.301	58.41
727.744	59.91
728.187	56.71
728.629	63.91
729.071	62.21
729.514	67.21
729.956	72.21
730.399	74.41
730.841	72.91
731.283	65.81
731.726	67.91
732.168	61.21
732.61	66.21
733.053	72.51
733.495	82.61
733.937	97.51
734.379	115.51
734.821	117.81
735.263	152.31
735.705	246.51
736.148	464.51
736.59	809.81
737.032	1011.21
737.474	832.51
737.916	239.51
738.357	117.01
738.799	81.61
739.241	82.41
739.683	68.81
740.125	69.81
740.567	75.11
741.008	90.71
741.45	88.91
741.892	89.61
742.334	99.71
742.775	97.61
743.217	88.61
743.658	62.61
744.1	64.51
744.542	62.71
744.983	80.51
745.425	92.71
745.866	98.31
746.307	77.61
746.749	73.51
747.19	87.91
747.632	126.11
748.073	243.81
748.514	570.61
748.956	917.31
749.397	1134.41
749.838	943.81
750.279	994.51
750.72	475.81
751.162	171.01
751.603	94.21
752.044	72.51
752.485	52.01
752.926	53.61
753.367	51.31
753.808	46.41
754.249	45.31
754.69	53.21
755.131	46.91
755.572	44.11
756.013	49.11
756.453	46.71
756.894	42.21
757.335	48.31
757.776	47.51
758.216	48.41
758.657	51.61
759.098	46.51
759.538	53.21
759.979	66.11
760.42	97.91
760.86	194.31
761.301	540.01
761.741	1354.51
762.182	2151.21
762.622	1536.21
763.063	422.11
763.503	163.61
763.943	88.41
764.384	67.21
764.824	57.41
765.264	56.61
765.705	53.11
766.145	43.41
766.585	38.61
767.025	39.11
767.465	35.11
767.906	41.41
768.346	46.41
768.786	47.71
769.226	50.81
769.666	79.21
770.106	166.21
770.546	460.31
770.986	866.31
771.426	800.71
771.866	248.31
772.306	91.61
772.745	45.41
773.185	38.51
773.625	45.61
774.065	34.11
774.505	40.91
774.944	48.11
775.384	91.11
775.824	169.11
776.263	158.01
776.703	69.01
777.142	38.91
777.582	31.61
778.021	25.71
778.461	34.71
778.9	32.41
779.34	30.21
779.779	19.51
780.219	15.81
780.658	13.31
781.097	22.31
781.537	22.11
781.976	20.21
782.415	22.81
782.855	26.01
783.294	19.01
783.733	22.71
784.172	23.11
784.611	16.61
785.05	19.71
785.489	26.91
785.928	27.11
786.367	32.51
786.806	29.61
787.245	29.81
787.684	25.51
788.123	37.91
788.562	26.01
789.001	34.21
789.44	29.61
789.879	20.81
790.317	24.01
790.756	38.21
791.195	31.61
791.634	34.91
792.072	61.21
792.511	96.61
792.95	292.41
793.388	690.31
793.827	646.31
794.265	206.61
794.704	78.41
795.142	47.31
795.581	43.11
796.019	42.11
796.458	36.81
796.896	32.41
797.334	31.51
797.773	42.01
798.211	60.81
798.649	129.11
799.087	318.41
799.526	515.21
799.964	651.91
800.402	685.91
800.84	237.61
801.278	84.31
801.716	50.91
802.154	46.71
802.592	42.61
803.03	34.01
803.468	23.61
803.906	40.41
804.344	39.21
804.782	39.71
805.22	28.51
805.658	25.71
806.096	35.51
806.533	43.81
806.971	51.61
807.409	59.01
807.847	83.51
808.284	185.11
808.722	567.81
809.16	1082.01
809.597	970.31
810.035	1743.91
810.472	1995.71
810.91	708.91
811.347	254.41
811.785	122.71
812.222	77.51
812.66	59.51
813.097	47.01
813.535	36.61
813.972	30.01
814.409	32.51
814.846	21.01
815.284	29.81
815.721	23.51
816.158	32.21
816.595	24.31
817.032	29.21
817.47	48.01
817.907	45.71
818.344	21.81
818.781	16.81
819.218	19.31
819.655	25.61
820.092	44.01
820.529	59.01
820.966	40.31
821.403	31.01
821.839	15.71
822.276	24.11
822.713	30.21
823.15	35.61
823.587	29.61
824.023	45.61
824.46	83.91
824.897	278.41
825.333	455.91
825.77	187.11
826.206	68.91
826.643	36.81
827.08	31.41
827.516	17.61
827.953	20.51
828.389	20.91
828.825	20.41
829.262	8.81
829.698	6.71
830.135	13.81
830.571	7.21
831.007	14.51
831.443	16.51
831.88	17.41
832.316	5.41
832.752	13.71
833.188	12.11
833.624	9.91
834.06	11.91
834.497	17.51
834.933	20.71
835.369	23.41
835.805	11.61
836.241	18.21
836.677	9.01
837.112	27.31
837.548	19.91
837.984	35.41
838.42	54.71
838.856	148.01
839.292	488.91
839.727	785.31
840.163	347.71
840.599	277.31
841.034	666.31
841.47	739.71
841.906	251.41
842.341	96.91
842.777	55.71
843.212	48.01
843.648	51.01
844.083	21.21
844.519	14.91
844.954	14.31
845.39	4.11
845.825	10.51
846.261	12.51
846.696	16.51
847.131	13.11
847.566	19.71
848.002	11.41
848.437	17.61
848.872	18.81
849.307	14.01
849.742	27.41
850.177	39.71
850.613	173.81
851.048	290.61
851.483	119.51
851.918	40.01
852.353	13.51
852.788	9.21
853.223	5.31
853.657	15.21
854.092	16.61
854.527	6.51
854.962	1.71
855.397	3.31
855.832	12.61
856.266	13.21
856.701	12.41
857.136	7.91
857.57	9.31
858.005	11.41
858.44	14.81
858.874	5.21
859.309	21.81
859.743	4.61
860.178	4.11
860.612	3.61
861.047	14.21
861.481	13.31
861.915	14.71
862.35	5.51
862.784	-5.39
863.218	8.51
863.653	2.31
864.087	13.01
864.521	12.01
864.955	13.31
865.39	39.91
865.824	42.81
866.258	29.41
866.692	46.01
867.126	48.71
867.56	26.41
867.994	8.41
868.428	5.41
868.862	6.71
869.296	13.01
869.73	16.71
870.164	12.81
870.598	2.61
871.031	0.71
871.465	1.21
871.899	12.91
872.333	-1.19
872.766	9.01
873.2	4.51
873.634	6.41
874.067	5.21
874.501	2.91
874.935	8.41
875.368	9.21
875.802	1.41
876.235	-1.19
876.669	5.81
877.102	4.71
877.535	9.51
877.969	5.51
878.402	4.91
878.836	-0.99
879.269	7.21
879.702	6.81
880.135	0.31
880.569	2.51
881.002	4.81
881.435	5.41
881.868	-4.39
882.301	8.91
882.734	0.51
883.167	2.11
883.601	1.41
884.034	6.01
884.467	-9.19
884.899	4.01
885.332	-1.39
885.765	0.01
886.198	0.01
886.631	-0.69
887.064	-1.69
887.497	6.61
887.929	14.51
888.362	-1.09
888.795	-5.09
889.228	-0.79
889.66	7.61
890.093	3.31
890.526	0.81
890.958	-5.69
891.391	3.91
891.823	5.11
892.256	1.71
892.688	-5.39
893.121	4.41
893.553	-1.59
893.985	9.11
894.418	5.01
894.85	-2.79
895.282	-1.79
895.715	-8.79
896.147	13.71
896.579	1.51
897.011	-3.89
897.444	1.81
897.876	-3.09
898.308	0.91
898.74	1.11
899.172	0.81
899.604	6.71
900.036	6.11
900.468	-3.49
900.9	0.21
901.332	8.41
901.764	1.11
902.196	-1.59
902.628	1.81
903.06	2.01
903.491	2.11
903.923	-0.79
904.355	1.21
904.787	4.81
905.218	10.41
905.65	0.61
906.082	-2.09
906.513	-3.69
906.945	-1.39
907.376	-4.49
907.808	5.21
908.239	3.71
908.671	0.21
909.102	4.81
909.534	2.81
909.965	12.41
910.397	28.11
910.828	104.01
911.259	167.01
911.691	73.11
912.122	35.31
912.553	6.41
912.984	9.61
913.415	8.61
913.847	6.41
914.278	3.01
914.709	-2.99
915.14	6.01
915.571	2.31
916.002	0.11
916.433	4.21
916.864	4.01
917.295	0.21
917.726	6.01
918.157	-1.59
918.587	7.41
919.018	6.61
919.449	3.21
919.88	4.81
920.311	11.11
920.741	4.41
921.172	47.61
921.603	44.31
922.033	17.31
922.464	11.41
922.895	-6.29
923.325	6.61
923.756	-0.69
924.186	3.31
924.617	-0.49
925.047	-2.99
925.478	1.21
925.908	0.01
926.338	0.11
926.769	-1.39
927.199	6.81
927.629	-3.69
928.06	4.71
928.49	0.41
928.92	2.21
929.35	-2.99
929.78	1.81
930.21	-2.89
930.641	1.11
931.071	-0.79
931.501	-6.59
931.931	-1.39
932.361	-1.09
932.791	-0.89
933.221	-5.19
933.651	2.01
934.08	-2.09
934.51	13.01
934.94	-1.89
935.37	-4.29
935.8	4.11
936.229	1.91
936.659	-0.29
937.089	-4.39
937.519	1.31
937.948	14.71
938.378	6.51
938.807	1.11
939.237	0.21
939.666	8.21
940.096	-4.89
940.525	1.11
940.955	-2.89
941.384	-2.99
941.814	-6.09
942.243	-9.99
942.672	-1.29
943.102	-6.79
943.531	-0.19
943.96	0.11
944.39	-1.89
944.819	-4.79
945.248	0.01
945.677	-0.09
946.106	6.31
946.535	-0.69
946.964	-0.49
947.393	3.41
947.822	-0.99
948.251	-9.59
948.68	-4.89
949.109	4.51
949.538	1.11
949.967	-1.09
950.396	-2.59
950.825	-6.69
951.254	-1.79
951.682	-9.79
952.111	3.31
952.54	2.41
952.969	-4.89
953.397	-9.09
953.826	-1.29
954.254	-8.99
954.683	-3.19
955.112	-1.69
955.54	-3.39
955.969	-2.49
956.397	-2.09
956.826	-3.99
957.254	-5.39
957.682	-4.79
958.111	0.21
958.539	1.11
958.967	-1.49
959.396	-4.79
959.824	-2.29
960.252	-2.79
960.68	-9.59
961.109	-7.39
961.537	-11.89
961.965	-4.49
962.393	-0.39
962.821	-9.69
963.249	-4.69
963.677	0.61
964.105	-3.19
964.533	15.01
964.961	11.01
965.389	8.01
965.817	0.81
966.245	-6.19
966.672	-2.69
967.1	-4.49
967.528	0.01
967.956	-5.19
968.383	-4.09
968.811	-1.29
969.239	-4.79
969.666	-8.09
970.094	0.51
970.522	-2.09
970.949	-7.39
971.377	-3.89
971.804	-6.99
972.232	-1.39
972.659	-1.99
973.087	-4.69
973.514	-5.99
973.941	1.81
974.369	2.81
974.796	2.91
975.223	0.21
975.651	-2.99
976.078	-1.39
976.505	-3.99
976.932	-1.99
977.359	-0.59
977.786	8.91
978.214	-6.19
978.641	-1.69
979.068	-8.19
979.495	-7.69
979.922	-2.59
980.349	-3.69
980.776	-1.19
981.202	1.01
981.629	3.61
982.056	2.21
982.483	-4.69
982.91	1.21
983.337	-7.19
983.763	7.01
984.19	-10.39
984.617	-8.19
985.043	-10.99
985.47	-0.39
985.897	-5.19
986.323	-5.49
986.75	2.61
987.176	-5.19
987.603	1.51
988.029	-4.09
988.456	-4.69
988.882	-0.39
989.308	-6.39
989.735	-5.79
990.161	1.41
990.587	-6.19
991.014	-4.59
991.44	1.91
991.866	-12.99
992.292	-6.59
992.719	-3.69
993.145	1.51
993.571	-12.89
993.997	-6.39
994.423	-3.99
994.849	1.71
995.275	2.51
995.701	-1.09
996.127	-4.19
996.553	-0.79
996.979	-2.79
997.405	-2.49
997.83	-5.09
998.256	-5.59
998.682	-4.89
999.108	-8.79
999.534	-1.09
999.959	-4.99
1000.385	-3.29
1000.811	-0.59
1001.236	-12.09
1001.662	-7.19
1002.087	-8.09
1002.513	-1.49
1002.938	-2.59
1003.364	-3.49
1003.789	-4.09
1004.215	3.61
1004.64	-2.09
1005.066	-0.39
1005.491	-1.89
1005.916	-7.09
1006.342	-4.59
1006.767	-8.19
1007.192	4.01
1007.617	-2.79
1008.042	-8.29
1008.468	-6.69
1008.893	-7.29
1009.318	1.21
1009.743	-5.59
1010.168	0.21
1010.593	-2.69
1011.018	-11.99
1011.443	-4.59
1011.868	0.11
1012.293	-0.29
1012.718	-8.39
1013.143	6.91
1013.567	-4.89
1013.992	-0.19
1014.417	-15.39
1014.842	0.21
1015.267	-5.09
1015.691	-1.89
1016.116	8.01
1016.541	-1.09
1016.965	1.81
1017.39	-2.79
1017.814	-0.59
1018.239	-3.49
1018.663	-9.69
1019.088	-5.09
1019.512	-2.39
1019.937	-6.69
1020.361	-5.49
1020.785	-10.29
1021.21	-5.89
1021.634	-0.79
1022.058	-5.49
1022.483	5.11
1022.907	-4.19
1023.331	-7.79
1023.755	-2.29
1024.179	-6.79
1024.604	-9.19
1025.028	-7.89
1025.452	-3.49
1025.876	-2.09
1026.3	-2.19
1026.724	-8.29
1027.148	-6.39
1027.572	-12.49
1027.996	-5.49
1028.42	2.41
1028.843	-7.39
1029.267	-2.19
1029.691	-1.59
1030.115	-5.39
1030.539	-4.99
1030.962	-13.29
1031.386	-5.99
1031.81	-1.49
1032.233	4.61
1032.657	-6.39
1033.08	-2.59
1033.504	-1.09
1033.927	-6.09
1034.351	-5.19
1034.774	-3.19
1035.198	2.31
1035.621	-3.89
1036.045	-7.19
1036.468	-1.19
1036.891	-8.89
1037.315	-7.09
1037.738	-8.29
1038.161	-1.59
1038.584	-4.99
1039.008	-3.79
1039.431	-2.29
1039.854	-1.39
1040.277	-4.99
1040.7	-6.99
1041.123	-5.49
1041.546	-10.39
1041.969	-4.89
1042.392	-6.89
1042.815	-8.59
1043.238	-4.09
1043.661	0.81
1044.084	-7.29
1044.507	-7.69
1044.93	-5.89
1045.352	-5.79
1045.775	1.01
1046.198	-0.89
1046.621	-4.29
1047.043	1.81
1047.466	5.01
1047.889	-6.69
1048.311	-2.49
1048.734	-6.69
1049.156	-1.89
1049.579	-0.79
1050.001	-2.39
1050.424	3.51
1050.846	-10.19
1051.269	-2.09
1051.691	-6.09
1052.113	-3.49
1052.536	-1.09
1052.958	-4.29
1053.38	-6.99
1053.802	-7.29
1054.225	0.81
1054.647	-3.59
1055.069	-5.99
1055.491	2.11
1055.913	-9.49
1056.335	-0.79
1056.757	-3.09
1057.179	-4.79
1057.601	-6.49
1058.023	-10.39
1058.445	-6.59
1058.867	-2.99
1059.289	-5.79
1059.711	-7.79
1060.133	-2.39
1060.555	-4.89
1060.976	-4.49
1061.398	-7.49
1061.82	-9.59
1062.241	-2.49
1062.663	-4.79
1063.085	-5.19
1063.506	1.31
1063.928	-3.39
1064.35	-0.19
1064.771	-14.89
1065.193	-1.99
1065.614	-4.99
1066.035	-0.09
1066.457	-5.89
1066.878	3.21
1067.3	-6.29
1067.721	-2.69
1068.142	-0.79
1068.564	-4.49
1068.985	0.11
1069.406	-2.39
1069.827	-2.69
1070.248	3.91
1070.67	-2.89
1071.091	-3.19
1071.512	-7.79
1071.933	-7.09
1072.354	-10.09
1072.775	-2.19
1073.196	-8.39
1073.617	-3.59
1074.038	-6.29
1074.459	-1.79
1074.88	-2.09
1075.3	1.51
1075.721	-7.79
1076.142	-1.39
1076.563	-3.69
1076.983	-9.49
1077.404	-0.99
1077.825	-12.49
1078.246	-2.69
1078.666	-9.49
1079.087	-4.39
1079.507	-6.89
1079.928	1.61
1080.348	0.21
1080.769	-7.49
1081.189	-2.99
1081.61	-5.29
1082.03	-8.79
1082.451	-4.79
1082.871	4.41
1083.291	-7.49
1083.711	-7.49
1084.132	-5.69
1084.552	-0.49
1084.972	-1.39
1085.392	-4.09
1085.813	-9.09
1086.233	-9.39
1086.653	-4.79
1087.073	-0.99
1087.493	-9.69
1087.913	-5.89
1088.333	-5.59
1088.753	-6.79
1089.173	-0.69
1089.593	-2.69
1090.013	3.51
1090.433	0.11
1090.852	-3.79
1091.272	-0.19
1091.692	2.51
1092.112	-8.89
1092.531	-12.39
1092.951	-12.29
1093.371	-3.39
1093.79	-2.59
1094.21	-4.29
1094.63	-5.19
1095.049	-0.49
1095.469	-5.79
1095.888	-6.69
1096.308	9.11
1096.727	3.61
1097.146	-0.59
1097.566	0.21
1097.985	-0.19
1098.405	-1.29
1098.824	-9.39
1099.243	-3.19
1099.662	-5.29
1100.082	-4.39
1100.501	-7.09
1100.92	-4.59
1101.339	-4.29
1101.758	-6.89
