Data from 20171114-ORNL-Ar_H_NY_Subt18_08-08-22-208.txt Node
Date: Tue Nov 14 08:08:22 EST 2017
User: Ender
Spectrometer: HR+D1039
Trigger mode: 0
Integration Time (sec): 2.730000E-2
Scans to average: 10
Electric dark correction enabled: true
Nonlinearity correction enabled: false
Boxcar width: 0
XAxis mode: Wavelengths
Number of Pixels in Spectrum: 2048
>>>>>Begin Spectral Data<<<<<
187.836	-4.89
188.309	-4.89
188.782	-4.89
189.255	1.81
189.728	0.61
190.201	7.01
190.674	3.61
191.147	0.31
191.619	-5.99
192.092	1.31
192.565	1.21
193.038	-0.79
193.511	-0.39
193.984	-1.89
194.456	-2.99
194.929	1.91
195.402	-0.99
195.874	0.11
196.347	1.11
196.82	-2.59
197.292	4.01
197.765	-2.79
198.237	-6.99
198.71	0.51
199.182	3.11
199.655	0.71
200.127	0.81
200.6	1.91
201.072	-1.09
201.544	-0.19
202.017	4.11
202.489	2.51
202.961	-2.99
203.433	-0.09
203.906	-7.89
204.378	-7.39
204.85	-6.79
205.322	-6.89
205.794	0.31
206.266	-0.19
206.739	-7.19
207.211	-1.59
207.683	-4.89
208.155	-6.19
208.627	-8.79
209.099	1.51
209.57	-6.59
210.042	2.71
210.514	2.51
210.986	2.91
211.458	-5.39
211.93	0.71
212.402	5.81
212.873	-7.29
213.345	-4.79
213.817	-11.59
214.288	-2.69
214.76	-10.79
215.232	-2.99
215.703	0.41
216.175	0.81
216.646	-7.89
217.118	-3.29
217.589	-5.89
218.061	-2.79
218.532	-3.89
219.004	2.71
219.475	-2.39
219.946	2.11
220.418	-2.09
220.889	10.71
221.36	3.41
221.832	6.91
222.303	-1.89
222.774	3.61
223.245	-7.39
223.717	-3.39
224.188	-2.29
224.659	-10.39
225.13	-4.79
225.601	-5.69
226.072	0.11
226.543	0.11
227.014	1.91
227.485	-1.79
227.956	-3.29
228.427	-4.99
228.898	3.21
229.369	1.21
229.839	-4.29
230.31	-4.19
230.781	5.61
231.252	-0.39
231.722	-6.89
232.193	-2.79
232.664	-0.69
233.135	0.71
233.605	1.61
234.076	-9.39
234.546	-3.79
235.017	8.61
235.487	-0.39
235.958	-3.99
236.428	-4.09
236.899	3.41
237.369	6.81
237.84	1.31
238.31	8.21
238.78	-2.29
239.251	-0.39
239.721	4.31
240.191	2.11
240.662	2.41
241.132	-0.19
241.602	-4.29
242.072	-2.99
242.542	-0.39
243.013	5.31
243.483	10.01
243.953	3.31
244.423	0.81
244.893	-3.09
245.363	2.61
245.833	-2.39
246.303	-2.29
246.773	9.21
247.243	6.21
247.712	5.51
248.182	8.61
248.652	2.61
249.122	-6.89
249.592	11.81
250.061	20.31
250.531	34.01
251.001	16.71
251.471	23.81
251.94	17.41
252.41	7.31
252.879	7.31
253.349	16.21
253.818	9.81
254.288	2.51
254.757	4.81
255.227	3.71
255.696	2.31
256.166	7.21
256.635	10.51
257.105	10.51
257.574	10.31
258.043	10.41
258.513	13.21
258.982	12.41
259.451	9.81
259.92	15.71
260.389	10.51
260.859	18.11
261.328	12.71
261.797	21.81
262.266	12.11
262.735	8.91
263.204	6.71
263.673	6.61
264.142	10.01
264.611	0.51
265.08	-2.19
265.549	0.41
266.018	10.81
266.487	0.01
266.955	0.11
267.424	-0.79
267.893	1.01
268.362	4.51
268.83	4.41
269.299	12.01
269.768	5.51
270.236	6.51
270.705	4.61
271.174	4.71
271.642	7.81
272.111	6.11
272.579	20.31
273.048	26.11
273.516	28.61
273.985	28.31
274.453	25.61
274.922	21.91
275.39	14.11
275.858	5.91
276.327	9.71
276.795	22.41
277.263	12.21
277.731	29.31
278.2	49.91
278.668	53.21
279.136	44.31
279.604	17.31
280.072	15.91
280.54	12.01
281.008	9.61
281.477	11.41
281.945	13.61
282.413	12.21
282.881	13.21
283.348	6.11
283.816	17.21
284.284	13.71
284.752	14.31
285.22	9.61
285.688	14.21
286.156	16.91
286.623	41.21
287.091	54.01
287.559	28.21
288.026	18.81
288.494	16.21
288.962	3.91
289.429	4.61
289.897	21.71
290.364	17.91
290.832	22.11
291.3	15.01
291.767	17.61
292.234	20.81
292.702	9.61
293.169	17.41
293.637	26.91
294.104	19.91
294.571	14.31
295.039	14.11
295.506	14.41
295.973	14.11
296.44	13.11
296.908	19.91
297.375	18.21
297.842	14.51
298.309	14.51
298.776	17.31
299.243	20.81
299.71	14.21
300.177	25.71
300.644	23.51
301.111	17.91
301.578	27.21
302.045	15.51
302.512	23.91
302.979	19.91
303.446	22.31
303.913	10.91
304.379	23.01
304.846	20.91
305.313	21.41
305.78	21.31
306.246	26.11
306.713	25.11
307.18	24.51
307.646	29.21
308.113	27.41
308.579	20.41
309.046	24.91
309.512	22.61
309.979	18.21
310.445	25.51
310.912	29.91
311.378	31.81
311.845	25.61
312.311	27.11
312.777	33.01
313.244	30.51
313.71	34.41
314.176	33.41
314.642	40.71
315.109	25.91
315.575	36.81
316.041	39.61
316.507	31.31
316.973	40.01
317.439	36.61
317.905	38.21
318.371	32.91
318.837	32.41
319.303	29.31
319.769	33.81
320.235	30.71
320.701	36.41
321.167	34.81
321.633	37.11
322.099	41.31
322.564	40.51
323.03	40.41
323.496	39.91
323.962	41.61
324.427	37.91
324.893	37.61
325.359	40.71
325.824	42.21
326.29	38.61
326.755	39.41
327.221	41.51
327.686	41.01
328.152	48.31
328.617	42.71
329.083	45.51
329.548	53.11
330.014	44.41
330.479	39.71
330.944	44.21
331.41	41.51
331.875	41.61
332.34	41.11
332.805	47.91
333.271	48.91
333.736	38.91
334.201	55.11
334.666	43.21
335.131	53.41
335.596	49.01
336.061	49.01
336.526	39.41
336.991	44.81
337.456	56.51
337.921	41.21
338.386	50.71
338.851	46.41
339.316	51.41
339.781	46.21
340.246	51.41
340.711	51.91
341.175	47.81
341.64	46.01
342.105	50.91
342.569	54.11
343.034	54.41
343.499	48.61
343.963	53.51
344.428	68.41
344.893	64.91
345.357	53.41
345.822	58.91
346.286	65.91
346.751	69.91
347.215	64.71
347.679	74.31
348.144	94.71
348.608	83.61
349.073	71.71
349.537	72.41
350.001	73.71
350.465	90.81
350.93	76.01
351.394	77.01
351.858	70.71
352.322	92.41
352.786	88.11
353.25	101.41
353.715	108.01
354.179	101.11
354.643	123.61
355.107	127.51
355.571	99.71
356.035	106.41
356.498	119.41
356.962	125.51
357.426	135.61
357.89	117.41
358.354	82.61
358.818	88.11
359.281	79.61
359.745	72.11
360.209	77.11
360.673	81.61
361.136	79.91
361.6	81.41
362.064	82.21
362.527	91.41
362.991	92.31
363.454	81.01
363.918	81.91
364.381	73.01
364.845	80.91
365.308	84.61
365.772	83.81
366.235	85.51
366.698	85.01
367.162	92.11
367.625	82.31
368.088	84.31
368.552	83.11
369.015	93.81
369.478	100.91
369.941	105.51
370.404	94.21
370.867	104.11
371.331	108.51
371.794	112.61
372.257	109.11
372.72	121.71
373.183	109.21
373.646	103.51
374.109	109.61
374.572	113.01
375.035	112.81
375.497	105.71
375.96	114.31
376.423	104.31
376.886	107.41
377.349	115.61
377.811	105.51
378.274	108.11
378.737	111.21
379.199	113.91
379.662	115.41
380.125	125.81
380.587	112.41
381.05	123.51
381.512	126.01
381.975	133.71
382.437	131.31
382.9	135.21
383.362	134.31
383.825	140.11
384.287	150.41
384.75	142.41
385.212	141.91
385.674	140.11
386.136	134.01
386.599	124.61
387.061	126.61
387.523	131.41
387.985	139.21
388.447	139.61
388.91	150.81
389.372	160.71
389.834	157.81
390.296	144.11
390.758	157.61
391.22	171.21
391.682	215.11
392.144	301.31
392.606	238.21
393.068	167.81
393.529	170.81
393.991	159.51
394.453	147.41
394.915	161.31
395.377	201.21
395.838	216.01
396.3	152.41
396.762	138.91
397.224	133.71
397.685	135.61
398.147	128.21
398.608	130.21
399.07	136.21
399.531	138.81
399.993	141.81
400.454	150.91
400.916	145.81
401.377	144.21
401.839	147.01
402.3	156.01
402.762	171.41
403.223	179.61
403.684	176.01
404.145	159.71
404.607	153.41
405.068	166.21
405.529	169.11
405.99	194.31
406.451	176.31
406.913	181.41
407.374	164.01
407.835	163.21
408.296	169.11
408.757	175.11
409.218	191.11
409.679	181.21
410.14	174.11
410.601	182.91
411.062	183.51
411.522	197.01
411.983	199.11
412.444	176.01
412.905	180.51
413.366	188.51
413.826	191.81
414.287	216.31
414.748	256.91
415.208	249.11
415.669	210.61
416.13	201.11
416.59	201.31
417.051	215.01
417.511	216.91
417.972	233.21
418.432	248.21
418.893	293.11
419.353	247.91
419.814	194.91
420.274	183.61
420.734	184.31
421.195	199.81
421.655	198.91
422.115	191.01
422.576	190.11
423.036	199.81
423.496	210.21
423.956	213.41
424.416	236.11
424.876	261.21
425.336	257.51
425.797	267.11
426.257	258.41
426.717	241.01
427.177	231.21
427.637	224.81
428.097	233.81
428.556	247.91
429.016	270.61
429.476	265.11
429.936	281.61
430.396	285.91
430.856	298.71
431.315	319.61
431.775	355.91
432.235	386.21
432.694	346.91
433.154	362.31
433.614	404.01
434.073	347.51
434.533	288.21
434.993	274.11
435.452	285.71
435.912	301.51
436.371	290.11
436.83	285.71
437.29	271.01
437.749	259.91
438.209	247.31
438.668	279.31
439.127	289.71
439.587	270.61
440.046	251.11
440.505	265.71
440.964	277.51
441.424	329.61
441.883	315.11
442.342	269.21
442.801	228.31
443.26	222.11
443.719	223.31
444.178	224.91
444.637	207.91
445.096	224.31
445.555	221.71
446.014	223.71
446.473	223.71
446.932	229.61
447.391	225.11
447.849	225.41
448.308	219.51
448.767	218.11
449.226	233.51
449.685	233.81
450.143	244.11
450.602	243.01
451.061	230.81
451.519	235.51
451.978	226.51
452.436	238.41
452.895	242.71
453.353	258.91
453.812	242.81
454.27	235.71
454.729	238.31
455.187	235.71
455.646	247.11
456.104	249.11
456.562	261.41
457.021	262.11
457.479	256.41
457.937	270.51
458.395	260.81
458.854	244.51
459.312	251.11
459.77	278.11
460.228	255.11
460.686	241.81
461.144	242.31
461.602	244.31
462.06	240.51
462.518	258.01
462.976	255.21
463.434	259.71
463.892	264.11
464.35	271.61
464.808	287.51
465.266	263.51
465.724	263.81
466.181	266.81
466.639	267.41
467.097	285.71
467.555	307.71
468.012	307.61
468.47	303.41
468.928	329.51
469.385	343.61
469.843	351.31
470.3	349.81
470.758	362.91
471.215	384.91
471.673	405.51
472.13	407.01
472.588	423.71
473.045	373.21
473.503	372.41
473.96	395.71
474.417	402.91
474.875	433.61
475.332	474.41
475.789	462.91
476.246	467.61
476.704	489.31
477.161	502.61
477.618	531.51
478.075	557.21
478.532	617.21
478.989	682.61
479.446	803.01
479.903	765.31
480.36	810.01
480.817	855.21
481.274	972.41
481.731	1072.51
482.188	1169.81
482.645	1293.31
483.102	1393.51
483.558	1516.41
484.015	1588.91
484.472	1560.61
484.929	1520.71
485.385	1467.41
485.842	1437.01
486.299	1354.91
486.755	1292.11
487.212	1097.51
487.668	916.41
488.125	842.21
488.582	779.01
489.038	740.01
489.494	707.71
489.951	673.61
490.407	665.11
490.864	647.11
491.32	637.71
491.776	640.31
492.233	643.51
492.689	607.41
493.145	600.71
493.602	598.91
494.058	607.21
494.514	630.31
494.97	639.01
495.426	639.31
495.882	617.91
496.338	600.91
496.794	620.91
497.251	606.51
497.707	623.21
498.163	632.41
498.618	641.01
499.074	643.31
499.53	670.51
499.986	672.41
500.442	644.01
500.898	626.81
501.354	628.61
501.809	628.41
502.265	640.41
502.721	657.81
503.177	674.71
503.632	665.11
504.088	669.41
504.543	705.01
504.999	697.61
505.455	644.71
505.91	616.31
506.366	623.41
506.821	617.01
507.277	619.21
507.732	619.11
508.187	620.31
508.643	635.71
509.098	631.61
509.553	645.91
510.009	654.81
510.464	650.71
510.919	677.51
511.375	689.41
511.83	696.81
512.285	720.81
512.74	751.21
513.195	776.31
513.65	771.91
514.105	760.41
514.56	753.41
515.015	775.81
515.47	799.31
515.925	784.01
516.38	778.31
516.835	782.71
517.29	784.01
517.745	763.51
518.2	744.81
518.655	742.11
519.109	740.31
519.564	742.41
520.019	718.61
520.474	721.51
520.928	709.61
521.383	711.51
521.838	710.91
522.292	710.61
522.747	704.31
523.201	699.61
523.656	684.41
524.11	691.91
524.565	687.61
525.019	679.61
525.474	705.71
525.928	693.01
526.382	685.71
526.837	688.41
527.291	702.31
527.745	685.11
528.2	686.81
528.654	681.51
529.108	678.31
529.562	693.01
530.016	680.51
530.47	680.91
530.925	686.11
531.379	692.71
531.833	693.81
532.287	698.41
532.741	692.91
533.195	702.21
533.649	709.21
534.103	711.11
534.556	696.31
535.01	699.51
535.464	696.81
535.918	711.71
536.372	703.81
536.826	707.81
537.279	696.31
537.733	698.61
538.187	712.01
538.64	710.71
539.094	716.81
539.548	718.71
540.001	722.11
540.455	709.41
540.908	732.61
541.362	729.71
541.815	738.01
542.269	751.21
542.722	749.91
543.175	761.11
543.629	765.01
544.082	775.81
544.536	776.61
544.989	772.61
545.442	774.71
545.895	780.11
546.349	778.61
546.802	792.11
547.255	787.31
547.708	793.81
548.161	802.11
548.614	813.01
549.067	821.41
549.52	813.01
549.973	798.01
550.426	796.41
550.879	782.91
551.332	788.41
551.785	805.81
552.238	791.91
552.691	809.31
553.144	830.01
553.596	841.31
554.049	851.51
554.502	879.41
554.955	901.61
555.407	903.11
555.86	896.61
556.313	875.61
556.765	878.01
557.218	865.21
557.67	874.91
558.123	866.61
558.576	852.51
559.028	872.71
559.48	866.21
559.933	864.61
560.385	831.91
560.838	807.61
561.29	786.41
561.742	773.31
562.195	763.61
562.647	752.21
563.099	761.01
563.551	764.31
564.004	770.11
564.456	764.21
564.908	763.71
565.36	753.71
565.812	735.11
566.264	721.41
566.716	721.61
567.168	720.91
567.62	724.21
568.072	701.91
568.524	694.11
568.976	690.01
569.428	671.11
569.88	676.91
570.332	681.21
570.784	681.91
571.235	686.11
571.687	690.51
572.139	694.51
572.59	703.01
573.042	702.91
573.494	698.21
573.945	698.71
574.397	679.31
574.849	684.01
575.3	687.01
575.752	675.51
576.203	683.41
576.655	681.71
577.106	665.41
577.557	667.61
578.009	674.01
578.46	661.91
578.912	666.51
579.363	655.81
579.814	669.21
580.265	656.11
580.717	655.51
581.168	675.51
581.619	667.81
582.07	676.71
582.521	675.61
582.972	674.31
583.423	677.71
583.875	690.21
584.326	711.11
584.777	756.81
585.227	835.21
585.678	943.91
586.129	1034.41
586.58	1107.21
587.031	1196.11
587.482	1362.01
587.933	1562.11
588.384	1346.31
588.834	996.51
589.285	811.41
589.736	786.91
590.186	773.31
590.637	766.01
591.088	738.91
591.538	746.41
591.989	730.51
592.439	730.21
592.89	716.41
593.34	706.71
593.791	706.01
594.241	711.71
594.692	707.91
595.142	694.41
595.593	701.51
596.043	714.81
596.493	715.81
596.943	716.31
597.394	723.81
597.844	711.61
598.294	717.41
598.744	748.81
599.195	778.91
599.645	827.31
600.095	854.41
600.545	906.61
600.995	968.01
601.445	1015.31
601.895	1077.81
602.345	1130.01
602.795	1110.51
603.245	1063.81
603.695	997.61
604.145	955.71
604.594	904.91
605.044	850.21
605.494	795.41
605.944	757.61
606.393	742.51
606.843	722.81
607.293	737.91
607.743	737.21
608.192	752.61
608.642	762.71
609.091	765.71
609.541	767.21
609.99	772.91
610.44	774.91
610.889	722.21
611.339	701.01
611.788	688.81
612.238	708.21
612.687	729.11
613.136	713.61
613.586	737.81
614.035	753.01
614.484	760.51
614.933	768.31
615.383	759.31
615.832	746.61
616.281	730.11
616.73	696.21
617.179	660.41
617.628	656.21
618.077	644.21
618.526	621.51
618.975	616.61
619.424	625.51
619.873	615.71
620.322	626.41
620.771	611.91
621.22	610.51
621.669	594.41
622.118	588.51
622.567	584.01
623.015	566.41
623.464	579.81
623.913	565.91
624.361	554.91
624.81	556.91
625.259	555.51
625.707	551.71
626.156	556.21
626.604	566.91
627.053	569.01
627.501	560.01
627.95	575.81
628.398	582.71
628.847	562.61
629.295	573.11
629.744	575.91
630.192	575.41
630.64	577.61
631.089	572.31
631.537	579.61
631.985	596.01
632.433	617.51
632.881	624.71
633.33	673.71
633.778	655.91
634.226	583.41
634.674	579.61
635.122	581.51
635.57	604.21
636.018	643.71
636.466	580.61
636.914	556.31
637.362	572.11
637.81	577.11
638.258	581.71
638.705	581.31
639.153	610.51
639.601	609.81
640.049	642.41
640.497	671.81
640.944	693.21
641.392	644.71
641.84	614.71
642.287	592.61
642.735	581.71
643.182	582.51
643.63	577.61
644.078	584.11
644.525	590.71
644.973	597.61
645.42	610.11
645.867	625.91
646.315	643.31
646.762	675.21
647.21	695.01
647.657	720.41
648.104	756.91
648.551	780.21
648.999	846.31
649.446	923.31
649.893	1024.71
650.34	1186.91
650.787	1419.71
651.234	1768.21
651.682	2322.91
652.129	3193.61
652.576	4618.21
653.023	6797.31
653.47	9313.31
653.917	11493.81
654.363	13200.61
654.81	14505.81
655.257	13780.61
655.704	9039.01
656.151	5331.61
656.598	3451.21
657.044	2439.11
657.491	1882.51
657.938	1513.51
658.385	1253.31
658.831	1080.01
659.278	972.11
659.724	872.41
660.171	794.41
660.618	731.41
661.064	697.41
661.511	664.51
661.957	659.81
662.404	651.31
662.85	649.71
663.296	632.01
663.743	567.91
664.189	543.31
664.635	532.51
665.082	527.71
665.528	526.41
665.974	522.01
666.42	517.71
666.867	510.21
667.313	504.81
667.759	500.11
668.205	490.81
668.651	486.71
669.097	494.51
669.543	522.71
669.989	481.71
670.435	450.61
670.881	458.11
671.327	457.21
671.773	476.71
672.219	497.31
672.665	551.61
673.11	580.11
673.556	633.01
674.002	660.21
674.448	651.91
674.893	553.91
675.339	471.31
675.785	445.61
676.23	418.01
676.676	387.81
677.122	381.91
677.567	375.91
678.013	359.71
678.458	359.31
678.904	369.51
679.349	353.21
679.794	360.21
680.24	352.91
680.685	347.71
681.131	346.01
681.576	349.21
682.021	352.71
682.466	354.61
682.912	351.01
683.357	359.21
683.802	376.01
684.247	416.71
684.692	460.01
685.137	492.51
685.583	541.81
686.028	559.91
686.473	519.01
686.918	448.11
687.363	405.91
687.807	386.21
688.252	362.81
688.697	360.51
689.142	342.81
689.587	335.81
690.032	331.11
690.477	344.91
690.921	352.61
691.366	380.01
691.811	407.61
692.255	436.21
692.7	463.61
693.145	506.81
693.589	706.71
694.034	1141.61
694.478	1552.31
694.923	1719.11
695.367	2234.61
695.812	1192.31
696.256	503.71
696.701	375.21
697.145	338.01
697.59	322.11
698.034	319.41
698.478	337.01
698.922	334.91
699.367	324.51
699.811	344.71
700.255	356.61
700.699	383.21
701.143	427.51
701.588	477.61
702.032	510.21
702.476	509.61
702.92	493.21
703.364	503.21
703.808	653.91
704.252	1060.51
704.696	1478.21
705.14	1655.01
705.584	2109.41
706.027	1055.71
706.471	526.51
706.915	394.21
707.359	350.01
707.803	323.21
708.246	309.21
708.69	311.61
709.134	320.71
709.577	313.81
710.021	314.01
710.465	312.41
710.908	305.91
711.352	301.81
711.795	321.51
712.239	353.11
712.682	392.91
713.126	419.21
713.569	468.51
714.012	374.71
714.456	331.51
714.899	310.21
715.342	279.91
715.786	266.51
716.229	263.01
716.672	263.01
717.115	251.31
717.558	252.21
718.002	252.91
718.445	265.91
718.888	288.91
719.331	303.51
719.774	316.21
720.217	304.01
720.66	283.51
721.103	263.41
721.546	264.41
721.989	255.11
722.432	234.01
722.874	235.41
723.317	237.51
723.76	239.61
724.203	263.41
724.645	324.51
725.088	457.01
725.531	578.31
725.974	638.91
726.416	557.41
726.859	312.21
727.301	251.01
727.744	235.21
728.187	236.31
728.629	241.21
729.071	247.91
729.514	261.61
729.956	270.61
730.399	290.31
730.841	285.41
731.283	272.91
731.726	273.01
732.168	262.41
732.61	270.91
733.053	295.91
733.495	317.21
733.937	358.51
734.379	402.91
734.821	438.91
735.263	548.61
735.705	856.01
736.148	1616.21
736.59	2606.11
737.032	2993.51
737.474	2450.51
737.916	802.91
738.357	426.21
738.799	327.81
739.241	294.41
739.683	277.71
740.125	289.31
740.567	297.31
741.008	316.71
741.45	325.81
741.892	315.61
742.334	345.91
742.775	347.91
743.217	338.91
743.658	264.11
744.1	247.81
744.542	262.71
744.983	313.71
745.425	344.01
745.866	338.71
746.307	285.61
746.749	283.41
747.19	335.91
747.632	471.61
748.073	916.31
748.514	1920.41
748.956	2856.61
749.397	3586.21
749.838	2958.01
750.279	2920.91
750.72	1475.71
751.162	539.91
751.603	322.11
752.044	254.41
752.485	219.11
752.926	210.61
753.367	205.31
753.808	187.81
754.249	194.11
754.69	183.11
755.131	182.51
755.572	187.61
756.013	181.61
756.453	188.31
756.894	186.91
757.335	193.71
757.776	197.21
758.216	195.81
758.657	205.71
759.098	207.91
759.538	234.81
759.979	278.91
760.42	384.31
760.86	730.21
761.301	1895.71
761.741	4507.51
762.182	6305.61
762.622	4430.71
763.063	1303.41
763.503	547.01
763.943	357.61
764.384	355.01
764.824	433.31
765.264	463.71
765.705	324.91
766.145	210.71
766.585	190.01
767.025	182.91
767.465	193.21
767.906	259.91
768.346	343.11
768.786	359.91
769.226	271.51
769.666	325.81
770.106	642.51
770.546	1605.91
770.986	2613.61
771.426	2325.81
771.866	792.51
772.306	324.51
772.745	207.91
773.185	174.91
773.625	165.51
774.065	173.91
774.505	201.31
774.944	327.41
775.384	719.71
775.824	1276.11
776.263	1214.11
776.703	518.51
777.142	232.51
777.582	166.91
778.021	147.31
778.461	143.11
778.9	143.71
779.34	136.31
779.779	124.21
780.219	109.51
780.658	110.31
781.097	111.61
781.537	116.41
781.976	111.01
782.415	111.41
782.855	113.41
783.294	103.91
783.733	108.31
784.172	109.51
784.611	108.91
785.05	112.31
785.489	111.21
785.928	122.51
786.367	128.01
786.806	115.11
787.245	134.51
787.684	138.41
788.123	148.61
788.562	137.11
789.001	124.81
789.44	127.01
789.879	116.91
790.317	119.41
790.756	139.91
791.195	125.21
791.634	144.31
792.072	205.11
792.511	383.71
792.95	1051.21
793.388	2151.11
793.827	1883.01
794.265	670.51
794.704	283.61
795.142	188.91
795.581	158.71
796.019	134.61
796.458	137.51
796.896	127.41
797.334	135.31
797.773	157.81
798.211	222.21
798.649	462.21
799.087	1036.81
799.526	1615.21
799.964	2028.01
800.402	1966.41
800.84	753.41
801.278	303.21
801.716	192.01
802.154	160.51
802.592	147.31
803.03	140.61
803.468	138.11
803.906	142.41
804.344	150.51
804.782	143.71
805.22	134.91
805.658	133.61
806.096	151.21
806.533	156.01
806.971	174.21
807.409	216.51
807.847	330.11
808.284	694.61
808.722	1899.81
809.16	3245.11
809.597	3168.01
810.035	5448.11
810.472	5585.41
810.91	2053.41
811.347	795.71
811.785	404.01
812.222	253.21
812.66	199.41
813.097	166.91
813.535	143.11
813.972	132.51
814.409	122.41
814.846	115.41
815.284	113.21
815.721	109.01
816.158	114.81
816.595	129.61
817.032	182.91
817.47	206.11
817.907	171.81
818.344	168.11
818.781	121.41
819.218	103.21
819.655	126.51
820.092	182.21
820.529	209.91
820.966	172.81
821.403	133.51
821.839	106.61
822.276	105.11
822.713	128.11
823.15	134.61
823.587	123.71
824.023	154.21
824.46	313.31
824.897	926.81
825.333	1332.11
825.77	580.81
826.206	236.71
826.643	137.51
827.08	96.11
827.516	79.81
827.953	72.81
828.389	76.01
828.825	71.91
829.262	69.01
829.698	64.01
830.135	66.21
830.571	66.51
831.007	64.61
831.443	66.71
831.88	63.61
832.316	63.91
832.752	70.51
833.188	70.21
833.624	71.41
834.06	64.21
834.497	70.91
834.933	70.41
835.369	80.31
835.805	71.61
836.241	78.41
836.677	76.41
837.112	93.11
837.548	100.91
837.984	130.91
838.42	207.21
838.856	514.01
839.292	1542.51
839.727	2256.41
840.163	1062.41
840.599	948.31
841.034	2048.41
841.47	2073.61
841.906	770.41
842.341	331.61
842.777	239.71
843.212	331.81
843.648	309.61
844.083	152.71
844.519	99.61
844.954	77.41
845.39	60.41
845.825	61.11
846.261	50.11
846.696	53.61
847.131	54.41
847.566	58.11
848.002	57.41
848.437	53.71
848.872	62.41
849.307	64.51
849.742	86.51
850.177	189.51
850.613	568.41
851.048	868.31
851.483	382.11
851.918	155.61
852.353	93.61
852.788	68.61
853.223	59.31
853.657	60.21
854.092	47.31
854.527	44.11
854.962	43.41
855.397	46.11
855.832	51.41
856.266	40.41
856.701	42.51
857.136	39.01
857.57	46.41
858.005	52.31
858.44	62.11
858.874	49.61
859.309	53.31
859.743	37.41
860.178	46.21
860.612	42.61
861.047	54.71
861.481	67.11
861.915	65.81
862.35	51.51
862.784	40.41
863.218	38.21
863.653	38.61
864.087	48.11
864.521	52.71
864.955	77.21
865.39	158.21
865.824	173.71
866.258	122.51
866.692	157.21
867.126	167.31
867.56	101.71
867.994	58.31
868.428	36.81
868.862	44.71
869.296	55.51
869.73	55.61
870.164	53.61
870.598	47.01
871.031	40.91
871.465	31.01
871.899	31.21
872.333	25.41
872.766	28.21
873.2	20.81
873.634	26.91
874.067	23.61
874.501	29.41
874.935	38.81
875.368	32.41
875.802	28.51
876.235	24.31
876.669	30.31
877.102	25.01
877.535	29.31
877.969	23.31
878.402	21.21
878.836	22.21
879.269	25.91
879.702	23.81
880.135	19.41
880.569	25.01
881.002	33.11
881.435	23.31
881.868	19.61
882.301	22.51
882.734	19.81
883.167	28.51
883.601	15.61
884.034	24.51
884.467	14.21
884.899	23.31
885.332	16.81
885.765	20.11
886.198	17.41
886.631	19.71
887.064	21.71
887.497	14.51
887.929	27.81
888.362	19.71
888.795	10.71
889.228	21.21
889.66	17.61
890.093	22.11
890.526	16.91
890.958	14.91
891.391	17.91
891.823	25.91
892.256	16.71
892.688	16.41
893.121	15.91
893.553	18.51
893.985	24.21
894.418	20.71
894.85	13.91
895.282	15.51
895.715	17.51
896.147	20.51
896.579	21.61
897.011	17.41
897.444	21.31
897.876	16.71
898.308	17.11
898.74	15.51
899.172	14.51
899.604	28.31
900.036	15.61
900.468	16.61
900.9	13.71
901.332	17.31
901.764	15.01
902.196	21.11
902.628	15.01
903.06	19.21
903.491	32.41
903.923	25.11
904.355	19.41
904.787	23.21
905.218	24.31
905.65	22.01
906.082	12.71
906.513	16.91
906.945	16.41
907.376	14.01
907.808	20.01
908.239	22.11
908.671	24.01
909.102	19.11
909.534	23.81
909.965	49.11
910.397	98.21
910.828	306.01
911.259	466.71
911.691	213.81
912.122	102.01
912.553	47.31
912.984	37.21
913.415	28.91
913.847	23.51
914.278	13.81
914.709	18.21
915.14	18.31
915.571	20.61
916.002	10.41
916.433	25.41
916.864	15.11
917.295	11.91
917.726	22.11
918.157	18.01
918.587	28.91
919.018	23.51
919.449	21.51
919.88	22.31
920.311	34.21
920.741	52.41
921.172	172.01
921.603	145.11
922.033	73.91
922.464	45.41
922.895	25.61
923.325	26.91
923.756	19.31
924.186	14.41
924.617	27.21
925.047	41.41
925.478	54.81
925.908	41.91
926.338	34.71
926.769	24.31
927.199	26.11
927.629	10.41
928.06	17.31
928.49	11.61
928.92	13.41
929.35	14.61
929.78	13.81
930.21	11.81
930.641	7.91
931.071	10.11
931.501	6.21
931.931	12.11
932.361	11.91
932.791	6.11
933.221	13.41
933.651	9.11
934.08	16.51
934.51	33.11
934.94	10.81
935.37	13.21
935.8	15.11
936.229	6.11
936.659	7.21
937.089	7.21
937.519	12.51
937.948	21.81
938.378	20.61
938.807	6.41
939.237	2.01
939.666	11.51
940.096	-2.89
940.525	4.01
940.955	7.41
941.384	0.91
941.814	-7.79
942.243	-4.29
942.672	0.11
943.102	-8.69
943.531	2.31
943.96	5.61
944.39	2.01
944.819	0.61
945.248	11.01
945.677	0.41
946.106	1.21
946.535	4.51
946.964	3.51
947.393	4.61
947.822	3.21
948.251	-8.59
948.68	1.71
949.109	3.91
949.538	4.61
949.967	4.61
950.396	2.31
950.825	1.11
951.254	1.41
951.682	-3.79
952.111	8.71
952.54	2.41
952.969	2.21
953.397	-0.89
953.826	-0.59
954.254	-6.19
954.683	-0.89
955.112	-1.99
955.54	1.51
955.969	9.51
956.397	4.91
956.826	-2.09
957.254	3.31
957.682	1.91
958.111	5.61
958.539	0.41
958.967	0.91
959.396	1.31
959.824	1.71
960.252	4.51
960.68	0.91
961.109	1.01
961.537	-2.09
961.965	1.01
962.393	1.91
962.821	0.01
963.249	-0.19
963.677	3.21
964.105	7.21
964.533	53.21
964.961	43.91
965.389	23.61
965.817	9.81
966.245	2.31
966.672	3.51
967.1	-2.99
967.528	5.11
967.956	-0.89
968.383	1.01
968.811	-2.79
969.239	4.71
969.666	-2.89
970.094	5.81
970.522	3.31
970.949	-1.69
971.377	-8.09
971.804	-3.09
972.232	-1.39
972.659	4.31
973.087	-3.99
973.514	-3.19
973.941	-1.99
974.369	1.61
974.796	-0.19
975.223	2.91
975.651	5.81
976.078	4.41
976.505	-3.09
976.932	2.31
977.359	17.81
977.786	13.51
978.214	4.61
978.641	-6.59
979.068	-6.19
979.495	0.01
979.922	5.31
980.349	0.81
980.776	-0.59
981.202	-2.39
981.629	3.61
982.056	6.31
982.483	-1.79
982.91	4.71
983.337	-1.19
983.763	4.31
984.19	-3.99
984.617	-5.49
985.043	-5.69
985.47	-0.49
985.897	-0.89
986.323	-3.99
986.75	3.61
987.176	-7.39
987.603	5.61
988.029	-0.39
988.456	-2.39
988.882	5.31
989.308	-4.29
989.735	0.21
990.161	-1.39
990.587	-5.39
991.014	2.81
991.44	8.41
991.866	0.71
992.292	-0.29
992.719	-6.09
993.145	2.81
993.571	-8.09
993.997	-2.49
994.423	4.61
994.849	-3.19
995.275	3.71
995.701	4.11
996.127	1.11
996.553	-0.69
996.979	-2.09
997.405	-0.09
997.83	1.11
998.256	-1.69
998.682	-6.29
999.108	-8.99
999.534	2.41
999.959	-0.99
1000.385	-1.39
1000.811	4.21
1001.236	-9.49
1001.662	-7.29
1002.087	-2.79
1002.513	0.61
1002.938	-0.29
1003.364	-2.29
1003.789	-0.39
1004.215	4.71
1004.64	-0.19
1005.066	5.21
1005.491	-0.09
1005.916	-0.69
1006.342	-6.99
1006.767	-5.19
1007.192	6.31
1007.617	-2.99
1008.042	0.91
1008.468	-8.89
1008.893	-5.39
1009.318	1.11
1009.743	-1.59
1010.168	6.21
1010.593	6.41
1011.018	-8.19
1011.443	0.51
1011.868	0.81
1012.293	-4.39
1012.718	-1.49
1013.143	1.41
1013.567	-1.09
1013.992	-4.69
1014.417	-6.99
1014.842	1.01
1015.267	-3.49
1015.691	-3.59
1016.116	3.51
1016.541	-1.29
1016.965	2.51
1017.39	-1.89
1017.814	4.21
1018.239	-0.39
1018.663	-7.09
1019.088	-9.39
1019.512	4.31
1019.937	1.41
1020.361	-0.39
1020.785	-10.99
1021.21	-8.59
1021.634	1.21
1022.058	6.01
1022.483	7.81
1022.907	-2.99
1023.331	-1.59
1023.755	-3.29
1024.179	1.51
1024.604	-2.69
1025.028	-5.09
1025.452	-3.19
1025.876	1.51
1026.3	9.01
1026.724	-10.49
1027.148	-4.39
1027.572	-7.59
1027.996	0.31
1028.42	-2.29
1028.843	0.51
1029.267	-1.99
1029.691	-3.59
1030.115	-0.09
1030.539	-8.19
1030.962	-9.19
1031.386	-8.59
1031.81	2.51
1032.233	4.91
1032.657	2.01
1033.08	-4.19
1033.504	-1.09
1033.927	-2.89
1034.351	3.01
1034.774	-3.69
1035.198	-2.79
1035.621	0.01
1036.045	-7.29
1036.468	-1.69
1036.891	-9.29
1037.315	-10.69
1037.738	-9.39
1038.161	-4.69
1038.584	-6.19
1039.008	-7.99
1039.431	-3.19
1039.854	-3.19
1040.277	-6.89
1040.7	-6.99
1041.123	4.71
1041.546	-9.49
1041.969	-6.99
1042.392	-6.09
1042.815	-1.09
1043.238	-0.99
1043.661	5.31
1044.084	-2.29
1044.507	1.01
1044.93	-8.99
1045.352	-0.99
1045.775	1.91
1046.198	2.11
1046.621	-1.19
1047.043	-1.09
1047.466	8.91
1047.889	-2.79
1048.311	-3.69
1048.734	-0.99
1049.156	-5.39
1049.579	-0.19
1050.001	-3.59
1050.424	0.01
1050.846	-6.79
1051.269	1.21
1051.691	-5.99
1052.113	-10.59
1052.536	-4.79
1052.958	-4.99
1053.38	-2.99
1053.802	-3.99
1054.225	1.41
1054.647	-5.39
1055.069	-8.39
1055.491	8.51
1055.913	-1.09
1056.335	3.41
1056.757	-5.89
1057.179	-12.29
1057.601	-4.49
1058.023	-0.99
1058.445	-3.39
1058.867	-4.69
1059.289	2.21
1059.711	-12.69
1060.133	-5.79
1060.555	-6.99
1060.976	-8.79
1061.398	-7.09
1061.82	-8.99
1062.241	-7.09
1062.663	-6.39
1063.085	0.01
1063.506	3.31
1063.928	2.01
1064.35	-5.49
1064.771	-6.69
1065.193	1.31
1065.614	-5.89
1066.035	-0.99
1066.457	-1.99
1066.878	2.31
1067.3	-5.49
1067.721	-6.69
1068.142	-5.59
1068.564	-1.79
1068.985	-0.99
1069.406	-0.69
1069.827	-1.69
1070.248	4.01
1070.67	-1.29
1071.091	-4.59
1071.512	-3.09
1071.933	-9.79
1072.354	-6.99
1072.775	-1.49
1073.196	-1.19
1073.617	-1.09
1074.038	-7.59
1074.459	-3.89
1074.88	-2.39
1075.3	0.61
1075.721	-7.89
1076.142	5.81
1076.563	3.31
1076.983	-7.89
1077.404	-5.79
1077.825	-11.59
1078.246	-2.59
1078.666	-8.69
1079.087	-6.99
1079.507	-6.59
1079.928	-0.89
1080.348	2.81
1080.769	-2.39
1081.189	0.51
1081.61	-1.29
1082.03	-5.49
1082.451	-8.39
1082.871	-1.39
1083.291	-0.39
1083.711	-2.69
1084.132	0.01
1084.552	-2.69
1084.972	-0.29
1085.392	-7.39
1085.813	-10.19
1086.233	-2.09
1086.653	-2.49
1087.073	0.31
1087.493	-6.59
1087.913	-8.19
1088.333	-5.79
1088.753	-4.89
1089.173	2.11
1089.593	-8.59
1090.013	-1.39
1090.433	-0.09
1090.852	-3.29
1091.272	-1.79
1091.692	-4.89
1092.112	-11.39
1092.531	-9.09
1092.951	-4.09
1093.371	-1.59
1093.79	4.21
1094.21	-1.89
1094.63	-9.49
1095.049	-8.49
1095.469	0.71
1095.888	6.51
1096.308	3.11
1096.727	4.91
1097.146	-8.89
1097.566	3.71
1097.985	0.31
1098.405	1.51
1098.824	-5.19
1099.243	-0.59
1099.662	-3.19
1100.082	-2.79
1100.501	0.01
1100.92	-2.39
1101.339	-4.09
1101.758	-2.79
