Data from 20171114-ORNL-Ar_H_NY_Subt18_08-05-13-309.txt Node
Date: Tue Nov 14 08:05:13 EST 2017
User: Ender
Spectrometer: HR+D1039
Trigger mode: 0
Integration Time (sec): 2.730000E-2
Scans to average: 10
Electric dark correction enabled: true
Nonlinearity correction enabled: false
Boxcar width: 0
XAxis mode: Wavelengths
Number of Pixels in Spectrum: 2048
>>>>>Begin Spectral Data<<<<<
187.836	-2.74
188.309	-2.74
188.782	-2.74
189.255	-0.84
189.728	-0.14
190.201	7.96
190.674	1.16
191.147	2.56
191.619	-9.64
192.092	1.96
192.565	4.06
193.038	-0.04
193.511	1.26
193.984	0.66
194.456	-5.64
194.929	-0.54
195.402	-6.94
195.874	6.96
196.347	-2.34
196.82	-8.54
197.292	7.96
197.765	-0.14
198.237	-3.14
198.71	-0.54
199.182	-0.74
199.655	4.26
200.127	4.56
200.6	-5.04
201.072	-5.14
201.544	-0.24
202.017	-0.84
202.489	6.96
202.961	-1.64
203.433	1.56
203.906	-1.34
204.378	-4.84
204.85	-2.94
205.322	-7.24
205.794	-1.44
206.266	-4.94
206.739	-3.74
207.211	0.66
207.683	-8.84
208.155	-4.84
208.627	-5.54
209.099	-7.94
209.57	-10.34
210.042	-2.54
210.514	-2.44
210.986	0.56
211.458	-4.14
211.93	0.36
212.402	-1.84
212.873	-1.54
213.345	-4.84
213.817	-7.54
214.288	-4.54
214.76	-13.54
215.232	-3.64
215.703	-1.54
216.175	2.46
216.646	-4.44
217.118	-5.34
217.589	-7.74
218.061	-2.24
218.532	-0.54
219.004	-1.14
219.475	-0.44
219.946	-1.84
220.418	-5.14
220.889	2.66
221.36	5.36
221.832	-1.84
222.303	-5.14
222.774	1.26
223.245	-6.54
223.717	-2.24
224.188	-0.14
224.659	-8.34
225.13	-7.64
225.601	-1.64
226.072	-0.24
226.543	-4.84
227.014	-0.94
227.485	-1.64
227.956	-2.44
228.427	-3.84
228.898	5.06
229.369	1.66
229.839	2.76
230.31	-5.84
230.781	3.76
231.252	0.26
231.722	-4.54
232.193	-3.64
232.664	-5.54
233.135	0.26
233.605	2.26
234.076	-2.14
234.546	-4.54
235.017	7.66
235.487	2.26
235.958	1.96
236.428	-0.74
236.899	5.86
237.369	6.06
237.84	2.36
238.31	9.76
238.78	5.26
239.251	1.16
239.721	-3.84
240.191	0.36
240.662	-0.24
241.132	-2.24
241.602	-1.04
242.072	9.46
242.542	11.36
243.013	2.06
243.483	4.06
243.953	4.06
244.423	5.16
244.893	0.76
245.363	5.16
245.833	2.26
246.303	-6.44
246.773	13.06
247.243	2.96
247.712	3.06
248.182	13.86
248.652	10.46
249.122	1.96
249.592	18.56
250.061	29.06
250.531	35.06
251.001	20.56
251.471	24.56
251.94	23.96
252.41	9.56
252.879	5.86
253.349	13.96
253.818	9.86
254.288	8.06
254.757	3.06
255.227	7.26
255.696	10.36
256.166	2.96
256.635	2.06
257.105	9.66
257.574	3.66
258.043	4.66
258.513	13.46
258.982	17.76
259.451	13.46
259.92	11.26
260.389	9.86
260.859	19.16
261.328	19.46
261.797	15.76
262.266	15.46
262.735	11.96
263.204	5.96
263.673	1.16
264.142	4.76
264.611	0.36
265.08	1.56
265.549	-0.64
266.018	5.06
266.487	3.16
266.955	2.26
267.424	0.36
267.893	7.96
268.362	-2.84
268.83	7.66
269.299	11.46
269.768	12.56
270.236	10.56
270.705	7.36
271.174	7.26
271.642	13.66
272.111	9.76
272.579	23.76
273.048	28.06
273.516	30.86
273.985	32.76
274.453	26.06
274.922	23.16
275.39	15.06
275.858	7.16
276.327	18.76
276.795	16.66
277.263	11.86
277.731	27.06
278.2	61.56
278.668	60.96
279.136	50.06
279.604	19.96
280.072	15.36
280.54	14.66
281.008	14.96
281.477	19.26
281.945	17.86
282.413	18.76
282.881	19.16
283.348	10.96
283.816	16.56
284.284	16.76
284.752	21.36
285.22	7.36
285.688	18.86
286.156	22.06
286.623	44.76
287.091	58.46
287.559	32.86
288.026	13.86
288.494	20.86
288.962	13.16
289.429	10.56
289.897	20.66
290.364	20.96
290.832	22.16
291.3	21.66
291.767	23.36
292.234	16.06
292.702	19.06
293.169	17.56
293.637	20.56
294.104	23.16
294.571	6.46
295.039	19.06
295.506	20.86
295.973	26.76
296.44	25.76
296.908	26.36
297.375	22.16
297.842	19.86
298.309	23.26
298.776	20.16
299.243	28.66
299.71	13.96
300.177	26.46
300.644	23.26
301.111	24.56
301.578	24.66
302.045	22.36
302.512	30.26
302.979	27.36
303.446	28.36
303.913	18.06
304.379	21.56
304.846	22.26
305.313	26.96
305.78	30.76
306.246	27.36
306.713	28.96
307.18	31.46
307.646	29.06
308.113	35.46
308.579	25.86
309.046	28.16
309.512	28.76
309.979	28.76
310.445	24.86
310.912	34.26
311.378	32.46
311.845	29.76
312.311	33.56
312.777	41.06
313.244	34.96
313.71	45.86
314.176	34.96
314.642	38.56
315.109	29.36
315.575	34.36
316.041	40.76
316.507	31.26
316.973	43.76
317.439	44.56
317.905	43.36
318.371	36.86
318.837	38.46
319.303	38.56
319.769	35.26
320.235	30.56
320.701	41.36
321.167	39.96
321.633	41.16
322.099	44.66
322.564	46.06
323.03	43.26
323.496	41.96
323.962	45.66
324.427	37.56
324.893	49.36
325.359	41.06
325.824	40.36
326.29	38.36
326.755	42.36
327.221	48.46
327.686	42.26
328.152	49.36
328.617	48.96
329.083	47.86
329.548	54.26
330.014	56.86
330.479	42.46
330.944	45.36
331.41	43.76
331.875	47.56
332.34	48.26
332.805	44.86
333.271	51.96
333.736	51.56
334.201	56.26
334.666	57.76
335.131	55.16
335.596	52.46
336.061	55.66
336.526	43.56
336.991	54.26
337.456	57.66
337.921	53.16
338.386	40.46
338.851	45.26
339.316	46.56
339.781	52.96
340.246	49.36
340.711	44.56
341.175	51.86
341.64	48.46
342.105	52.06
342.569	58.96
343.034	62.86
343.499	58.96
343.963	55.86
344.428	68.16
344.893	63.16
345.357	62.56
345.822	65.76
346.286	68.76
346.751	74.46
347.215	66.16
347.679	74.56
348.144	100.46
348.608	86.56
349.073	80.96
349.537	81.76
350.001	81.26
350.465	87.46
350.93	85.56
351.394	89.76
351.858	74.26
352.322	95.76
352.786	92.16
353.25	104.96
353.715	115.96
354.179	108.76
354.643	121.16
355.107	123.56
355.571	113.36
356.035	101.96
356.498	117.96
356.962	123.96
357.426	129.86
357.89	119.76
358.354	94.86
358.818	85.26
359.281	81.86
359.745	79.66
360.209	79.86
360.673	77.76
361.136	74.06
361.6	88.36
362.064	90.46
362.527	82.86
362.991	94.26
363.454	86.56
363.918	77.06
364.381	80.26
364.845	87.36
365.308	80.36
365.772	83.06
366.235	85.26
366.698	85.66
367.162	93.76
367.625	86.26
368.088	89.16
368.552	92.26
369.015	92.26
369.478	97.76
369.941	99.86
370.404	96.26
370.867	108.26
371.331	109.36
371.794	109.16
372.257	112.86
372.72	113.96
373.183	113.16
373.646	108.16
374.109	102.96
374.572	110.36
375.035	109.16
375.497	105.56
375.96	110.66
376.423	100.96
376.886	102.46
377.349	111.76
377.811	103.56
378.274	104.86
378.737	105.16
379.199	118.76
379.662	113.56
380.125	124.36
380.587	118.56
381.05	116.36
381.512	131.26
381.975	137.06
382.437	125.36
382.9	121.16
383.362	134.36
383.825	148.56
384.287	148.36
384.75	140.56
385.212	141.96
385.674	138.36
386.136	140.56
386.599	122.56
387.061	132.16
387.523	128.26
387.985	136.16
388.447	138.16
388.91	140.86
389.372	160.26
389.834	148.16
390.296	146.46
390.758	153.86
391.22	167.96
391.682	215.36
392.144	288.36
392.606	227.16
393.068	163.16
393.529	162.46
393.991	157.66
394.453	145.16
394.915	153.86
395.377	183.96
395.838	221.76
396.3	158.46
396.762	146.96
397.224	136.86
397.685	130.66
398.147	130.86
398.608	131.66
399.07	122.66
399.531	133.06
399.993	143.36
400.454	152.06
400.916	145.96
401.377	141.46
401.839	151.96
402.3	152.66
402.762	166.66
403.223	178.36
403.684	167.06
404.145	161.46
404.607	157.96
405.068	158.36
405.529	172.46
405.99	185.76
406.451	182.06
406.913	170.16
407.374	170.16
407.835	162.26
408.296	168.26
408.757	168.76
409.218	187.56
409.679	181.86
410.14	173.46
410.601	179.26
411.062	183.66
411.522	187.66
411.983	184.36
412.444	171.16
412.905	181.96
413.366	185.66
413.826	191.56
414.287	215.66
414.748	263.06
415.208	240.76
415.669	213.36
416.13	201.56
416.59	206.36
417.051	213.56
417.511	216.56
417.972	231.96
418.432	242.66
418.893	285.86
419.353	250.26
419.814	200.66
420.274	187.66
420.734	181.86
421.195	195.16
421.655	199.16
422.115	193.26
422.576	189.66
423.036	192.06
423.496	206.76
423.956	209.16
424.416	230.86
424.876	262.66
425.336	257.56
425.797	261.06
426.257	249.36
426.717	239.16
427.177	230.26
427.637	217.26
428.097	233.66
428.556	243.56
429.016	266.16
429.476	262.26
429.936	269.96
430.396	271.96
430.856	291.96
431.315	305.96
431.775	353.46
432.235	369.96
432.694	349.76
433.154	361.56
433.614	391.56
434.073	337.36
434.533	285.36
434.993	268.26
435.452	279.86
435.912	300.76
436.371	286.86
436.83	286.06
437.29	269.76
437.749	251.36
438.209	250.66
438.668	263.66
439.127	283.76
439.587	265.46
440.046	247.06
440.505	258.76
440.964	274.46
441.424	317.16
441.883	312.66
442.342	256.96
442.801	216.46
443.26	223.86
443.719	219.36
444.178	217.96
444.637	207.36
445.096	213.96
445.555	221.26
446.014	218.96
446.473	226.46
446.932	225.46
447.391	219.56
447.849	222.66
448.308	209.56
448.767	221.66
449.226	229.26
449.685	235.66
450.143	245.86
450.602	226.76
451.061	224.26
451.519	230.26
451.978	230.86
452.436	233.76
452.895	240.06
453.353	243.06
453.812	233.86
454.27	239.36
454.729	244.76
455.187	239.66
455.646	241.76
456.104	244.36
456.562	259.46
457.021	268.36
457.479	253.26
457.937	272.16
458.395	264.16
458.854	248.36
459.312	251.16
459.77	269.66
460.228	256.66
460.686	237.26
461.144	243.26
461.602	245.86
462.06	240.06
462.518	252.06
462.976	251.56
463.434	250.86
463.892	262.96
464.35	271.36
464.808	282.96
465.266	259.26
465.724	270.36
466.181	269.76
466.639	268.66
467.097	287.46
467.555	298.86
468.012	305.26
468.47	313.96
468.928	326.86
469.385	331.76
469.843	343.16
470.3	344.16
470.758	352.56
471.215	384.66
471.673	404.16
472.13	402.76
472.588	409.56
473.045	358.66
473.503	363.36
473.96	391.26
474.417	408.86
474.875	434.86
475.332	480.16
475.789	465.76
476.246	471.16
476.704	478.76
477.161	501.56
477.618	522.46
478.075	558.36
478.532	614.46
478.989	682.46
479.446	805.46
479.903	772.16
480.36	807.56
480.817	857.56
481.274	965.06
481.731	1068.06
482.188	1163.06
482.645	1297.56
483.102	1398.46
483.558	1540.06
484.015	1600.26
484.472	1571.26
484.929	1503.06
485.385	1467.76
485.842	1413.76
486.299	1357.86
486.755	1285.26
487.212	1078.26
487.668	928.06
488.125	857.16
488.582	776.86
489.038	748.26
489.494	705.86
489.951	689.36
490.407	664.66
490.864	645.66
491.32	643.36
491.776	633.76
492.233	638.06
492.689	609.76
493.145	598.86
493.602	592.26
494.058	603.06
494.514	607.76
494.97	628.96
495.426	637.66
495.882	616.86
496.338	614.06
496.794	619.26
497.251	621.56
497.707	628.96
498.163	631.96
498.618	641.26
499.074	651.76
499.53	675.46
499.986	673.76
500.442	659.46
500.898	622.86
501.354	623.96
501.809	636.46
502.265	643.96
502.721	662.46
503.177	664.56
503.632	665.36
504.088	667.46
504.543	703.26
504.999	702.76
505.455	653.76
505.91	628.86
506.366	625.26
506.821	620.26
507.277	628.96
507.732	623.06
508.187	619.56
508.643	634.96
509.098	629.86
509.553	656.36
510.009	659.66
510.464	664.06
510.919	672.16
511.375	683.46
511.83	707.96
512.285	714.86
512.74	759.36
513.195	777.26
513.65	769.96
514.105	773.16
514.56	774.36
515.015	788.56
515.47	799.66
515.925	790.46
516.38	782.96
516.835	792.36
517.29	780.16
517.745	766.86
518.2	756.56
518.655	752.46
519.109	751.36
519.564	743.46
520.019	727.86
520.474	718.66
520.928	725.56
521.383	712.56
521.838	696.66
522.292	704.86
522.747	708.06
523.201	691.56
523.656	689.26
524.11	695.76
524.565	678.06
525.019	685.16
525.474	690.16
525.928	701.96
526.382	687.96
526.837	686.26
527.291	693.16
527.745	678.86
528.2	686.46
528.654	681.56
529.108	676.56
529.562	683.06
530.016	675.86
530.47	687.26
530.925	682.26
531.379	694.86
531.833	696.96
532.287	698.76
532.741	690.46
533.195	701.26
533.649	703.46
534.103	717.76
534.556	697.56
535.01	712.96
535.464	699.96
535.918	713.46
536.372	721.26
536.826	715.46
537.279	711.36
537.733	705.66
538.187	702.16
538.64	712.06
539.094	719.36
539.548	722.16
540.001	717.26
540.455	710.26
540.908	726.06
541.362	723.36
541.815	737.66
542.269	750.76
542.722	751.96
543.175	764.56
543.629	764.86
544.082	770.96
544.536	771.26
544.989	770.26
545.442	786.46
545.895	779.96
546.349	776.16
546.802	778.66
547.255	779.76
547.708	792.76
548.161	800.46
548.614	803.66
549.067	815.36
549.52	805.56
549.973	795.06
550.426	799.26
550.879	783.06
551.332	774.86
551.785	789.36
552.238	802.76
552.691	807.06
553.144	809.06
553.596	836.66
554.049	855.16
554.502	875.16
554.955	901.06
555.407	895.56
555.86	885.56
556.313	888.16
556.765	871.26
557.218	875.26
557.67	877.56
558.123	861.26
558.576	855.36
559.028	858.06
559.48	867.26
559.933	842.86
560.385	828.46
560.838	801.96
561.29	769.36
561.742	772.66
562.195	750.56
562.647	753.16
563.099	756.46
563.551	750.26
564.004	762.06
564.456	754.06
564.908	746.36
565.36	742.36
565.812	726.46
566.264	713.46
566.716	704.16
567.168	694.56
567.62	708.26
568.072	687.66
568.524	677.36
568.976	666.96
569.428	653.76
569.88	662.96
570.332	661.86
570.784	666.46
571.235	664.06
571.687	679.56
572.139	681.16
572.59	694.76
573.042	707.26
573.494	695.36
573.945	691.16
574.397	671.16
574.849	684.16
575.3	680.36
575.752	663.76
576.203	662.66
576.655	672.56
577.106	649.26
577.557	651.46
578.009	649.96
578.46	650.16
578.912	654.66
579.363	646.76
579.814	652.36
580.265	654.06
580.717	647.36
581.168	657.46
581.619	664.66
582.07	660.16
582.521	652.76
582.972	653.16
583.423	660.46
583.875	656.36
584.326	668.36
584.777	722.16
585.227	798.86
585.678	874.76
586.129	965.06
586.58	1036.06
587.031	1116.26
587.482	1264.26
587.933	1445.86
588.384	1251.06
588.834	933.46
589.285	780.26
589.736	751.46
590.186	749.66
590.637	739.26
591.088	721.96
591.538	715.46
591.989	716.86
592.439	703.56
592.89	692.46
593.34	678.26
593.791	690.26
594.241	686.36
594.692	685.76
595.142	666.36
595.593	679.16
596.043	678.46
596.493	688.36
596.943	689.66
597.394	687.86
597.844	684.46
598.294	703.76
598.744	721.86
599.195	747.96
599.645	786.46
600.095	820.66
600.545	877.76
600.995	929.36
601.445	989.76
601.895	1039.96
602.345	1093.96
602.795	1065.86
603.245	1023.46
603.695	976.16
604.145	923.56
604.594	882.76
605.044	827.76
605.494	772.86
605.944	716.36
606.393	709.16
606.843	701.56
607.293	704.46
607.743	696.26
608.192	708.96
608.642	725.76
609.091	731.96
609.541	733.26
609.99	740.86
610.44	730.56
610.889	687.06
611.339	680.06
611.788	650.46
612.238	666.86
612.687	690.26
613.136	687.26
613.586	696.96
614.035	697.96
614.484	729.06
614.933	721.46
615.383	717.46
615.832	703.86
616.281	694.56
616.73	657.26
617.179	639.56
617.628	620.06
618.077	600.16
618.526	596.06
618.975	579.06
619.424	594.06
619.873	586.56
620.322	590.06
620.771	577.76
621.22	577.96
621.669	564.96
622.118	562.66
622.567	548.36
623.015	547.96
623.464	546.56
623.913	528.46
624.361	524.06
624.81	529.36
625.259	529.56
625.707	530.96
626.156	530.36
626.604	540.86
627.053	534.36
627.501	539.26
627.95	533.66
628.398	552.06
628.847	544.06
629.295	545.96
629.744	545.66
630.192	540.86
630.64	543.66
631.089	538.06
631.537	552.46
631.985	549.86
632.433	568.06
632.881	571.36
633.33	623.06
633.778	600.86
634.226	535.26
634.674	536.26
635.122	545.26
635.57	564.56
636.018	586.86
636.466	549.46
636.914	528.66
637.362	541.36
637.81	533.76
638.258	539.06
638.705	549.06
639.153	569.56
639.601	574.26
640.049	597.86
640.497	632.26
640.944	657.96
641.392	608.86
641.84	581.66
642.287	540.36
642.735	536.46
643.182	530.86
643.63	543.86
644.078	538.96
644.525	549.06
644.973	560.06
645.42	571.36
645.867	582.36
646.315	605.76
646.762	625.26
647.21	648.06
647.657	676.86
648.104	715.46
648.551	718.76
648.999	780.96
649.446	851.26
649.893	956.26
650.34	1084.06
650.787	1299.16
651.234	1619.66
651.682	2114.86
652.129	2881.46
652.576	4112.56
653.023	6104.26
653.47	8360.96
653.917	10542.76
654.363	12272.16
654.81	13693.26
655.257	13020.96
655.704	8516.26
656.151	5033.36
656.598	3244.66
657.044	2297.96
657.491	1764.96
657.938	1411.86
658.385	1176.16
658.831	1009.96
659.278	906.86
659.724	807.86
660.171	738.16
660.618	683.16
661.064	646.76
661.511	622.56
661.957	616.76
662.404	609.86
662.85	611.66
663.296	580.96
663.743	525.16
664.189	505.86
664.635	503.06
665.082	492.96
665.528	487.86
665.974	490.06
666.42	480.86
666.867	465.36
667.313	461.96
667.759	448.96
668.205	442.36
668.651	460.96
669.097	453.36
669.543	463.96
669.989	433.16
670.435	422.26
670.881	415.96
671.327	429.16
671.773	433.46
672.219	452.26
672.665	510.46
673.11	541.06
673.556	586.76
674.002	624.76
674.448	614.26
674.893	516.56
675.339	446.96
675.785	410.26
676.23	399.46
676.676	366.06
677.122	352.16
677.567	348.36
678.013	346.56
678.458	332.66
678.904	328.96
679.349	325.76
679.794	326.16
680.24	330.16
680.685	321.36
681.131	314.86
681.576	329.66
682.021	328.46
682.466	326.56
682.912	317.66
683.357	328.76
683.802	356.36
684.247	386.56
684.692	422.66
685.137	457.56
685.583	509.26
686.028	514.16
686.473	479.96
686.918	417.16
687.363	387.16
687.807	358.56
688.252	340.76
688.697	330.56
689.142	306.26
689.587	305.76
690.032	303.26
690.477	321.96
690.921	315.06
691.366	349.46
691.811	367.46
692.255	402.66
692.7	421.36
693.145	455.46
693.589	634.76
694.034	1017.76
694.478	1418.76
694.923	1619.96
695.367	2119.36
695.812	1108.36
696.256	458.56
696.701	346.46
697.145	319.76
697.59	304.26
698.034	295.56
698.478	300.26
698.922	293.16
699.367	298.96
699.811	311.26
700.255	329.66
700.699	355.16
701.143	390.16
701.588	436.26
702.032	474.26
702.476	477.16
702.92	453.36
703.364	452.36
703.808	573.76
704.252	947.76
704.696	1322.16
705.14	1548.36
705.584	1990.06
706.027	987.26
706.471	485.56
706.915	359.56
707.359	330.76
707.803	303.66
708.246	293.16
708.69	289.06
709.134	289.76
709.577	293.46
710.021	291.66
710.465	282.26
710.908	275.86
711.352	280.26
711.795	290.86
712.239	323.16
712.682	359.56
713.126	388.16
713.569	424.16
714.012	340.06
714.456	290.06
714.899	269.06
715.342	258.56
715.786	241.06
716.229	245.56
716.672	235.36
717.115	228.56
717.558	232.86
718.002	230.36
718.445	247.16
718.888	262.16
719.331	273.06
719.774	288.56
720.217	282.56
720.66	260.46
721.103	243.66
721.546	235.16
721.989	230.86
722.432	218.66
722.874	218.86
723.317	212.86
723.76	220.16
724.203	237.16
724.645	287.06
725.088	408.46
725.531	519.76
725.974	596.36
726.416	508.36
726.859	286.26
727.301	224.46
727.744	218.76
728.187	218.76
728.629	213.16
729.071	222.26
729.514	232.16
729.956	247.46
730.399	260.26
730.841	266.06
731.283	246.96
731.726	245.76
732.168	242.56
732.61	241.36
733.053	261.76
733.495	285.36
733.937	320.46
734.379	355.46
734.821	387.96
735.263	493.06
735.705	749.46
736.148	1418.36
736.59	2351.96
737.032	2851.86
737.474	2323.76
737.916	752.46
738.357	385.66
738.799	296.16
739.241	272.76
739.683	261.46
740.125	274.16
740.567	274.16
741.008	293.16
741.45	296.66
741.892	292.66
742.334	321.46
742.775	326.76
743.217	314.36
743.658	241.76
744.1	231.96
744.542	237.86
744.983	291.66
745.425	312.16
745.866	316.96
746.307	265.86
746.749	257.46
747.19	293.36
747.632	408.46
748.073	771.46
748.514	1673.46
748.956	2605.66
749.397	3264.26
749.838	2725.86
750.279	2752.46
750.72	1386.16
751.162	495.36
751.603	293.86
752.044	230.96
752.485	196.36
752.926	193.16
753.367	188.86
753.808	173.76
754.249	171.26
754.69	172.96
755.131	167.26
755.572	162.36
756.013	163.96
756.453	165.76
756.894	175.56
757.335	174.16
757.776	179.06
758.216	182.26
758.657	178.66
759.098	187.46
759.538	208.06
759.979	244.26
760.42	339.96
760.86	633.96
761.301	1602.76
761.741	3970.16
762.182	5994.16
762.622	4242.06
763.063	1207.76
763.503	498.66
763.943	312.06
764.384	306.16
764.824	375.76
765.264	400.36
765.705	285.26
766.145	192.66
766.585	177.36
767.025	155.66
767.465	167.96
767.906	216.86
768.346	290.16
768.786	305.96
769.226	232.56
769.666	282.96
770.106	543.26
770.546	1375.76
770.986	2448.96
771.426	2211.56
771.866	729.16
772.306	301.36
772.745	189.56
773.185	160.86
773.625	149.16
774.065	149.56
774.505	180.06
774.944	267.06
775.384	597.66
775.824	1112.86
776.263	1114.26
776.703	464.66
777.142	197.66
777.582	143.56
778.021	126.46
778.461	118.06
778.9	128.06
779.34	121.36
779.779	106.36
780.219	102.16
780.658	100.56
781.097	106.06
781.537	110.26
781.976	96.36
782.415	99.36
782.855	95.56
783.294	97.96
783.733	94.86
784.172	101.36
784.611	93.76
785.05	101.76
785.489	99.16
785.928	108.06
786.367	115.16
786.806	107.36
787.245	123.16
787.684	128.46
788.123	133.36
788.562	123.66
789.001	114.36
789.44	111.06
789.879	113.46
790.317	109.06
790.756	114.06
791.195	119.46
791.634	129.06
792.072	175.36
792.511	325.66
792.95	894.86
793.388	1963.36
793.827	1822.86
794.265	631.46
794.704	256.66
795.142	169.16
795.581	138.96
796.019	126.86
796.458	119.66
796.896	112.16
797.334	119.36
797.773	144.46
798.211	198.96
798.649	391.46
799.087	931.46
799.526	1446.46
799.964	1837.76
800.402	1883.66
800.84	700.26
801.278	274.16
801.716	174.36
802.154	134.96
802.592	127.56
803.03	131.56
803.468	117.66
803.906	131.56
804.344	135.26
804.782	124.76
805.22	122.26
805.658	120.16
806.096	134.96
806.533	145.56
806.971	157.16
807.409	191.66
807.847	276.46
808.284	587.06
808.722	1662.96
809.16	3017.56
809.597	2809.36
810.035	4941.36
810.472	5417.16
810.91	1942.86
811.347	725.16
811.785	373.86
812.222	238.76
812.66	179.56
813.097	148.26
813.535	128.26
813.972	115.36
814.409	105.76
814.846	93.16
815.284	97.36
815.721	96.26
816.158	96.96
816.595	111.46
817.032	166.26
817.47	180.56
817.907	147.26
818.344	137.36
818.781	109.86
819.218	94.16
819.655	109.46
820.092	174.56
820.529	204.76
820.966	163.26
821.403	126.96
821.839	104.26
822.276	101.36
822.713	111.56
823.15	118.46
823.587	105.56
824.023	139.06
824.46	262.26
824.897	807.06
825.333	1255.86
825.77	542.36
826.206	210.36
826.643	123.96
827.08	89.86
827.516	82.16
827.953	70.16
828.389	80.86
828.825	60.66
829.262	68.56
829.698	55.06
830.135	62.86
830.571	55.86
831.007	58.76
831.443	57.46
831.88	58.26
832.316	57.06
832.752	61.16
833.188	68.36
833.624	59.26
834.06	65.46
834.497	61.96
834.933	64.96
835.369	66.36
835.805	59.96
836.241	67.46
836.677	72.86
837.112	83.66
837.548	93.26
837.984	125.76
838.42	180.46
838.856	440.36
839.292	1358.36
839.727	2143.16
840.163	992.26
840.599	827.56
841.034	1838.86
841.47	2004.36
841.906	720.86
842.341	306.36
842.777	210.56
843.212	292.66
843.648	286.26
844.083	138.86
844.519	91.46
844.954	67.06
845.39	53.36
845.825	55.06
846.261	50.86
846.696	49.26
847.131	45.36
847.566	56.46
848.002	45.56
848.437	47.56
848.872	52.56
849.307	61.26
849.742	78.66
850.177	161.96
850.613	498.76
851.048	818.56
851.483	357.26
851.918	132.86
852.353	79.76
852.788	58.06
853.223	50.56
853.657	48.46
854.092	48.86
854.527	33.66
854.962	36.36
855.397	48.16
855.832	45.66
856.266	37.66
856.701	35.16
857.136	32.66
857.57	40.06
858.005	45.16
858.44	50.26
858.874	40.36
859.309	47.96
859.743	36.86
860.178	36.96
860.612	40.26
861.047	51.36
861.481	68.76
861.915	62.16
862.35	46.46
862.784	32.86
863.218	37.36
863.653	28.76
864.087	42.96
864.521	45.26
864.955	61.26
865.39	142.26
865.824	160.26
866.258	103.86
866.692	150.46
867.126	162.46
867.56	102.86
867.994	44.86
868.428	33.46
868.862	42.96
869.296	49.36
869.73	55.16
870.164	43.46
870.598	39.86
871.031	35.46
871.465	28.96
871.899	31.46
872.333	24.16
872.766	20.26
873.2	22.26
873.634	31.16
874.067	21.06
874.501	26.56
874.935	33.06
875.368	31.46
875.802	22.56
876.235	23.56
876.669	27.96
877.102	22.76
877.535	21.46
877.969	23.36
878.402	25.36
878.836	20.56
879.269	20.66
879.702	18.46
880.135	18.16
880.569	24.46
881.002	18.16
881.435	17.06
881.868	20.96
882.301	26.56
882.734	20.16
883.167	24.76
883.601	18.56
884.034	22.26
884.467	13.66
884.899	15.06
885.332	14.36
885.765	12.46
886.198	14.16
886.631	18.96
887.064	17.16
887.497	20.16
887.929	17.06
888.362	14.46
888.795	7.16
889.228	15.16
889.66	17.66
890.093	18.06
890.526	15.16
890.958	11.86
891.391	18.46
891.823	20.06
892.256	10.46
892.688	9.46
893.121	15.46
893.553	18.26
893.985	21.66
894.418	15.76
894.85	17.96
895.282	17.26
895.715	18.56
896.147	16.86
896.579	13.56
897.011	11.86
897.444	18.36
897.876	15.76
898.308	14.86
898.74	9.86
899.172	8.46
899.604	20.56
900.036	18.06
900.468	15.36
900.9	12.16
901.332	19.36
901.764	8.16
902.196	17.66
902.628	11.86
903.06	11.56
903.491	26.96
903.923	22.46
904.355	18.96
904.787	19.36
905.218	20.36
905.65	20.16
906.082	10.96
906.513	11.86
906.945	13.56
907.376	12.46
907.808	13.56
908.239	17.96
908.671	17.16
909.102	24.26
909.534	16.06
909.965	41.56
910.397	84.96
910.828	287.96
911.259	438.66
911.691	196.66
912.122	98.26
912.553	43.86
912.984	34.26
913.415	22.86
913.847	24.36
914.278	18.56
914.709	15.76
915.14	16.86
915.571	16.86
916.002	14.46
916.433	14.66
916.864	14.86
917.295	13.36
917.726	19.76
918.157	14.26
918.587	27.46
919.018	18.96
919.449	22.46
919.88	22.56
920.311	30.26
920.741	41.26
921.172	154.16
921.603	140.66
922.033	67.16
922.464	45.96
922.895	22.56
923.325	18.86
923.756	10.06
924.186	16.96
924.617	26.36
925.047	36.66
925.478	47.26
925.908	41.76
926.338	23.46
926.769	15.26
927.199	24.26
927.629	9.66
928.06	15.16
928.49	12.06
928.92	16.56
929.35	12.56
929.78	9.86
930.21	9.96
930.641	9.56
931.071	9.96
931.501	6.96
931.931	0.86
932.361	5.16
932.791	-1.54
933.221	0.76
933.651	2.56
934.08	17.06
934.51	27.46
934.94	8.56
935.37	8.76
935.8	12.46
936.229	2.96
936.659	10.06
937.089	-1.04
937.519	12.76
937.948	17.36
938.378	15.86
938.807	3.76
939.237	2.66
939.666	8.66
940.096	-1.74
940.525	-2.64
940.955	-0.84
941.384	-0.54
941.814	-3.44
942.243	3.26
942.672	6.56
943.102	-0.74
943.531	4.56
943.96	2.16
944.39	6.16
944.819	-1.64
945.248	1.96
945.677	3.46
946.106	7.06
946.535	1.76
946.964	0.96
947.393	3.26
947.822	2.46
948.251	-6.04
948.68	6.06
949.109	7.66
949.538	9.96
949.967	1.16
950.396	1.16
950.825	-7.04
951.254	0.56
951.682	-5.24
952.111	0.86
952.54	5.66
952.969	-0.84
953.397	-9.64
953.826	1.76
954.254	-3.44
954.683	0.76
955.112	-2.04
955.54	3.66
955.969	4.06
956.397	5.96
956.826	-5.44
957.254	4.16
957.682	5.16
958.111	3.96
958.539	-3.04
958.967	-1.94
959.396	-3.54
959.824	-2.54
960.252	1.36
960.68	-9.54
961.109	-0.14
961.537	-4.94
961.965	-1.74
962.393	-5.44
962.821	-0.74
963.249	-2.64
963.677	1.86
964.105	-0.04
964.533	42.66
964.961	38.26
965.389	16.36
965.817	3.46
966.245	2.46
966.672	2.36
967.1	-8.04
967.528	-0.04
967.956	-4.24
968.383	-2.84
968.811	-2.14
969.239	-3.84
969.666	0.86
970.094	-3.24
970.522	-0.94
970.949	2.06
971.377	-4.34
971.804	0.46
972.232	2.16
972.659	3.66
973.087	-1.24
973.514	-2.84
973.941	-7.04
974.369	-0.04
974.796	-0.34
975.223	2.96
975.651	-1.54
976.078	-2.94
976.505	-3.54
976.932	-0.24
977.359	11.26
977.786	18.06
978.214	-1.74
978.641	-6.54
979.068	-8.14
979.495	-4.84
979.922	-4.34
980.349	-1.14
980.776	-0.04
981.202	-3.84
981.629	3.26
982.056	3.86
982.483	-3.14
982.91	-0.74
983.337	-6.94
983.763	2.16
984.19	-4.34
984.617	-7.14
985.043	-3.24
985.47	-3.94
985.897	-3.04
986.323	-10.54
986.75	5.06
987.176	1.06
987.603	-1.44
988.029	2.06
988.456	0.76
988.882	8.26
989.308	-5.54
989.735	-5.44
990.161	1.26
990.587	-4.24
991.014	0.46
991.44	8.06
991.866	-1.54
992.292	-0.04
992.719	-1.64
993.145	1.56
993.571	-5.94
993.997	-3.24
994.423	-3.34
994.849	-9.24
995.275	-0.24
995.701	-2.24
996.127	-9.14
996.553	5.36
996.979	-3.74
997.405	1.56
997.83	1.16
998.256	-5.44
998.682	-8.24
999.108	-7.44
999.534	-1.34
999.959	-0.14
1000.385	-1.84
1000.811	-3.04
1001.236	-7.64
1001.662	-6.04
1002.087	-11.34
1002.513	-0.84
1002.938	-1.94
1003.364	-3.94
1003.789	-5.04
1004.215	2.06
1004.64	0.76
1005.066	2.16
1005.491	0.46
1005.916	-5.44
1006.342	-2.14
1006.767	-0.14
1007.192	5.06
1007.617	0.96
1008.042	0.26
1008.468	-12.04
1008.893	-1.34
1009.318	-5.84
1009.743	-0.34
1010.168	6.46
1010.593	5.66
1011.018	-8.54
1011.443	-5.24
1011.868	-2.44
1012.293	-2.44
1012.718	-4.84
1013.143	0.86
1013.567	-0.74
1013.992	-2.34
1014.417	-10.94
1014.842	-1.84
1015.267	-5.94
1015.691	-5.94
1016.116	1.36
1016.541	-2.94
1016.965	-0.64
1017.39	2.26
1017.814	-1.94
1018.239	-0.34
1018.663	-9.34
1019.088	-10.74
1019.512	0.56
1019.937	-4.04
1020.361	-2.24
1020.785	-12.24
1021.21	0.46
1021.634	-1.14
1022.058	5.36
1022.483	4.36
1022.907	-2.64
1023.331	-4.54
1023.755	-2.74
1024.179	-0.84
1024.604	-4.04
1025.028	-9.84
1025.452	-2.94
1025.876	-2.24
1026.3	-0.84
1026.724	-7.64
1027.148	-1.24
1027.572	-11.54
1027.996	-3.74
1028.42	-4.84
1028.843	-4.64
1029.267	-8.84
1029.691	-5.64
1030.115	-6.64
1030.539	-2.34
1030.962	-4.54
1031.386	-6.44
1031.81	-0.94
1032.233	0.06
1032.657	-0.74
1033.08	-0.74
1033.504	-0.04
1033.927	-3.94
1034.351	-5.04
1034.774	-13.04
1035.198	-0.24
1035.621	-4.34
1036.045	-4.24
1036.468	5.96
1036.891	-2.64
1037.315	-10.24
1037.738	-8.84
1038.161	2.06
1038.584	-6.44
1039.008	-3.44
1039.431	-2.34
1039.854	-3.84
1040.277	-9.84
1040.7	-9.74
1041.123	0.16
1041.546	-2.04
1041.969	-0.84
1042.392	-4.44
1042.815	-3.04
1043.238	1.16
1043.661	-2.74
1044.084	-6.54
1044.507	-3.54
1044.93	-4.94
1045.352	-8.04
1045.775	4.76
1046.198	4.76
1046.621	0.66
1047.043	5.06
1047.466	2.46
1047.889	-1.64
1048.311	-5.54
1048.734	-1.04
1049.156	-5.44
1049.579	-0.84
1050.001	-5.24
1050.424	-4.84
1050.846	1.56
1051.269	-1.94
1051.691	-6.24
1052.113	-12.24
1052.536	-4.14
1052.958	1.26
1053.38	3.46
1053.802	-6.54
1054.225	0.26
1054.647	-10.74
1055.069	-8.94
1055.491	0.16
1055.913	-7.94
1056.335	3.16
1056.757	2.16
1057.179	-3.74
1057.601	-2.34
1058.023	2.16
1058.445	-0.44
1058.867	-1.24
1059.289	-2.44
1059.711	-6.04
1060.133	0.56
1060.555	-3.44
1060.976	-2.44
1061.398	-1.84
1061.82	-1.44
1062.241	-4.84
1062.663	-5.14
1063.085	-3.04
1063.506	1.36
1063.928	0.06
1064.35	-2.84
1064.771	-8.64
1065.193	-5.94
1065.614	-15.04
1066.035	-2.44
1066.457	1.36
1066.878	0.86
1067.3	-2.84
1067.721	-2.74
1068.142	-2.14
1068.564	-10.14
1068.985	-10.64
1069.406	-6.34
1069.827	-3.84
1070.248	-1.14
1070.67	-8.14
1071.091	-6.44
1071.512	-3.24
1071.933	-0.14
1072.354	-3.24
1072.775	-2.64
1073.196	-8.14
1073.617	-3.64
1074.038	-10.04
1074.459	-1.14
1074.88	-4.44
1075.3	-2.04
1075.721	-2.84
1076.142	-0.44
1076.563	6.36
1076.983	-13.54
1077.404	-5.54
1077.825	-10.14
1078.246	0.96
1078.666	-10.64
1079.087	-4.44
1079.507	-4.54
1079.928	3.86
1080.348	-1.84
1080.769	-6.04
1081.189	4.46
1081.61	-0.94
1082.03	-3.94
1082.451	-12.64
1082.871	-5.04
1083.291	-6.84
1083.711	-3.84
1084.132	-5.24
1084.552	-4.04
1084.972	-1.64
1085.392	-11.24
1085.813	-3.14
1086.233	-2.14
1086.653	-1.64
1087.073	0.46
1087.493	-4.14
1087.913	-5.44
1088.333	-8.04
1088.753	0.36
1089.173	5.76
1089.593	-0.34
1090.013	-2.34
1090.433	-3.44
1090.852	-6.24
1091.272	1.56
1091.692	-1.44
1092.112	-6.24
1092.531	-10.04
1092.951	-7.34
1093.371	-2.64
1093.79	-5.44
1094.21	-7.04
1094.63	-7.74
1095.049	-4.74
1095.469	-4.04
1095.888	0.26
1096.308	7.96
1096.727	2.56
1097.146	-2.54
1097.566	3.76
1097.985	-2.84
1098.405	-5.24
1098.824	-3.94
1099.243	-9.44
1099.662	-6.04
1100.082	-6.14
1100.501	-0.44
1100.92	-4.64
1101.339	-1.24
1101.758	-2.64
