Data from 20171114-ORNL-Ar_H_NY_Subt18_08-09-05-944.txt Node
Date: Tue Nov 14 08:09:05 EST 2017
User: Ender
Spectrometer: HR+D1039
Trigger mode: 0
Integration Time (sec): 2.730000E-2
Scans to average: 10
Electric dark correction enabled: true
Nonlinearity correction enabled: false
Boxcar width: 0
XAxis mode: Wavelengths
Number of Pixels in Spectrum: 2048
>>>>>Begin Spectral Data<<<<<
187.836	-0.73
188.309	-0.73
188.782	-0.73
189.255	-1.63
189.728	-1.52
190.201	5.88
190.674	4.77
191.147	3.07
191.619	-9.63
192.092	-0.92
192.565	4.57
193.038	-1.43
193.511	0.57
193.984	0.27
194.456	-1.23
194.929	-1.52
195.402	-1.03
195.874	0.48
196.347	-1.62
196.82	-2.73
197.292	-0.33
197.765	-1.23
198.237	-5.42
198.71	6.17
199.182	0.07
199.655	2.77
200.127	-1.33
200.6	-1.73
201.072	-2.43
201.544	-8.42
202.017	-5.83
202.489	3.57
202.961	-1.42
203.433	-6.23
203.906	-9.12
204.378	-9.62
204.85	-6.33
205.322	-8.62
205.794	-5.53
206.266	-1.12
206.739	-11.02
207.211	-4.52
207.683	-7.62
208.155	-6.53
208.627	-6.23
209.099	-1.33
209.57	-9.92
210.042	-7.73
210.514	-4.32
210.986	-0.12
211.458	-8.33
211.93	-1.83
212.402	0.38
212.873	-8.12
213.345	-10.23
213.817	-9.03
214.288	-9.43
214.76	-10.93
215.232	-1.52
215.703	-5.33
216.175	-8.73
216.646	-7.62
217.118	-10.12
217.589	-5.82
218.061	-4.23
218.532	-4.23
219.004	-9.93
219.475	-9.52
219.946	-3.33
220.418	-7.02
220.889	-4.02
221.36	-0.12
221.832	-7.12
222.303	-8.33
222.774	-4.02
223.245	-15.73
223.717	-8.43
224.188	-0.62
224.659	-11.23
225.13	-7.52
225.601	-5.23
226.072	-0.83
226.543	-3.63
227.014	3.38
227.485	0.27
227.956	-10.92
228.427	-2.23
228.898	-2.62
229.369	5.07
229.839	-4.43
230.31	-7.83
230.781	-0.02
231.252	1.48
231.722	-7.83
232.193	-8.12
232.664	-5.73
233.135	-3.73
233.605	-5.52
234.076	-12.73
234.546	1.77
235.017	-2.33
235.487	1.38
235.958	-7.52
236.428	-7.52
236.899	-2.23
237.369	-1.12
237.84	-5.83
238.31	-4.62
238.78	-2.82
239.251	-3.23
239.721	-5.33
240.191	-10.42
240.662	-3.92
241.132	-0.23
241.602	-3.63
242.072	-3.73
242.542	0.08
243.013	-4.12
243.483	-1.52
243.953	3.27
244.423	-6.32
244.893	-5.43
245.363	3.07
245.833	-6.83
246.303	-0.43
246.773	-4.62
247.243	-6.53
247.712	-4.93
248.182	1.77
248.652	-0.62
249.122	-10.33
249.592	1.88
250.061	2.17
250.531	9.08
251.001	-0.52
251.471	8.38
251.94	7.77
252.41	0.58
252.879	-4.42
253.349	5.17
253.818	4.38
254.288	-3.52
254.757	-0.32
255.227	-3.73
255.696	-3.73
256.166	2.48
256.635	2.17
257.105	2.58
257.574	-2.63
258.043	-2.23
258.513	-6.53
258.982	6.98
259.451	-6.93
259.92	-0.62
260.389	-6.73
260.859	8.77
261.328	-3.82
261.797	-4.62
262.266	-0.93
262.735	4.68
263.204	2.27
263.673	-4.52
264.142	6.38
264.611	-1.53
265.08	-0.33
265.549	-2.23
266.018	2.58
266.487	-1.93
266.955	-3.73
267.424	-2.33
267.893	-2.42
268.362	-7.02
268.83	-1.93
269.299	9.27
269.768	-1.62
270.236	1.17
270.705	0.67
271.174	-0.12
271.642	1.27
272.111	-0.62
272.579	1.97
273.048	1.07
273.516	-3.62
273.985	8.67
274.453	9.98
274.922	3.97
275.39	3.57
275.858	0.57
276.327	4.38
276.795	7.08
277.263	-0.62
277.731	11.27
278.2	11.67
278.668	7.98
279.136	11.27
279.604	-0.73
280.072	6.27
280.54	3.38
281.008	6.77
281.477	8.88
281.945	5.38
282.413	6.57
282.881	9.08
283.348	-2.82
283.816	5.88
284.284	3.97
284.752	11.37
285.22	4.98
285.688	8.67
286.156	6.17
286.623	17.57
287.091	8.38
287.559	10.38
288.026	12.08
288.494	9.17
288.962	-2.23
289.429	-0.43
289.897	8.18
290.364	8.38
290.832	8.88
291.3	7.17
291.767	16.77
292.234	9.88
292.702	5.48
293.169	4.77
293.637	13.08
294.104	11.48
294.571	3.27
295.039	-0.33
295.506	8.38
295.973	8.88
296.44	7.98
296.908	6.58
297.375	6.88
297.842	10.27
298.309	10.48
298.776	0.68
299.243	10.67
299.71	3.07
300.177	10.67
300.644	12.98
301.111	10.48
301.578	13.77
302.045	6.98
302.512	17.58
302.979	10.77
303.446	12.38
303.913	11.48
304.379	15.38
304.846	18.88
305.313	20.57
305.78	12.87
306.246	15.48
306.713	13.07
307.18	18.58
307.646	16.27
308.113	14.97
308.579	17.88
309.046	13.88
309.512	20.77
309.979	7.37
310.445	16.07
310.912	23.57
311.378	25.67
311.845	19.98
312.311	18.77
312.777	18.67
313.244	18.58
313.71	24.98
314.176	16.38
314.642	15.88
315.109	14.38
315.575	23.08
316.041	25.17
316.507	14.47
316.973	24.17
317.439	18.48
317.905	24.58
318.371	24.27
318.837	25.77
319.303	17.27
319.769	23.68
320.235	24.77
320.701	27.97
321.167	22.97
321.633	22.98
322.099	28.77
322.564	32.98
323.03	25.47
323.496	26.17
323.962	23.98
324.427	23.98
324.893	39.97
325.359	26.97
325.824	23.17
326.29	27.38
326.755	23.37
327.221	30.27
327.686	18.77
328.152	37.08
328.617	30.88
329.083	30.38
329.548	38.77
330.014	38.27
330.479	32.27
330.944	30.67
331.41	28.97
331.875	36.08
332.34	35.77
332.805	30.17
333.271	33.77
333.736	22.77
334.201	37.58
334.666	39.47
335.131	38.27
335.596	41.07
336.061	38.07
336.526	30.97
336.991	40.58
337.456	43.27
337.921	39.27
338.386	34.77
338.851	41.87
339.316	38.67
339.781	38.88
340.246	40.27
340.711	33.77
341.175	35.57
341.64	36.88
342.105	37.77
342.569	44.47
343.034	47.47
343.499	43.88
343.963	43.68
344.428	51.98
344.893	49.07
345.357	52.67
345.822	49.07
346.286	53.27
346.751	51.68
347.215	46.77
347.679	55.08
348.144	71.17
348.608	61.98
349.073	52.48
349.537	54.77
350.001	62.17
350.465	69.38
350.93	65.88
351.394	67.58
351.858	51.48
352.322	67.98
352.786	59.18
353.25	75.27
353.715	84.77
354.179	77.87
354.643	93.18
355.107	95.07
355.571	81.38
356.035	77.67
356.498	81.88
356.962	82.87
357.426	96.57
357.89	88.48
358.354	71.57
358.818	68.48
359.281	62.38
359.745	70.38
360.209	68.48
360.673	59.27
361.136	68.68
361.6	71.17
362.064	69.98
362.527	67.97
362.991	80.67
363.454	67.77
363.918	67.88
364.381	65.27
364.845	65.88
365.308	73.17
365.772	71.38
366.235	73.57
366.698	74.17
367.162	68.57
367.625	68.88
368.088	72.88
368.552	66.77
369.015	76.17
369.478	77.48
369.941	86.47
370.404	77.87
370.867	85.67
371.331	85.87
371.794	89.57
372.257	82.08
372.72	90.67
373.183	89.08
373.646	78.88
374.109	84.48
374.572	84.27
375.035	88.97
375.497	93.77
375.96	97.17
376.423	88.87
376.886	95.98
377.349	88.07
377.811	88.88
378.274	90.08
378.737	90.77
379.199	94.98
379.662	99.38
380.125	101.58
380.587	97.38
381.05	95.88
381.512	100.57
381.975	106.97
382.437	106.17
382.9	100.27
383.362	107.57
383.825	117.08
384.287	116.98
384.75	102.97
385.212	113.37
385.674	121.97
386.136	116.48
386.599	107.17
387.061	106.08
387.523	113.77
387.985	112.27
388.447	115.57
388.91	117.77
389.372	119.88
389.834	125.27
390.296	117.47
390.758	122.07
391.22	123.17
391.682	143.27
392.144	160.77
392.606	144.47
393.068	130.88
393.529	141.57
393.991	130.88
394.453	121.77
394.915	126.67
395.377	124.58
395.838	133.67
396.3	125.88
396.762	128.77
397.224	122.47
397.685	118.47
398.147	121.88
398.608	129.38
399.07	121.17
399.531	130.17
399.993	131.48
400.454	138.97
400.916	138.57
401.377	133.58
401.839	136.67
402.3	138.57
402.762	147.88
403.223	162.88
403.684	162.77
404.145	148.87
404.607	147.77
405.068	145.17
405.529	150.98
405.99	173.88
406.451	163.67
406.913	160.47
407.374	151.27
407.835	156.38
408.296	152.77
408.757	164.38
409.218	175.88
409.679	170.18
410.14	166.88
410.601	166.77
411.062	164.27
411.522	167.48
411.983	168.88
412.444	167.17
412.905	173.88
413.366	176.77
413.826	188.07
414.287	209.47
414.748	254.08
415.208	240.07
415.669	200.67
416.13	201.47
416.59	198.87
417.051	209.27
417.511	221.07
417.972	231.07
418.432	237.67
418.893	288.38
419.353	241.77
419.814	193.97
420.274	174.67
420.734	172.77
421.195	187.17
421.655	193.48
422.115	186.07
422.576	186.57
423.036	193.07
423.496	192.27
423.956	205.18
424.416	223.27
424.876	256.77
425.336	254.27
425.797	248.68
426.257	248.98
426.717	232.38
427.177	226.08
427.637	217.68
428.097	221.87
428.556	229.17
429.016	257.67
429.476	257.48
429.936	255.68
430.396	258.08
430.856	275.17
431.315	290.27
431.775	326.27
432.235	351.08
432.694	325.18
433.154	339.67
433.614	364.37
434.073	314.57
434.533	275.57
434.993	252.78
435.452	268.17
435.912	274.37
436.371	273.57
436.83	271.68
437.29	253.98
437.749	243.97
438.209	237.77
438.668	261.97
439.127	270.47
439.587	252.77
440.046	235.88
440.505	251.48
440.964	261.87
441.424	311.98
441.883	305.27
442.342	248.18
442.801	224.67
443.26	226.17
443.719	228.88
444.178	219.38
444.637	213.88
445.096	224.98
445.555	222.17
446.014	215.37
446.473	229.28
446.932	226.87
447.391	219.27
447.849	227.57
448.308	216.08
448.767	221.68
449.226	231.87
449.685	234.08
450.143	254.88
450.602	234.37
451.061	232.67
451.519	231.38
451.978	235.58
452.436	231.08
452.895	237.07
453.353	254.77
453.812	246.38
454.27	238.08
454.729	240.68
455.187	242.47
455.646	241.18
456.104	244.17
456.562	259.68
457.021	273.08
457.479	252.97
457.937	270.48
458.395	265.27
458.854	246.47
459.312	254.47
459.77	269.28
460.228	255.37
460.686	247.88
461.144	250.97
461.602	238.87
462.06	247.48
462.518	255.87
462.976	253.07
463.434	260.28
463.892	260.67
464.35	282.17
464.808	292.28
465.266	267.08
465.724	268.07
466.181	275.97
466.639	274.77
467.097	285.67
467.555	291.88
468.012	310.97
468.47	317.47
468.928	322.77
469.385	334.07
469.843	344.67
470.3	350.88
470.758	356.17
471.215	382.08
471.673	398.77
472.13	399.48
472.588	423.58
473.045	375.77
473.503	381.98
473.96	393.67
474.417	403.97
474.875	437.48
475.332	481.58
475.789	463.37
476.246	466.87
476.704	489.07
477.161	492.78
477.618	515.47
478.075	552.77
478.532	603.67
478.989	671.08
479.446	777.48
479.903	746.88
480.36	779.97
480.817	818.77
481.274	902.08
481.731	998.28
482.188	1065.17
482.645	1190.58
483.102	1282.08
483.558	1394.28
484.015	1433.88
484.472	1425.58
484.929	1375.38
485.385	1335.38
485.842	1292.88
486.299	1249.77
486.755	1215.58
487.212	1034.28
487.668	878.57
488.125	821.88
488.582	756.68
489.038	722.67
489.494	702.07
489.951	674.47
490.407	657.48
490.864	640.48
491.32	633.47
491.776	639.38
492.233	639.87
492.689	597.08
493.145	595.87
493.602	604.17
494.058	608.67
494.514	609.98
494.97	640.18
495.426	643.17
495.882	621.67
496.338	598.67
496.794	611.97
497.251	611.27
497.707	625.18
498.163	619.67
498.618	634.87
499.074	638.08
499.53	664.98
499.986	674.87
500.442	640.48
500.898	626.98
501.354	617.07
501.809	625.87
502.265	628.78
502.721	632.37
503.177	646.07
503.632	647.97
504.088	644.68
504.543	667.77
504.999	694.88
505.455	655.07
505.91	633.58
506.366	643.47
506.821	628.07
507.277	637.17
507.732	640.98
508.187	630.08
508.643	650.47
509.098	646.38
509.553	668.37
510.009	671.27
510.464	686.88
510.919	694.58
511.375	697.77
511.83	720.87
512.285	724.07
512.74	752.08
513.195	774.88
513.65	776.68
514.105	771.17
514.56	775.77
515.015	792.77
515.47	800.58
515.925	783.98
516.38	789.58
516.835	791.67
517.29	773.98
517.745	780.57
518.2	770.37
518.655	765.48
519.109	747.27
519.564	757.18
520.019	732.38
520.474	724.68
520.928	728.18
521.383	724.17
521.838	718.38
522.292	716.28
522.747	713.08
523.201	712.98
523.656	696.08
524.11	701.48
524.565	692.47
525.019	697.48
525.474	716.27
525.928	706.38
526.382	706.17
526.837	700.97
527.291	701.88
527.745	706.67
528.2	707.07
528.654	698.08
529.108	693.67
529.562	701.38
530.016	692.77
530.47	686.17
530.925	697.88
531.379	689.08
531.833	711.68
532.287	701.77
532.741	702.27
533.195	705.27
533.649	722.67
534.103	728.97
534.556	715.07
535.01	712.77
535.464	720.08
535.918	717.98
536.372	714.57
536.826	730.27
537.279	715.57
537.733	721.17
538.187	716.17
538.64	717.87
539.094	732.88
539.548	733.48
540.001	735.07
540.455	744.77
540.908	746.77
541.362	741.38
541.815	752.08
542.269	765.48
542.722	771.77
543.175	782.67
543.629	778.27
544.082	801.67
544.536	799.67
544.989	795.98
545.442	812.08
545.895	803.37
546.349	802.77
546.802	807.87
547.255	807.17
547.708	813.97
548.161	823.17
548.614	835.98
549.067	850.67
549.52	833.08
549.973	828.27
550.426	818.07
550.879	808.77
551.332	816.57
551.785	814.38
552.238	821.67
552.691	830.38
553.144	858.77
553.596	860.38
554.049	877.97
554.502	910.27
554.955	912.87
555.407	919.58
555.86	910.08
556.313	897.38
556.765	893.57
557.218	888.07
557.67	892.98
558.123	893.17
558.576	881.88
559.028	899.68
559.48	902.87
559.933	893.17
560.385	849.87
560.838	832.67
561.29	802.38
561.742	798.88
562.195	782.08
562.647	782.38
563.099	798.67
563.551	790.78
564.004	789.48
564.456	782.27
564.908	770.67
565.36	763.67
565.812	746.87
566.264	731.88
566.716	732.48
567.168	716.87
567.62	724.37
568.072	708.38
568.524	717.27
568.976	709.57
569.428	694.38
569.88	690.88
570.332	704.27
570.784	696.67
571.235	695.87
571.687	710.47
572.139	723.48
572.59	723.77
573.042	733.77
573.494	729.07
573.945	723.17
574.397	696.97
574.849	712.27
575.3	712.78
575.752	705.97
576.203	686.98
576.655	697.48
577.106	689.08
577.557	683.98
578.009	690.88
578.46	682.07
578.912	690.87
579.363	675.67
579.814	687.67
580.265	680.37
580.717	680.67
581.168	681.08
581.619	695.18
582.07	689.27
582.521	690.57
582.972	689.48
583.423	697.37
583.875	690.08
584.326	706.98
584.777	732.68
585.227	740.47
585.678	780.97
586.129	794.18
586.58	829.18
587.031	862.38
587.482	904.17
587.933	950.67
588.384	909.87
588.834	827.38
589.285	801.57
589.736	791.77
590.186	793.67
590.637	777.88
591.088	773.18
591.538	762.58
591.989	743.97
592.439	753.18
592.89	738.87
593.34	725.47
593.791	728.27
594.241	711.18
594.692	720.47
595.142	712.38
595.593	709.17
596.043	708.87
596.493	726.38
596.943	714.68
597.394	738.78
597.844	743.67
598.294	748.88
598.744	780.58
599.195	801.97
599.645	847.08
600.095	892.27
600.545	940.47
600.995	1003.18
601.445	1047.67
601.895	1122.08
602.345	1154.38
602.795	1148.68
603.245	1088.07
603.695	1036.97
604.145	985.17
604.594	944.27
605.044	879.58
605.494	820.27
605.944	772.77
606.393	754.37
606.843	750.17
607.293	754.07
607.743	745.17
608.192	767.77
608.642	774.17
609.091	772.38
609.541	786.38
609.99	782.27
610.44	778.77
610.889	737.57
611.339	721.98
611.788	695.98
612.238	708.27
612.687	718.37
613.136	722.78
613.586	732.48
614.035	719.68
614.484	727.67
614.933	736.88
615.383	725.08
615.832	732.77
616.281	719.68
616.73	690.17
617.179	672.77
617.628	659.67
618.077	648.47
618.526	635.37
618.975	629.98
619.424	633.98
619.873	626.07
620.322	636.77
620.771	615.28
621.22	623.37
621.669	605.88
622.118	608.27
622.567	592.07
623.015	592.08
623.464	585.38
623.913	577.07
624.361	569.87
624.81	562.77
625.259	571.18
625.707	573.38
626.156	570.88
626.604	584.17
627.053	583.67
627.501	575.37
627.95	581.77
628.398	598.57
628.847	588.98
629.295	584.38
629.744	588.87
630.192	576.57
630.64	572.77
631.089	570.37
631.537	557.97
631.985	556.47
632.433	545.08
632.881	542.27
633.33	559.07
633.778	551.27
634.226	551.68
634.674	572.57
635.122	565.77
635.57	568.98
636.018	593.17
636.466	580.58
636.914	570.78
637.362	581.98
637.81	601.18
638.258	587.48
638.705	591.27
639.153	628.97
639.601	643.77
640.049	670.87
640.497	684.37
640.944	720.57
641.392	667.97
641.84	631.57
642.287	603.78
642.735	584.87
643.182	586.88
643.63	570.97
644.078	573.77
644.525	596.17
644.973	596.58
645.42	614.57
645.867	630.67
646.315	646.77
646.762	659.77
647.21	699.77
647.657	719.17
648.104	758.47
648.551	769.58
648.999	827.38
649.446	917.38
649.893	992.68
650.34	1147.18
650.787	1352.68
651.234	1684.28
651.682	2171.68
652.129	2953.97
652.576	4209.07
653.023	6166.77
653.47	8294.77
653.917	10235.57
654.363	11676.98
654.81	12789.67
655.257	12111.88
655.704	8053.48
656.151	4849.97
656.598	3161.68
657.044	2286.88
657.491	1781.88
657.938	1441.28
658.385	1194.98
658.831	1059.17
659.278	956.47
659.724	848.77
660.171	782.48
660.618	715.77
661.064	690.98
661.511	673.97
661.957	660.27
662.404	646.58
662.85	654.18
663.296	632.27
663.743	574.67
664.189	558.17
664.635	547.97
665.082	539.77
665.528	545.18
665.974	529.27
666.42	522.18
666.867	514.77
667.313	504.78
667.759	481.68
668.205	462.87
668.651	469.27
669.097	468.98
669.543	457.37
669.989	471.67
670.435	465.27
670.881	459.18
671.327	466.88
671.773	486.27
672.219	517.87
672.665	571.98
673.11	618.67
673.556	653.27
674.002	694.28
674.448	676.48
674.893	576.97
675.339	494.07
675.785	458.17
676.23	436.27
676.676	419.97
677.122	393.48
677.567	382.77
678.013	387.17
678.458	377.88
678.904	368.88
679.349	355.67
679.794	369.08
680.24	365.07
680.685	358.27
681.131	365.08
681.576	362.17
682.021	365.38
682.466	362.27
682.912	361.27
683.357	370.38
683.802	398.77
684.247	432.48
684.692	470.07
685.137	519.67
685.583	552.97
686.028	591.77
686.473	535.68
686.918	465.87
687.363	434.07
687.807	407.57
688.252	387.27
688.697	368.07
689.142	346.58
689.587	343.07
690.032	333.37
690.477	358.48
690.921	361.18
691.366	397.67
691.811	423.77
692.255	457.67
692.7	478.08
693.145	541.98
693.589	754.77
694.034	1212.58
694.478	1641.17
694.923	1795.38
695.367	2341.98
695.812	1252.97
696.256	516.98
696.701	384.07
697.145	369.08
697.59	347.07
698.034	336.98
698.478	333.18
698.922	331.77
699.367	339.08
699.811	351.08
700.255	366.18
700.699	401.58
701.143	446.57
701.588	498.57
702.032	540.67
702.476	535.57
702.92	511.48
703.364	520.07
703.808	692.27
704.252	1134.47
704.696	1552.17
705.14	1742.18
705.584	2213.78
706.027	1118.27
706.471	546.37
706.915	419.57
707.359	370.38
707.803	334.98
708.246	324.98
708.69	326.87
709.134	326.47
709.577	327.78
710.021	326.77
710.465	311.98
710.908	307.27
711.352	307.08
711.795	328.07
712.239	365.38
712.682	412.57
713.126	429.17
713.569	471.97
714.012	372.17
714.456	321.07
714.899	306.47
715.342	290.27
715.786	266.17
716.229	267.68
716.672	265.77
717.115	262.97
717.558	261.18
718.002	259.57
718.445	279.38
718.888	297.77
719.331	305.68
719.774	326.27
720.217	321.17
720.66	299.98
721.103	277.48
721.546	261.77
721.989	260.98
722.432	245.47
722.874	249.17
723.317	237.88
723.76	240.58
724.203	273.67
724.645	341.58
725.088	479.67
725.531	597.07
725.974	664.37
726.416	568.67
726.859	315.68
727.301	256.47
727.744	251.27
728.187	245.77
728.629	248.48
729.071	251.88
729.514	268.38
729.956	284.98
730.399	291.97
730.841	302.98
731.283	284.18
731.726	282.98
732.168	278.27
732.61	281.87
733.053	307.38
733.495	336.07
733.937	367.27
734.379	422.87
734.821	467.38
735.263	589.18
735.705	919.38
736.148	1745.28
736.59	2768.77
737.032	3159.88
737.474	2585.27
737.916	863.08
738.357	464.08
738.799	343.88
739.241	316.27
739.683	300.37
740.125	311.38
740.567	316.17
741.008	332.48
741.45	331.78
741.892	333.88
742.334	370.48
742.775	383.37
743.217	367.37
743.658	285.48
744.1	271.27
744.542	280.47
744.983	336.47
745.425	360.87
745.866	363.27
746.307	293.17
746.749	297.97
747.19	351.38
747.632	492.77
748.073	989.88
748.514	2050.98
748.956	3019.08
749.397	3823.17
749.838	3147.57
750.279	3065.88
750.72	1572.48
751.162	582.58
751.603	341.68
752.044	264.37
752.485	227.38
752.926	217.68
753.367	212.67
753.808	209.57
754.249	202.18
754.69	192.08
755.131	197.08
755.572	197.07
756.013	191.38
756.453	196.17
756.894	201.08
757.335	203.38
757.776	209.57
758.216	208.37
758.657	208.27
759.098	216.47
759.538	246.67
759.979	289.57
760.42	409.78
760.86	785.77
761.301	2053.28
761.741	4851.57
762.182	6670.88
762.622	4746.68
763.063	1403.58
763.503	569.68
763.943	342.27
764.384	298.98
764.824	283.48
765.264	273.47
765.705	231.07
766.145	197.67
766.585	184.07
767.025	184.07
767.465	181.07
767.906	197.27
768.346	225.37
768.786	229.98
769.226	241.88
769.666	332.37
770.106	694.48
770.546	1716.58
770.986	2771.78
771.426	2452.07
771.866	832.68
772.306	345.58
772.745	224.17
773.185	177.88
773.625	166.27
774.065	160.67
774.505	179.87
774.944	227.87
775.384	422.48
775.824	675.07
776.263	642.97
776.703	320.87
777.142	171.67
777.582	143.57
778.021	131.48
778.461	129.98
778.9	130.27
779.34	135.18
779.779	122.17
780.219	112.58
780.658	109.38
781.097	108.17
781.537	113.48
781.976	105.77
782.415	111.17
782.855	110.77
783.294	108.77
783.733	115.48
784.172	115.27
784.611	108.77
785.05	108.07
785.489	116.48
785.928	117.67
786.367	116.67
786.806	126.27
787.245	133.87
787.684	144.67
788.123	154.57
788.562	148.17
789.001	124.38
789.44	123.58
789.879	121.07
790.317	124.27
790.756	131.67
791.195	134.77
791.634	156.08
792.072	224.07
792.511	410.98
792.95	1125.97
793.388	2251.38
793.827	1971.28
794.265	718.88
794.704	302.17
795.142	189.88
795.581	156.47
796.019	150.17
796.458	140.77
796.896	130.58
797.334	147.38
797.773	163.07
798.211	241.17
798.649	489.57
799.087	1115.58
799.526	1719.78
799.964	2165.97
800.402	2080.58
800.84	796.17
801.278	323.08
801.716	196.67
802.154	164.57
802.592	156.38
803.03	144.27
803.468	137.38
803.906	153.08
804.344	159.98
804.782	147.88
805.22	142.17
805.658	140.57
806.096	154.88
806.533	168.98
806.971	186.37
807.409	236.48
807.847	348.98
808.284	739.37
808.722	2048.88
809.16	3471.57
809.597	3450.18
810.035	5826.48
810.472	5955.28
810.91	2187.18
811.347	862.07
811.785	431.88
812.222	277.57
812.66	207.07
813.097	174.37
813.535	150.67
813.972	136.38
814.409	127.77
814.846	116.27
815.284	116.38
815.721	102.77
816.158	106.88
816.595	118.98
817.032	162.17
817.47	186.88
817.907	125.77
818.344	110.87
818.781	103.68
819.218	101.17
819.655	127.98
820.092	201.07
820.529	225.48
820.966	177.48
821.403	129.97
821.839	100.17
822.276	99.67
822.713	127.57
823.15	138.88
823.587	122.98
824.023	154.17
824.46	336.88
824.897	974.38
825.333	1410.78
825.77	615.87
826.206	242.77
826.643	149.27
827.08	110.08
827.516	91.18
827.953	87.88
828.389	84.67
828.825	70.27
829.262	68.97
829.698	68.17
830.135	59.88
830.571	61.07
831.007	69.48
831.443	64.48
831.88	63.18
832.316	66.27
832.752	68.08
833.188	71.18
833.624	64.48
834.06	71.67
834.497	68.97
834.933	73.58
835.369	84.17
835.805	74.77
836.241	82.37
836.677	85.68
837.112	97.37
837.548	118.67
837.984	145.88
838.42	215.77
838.856	557.88
839.292	1659.18
839.727	2400.98
840.163	1132.47
840.599	1020.07
841.034	2189.68
841.47	2195.28
841.906	823.68
842.341	354.88
842.777	214.07
843.212	228.07
843.648	199.87
844.083	122.07
844.519	85.98
844.954	73.68
845.39	65.67
845.825	56.57
846.261	60.88
846.696	52.27
847.131	51.88
847.566	55.27
848.002	50.88
848.437	54.17
848.872	63.58
849.307	61.68
849.742	82.27
850.177	197.58
850.613	609.98
851.048	916.37
851.483	397.98
851.918	161.37
852.353	91.37
852.788	64.38
853.223	51.17
853.657	54.77
854.092	47.48
854.527	39.88
854.962	43.57
855.397	48.38
855.832	52.77
856.266	42.88
856.701	41.98
857.136	36.08
857.57	41.38
858.005	52.88
858.44	58.38
858.874	42.68
859.309	55.58
859.743	40.47
860.178	50.97
860.612	44.17
861.047	57.97
861.481	73.17
861.915	74.48
862.35	52.38
862.784	37.67
863.218	39.98
863.653	36.77
864.087	48.07
864.521	55.67
864.955	67.08
865.39	166.57
865.824	177.48
866.258	132.27
866.692	173.38
867.126	181.38
867.56	107.07
867.994	55.27
868.428	38.67
868.862	47.38
869.296	59.08
869.73	62.47
870.164	60.88
870.598	52.88
871.031	38.17
871.465	30.27
871.899	30.48
872.333	29.88
872.766	26.88
873.2	27.27
873.634	36.67
874.067	27.07
874.501	27.37
874.935	35.37
875.368	35.77
875.802	33.17
876.235	26.38
876.669	28.58
877.102	21.08
877.535	26.27
877.969	25.08
878.402	25.88
878.836	19.88
879.269	26.77
879.702	31.77
880.135	22.57
880.569	24.47
881.002	24.77
881.435	22.97
881.868	11.98
882.301	22.48
882.734	15.67
883.167	22.98
883.601	19.08
884.034	21.27
884.467	18.58
884.899	21.27
885.332	20.98
885.765	19.68
886.198	17.27
886.631	23.87
887.064	21.38
887.497	21.07
887.929	25.57
888.362	11.17
888.795	14.17
889.228	17.57
889.66	21.88
890.093	19.57
890.526	13.37
890.958	16.18
891.391	21.77
891.823	19.17
892.256	15.38
892.688	14.57
893.121	17.18
893.553	16.27
893.985	22.57
894.418	17.67
894.85	13.17
895.282	20.67
895.715	15.38
896.147	19.38
896.579	15.67
897.011	14.88
897.444	16.98
897.876	16.38
898.308	18.37
898.74	8.68
899.172	8.27
899.604	21.48
900.036	22.27
900.468	15.77
900.9	13.57
901.332	19.87
901.764	13.88
902.196	21.58
902.628	17.07
903.06	20.47
903.491	30.88
903.923	27.77
904.355	20.88
904.787	24.38
905.218	21.18
905.65	15.38
906.082	13.47
906.513	16.77
906.945	15.17
907.376	10.47
907.808	18.07
908.239	21.77
908.671	20.67
909.102	16.17
909.534	23.68
909.965	43.77
910.397	101.47
910.828	346.17
911.259	502.48
911.691	228.97
912.122	111.18
912.553	51.88
912.984	38.88
913.415	25.48
913.847	23.38
914.278	13.17
914.709	13.47
915.14	13.98
915.571	21.17
916.002	13.38
916.433	19.08
916.864	14.57
917.295	10.77
917.726	21.17
918.157	18.67
918.587	26.67
919.018	27.77
919.449	25.27
919.88	26.17
920.311	34.67
920.741	51.37
921.172	179.77
921.603	159.87
922.033	75.17
922.464	47.38
922.895	24.87
923.325	26.77
923.756	15.57
924.186	11.68
924.617	12.68
925.047	22.98
925.478	27.58
925.908	25.17
926.338	17.38
926.769	14.27
927.199	17.38
927.629	7.08
928.06	16.57
928.49	16.18
928.92	14.17
929.35	9.58
929.78	11.77
930.21	5.17
930.641	13.77
931.071	4.38
931.501	5.67
931.931	13.27
932.361	6.58
932.791	6.88
933.221	4.48
933.651	4.58
934.08	20.47
934.51	34.98
934.94	14.17
935.37	10.48
935.8	10.77
936.229	14.97
936.659	17.47
937.089	4.67
937.519	12.38
937.948	23.47
938.378	18.98
938.807	9.97
939.237	3.18
939.666	9.18
940.096	-5.02
940.525	4.47
940.955	1.98
941.384	1.18
941.814	-8.62
942.243	-2.42
942.672	0.77
943.102	-2.42
943.531	2.48
943.96	1.38
944.39	3.07
944.819	3.97
945.248	3.07
945.677	2.07
946.106	4.58
946.535	1.17
946.964	0.67
947.393	3.77
947.822	3.38
948.251	-3.43
948.68	2.08
949.109	0.77
949.538	1.27
949.967	-1.12
950.396	-0.03
950.825	-7.13
951.254	-3.42
951.682	-5.62
952.111	1.27
952.54	2.77
952.969	-0.93
953.397	-5.33
953.826	0.07
954.254	-5.02
954.683	-2.13
955.112	-0.12
955.54	2.88
955.969	2.27
956.397	-1.33
956.826	-4.33
957.254	3.27
957.682	-3.23
958.111	2.77
958.539	-4.42
958.967	0.58
959.396	-2.33
959.824	-2.23
960.252	4.57
960.68	-2.13
961.109	-6.43
961.537	-2.73
961.965	1.47
962.393	0.38
962.821	-3.73
963.249	1.88
963.677	5.27
964.105	9.67
964.533	47.08
964.961	45.57
965.389	21.48
965.817	13.87
966.245	-0.53
966.672	-6.42
967.1	-1.12
967.528	4.67
967.956	-4.32
968.383	5.27
968.811	-5.42
969.239	-5.03
969.666	-5.42
970.094	-1.12
970.522	2.17
970.949	-4.83
971.377	-8.02
971.804	-4.52
972.232	-3.02
972.659	-0.62
973.087	-5.13
973.514	-2.93
973.941	-9.52
974.369	0.77
974.796	0.18
975.223	-1.53
975.651	-4.73
976.078	0.17
976.505	-5.23
976.932	3.27
977.359	14.07
977.786	11.77
978.214	0.67
978.641	-6.93
979.068	-0.43
979.495	-5.73
979.922	-7.53
980.349	-4.83
980.776	2.77
981.202	-1.62
981.629	12.07
982.056	6.97
982.483	-5.42
982.91	1.77
983.337	-8.33
983.763	4.27
984.19	-4.23
984.617	-9.62
985.043	-6.83
985.47	2.08
985.897	0.27
986.323	-2.83
986.75	0.48
987.176	-6.43
987.603	-1.43
988.029	-0.73
988.456	-3.12
988.882	-1.62
989.308	-9.43
989.735	-6.53
990.161	-1.43
990.587	-4.53
991.014	0.48
991.44	7.77
991.866	-4.52
992.292	-5.82
992.719	-8.03
993.145	-1.33
993.571	-9.52
993.997	-4.73
994.423	-2.12
994.849	-6.43
995.275	-0.62
995.701	1.38
996.127	-0.03
996.553	2.08
996.979	-0.73
997.405	-4.73
997.83	-8.62
998.256	-5.83
998.682	-3.92
999.108	-8.93
999.534	1.67
999.959	-1.62
1000.385	-1.52
1000.811	-0.43
1001.236	-10.13
1001.662	-10.02
1002.087	-10.52
1002.513	-4.53
1002.938	0.98
1003.364	-1.82
1003.789	-0.92
1004.215	0.48
1004.64	-1.03
1005.066	3.48
1005.491	0.88
1005.916	-4.73
1006.342	-5.62
1006.767	-8.42
1007.192	2.08
1007.617	-6.73
1008.042	-6.23
1008.468	-11.23
1008.893	-1.92
1009.318	-2.52
1009.743	-1.83
1010.168	7.97
1010.593	-0.33
1011.018	-1.73
1011.443	-0.33
1011.868	0.48
1012.293	-6.62
1012.718	-7.52
1013.143	-1.13
1013.567	2.27
1013.992	-3.43
1014.417	-10.12
1014.842	4.47
1015.267	-4.33
1015.691	-2.23
1016.116	4.97
1016.541	-0.02
1016.965	0.77
1017.39	1.27
1017.814	3.98
1018.239	3.27
1018.663	-6.73
1019.088	-12.12
1019.512	-5.83
1019.937	1.88
1020.361	-7.02
1020.785	-8.83
1021.21	-3.23
1021.634	-9.12
1022.058	0.67
1022.483	-2.62
1022.907	-1.03
1023.331	-3.52
1023.755	-4.83
1024.179	-1.23
1024.604	-9.52
1025.028	-4.63
1025.452	-4.83
1025.876	0.97
1026.3	-2.73
1026.724	-4.12
1027.148	-10.02
1027.572	-6.92
1027.996	-2.62
1028.42	5.07
1028.843	-2.63
1029.267	-3.53
1029.691	-4.53
1030.115	-6.73
1030.539	-3.23
1030.962	-3.53
1031.386	-5.12
1031.81	-2.73
1032.233	3.17
1032.657	-7.12
1033.08	-9.12
1033.504	0.77
1033.927	-5.12
1034.351	-1.52
1034.774	-4.23
1035.198	2.67
1035.621	-7.62
1036.045	-5.33
1036.468	-1.73
1036.891	-11.83
1037.315	-6.63
1037.738	-7.52
1038.161	-0.83
1038.584	-4.12
1039.008	-6.93
1039.431	-0.23
1039.854	-3.03
1040.277	-5.52
1040.7	-10.62
1041.123	-1.53
1041.546	-6.62
1041.969	-5.12
1042.392	-6.33
1042.815	-5.83
1043.238	-4.03
1043.661	3.47
1044.084	-10.23
1044.507	-8.12
1044.93	-5.62
1045.352	-7.23
1045.775	1.97
1046.198	-3.52
1046.621	0.88
1047.043	-4.32
1047.466	1.98
1047.889	-1.83
1048.311	-4.02
1048.734	-1.93
1049.156	-4.02
1049.579	-5.83
1050.001	-4.02
1050.424	-3.43
1050.846	-6.93
1051.269	-1.12
1051.691	-7.73
1052.113	-6.83
1052.536	-2.83
1052.958	-4.52
1053.38	-4.43
1053.802	-13.03
1054.225	0.88
1054.647	-11.02
1055.069	-7.43
1055.491	-1.02
1055.913	-8.23
1056.335	-1.23
1056.757	-3.62
1057.179	-10.23
1057.601	-9.33
1058.023	-3.82
1058.445	-4.43
1058.867	-7.02
1059.289	2.57
1059.711	-5.42
1060.133	-3.23
1060.555	-5.83
1060.976	-9.83
1061.398	-4.62
1061.82	-3.52
1062.241	-9.73
1062.663	-9.43
1063.085	-4.43
1063.506	-2.32
1063.928	-2.13
1064.35	2.77
1064.771	-7.53
1065.193	-1.73
1065.614	-12.43
1066.035	-1.82
1066.457	-2.02
1066.878	0.57
1067.3	-5.93
1067.721	-4.23
1068.142	-9.23
1068.564	-7.12
1068.985	-4.83
1069.406	-2.33
1069.827	0.67
1070.248	-5.62
1070.67	-12.33
1071.091	-7.73
1071.512	-4.53
1071.933	-0.33
1072.354	-8.92
1072.775	-7.83
1073.196	-6.92
1073.617	-7.63
1074.038	-11.02
1074.459	-4.23
1074.88	-12.12
1075.3	-3.62
1075.721	-8.43
1076.142	-0.62
1076.563	-3.63
1076.983	-12.43
1077.404	-10.32
1077.825	-10.82
1078.246	-10.33
1078.666	-9.93
1079.087	-5.73
1079.507	-7.13
1079.928	-1.53
1080.348	1.08
1080.769	-4.03
1081.189	-0.02
1081.61	-5.12
1082.03	-6.73
1082.451	-8.02
1082.871	-2.02
1083.291	-10.23
1083.711	-19.42
1084.132	-9.73
1084.552	-2.43
1084.972	-4.23
1085.392	-10.33
1085.813	-9.23
1086.233	-7.43
1086.653	-4.62
1087.073	-2.83
1087.493	-6.93
1087.913	-6.23
1088.333	-4.43
1088.753	-4.62
1089.173	-2.73
1089.593	-3.82
1090.013	-4.43
1090.433	2.07
1090.852	-6.02
1091.272	-0.83
1091.692	-4.62
1092.112	-3.73
1092.531	-11.43
1092.951	-11.12
1093.371	0.27
1093.79	-4.73
1094.21	-9.52
1094.63	-2.52
1095.049	-2.62
1095.469	-1.23
1095.888	-6.43
1096.308	-1.43
1096.727	0.67
1097.146	-6.42
1097.566	-1.23
1097.985	-1.43
1098.405	-1.73
1098.824	-3.93
1099.243	-9.02
1099.662	-10.83
1100.082	-7.82
1100.501	-4.23
1100.92	-10.62
1101.339	-0.73
1101.758	-3.02
