Data from 20171114-ORNL-Ar_H_NY_Subt18_08-06-10-088.txt Node
Date: Tue Nov 14 08:06:10 EST 2017
User: Ender
Spectrometer: HR+D1039
Trigger mode: 0
Integration Time (sec): 2.730000E-2
Scans to average: 10
Electric dark correction enabled: true
Nonlinearity correction enabled: false
Boxcar width: 0
XAxis mode: Wavelengths
Number of Pixels in Spectrum: 2048
>>>>>Begin Spectral Data<<<<<
187.836	-7.79
188.309	-7.79
188.782	-7.79
189.255	0.71
189.728	0.31
190.201	8.21
190.674	4.11
191.147	3.21
191.619	-5.29
192.092	-3.99
192.565	3.51
193.038	0.61
193.511	4.21
193.984	-0.79
194.456	-4.49
194.929	0.81
195.402	-2.79
195.874	-0.59
196.347	-1.19
196.82	-6.29
197.292	6.31
197.765	-0.99
198.237	-8.99
198.71	6.21
199.182	-0.89
199.655	1.51
200.127	2.91
200.6	-2.39
201.072	-3.69
201.544	-4.89
202.017	-2.49
202.489	1.61
202.961	-0.09
203.433	-5.49
203.906	-15.49
204.378	-8.89
204.85	2.41
205.322	-7.79
205.794	-1.79
206.266	0.81
206.739	-10.79
207.211	2.21
207.683	-10.99
208.155	-5.69
208.627	-0.09
209.099	0.31
209.57	-2.69
210.042	0.11
210.514	1.11
210.986	3.41
211.458	-3.89
211.93	-4.49
212.402	-1.49
212.873	-9.49
213.345	-11.09
213.817	-10.09
214.288	-5.19
214.76	-12.49
215.232	-4.99
215.703	-3.89
216.175	-9.89
216.646	-3.89
217.118	-5.59
217.589	-3.09
218.061	-2.49
218.532	-6.19
219.004	0.11
219.475	-7.19
219.946	-0.69
220.418	-8.89
220.889	4.11
221.36	3.91
221.832	-3.39
222.303	-4.39
222.774	2.61
223.245	-5.69
223.717	-2.89
224.188	-5.09
224.659	-7.19
225.13	-5.39
225.601	-6.69
226.072	4.51
226.543	1.61
227.014	0.61
227.485	-2.09
227.956	-5.39
228.427	-0.29
228.898	3.01
229.369	7.21
229.839	-0.79
230.31	2.31
230.781	3.41
231.252	1.41
231.722	-2.59
232.193	-1.79
232.664	0.41
233.135	-1.79
233.605	3.01
234.076	-3.09
234.546	-1.29
235.017	4.11
235.487	0.71
235.958	-0.89
236.428	-2.09
236.899	7.81
237.369	4.01
237.84	6.91
238.31	4.31
238.78	3.21
239.251	-1.29
239.721	1.71
240.191	-1.99
240.662	-3.69
241.132	4.91
241.602	-8.39
242.072	5.01
242.542	3.61
243.013	5.11
243.483	7.01
243.953	7.81
244.423	-0.59
244.893	-1.69
245.363	7.61
245.833	-1.69
246.303	-0.19
246.773	9.91
247.243	6.91
247.712	-0.09
248.182	9.91
248.652	6.21
249.122	2.41
249.592	18.71
250.061	22.71
250.531	36.91
251.001	13.91
251.471	24.91
251.94	18.91
252.41	7.91
252.879	5.21
253.349	14.81
253.818	7.61
254.288	5.61
254.757	4.51
255.227	-3.49
255.696	5.51
256.166	8.41
256.635	7.91
257.105	7.11
257.574	9.21
258.043	14.81
258.513	11.61
258.982	14.11
259.451	10.11
259.92	13.41
260.389	11.31
260.859	16.71
261.328	15.31
261.797	17.61
262.266	12.61
262.735	15.01
263.204	10.61
263.673	1.41
264.142	14.61
264.611	1.81
265.08	0.61
265.549	5.71
266.018	9.41
266.487	-0.09
266.955	-0.89
267.424	4.61
267.893	9.31
268.362	9.61
268.83	7.01
269.299	16.51
269.768	5.11
270.236	8.51
270.705	2.31
271.174	6.51
271.642	8.61
272.111	5.41
272.579	18.91
273.048	26.91
273.516	29.31
273.985	28.41
274.453	25.01
274.922	19.61
275.39	10.71
275.858	3.51
276.327	9.41
276.795	22.61
277.263	11.91
277.731	29.81
278.2	53.01
278.668	63.21
279.136	51.51
279.604	22.01
280.072	15.51
280.54	20.01
281.008	17.71
281.477	12.41
281.945	13.71
282.413	15.81
282.881	18.41
283.348	9.11
283.816	12.61
284.284	18.41
284.752	16.41
285.22	23.61
285.688	20.31
286.156	19.21
286.623	38.81
287.091	53.81
287.559	31.51
288.026	14.11
288.494	16.81
288.962	7.61
289.429	15.21
289.897	20.91
290.364	16.91
290.832	20.51
291.3	18.51
291.767	15.71
292.234	17.01
292.702	19.81
293.169	25.41
293.637	22.71
294.104	23.01
294.571	14.11
295.039	19.31
295.506	16.41
295.973	20.31
296.44	22.81
296.908	21.91
297.375	17.01
297.842	26.81
298.309	14.81
298.776	13.91
299.243	26.91
299.71	16.31
300.177	21.91
300.644	26.01
301.111	16.01
301.578	24.01
302.045	20.71
302.512	30.21
302.979	24.61
303.446	19.51
303.913	19.41
304.379	20.41
304.846	29.21
305.313	27.61
305.78	25.71
306.246	27.41
306.713	26.41
307.18	30.91
307.646	26.01
308.113	35.31
308.579	23.51
309.046	27.21
309.512	30.51
309.979	23.41
310.445	25.61
310.912	30.01
311.378	36.61
311.845	28.21
312.311	30.21
312.777	34.01
313.244	30.71
313.71	38.51
314.176	30.41
314.642	32.71
315.109	31.11
315.575	37.61
316.041	38.51
316.507	37.01
316.973	35.71
317.439	36.61
317.905	37.81
318.371	39.71
318.837	37.01
319.303	32.51
319.769	34.41
320.235	38.81
320.701	47.51
321.167	37.21
321.633	39.11
322.099	38.31
322.564	45.71
323.03	44.31
323.496	41.81
323.962	48.51
324.427	38.91
324.893	45.41
325.359	40.51
325.824	39.61
326.29	34.01
326.755	41.01
327.221	47.11
327.686	40.31
328.152	49.31
328.617	40.81
329.083	49.71
329.548	51.71
330.014	51.71
330.479	42.31
330.944	43.11
331.41	49.91
331.875	53.51
332.34	48.81
332.805	49.61
333.271	52.41
333.736	49.21
334.201	56.31
334.666	54.71
335.131	57.11
335.596	50.61
336.061	51.71
336.526	47.51
336.991	53.31
337.456	60.31
337.921	47.11
338.386	45.41
338.851	48.71
339.316	55.01
339.781	51.21
340.246	56.11
340.711	48.11
341.175	51.51
341.64	43.31
342.105	53.41
342.569	60.91
343.034	64.31
343.499	61.41
343.963	54.91
344.428	63.11
344.893	61.61
345.357	64.81
345.822	65.91
346.286	65.91
346.751	81.01
347.215	71.41
347.679	82.51
348.144	101.11
348.608	89.21
349.073	75.31
349.537	75.31
350.001	82.21
350.465	95.21
350.93	85.81
351.394	83.31
351.858	73.51
352.322	86.81
352.786	85.91
353.25	103.91
353.715	110.81
354.179	110.21
354.643	126.31
355.107	129.11
355.571	110.11
356.035	102.81
356.498	125.21
356.962	128.41
357.426	135.71
357.89	119.01
358.354	99.71
358.818	79.91
359.281	80.11
359.745	86.21
360.209	76.01
360.673	73.61
361.136	84.31
361.6	91.11
362.064	88.21
362.527	96.11
362.991	92.71
363.454	86.11
363.918	73.61
364.381	80.21
364.845	86.71
365.308	93.41
365.772	95.11
366.235	91.31
366.698	91.71
367.162	94.21
367.625	93.31
368.088	86.71
368.552	85.01
369.015	91.31
369.478	95.21
369.941	101.91
370.404	93.31
370.867	112.71
371.331	112.61
371.794	122.91
372.257	114.71
372.72	125.01
373.183	113.01
373.646	111.91
374.109	104.51
374.572	115.31
375.035	108.31
375.497	112.71
375.96	115.41
376.423	106.61
376.886	120.51
377.349	118.61
377.811	104.31
378.274	111.31
378.737	107.31
379.199	120.71
379.662	115.21
380.125	115.11
380.587	118.91
381.05	131.51
381.512	131.71
381.975	136.41
382.437	134.11
382.9	134.01
383.362	134.21
383.825	141.11
384.287	150.41
384.75	139.81
385.212	148.01
385.674	151.11
386.136	140.91
386.599	126.91
387.061	137.81
387.523	136.11
387.985	136.01
388.447	152.01
388.91	143.81
389.372	153.41
389.834	157.21
390.296	153.11
390.758	159.51
391.22	172.91
391.682	214.51
392.144	291.71
392.606	233.11
393.068	173.91
393.529	174.61
393.991	158.21
394.453	152.41
394.915	156.61
395.377	193.01
395.838	212.31
396.3	159.61
396.762	152.61
397.224	131.91
397.685	142.81
398.147	132.81
398.608	137.91
399.07	134.71
399.531	135.91
399.993	146.41
400.454	150.31
400.916	153.21
401.377	156.91
401.839	153.91
402.3	157.81
402.762	177.41
403.223	188.91
403.684	177.91
404.145	168.01
404.607	167.01
405.068	164.51
405.529	172.01
405.99	197.61
406.451	183.31
406.913	191.01
407.374	172.81
407.835	170.61
408.296	169.91
408.757	175.61
409.218	198.11
409.679	187.01
410.14	186.61
410.601	183.11
411.062	195.51
411.522	199.51
411.983	196.91
412.444	182.61
412.905	187.01
413.366	189.81
413.826	201.91
414.287	224.61
414.748	267.01
415.208	252.11
415.669	211.81
416.13	213.71
416.59	205.91
417.051	215.51
417.511	224.01
417.972	246.71
418.432	256.61
418.893	291.81
419.353	251.31
419.814	200.41
420.274	189.21
420.734	189.51
421.195	205.91
421.655	204.11
422.115	195.51
422.576	194.01
423.036	200.11
423.496	211.71
423.956	222.91
424.416	236.11
424.876	269.71
425.336	265.91
425.797	271.21
426.257	260.61
426.717	249.91
427.177	231.51
427.637	233.81
428.097	239.21
428.556	260.51
429.016	280.61
429.476	270.61
429.936	282.01
430.396	288.51
430.856	301.51
431.315	331.71
431.775	370.31
432.235	395.41
432.694	366.01
433.154	370.51
433.614	407.21
434.073	342.41
434.533	294.01
434.993	277.21
435.452	292.81
435.912	311.61
436.371	296.81
436.83	290.31
437.29	280.61
437.749	257.11
438.209	249.41
438.668	284.91
439.127	297.91
439.587	274.01
440.046	256.71
440.505	271.01
440.964	294.01
441.424	340.01
441.883	315.41
442.342	262.81
442.801	225.51
443.26	224.91
443.719	223.31
444.178	226.61
444.637	213.81
445.096	226.11
445.555	229.51
446.014	233.41
446.473	234.41
446.932	237.71
447.391	232.81
447.849	229.81
448.308	226.31
448.767	220.21
449.226	246.61
449.685	241.31
450.143	257.01
450.602	240.51
451.061	235.71
451.519	238.61
451.978	242.61
452.436	239.01
452.895	251.21
453.353	263.01
453.812	246.91
454.27	256.51
454.729	249.41
455.187	248.91
455.646	248.71
456.104	254.31
456.562	263.21
457.021	280.31
457.479	272.81
457.937	281.31
458.395	268.71
458.854	259.21
459.312	264.81
459.77	285.51
460.228	268.11
460.686	252.41
461.144	253.61
461.602	246.61
462.06	244.41
462.518	255.71
462.976	263.91
463.434	261.51
463.892	267.91
464.35	282.11
464.808	296.51
465.266	271.91
465.724	274.11
466.181	279.41
466.639	278.81
467.097	294.31
467.555	307.61
468.012	305.61
468.47	316.31
468.928	336.11
469.385	348.31
469.843	361.71
470.3	360.21
470.758	373.91
471.215	393.81
471.673	424.71
472.13	417.01
472.588	425.71
473.045	392.41
473.503	395.81
473.96	409.61
474.417	415.01
474.875	453.11
475.332	483.31
475.789	478.71
476.246	482.61
476.704	494.71
477.161	524.41
477.618	547.51
478.075	573.21
478.532	632.61
478.989	707.91
479.446	823.41
479.903	794.41
480.36	814.81
480.817	886.51
481.274	985.21
481.731	1097.61
482.188	1191.41
482.645	1326.11
483.102	1427.61
483.558	1586.71
484.015	1629.51
484.472	1597.11
484.929	1542.01
485.385	1499.41
485.842	1466.81
486.299	1396.71
486.755	1322.71
487.212	1124.81
487.668	949.21
488.125	874.01
488.582	791.11
489.038	768.31
489.494	730.61
489.951	704.31
490.407	684.01
490.864	662.61
491.32	661.51
491.776	653.91
492.233	674.31
492.689	631.21
493.145	633.21
493.602	619.81
494.058	638.31
494.514	634.01
494.97	657.71
495.426	667.11
495.882	643.11
496.338	626.91
496.794	631.01
497.251	627.51
497.707	654.61
498.163	646.11
498.618	658.81
499.074	660.31
499.53	695.51
499.986	691.31
500.442	676.71
500.898	659.01
501.354	646.61
501.809	651.91
502.265	653.41
502.721	676.01
503.177	694.61
503.632	681.61
504.088	691.51
504.543	729.31
504.999	722.41
505.455	675.31
505.91	643.51
506.366	650.91
506.821	644.11
507.277	630.91
507.732	632.31
508.187	633.81
508.643	651.61
509.098	651.71
509.553	665.51
510.009	680.61
510.464	684.01
510.919	706.21
511.375	711.11
511.83	729.91
512.285	732.11
512.74	775.31
513.195	802.71
513.65	789.91
514.105	793.61
514.56	783.21
515.015	804.21
515.47	821.91
515.925	814.01
516.38	797.41
516.835	807.31
517.29	796.01
517.745	795.41
518.2	782.21
518.655	768.71
519.109	760.01
519.564	755.91
520.019	758.51
520.474	747.71
520.928	742.51
521.383	733.31
521.838	727.71
522.292	720.41
522.747	728.11
523.201	721.61
523.656	716.61
524.11	715.21
524.565	714.01
525.019	701.41
525.474	717.81
525.928	710.91
526.382	705.31
526.837	714.11
527.291	719.41
527.745	720.61
528.2	711.11
528.654	708.01
529.108	702.11
529.562	709.21
530.016	702.41
530.47	702.81
530.925	720.11
531.379	712.61
531.833	726.81
532.287	731.91
532.741	715.61
533.195	723.71
533.649	725.91
534.103	739.01
534.556	721.71
535.01	725.21
535.464	723.21
535.918	728.11
536.372	730.51
536.826	732.91
537.279	720.41
537.733	719.21
538.187	740.91
538.64	737.11
539.094	748.61
539.548	759.91
540.001	738.41
540.455	738.31
540.908	749.51
541.362	751.01
541.815	761.91
542.269	773.11
542.722	778.01
543.175	784.41
543.629	790.91
544.082	809.41
544.536	804.41
544.989	791.91
545.442	810.81
545.895	806.91
546.349	813.81
546.802	810.71
547.255	815.61
547.708	818.61
548.161	831.51
548.614	831.91
549.067	839.01
549.52	831.21
549.973	828.51
550.426	817.51
550.879	801.51
551.332	814.61
551.785	818.01
552.238	835.71
552.691	834.01
553.144	844.91
553.596	871.11
554.049	872.51
554.502	930.21
554.955	922.81
555.407	929.31
555.86	906.01
556.313	901.71
556.765	905.81
557.218	898.31
557.67	901.91
558.123	890.61
558.576	895.21
559.028	895.21
559.48	898.71
559.933	890.91
560.385	852.61
560.838	825.41
561.29	803.31
561.742	803.21
562.195	772.91
562.647	781.41
563.099	779.41
563.551	789.11
564.004	791.91
564.456	788.11
564.908	774.71
565.36	764.61
565.812	749.21
566.264	738.11
566.716	742.51
567.168	723.61
567.62	740.91
568.072	712.81
568.524	698.01
568.976	698.61
569.428	688.91
569.88	691.01
570.332	703.21
570.784	693.21
571.235	695.61
571.687	706.81
572.139	720.21
572.59	728.11
573.042	722.41
573.494	713.11
573.945	713.21
574.397	693.71
574.849	706.41
575.3	701.61
575.752	700.41
576.203	691.41
576.655	687.31
577.106	682.91
577.557	667.91
578.009	676.21
578.46	679.41
578.912	683.71
579.363	680.11
579.814	682.11
580.265	680.91
580.717	686.81
581.168	677.21
581.619	684.61
582.07	686.21
582.521	680.01
582.972	688.31
583.423	689.21
583.875	693.61
584.326	712.51
584.777	751.41
585.227	831.21
585.678	926.31
586.129	1006.21
586.58	1078.91
587.031	1149.41
587.482	1302.11
587.933	1489.81
588.384	1288.71
588.834	977.31
589.285	815.11
589.736	787.81
590.186	779.41
590.637	768.51
591.088	749.91
591.538	751.71
591.989	745.51
592.439	726.91
592.89	730.01
593.34	713.71
593.791	730.01
594.241	719.21
594.692	718.71
595.142	705.31
595.593	709.61
596.043	714.41
596.493	720.01
596.943	723.31
597.394	724.11
597.844	713.61
598.294	733.81
598.744	758.61
599.195	786.21
599.645	815.31
600.095	868.11
600.545	921.51
600.995	975.51
601.445	1029.01
601.895	1092.21
602.345	1141.71
602.795	1124.81
603.245	1073.01
603.695	1021.51
604.145	964.71
604.594	902.61
605.044	868.71
605.494	806.21
605.944	758.01
606.393	748.81
606.843	731.01
607.293	744.51
607.743	731.81
608.192	757.81
608.642	775.41
609.091	775.21
609.541	774.51
609.99	784.31
610.44	775.81
610.889	727.01
611.339	708.01
611.788	697.11
612.238	701.11
612.687	725.91
613.136	724.21
613.586	731.31
614.035	735.21
614.484	758.41
614.933	766.61
615.383	748.61
615.832	746.61
616.281	732.11
616.73	699.11
617.179	663.01
617.628	651.61
618.077	630.41
618.526	622.31
618.975	624.51
619.424	619.21
619.873	617.71
620.322	627.51
620.771	615.51
621.22	603.51
621.669	599.41
622.118	599.71
622.567	581.71
623.015	577.31
623.464	571.71
623.913	570.31
624.361	558.71
624.81	547.31
625.259	562.31
625.707	566.11
626.156	567.21
626.604	567.51
627.053	565.21
627.501	563.41
627.95	570.01
628.398	578.71
628.847	569.01
629.295	582.91
629.744	580.71
630.192	570.41
630.64	574.21
631.089	576.81
631.537	574.11
631.985	584.11
632.433	606.11
632.881	604.31
633.33	654.21
633.778	645.71
634.226	574.11
634.674	581.91
635.122	581.91
635.57	598.91
636.018	629.21
636.466	585.21
636.914	558.61
637.362	566.51
637.81	575.71
638.258	587.51
638.705	585.41
639.153	600.61
639.601	620.51
640.049	639.61
640.497	670.71
640.944	697.11
641.392	651.11
641.84	610.51
642.287	586.71
642.735	573.81
643.182	574.61
643.63	574.11
644.078	579.11
644.525	590.81
644.973	605.21
645.42	595.11
645.867	627.91
646.315	633.51
646.762	669.61
647.21	693.51
647.657	721.81
648.104	749.71
648.551	769.41
648.999	836.91
649.446	912.71
649.893	1009.01
650.34	1151.71
650.787	1397.31
651.234	1721.41
651.682	2250.51
652.129	3088.31
652.576	4419.91
653.023	6541.51
653.47	8941.41
653.917	11202.91
654.363	12918.51
654.81	14334.71
655.257	13584.41
655.704	8933.71
656.151	5287.11
656.598	3415.01
657.044	2432.51
657.491	1868.71
657.938	1491.61
658.385	1236.91
658.831	1077.51
659.278	964.51
659.724	866.51
660.171	796.71
660.618	718.71
661.064	691.81
661.511	669.01
661.957	658.01
662.404	645.81
662.85	660.11
663.296	623.51
663.743	567.31
664.189	545.01
664.635	533.71
665.082	524.01
665.528	531.11
665.974	517.81
666.42	514.71
666.867	503.41
667.313	493.41
667.759	478.81
668.205	475.81
668.651	476.41
669.097	486.01
669.543	493.01
669.989	471.11
670.435	444.91
670.881	440.61
671.327	446.51
671.773	469.31
672.219	492.71
672.665	543.31
673.11	585.01
673.556	631.21
674.002	672.41
674.448	653.81
674.893	551.01
675.339	479.41
675.785	438.31
676.23	406.51
676.676	398.31
677.122	385.31
677.567	374.11
678.013	363.51
678.458	356.71
678.904	351.41
679.349	349.81
679.794	362.61
680.24	357.01
680.685	350.31
681.131	351.61
681.576	345.61
682.021	348.31
682.466	351.31
682.912	349.91
683.357	344.51
683.802	381.71
684.247	412.51
684.692	457.91
685.137	497.21
685.583	534.81
686.028	563.11
686.473	513.01
686.918	450.21
687.363	414.01
687.807	389.31
688.252	361.41
688.697	346.61
689.142	340.31
689.587	328.91
690.032	322.91
690.477	342.11
690.921	349.51
691.366	376.81
691.811	400.51
692.255	420.41
692.7	455.11
693.145	493.51
693.589	684.51
694.034	1108.41
694.478	1530.71
694.923	1722.51
695.367	2241.81
695.812	1185.31
696.256	496.21
696.701	370.31
697.145	345.21
697.59	322.51
698.034	314.21
698.478	329.11
698.922	322.51
699.367	329.31
699.811	333.01
700.255	357.41
700.699	386.21
701.143	424.41
701.588	464.31
702.032	520.71
702.476	504.81
702.92	489.41
703.364	485.51
703.808	627.41
704.252	1016.31
704.696	1436.31
705.14	1668.51
705.584	2115.91
706.027	1049.01
706.471	517.81
706.915	399.41
707.359	350.71
707.803	319.21
708.246	311.31
708.69	312.11
709.134	312.51
709.577	305.01
710.021	317.21
710.465	302.11
710.908	304.11
711.352	298.31
711.795	315.91
712.239	347.61
712.682	374.01
713.126	416.91
713.569	463.51
714.012	368.71
714.456	319.51
714.899	298.51
715.342	271.31
715.786	261.21
716.229	254.91
716.672	257.21
717.115	248.51
717.558	251.01
718.002	250.91
718.445	260.91
718.888	288.01
719.331	292.41
719.774	299.71
720.217	298.21
720.66	273.11
721.103	258.31
721.546	255.51
721.989	251.81
722.432	226.21
722.874	231.81
723.317	225.81
723.76	239.71
724.203	260.71
724.645	308.81
725.088	434.91
725.531	562.81
725.974	644.71
726.416	536.11
726.859	307.01
727.301	240.71
727.744	236.71
728.187	232.21
728.629	238.91
729.071	239.21
729.514	255.71
729.956	273.51
730.399	282.41
730.841	285.91
731.283	269.51
731.726	265.81
732.168	262.61
732.61	268.01
733.053	284.31
733.495	312.81
733.937	349.91
734.379	389.11
734.821	431.21
735.263	532.61
735.705	808.11
736.148	1533.01
736.59	2538.81
737.032	3034.41
737.474	2454.91
737.916	801.21
738.357	416.21
738.799	318.91
739.241	295.71
739.683	280.31
740.125	289.21
740.567	287.01
741.008	313.11
741.45	314.51
741.892	314.41
742.334	337.91
742.775	352.01
743.217	334.91
743.658	267.71
744.1	246.81
744.542	260.71
744.983	308.71
745.425	332.41
745.866	344.71
746.307	284.21
746.749	281.71
747.19	315.81
747.632	451.91
748.073	852.91
748.514	1817.71
748.956	2797.11
749.397	3506.91
749.838	2918.81
750.279	2932.71
750.72	1476.71
751.162	541.21
751.603	311.01
752.044	244.61
752.485	219.61
752.926	203.91
753.367	199.31
753.808	197.71
754.249	189.71
754.69	181.11
755.131	178.51
755.572	184.91
756.013	180.61
756.453	171.31
756.894	181.01
757.335	192.91
757.776	190.31
758.216	195.51
758.657	196.21
759.098	207.31
759.538	219.81
759.979	259.91
760.42	366.01
760.86	683.81
761.301	1765.21
761.741	4326.81
762.182	6334.51
762.622	4469.51
763.063	1285.61
763.503	536.81
763.943	333.71
764.384	334.31
764.824	394.71
765.264	426.81
765.705	293.01
766.145	203.31
766.585	185.21
767.025	174.01
767.465	186.31
767.906	239.71
768.346	312.31
768.786	329.11
769.226	253.61
769.666	310.21
770.106	610.21
770.546	1524.81
770.986	2593.21
771.426	2339.71
771.866	772.41
772.306	323.61
772.745	211.31
773.185	177.71
773.625	163.11
774.065	160.51
774.505	194.91
774.944	299.91
775.384	644.51
775.824	1174.71
776.263	1156.21
776.703	486.21
777.142	215.11
777.582	159.51
778.021	128.81
778.461	137.41
778.9	141.41
779.34	137.11
779.779	111.71
780.219	113.61
780.658	107.61
781.097	112.21
781.537	112.31
781.976	108.71
782.415	102.41
782.855	97.61
783.294	101.11
783.733	106.61
784.172	104.91
784.611	100.21
785.05	115.61
785.489	114.11
785.928	118.21
786.367	117.31
786.806	122.41
787.245	126.41
787.684	134.41
788.123	148.41
788.562	129.71
789.001	129.11
789.44	118.41
789.879	118.91
790.317	122.61
790.756	128.61
791.195	130.11
791.634	144.01
792.072	198.11
792.511	356.41
792.95	964.81
793.388	2104.31
793.827	1927.21
794.265	674.41
794.704	280.11
795.142	177.31
795.581	145.71
796.019	134.81
796.458	122.01
796.896	121.81
797.334	133.01
797.773	148.61
798.211	219.81
798.649	430.31
799.087	1010.01
799.526	1570.51
799.964	1973.51
800.402	1989.21
800.84	740.71
801.278	289.61
801.716	178.31
802.154	157.81
802.592	142.11
803.03	143.01
803.468	134.41
803.906	147.51
804.344	156.41
804.782	138.31
805.22	130.91
805.658	136.81
806.096	143.01
806.533	152.51
806.971	177.81
807.409	211.51
807.847	311.71
808.284	645.81
808.722	1812.91
809.16	3236.51
809.597	3045.71
810.035	5296.51
810.472	5700.71
810.91	2060.61
811.347	784.01
811.785	397.81
812.222	254.91
812.66	193.71
813.097	160.41
813.535	142.51
813.972	129.71
814.409	118.51
814.846	111.71
815.284	107.31
815.721	100.31
816.158	107.11
816.595	121.21
817.032	180.81
817.47	194.51
817.907	164.91
818.344	151.01
818.781	114.81
819.218	100.61
819.655	118.11
820.092	189.41
820.529	216.11
820.966	170.41
821.403	130.41
821.839	110.61
822.276	102.11
822.713	125.31
823.15	133.11
823.587	114.71
824.023	144.11
824.46	294.01
824.897	881.21
825.333	1345.31
825.77	570.81
826.206	228.81
826.643	130.31
827.08	101.41
827.516	88.91
827.953	77.21
828.389	81.41
828.825	64.21
829.262	62.11
829.698	65.11
830.135	64.81
830.571	65.51
831.007	63.81
831.443	68.21
831.88	66.41
832.316	66.81
832.752	62.91
833.188	70.61
833.624	63.91
834.06	69.81
834.497	72.61
834.933	69.21
835.369	76.81
835.805	67.91
836.241	78.21
836.677	80.61
837.112	90.21
837.548	101.21
837.984	132.21
838.42	200.81
838.856	478.81
839.292	1465.51
839.727	2255.81
840.163	1055.21
840.599	882.21
841.034	1983.61
841.47	2097.21
841.906	765.01
842.341	327.51
842.777	221.71
843.212	310.81
843.648	306.41
844.083	149.31
844.519	89.41
844.954	76.21
845.39	63.51
845.825	61.01
846.261	61.91
846.696	54.01
847.131	48.31
847.566	61.41
848.002	51.31
848.437	57.61
848.872	62.31
849.307	63.01
849.742	81.71
850.177	179.91
850.613	544.61
851.048	874.61
851.483	370.41
851.918	152.51
852.353	91.01
852.788	55.21
853.223	57.91
853.657	56.61
854.092	40.61
854.527	43.61
854.962	38.81
855.397	45.81
855.832	49.21
856.266	40.81
856.701	35.01
857.136	37.11
857.57	42.71
858.005	50.91
858.44	62.81
858.874	49.01
859.309	56.91
859.743	41.81
860.178	45.11
860.612	41.91
861.047	51.11
861.481	66.81
861.915	69.41
862.35	54.21
862.784	35.81
863.218	42.21
863.653	34.11
864.087	47.61
864.521	58.51
864.955	64.31
865.39	147.61
865.824	175.21
866.258	116.11
866.692	164.41
867.126	175.81
867.56	109.61
867.994	53.01
868.428	31.31
868.862	46.01
869.296	51.01
869.73	59.91
870.164	55.81
870.598	45.01
871.031	36.51
871.465	35.61
871.899	29.11
872.333	24.81
872.766	24.81
873.2	24.41
873.634	30.71
874.067	25.11
874.501	23.01
874.935	38.11
875.368	28.71
875.802	25.51
876.235	28.11
876.669	30.61
877.102	18.31
877.535	30.41
877.969	26.71
878.402	27.31
878.836	20.81
879.269	25.31
879.702	29.31
880.135	26.21
880.569	22.81
881.002	26.21
881.435	20.81
881.868	20.11
882.301	20.21
882.734	19.61
883.167	23.61
883.601	20.51
884.034	22.41
884.467	14.71
884.899	24.31
885.332	18.51
885.765	18.01
886.198	20.61
886.631	17.61
887.064	23.01
887.497	21.21
887.929	31.01
888.362	21.61
888.795	10.61
889.228	15.81
889.66	22.81
890.093	18.51
890.526	17.51
890.958	16.91
891.391	22.81
891.823	17.51
892.256	14.21
892.688	17.11
893.121	16.31
893.553	19.91
893.985	17.11
894.418	21.71
894.85	18.41
895.282	15.11
895.715	18.81
896.147	19.51
896.579	24.11
897.011	15.91
897.444	17.31
897.876	12.51
898.308	16.31
898.74	14.91
899.172	14.51
899.604	24.81
900.036	16.91
900.468	18.81
900.9	15.51
901.332	18.01
901.764	18.31
902.196	20.71
902.628	22.41
903.06	22.81
903.491	23.21
903.923	24.11
904.355	20.01
904.787	28.71
905.218	30.01
905.65	21.81
906.082	18.01
906.513	13.91
906.945	23.71
907.376	10.71
907.808	19.81
908.239	24.41
908.671	20.11
909.102	21.81
909.534	26.11
909.965	47.11
910.397	90.71
910.828	306.41
911.259	464.21
911.691	218.61
912.122	103.21
912.553	58.01
912.984	37.61
913.415	22.61
913.847	22.01
914.278	15.41
914.709	17.71
915.14	16.71
915.571	21.21
916.002	20.31
916.433	19.11
916.864	25.31
917.295	12.81
917.726	25.21
918.157	14.01
918.587	24.51
919.018	21.51
919.449	23.71
919.88	27.01
920.311	32.31
920.741	52.31
921.172	161.21
921.603	150.21
922.033	63.21
922.464	47.21
922.895	22.41
923.325	30.91
923.756	18.71
924.186	15.21
924.617	26.41
925.047	36.41
925.478	56.11
925.908	44.21
926.338	26.41
926.769	19.51
927.199	22.71
927.629	10.01
928.06	17.61
928.49	12.71
928.92	17.31
929.35	14.91
929.78	9.01
930.21	10.11
930.641	10.31
931.071	10.61
931.501	7.21
931.931	9.71
932.361	8.91
932.791	5.91
933.221	4.61
933.651	5.81
934.08	16.61
934.51	31.21
934.94	11.11
935.37	17.01
935.8	13.11
936.229	6.91
936.659	11.11
937.089	7.51
937.519	15.71
937.948	22.21
938.378	18.41
938.807	11.01
939.237	9.21
939.666	7.71
940.096	-1.69
940.525	1.21
940.955	10.01
941.384	5.01
941.814	0.21
942.243	2.91
942.672	3.51
943.102	-3.39
943.531	5.31
943.96	14.31
944.39	4.51
944.819	2.91
945.248	2.51
945.677	3.71
946.106	7.11
946.535	9.11
946.964	8.01
947.393	8.31
947.822	3.81
948.251	-4.49
948.68	6.01
949.109	10.91
949.538	6.31
949.967	-0.19
950.396	2.51
950.825	0.11
951.254	2.91
951.682	-5.89
952.111	2.81
952.54	6.91
952.969	-2.59
953.397	-1.09
953.826	-3.99
954.254	-6.39
954.683	-0.99
955.112	5.41
955.54	4.31
955.969	1.21
956.397	4.31
956.826	-1.39
957.254	2.51
957.682	2.51
958.111	6.31
958.539	-2.79
958.967	3.21
959.396	1.61
959.824	-0.09
960.252	10.01
960.68	-11.39
961.109	-3.39
961.537	-8.99
961.965	5.11
962.393	0.71
962.821	-8.59
963.249	-1.69
963.677	3.91
964.105	3.11
964.533	43.31
964.961	40.51
965.389	21.31
965.817	10.41
966.245	8.01
966.672	2.21
967.1	-3.19
967.528	-3.19
967.956	0.51
968.383	-0.79
968.811	-1.09
969.239	-2.39
969.666	-2.99
970.094	1.81
970.522	2.61
970.949	-2.09
971.377	1.41
971.804	-0.99
972.232	-0.69
972.659	2.91
973.087	-3.79
973.514	-2.69
973.941	-3.39
974.369	3.31
974.796	1.61
975.223	-2.99
975.651	-4.69
976.078	1.11
976.505	-1.69
976.932	1.21
977.359	16.81
977.786	11.31
978.214	4.61
978.641	-2.69
979.068	-1.69
979.495	-9.59
979.922	2.51
980.349	-4.19
980.776	4.31
981.202	4.71
981.629	9.61
982.056	2.21
982.483	-2.49
982.91	-1.39
983.337	-2.89
983.763	5.01
984.19	-2.09
984.617	-5.79
985.043	-4.49
985.47	1.21
985.897	-1.69
986.323	-6.39
986.75	1.81
987.176	1.01
987.603	-0.19
988.029	4.81
988.456	-0.69
988.882	6.21
989.308	-1.59
989.735	-2.09
990.161	-2.59
990.587	-5.99
991.014	-1.19
991.44	9.51
991.866	3.21
992.292	-1.49
992.719	-2.19
993.145	2.41
993.571	-14.89
993.997	-4.29
994.423	0.61
994.849	-9.79
995.275	5.81
995.701	-0.19
996.127	-3.99
996.553	4.91
996.979	-4.49
997.405	0.41
997.83	-6.29
998.256	-3.69
998.682	-10.69
999.108	-4.69
999.534	0.11
999.959	-1.29
1000.385	-4.99
1000.811	2.31
1001.236	-6.89
1001.662	-6.09
1002.087	-9.19
1002.513	1.01
1002.938	5.51
1003.364	-2.39
1003.789	-1.69
1004.215	3.91
1004.64	-2.39
1005.066	-1.69
1005.491	0.31
1005.916	-6.09
1006.342	-0.89
1006.767	-2.89
1007.192	5.91
1007.617	-1.99
1008.042	-5.19
1008.468	-9.19
1008.893	-4.69
1009.318	-3.09
1009.743	2.81
1010.168	3.31
1010.593	4.71
1011.018	3.81
1011.443	-0.99
1011.868	5.81
1012.293	-5.49
1012.718	-5.29
1013.143	1.11
1013.567	5.51
1013.992	-4.19
1014.417	-11.79
1014.842	1.81
1015.267	-2.69
1015.691	-0.89
1016.116	1.81
1016.541	-2.19
1016.965	4.51
1017.39	3.41
1017.814	3.91
1018.239	2.11
1018.663	-2.99
1019.088	-12.59
1019.512	-4.19
1019.937	-1.39
1020.361	-5.19
1020.785	-10.49
1021.21	-1.59
1021.634	-0.09
1022.058	-2.69
1022.483	8.21
1022.907	-0.89
1023.331	1.91
1023.755	-1.49
1024.179	1.31
1024.604	-8.19
1025.028	-3.19
1025.452	-1.69
1025.876	-1.79
1026.3	3.51
1026.724	-13.79
1027.148	-4.79
1027.572	-8.89
1027.996	-5.29
1028.42	-3.99
1028.843	-2.69
1029.267	-4.39
1029.691	-0.19
1030.115	-4.69
1030.539	-7.49
1030.962	-8.29
1031.386	-8.19
1031.81	2.31
1032.233	-4.49
1032.657	2.31
1033.08	-2.39
1033.504	-0.29
1033.927	-3.79
1034.351	-2.69
1034.774	-6.59
1035.198	-3.29
1035.621	-3.49
1036.045	-7.49
1036.468	2.21
1036.891	-10.99
1037.315	-9.99
1037.738	-13.49
1038.161	3.81
1038.584	-2.99
1039.008	-5.29
1039.431	0.01
1039.854	3.51
1040.277	-8.19
1040.7	-11.59
1041.123	0.01
1041.546	-7.29
1041.969	-9.29
1042.392	-8.39
1042.815	1.31
1043.238	5.31
1043.661	3.21
1044.084	-5.89
1044.507	-5.49
1044.93	-2.29
1045.352	-8.89
1045.775	-6.39
1046.198	-4.99
1046.621	-5.39
1047.043	-0.29
1047.466	8.91
1047.889	-0.39
1048.311	-1.59
1048.734	0.71
1049.156	-2.99
1049.579	0.91
1050.001	-3.89
1050.424	-1.29
1050.846	-3.79
1051.269	-1.19
1051.691	-4.39
1052.113	-6.69
1052.536	-0.79
1052.958	-5.99
1053.38	-1.99
1053.802	-11.59
1054.225	0.31
1054.647	-4.69
1055.069	-0.79
1055.491	3.81
1055.913	-4.19
1056.335	4.51
1056.757	-4.49
1057.179	-7.99
1057.601	-5.89
1058.023	2.41
1058.445	-6.39
1058.867	-1.09
1059.289	-1.39
1059.711	-10.49
1060.133	0.71
1060.555	-1.09
1060.976	-3.99
1061.398	-3.69
1061.82	-6.59
1062.241	-4.39
1062.663	-5.59
1063.085	-3.29
1063.506	-1.79
1063.928	-4.69
1064.35	-6.19
1064.771	-7.89
1065.193	-4.19
1065.614	-7.19
1066.035	-3.99
1066.457	-2.09
1066.878	4.61
1067.3	-7.29
1067.721	1.91
1068.142	1.21
1068.564	-4.59
1068.985	-5.29
1069.406	-1.19
1069.827	-3.99
1070.248	-3.19
1070.67	-7.19
1071.091	-3.99
1071.512	-2.19
1071.933	-4.59
1072.354	-5.99
1072.775	-3.39
1073.196	-6.19
1073.617	-4.29
1074.038	-2.49
1074.459	-2.49
1074.88	-9.69
1075.3	2.71
1075.721	-8.29
1076.142	2.91
1076.563	2.81
1076.983	-9.19
1077.404	-6.09
1077.825	-6.49
1078.246	0.61
1078.666	-10.69
1079.087	-5.99
1079.507	-9.09
1079.928	-1.69
1080.348	-0.69
1080.769	-8.79
1081.189	-2.49
1081.61	0.21
1082.03	-9.49
1082.451	-5.69
1082.871	-1.99
1083.291	-2.79
1083.711	-5.89
1084.132	-6.49
1084.552	0.41
1084.972	-4.99
1085.392	-10.29
1085.813	-12.09
1086.233	-8.19
1086.653	-7.39
1087.073	1.21
1087.493	-0.79
1087.913	-9.59
1088.333	-4.59
1088.753	-5.39
1089.173	3.81
1089.593	-4.99
1090.013	0.61
1090.433	0.51
1090.852	-3.89
1091.272	-0.49
1091.692	-1.99
1092.112	-0.69
1092.531	-6.59
1092.951	-7.89
1093.371	-5.69
1093.79	6.41
1094.21	-1.99
1094.63	4.61
1095.049	-6.49
1095.469	-2.99
1095.888	-2.39
1096.308	2.61
1096.727	2.81
1097.146	-8.49
1097.566	3.41
1097.985	-1.29
1098.405	-4.89
1098.824	-11.59
1099.243	-4.19
1099.662	-7.59
1100.082	-10.69
1100.501	-6.29
1100.92	-11.59
1101.339	-4.89
1101.758	-7.99
