Data from 20171114-ORNL-Ar_H_NY_Subt18_08-04-55-565.txt Node
Date: Tue Nov 14 08:04:55 EST 2017
User: Ender
Spectrometer: HR+D1039
Trigger mode: 0
Integration Time (sec): 2.730000E-2
Scans to average: 10
Electric dark correction enabled: true
Nonlinearity correction enabled: false
Boxcar width: 0
XAxis mode: Wavelengths
Number of Pixels in Spectrum: 2048
>>>>>Begin Spectral Data<<<<<
187.836	-0.34
188.309	-0.34
188.782	-0.34
189.255	1.26
189.728	-0.94
190.201	7.66
190.674	3.86
191.147	7.16
191.619	-11.34
192.092	1.36
192.565	1.66
193.038	-4.74
193.511	-0.74
193.984	-1.14
194.456	0.46
194.929	-4.34
195.402	0.16
195.874	0.06
196.347	-4.04
196.82	-7.34
197.292	4.56
197.765	-2.94
198.237	-11.14
198.71	2.76
199.182	0.46
199.655	4.26
200.127	0.76
200.6	0.06
201.072	-4.34
201.544	-7.24
202.017	-2.14
202.489	4.26
202.961	-3.54
203.433	-1.04
203.906	-3.54
204.378	-3.64
204.85	0.26
205.322	-12.84
205.794	-2.34
206.266	-10.84
206.739	-13.94
207.211	5.46
207.683	-12.34
208.155	-6.64
208.627	-10.34
209.099	-1.54
209.57	-6.94
210.042	-3.64
210.514	-4.34
210.986	-6.54
211.458	-3.44
211.93	0.06
212.402	5.26
212.873	-7.24
213.345	-8.64
213.817	-9.34
214.288	-5.94
214.76	-11.24
215.232	-3.74
215.703	-1.84
216.175	-4.34
216.646	-2.74
217.118	-11.44
217.589	-2.54
218.061	-0.44
218.532	-5.24
219.004	-3.44
219.475	-4.44
219.946	-4.04
220.418	-6.94
220.889	4.86
221.36	-2.54
221.832	-4.94
222.303	-9.24
222.774	0.56
223.245	-7.04
223.717	-0.34
224.188	1.26
224.659	-8.94
225.13	-1.84
225.601	1.76
226.072	-1.14
226.543	-1.94
227.014	0.76
227.485	-3.14
227.956	-8.24
228.427	-2.34
228.898	4.66
229.369	2.26
229.839	1.36
230.31	-1.74
230.781	-1.14
231.252	-3.64
231.722	-3.74
232.193	-4.04
232.664	-1.74
233.135	2.76
233.605	5.46
234.076	-7.94
234.546	4.66
235.017	-3.44
235.487	-2.94
235.958	-3.44
236.428	4.16
236.899	3.96
237.369	3.56
237.84	-2.04
238.31	8.66
238.78	7.96
239.251	-1.14
239.721	7.36
240.191	-3.04
240.662	-5.24
241.132	5.26
241.602	0.96
242.072	2.56
242.542	7.96
243.013	2.86
243.483	0.06
243.953	3.66
244.423	-2.84
244.893	1.46
245.363	4.46
245.833	3.56
246.303	3.26
246.773	10.86
247.243	6.76
247.712	3.86
248.182	9.66
248.652	3.86
249.122	8.26
249.592	12.26
250.061	22.66
250.531	35.56
251.001	19.86
251.471	19.86
251.94	19.76
252.41	14.16
252.879	-0.14
253.349	9.66
253.818	6.16
254.288	5.66
254.757	6.46
255.227	1.16
255.696	3.96
256.166	5.66
256.635	6.36
257.105	5.36
257.574	9.86
258.043	9.06
258.513	10.56
258.982	22.86
259.451	9.56
259.92	16.06
260.389	14.36
260.859	24.26
261.328	12.06
261.797	14.76
262.266	3.56
262.735	15.66
263.204	9.56
263.673	5.06
264.142	6.26
264.611	-3.54
265.08	5.66
265.549	1.76
266.018	7.36
266.487	-0.24
266.955	0.76
267.424	1.86
267.893	10.16
268.362	4.66
268.83	5.86
269.299	11.06
269.768	6.46
270.236	6.16
270.705	4.86
271.174	9.26
271.642	15.76
272.111	12.26
272.579	22.16
273.048	27.16
273.516	34.16
273.985	34.16
274.453	32.46
274.922	19.56
275.39	13.16
275.858	5.06
276.327	17.16
276.795	20.76
277.263	12.96
277.731	34.76
278.2	55.76
278.668	70.76
279.136	49.66
279.604	22.86
280.072	20.26
280.54	8.86
281.008	18.26
281.477	22.06
281.945	14.06
282.413	12.26
282.881	17.96
283.348	11.56
283.816	16.86
284.284	13.86
284.752	24.86
285.22	17.96
285.688	18.96
286.156	20.36
286.623	43.06
287.091	52.16
287.559	25.86
288.026	24.56
288.494	14.06
288.962	10.36
289.429	9.36
289.897	19.06
290.364	14.46
290.832	21.56
291.3	17.96
291.767	20.66
292.234	16.86
292.702	17.76
293.169	17.76
293.637	29.56
294.104	24.86
294.571	12.86
295.039	14.06
295.506	19.06
295.973	23.56
296.44	23.06
296.908	17.96
297.375	16.66
297.842	21.26
298.309	20.76
298.776	18.06
299.243	26.86
299.71	14.36
300.177	21.26
300.644	28.36
301.111	18.26
301.578	27.26
302.045	19.96
302.512	30.96
302.979	31.46
303.446	19.16
303.913	23.96
304.379	21.46
304.846	33.66
305.313	26.26
305.78	26.96
306.246	31.86
306.713	31.16
307.18	25.16
307.646	28.96
308.113	29.76
308.579	29.26
309.046	31.16
309.512	29.36
309.979	19.86
310.445	27.26
310.912	30.36
311.378	36.16
311.845	29.76
312.311	33.36
312.777	35.66
313.244	34.76
313.71	44.06
314.176	37.16
314.642	32.26
315.109	40.06
315.575	37.46
316.041	32.76
316.507	31.86
316.973	40.06
317.439	36.66
317.905	39.46
318.371	42.36
318.837	35.66
319.303	33.66
319.769	37.86
320.235	39.16
320.701	39.56
321.167	40.16
321.633	37.96
322.099	41.06
322.564	47.86
323.03	40.16
323.496	37.66
323.962	48.36
324.427	39.06
324.893	44.86
325.359	45.26
325.824	36.66
326.29	37.96
326.755	45.56
327.221	37.96
327.686	40.66
328.152	47.06
328.617	42.76
329.083	41.46
329.548	50.36
330.014	47.26
330.479	42.76
330.944	44.76
331.41	41.26
331.875	43.76
332.34	46.26
332.805	46.46
333.271	48.56
333.736	49.96
334.201	54.56
334.666	47.56
335.131	53.76
335.596	47.26
336.061	49.86
336.526	43.76
336.991	51.06
337.456	57.26
337.921	56.76
338.386	47.16
338.851	42.96
339.316	46.76
339.781	51.26
340.246	57.06
340.711	48.96
341.175	52.86
341.64	46.76
342.105	56.16
342.569	52.96
343.034	61.16
343.499	59.66
343.963	54.96
344.428	65.76
344.893	65.96
345.357	64.36
345.822	62.86
346.286	62.76
346.751	71.36
347.215	68.56
347.679	72.06
348.144	98.66
348.608	85.96
349.073	70.86
349.537	74.06
350.001	79.26
350.465	90.56
350.93	87.76
351.394	77.36
351.858	75.76
352.322	85.36
352.786	87.36
353.25	101.86
353.715	111.66
354.179	101.06
354.643	122.16
355.107	128.96
355.571	110.16
356.035	106.26
356.498	117.76
356.962	130.06
357.426	128.16
357.89	117.66
358.354	84.46
358.818	88.26
359.281	79.86
359.745	83.76
360.209	82.36
360.673	77.16
361.136	82.86
361.6	81.66
362.064	87.76
362.527	81.56
362.991	93.56
363.454	74.46
363.918	83.76
364.381	81.96
364.845	78.16
365.308	89.06
365.772	86.26
366.235	87.96
366.698	85.76
367.162	82.56
367.625	88.66
368.088	85.96
368.552	92.76
369.015	85.66
369.478	94.46
369.941	96.86
370.404	97.76
370.867	99.06
371.331	112.56
371.794	112.86
372.257	114.66
372.72	115.36
373.183	108.46
373.646	98.46
374.109	105.36
374.572	108.06
375.035	102.36
375.497	102.76
375.96	103.46
376.423	103.76
376.886	104.16
377.349	110.66
377.811	104.26
378.274	100.96
378.737	106.46
379.199	108.06
379.662	114.36
380.125	114.86
380.587	110.36
381.05	120.26
381.512	122.16
381.975	128.86
382.437	127.56
382.9	122.96
383.362	124.96
383.825	139.06
384.287	140.56
384.75	129.16
385.212	133.06
385.674	136.16
386.136	135.56
386.599	127.76
387.061	129.16
387.523	117.16
387.985	129.06
388.447	151.26
388.91	138.86
389.372	147.46
389.834	140.96
390.296	139.06
390.758	149.86
391.22	163.86
391.682	196.16
392.144	288.56
392.606	217.46
393.068	158.46
393.529	159.16
393.991	151.46
394.453	144.06
394.915	149.16
395.377	183.66
395.838	203.16
396.3	151.26
396.762	140.96
397.224	127.56
397.685	122.36
398.147	123.56
398.608	127.76
399.07	123.46
399.531	127.26
399.993	133.96
400.454	145.46
400.916	143.06
401.377	138.76
401.839	148.96
402.3	151.06
402.762	159.86
403.223	171.06
403.684	166.66
404.145	155.96
404.607	153.26
405.068	157.56
405.529	159.66
405.99	189.56
406.451	179.56
406.913	175.56
407.374	157.16
407.835	160.76
408.296	161.36
408.757	169.96
409.218	179.96
409.679	175.76
410.14	170.76
410.601	175.16
411.062	174.36
411.522	178.36
411.983	180.06
412.444	168.76
412.905	178.26
413.366	173.56
413.826	188.16
414.287	208.66
414.748	260.26
415.208	239.86
415.669	215.46
416.13	202.46
416.59	196.56
417.051	210.26
417.511	203.66
417.972	225.16
418.432	241.56
418.893	275.06
419.353	243.86
419.814	189.56
420.274	174.66
420.734	172.66
421.195	195.66
421.655	188.86
422.115	188.26
422.576	184.66
423.036	184.76
423.496	195.86
423.956	207.86
424.416	220.96
424.876	251.36
425.336	250.26
425.797	248.26
426.257	241.26
426.717	225.46
427.177	225.16
427.637	220.36
428.097	228.26
428.556	234.76
429.016	251.96
429.476	253.96
429.936	264.56
430.396	270.06
430.856	283.46
431.315	306.26
431.775	336.36
432.235	365.56
432.694	336.56
433.154	354.76
433.614	369.76
434.073	327.76
434.533	274.76
434.993	255.26
435.452	273.96
435.912	281.06
436.371	277.86
436.83	271.66
437.29	259.96
437.749	238.26
438.209	235.66
438.668	261.16
439.127	276.56
439.587	260.06
440.046	242.06
440.505	251.66
440.964	267.96
441.424	310.46
441.883	300.06
442.342	250.96
442.801	221.26
443.26	216.56
443.719	216.66
444.178	213.06
444.637	200.66
445.096	210.46
445.555	213.16
446.014	213.76
446.473	216.46
446.932	223.56
447.391	216.36
447.849	220.96
448.308	208.26
448.767	214.76
449.226	228.46
449.685	222.76
450.143	236.46
450.602	227.16
451.061	216.06
451.519	216.06
451.978	225.66
452.436	219.36
452.895	226.96
453.353	236.46
453.812	229.26
454.27	224.96
454.729	234.66
455.187	230.46
455.646	229.96
456.104	239.66
456.562	247.96
457.021	262.36
457.479	252.56
457.937	264.86
458.395	251.16
458.854	239.76
459.312	243.06
459.77	261.66
460.228	248.06
460.686	235.16
461.144	234.96
461.602	229.76
462.06	235.46
462.518	248.46
462.976	243.26
463.434	246.76
463.892	259.46
464.35	269.16
464.808	270.46
465.266	258.06
465.724	256.66
466.181	265.46
466.639	262.96
467.097	277.16
467.555	288.16
468.012	288.96
468.47	301.86
468.928	312.36
469.385	336.06
469.843	337.76
470.3	337.56
470.758	354.86
471.215	367.36
471.673	395.26
472.13	391.36
472.588	401.56
473.045	344.16
473.503	365.36
473.96	381.16
474.417	392.06
474.875	415.86
475.332	458.66
475.789	441.46
476.246	450.16
476.704	471.66
477.161	494.76
477.618	501.36
478.075	539.46
478.532	592.86
478.989	667.36
479.446	773.06
479.903	745.06
480.36	773.06
480.817	835.06
481.274	929.86
481.731	1041.36
482.188	1120.26
482.645	1254.46
483.102	1356.86
483.558	1489.06
484.015	1531.36
484.472	1509.36
484.929	1464.06
485.385	1422.86
485.842	1379.06
486.299	1315.36
486.755	1254.06
487.212	1058.86
487.668	896.56
488.125	823.96
488.582	751.86
489.038	721.56
489.494	691.86
489.951	664.86
490.407	641.26
490.864	626.06
491.32	611.96
491.776	622.56
492.233	625.26
492.689	582.26
493.145	587.46
493.602	578.86
494.058	587.56
494.514	594.56
494.97	610.96
495.426	622.86
495.882	607.96
496.338	592.66
496.794	608.06
497.251	596.16
497.707	609.66
498.163	626.36
498.618	629.26
499.074	629.06
499.53	655.56
499.986	652.86
500.442	637.26
500.898	616.86
501.354	609.46
501.809	613.66
502.265	613.36
502.721	635.56
503.177	651.36
503.632	641.76
504.088	652.76
504.543	688.56
504.999	682.06
505.455	641.46
505.91	610.46
506.366	609.96
506.821	604.76
507.277	600.86
507.732	593.46
508.187	607.66
508.643	603.66
509.098	607.96
509.553	624.96
510.009	640.16
510.464	645.16
510.919	663.56
511.375	672.66
511.83	678.56
512.285	693.06
512.74	734.26
513.195	749.06
513.65	747.16
514.105	735.66
514.56	740.06
515.015	773.86
515.47	785.06
515.925	769.06
516.38	770.66
516.835	780.26
517.29	754.96
517.745	746.86
518.2	734.66
518.655	728.26
519.109	723.56
519.564	722.46
520.019	711.26
520.474	701.86
520.928	707.16
521.383	704.76
521.838	690.06
522.292	689.06
522.747	685.06
523.201	672.96
523.656	667.86
524.11	661.46
524.565	666.86
525.019	659.76
525.474	675.86
525.928	666.26
526.382	667.86
526.837	663.46
527.291	676.16
527.745	677.26
528.2	669.96
528.654	671.16
529.108	664.26
529.562	663.56
530.016	660.16
530.47	665.56
530.925	668.46
531.379	675.76
531.833	678.26
532.287	678.36
532.741	674.96
533.195	684.96
533.649	684.46
534.103	692.16
534.556	679.86
535.01	690.16
535.464	676.56
535.918	692.36
536.372	683.86
536.826	692.66
537.279	681.26
537.733	694.96
538.187	680.56
538.64	693.26
539.094	693.56
539.548	701.76
540.001	692.26
540.455	687.76
540.908	702.16
541.362	708.76
541.815	716.86
542.269	719.26
542.722	732.66
543.175	740.56
543.629	732.26
544.082	749.56
544.536	754.76
544.989	746.46
545.442	758.26
545.895	756.76
546.349	752.86
546.802	757.06
547.255	756.76
547.708	761.76
548.161	773.46
548.614	778.56
549.067	789.86
549.52	784.36
549.973	773.66
550.426	767.26
550.879	764.76
551.332	761.16
551.785	766.16
552.238	767.56
552.691	791.66
553.144	798.46
553.596	812.16
554.049	829.36
554.502	841.86
554.955	867.36
555.407	851.36
555.86	850.76
556.313	851.36
556.765	839.96
557.218	847.16
557.67	834.16
558.123	843.16
558.576	838.46
559.028	847.06
559.48	848.46
559.933	823.56
560.385	797.76
560.838	767.26
561.29	747.36
561.742	730.96
562.195	735.26
562.647	728.26
563.099	729.66
563.551	725.36
564.004	752.06
564.456	729.76
564.908	719.46
565.36	710.76
565.812	689.76
566.264	692.56
566.716	693.36
567.168	680.46
567.62	680.76
568.072	668.26
568.524	661.96
568.976	640.26
569.428	632.06
569.88	638.76
570.332	648.36
570.784	644.96
571.235	642.26
571.687	656.76
572.139	656.96
572.59	677.26
573.042	678.56
573.494	663.66
573.945	672.46
574.397	649.26
574.849	653.36
575.3	656.96
575.752	646.76
576.203	638.16
576.655	642.56
577.106	629.96
577.557	620.16
578.009	629.06
578.46	632.76
578.912	630.26
579.363	625.56
579.814	628.36
580.265	627.86
580.717	628.06
581.168	630.06
581.619	645.46
582.07	632.96
582.521	638.96
582.972	635.76
583.423	642.66
583.875	632.76
584.326	658.56
584.777	701.66
585.227	765.76
585.678	847.56
586.129	927.06
586.58	1002.26
587.031	1075.36
587.482	1233.86
587.933	1398.46
588.384	1224.46
588.834	901.76
589.285	740.86
589.736	732.56
590.186	724.66
590.637	717.66
591.088	690.46
591.538	683.66
591.989	679.96
592.439	670.36
592.89	669.46
593.34	665.36
593.791	658.76
594.241	652.86
594.692	663.26
595.142	652.96
595.593	641.66
596.043	666.36
596.493	663.96
596.943	666.76
597.394	672.16
597.844	659.86
598.294	676.26
598.744	693.36
599.195	716.36
599.645	754.06
600.095	787.66
600.545	849.56
600.995	894.86
601.445	953.46
601.895	999.36
602.345	1050.36
602.795	1036.16
603.245	995.96
603.695	944.66
604.145	891.06
604.594	842.16
605.044	794.56
605.494	744.86
605.944	698.56
606.393	690.56
606.843	679.26
607.293	680.46
607.743	676.56
608.192	684.96
608.642	699.16
609.091	704.76
609.541	712.96
609.99	718.36
610.44	710.76
610.889	659.46
611.339	644.66
611.788	631.26
612.238	652.06
612.687	663.56
613.136	662.66
613.586	686.06
614.035	683.26
614.484	701.16
614.933	697.16
615.383	695.46
615.832	687.16
616.281	669.56
616.73	631.16
617.179	611.06
617.628	598.96
618.077	582.86
618.526	573.26
618.975	565.66
619.424	562.96
619.873	562.26
620.322	565.86
620.771	553.86
621.22	547.36
621.669	552.06
622.118	538.76
622.567	536.96
623.015	526.36
623.464	524.66
623.913	524.96
624.361	501.86
624.81	516.16
625.259	504.26
625.707	518.26
626.156	510.66
626.604	530.76
627.053	516.06
627.501	520.16
627.95	526.36
628.398	535.86
628.847	526.36
629.295	523.76
629.744	519.56
630.192	515.56
630.64	524.06
631.089	511.66
631.537	529.16
631.985	530.16
632.433	542.26
632.881	549.46
633.33	590.26
633.778	576.16
634.226	517.86
634.674	520.96
635.122	527.86
635.57	539.26
636.018	559.26
636.466	516.66
636.914	504.76
637.362	521.36
637.81	536.96
638.258	523.66
638.705	524.26
639.153	550.76
639.601	552.26
640.049	581.26
640.497	610.76
640.944	628.26
641.392	579.66
641.84	560.56
642.287	525.16
642.735	511.16
643.182	517.06
643.63	516.66
644.078	521.36
644.525	535.26
644.973	541.06
645.42	540.76
645.867	568.36
646.315	579.36
646.762	602.66
647.21	630.76
647.657	645.76
648.104	685.96
648.551	700.76
648.999	749.56
649.446	812.86
649.893	908.06
650.34	1046.46
650.787	1244.26
651.234	1542.96
651.682	2000.36
652.129	2732.46
652.576	3916.66
653.023	5797.66
653.47	7960.46
653.917	10067.66
654.363	11785.86
654.81	13127.86
655.257	12503.66
655.704	8143.86
656.151	4793.26
656.598	3088.86
657.044	2191.86
657.491	1686.56
657.938	1354.36
658.385	1115.16
658.831	970.76
659.278	868.76
659.724	770.26
660.171	710.56
660.618	653.76
661.064	619.06
661.511	601.66
661.957	595.66
662.404	576.16
662.85	588.06
663.296	555.16
663.743	505.96
664.189	477.46
664.635	483.06
665.082	484.86
665.528	470.56
665.974	460.56
666.42	463.26
666.867	460.86
667.313	446.26
667.759	430.26
668.205	418.56
668.651	434.96
669.097	431.16
669.543	447.36
669.989	421.36
670.435	407.86
670.881	389.96
671.327	404.56
671.773	418.86
672.219	438.56
672.665	485.06
673.11	520.76
673.556	564.66
674.002	599.66
674.448	585.86
674.893	493.46
675.339	428.86
675.785	401.36
676.23	372.36
676.676	356.16
677.122	340.96
677.567	332.56
678.013	328.66
678.458	320.36
678.904	322.66
679.349	308.76
679.794	322.56
680.24	314.66
680.685	316.66
681.131	308.66
681.576	313.16
682.021	315.26
682.466	307.06
682.912	312.46
683.357	322.66
683.802	340.86
684.247	359.56
684.692	397.46
685.137	435.36
685.583	484.36
686.028	509.96
686.473	464.96
686.918	398.86
687.363	376.36
687.807	350.66
688.252	333.86
688.697	315.76
689.142	298.96
689.587	296.36
690.032	288.46
690.477	298.96
690.921	310.96
691.366	336.76
691.811	362.86
692.255	378.36
692.7	412.06
693.145	443.76
693.589	606.56
694.034	976.86
694.478	1361.46
694.923	1547.86
695.367	2053.06
695.812	1081.66
696.256	445.16
696.701	326.16
697.145	305.16
697.59	295.36
698.034	287.46
698.478	290.56
698.922	294.46
699.367	291.06
699.811	296.96
700.255	312.76
700.699	348.46
701.143	377.36
701.588	423.06
702.032	460.86
702.476	455.76
702.92	427.76
703.364	431.16
703.808	555.66
704.252	902.86
704.696	1261.06
705.14	1495.36
705.584	1925.96
706.027	950.46
706.471	464.96
706.915	346.56
707.359	316.36
707.803	279.96
708.246	278.96
708.69	277.26
709.134	278.56
709.577	276.36
710.021	280.46
710.465	276.16
710.908	267.46
711.352	264.56
711.795	279.76
712.239	308.76
712.682	344.66
713.126	371.36
713.569	418.66
714.012	332.96
714.456	281.56
714.899	265.36
715.342	243.66
715.786	230.66
716.229	223.36
716.672	230.16
717.115	218.96
717.558	220.76
718.002	218.96
718.445	232.96
718.888	252.16
719.331	266.66
719.774	275.66
720.217	274.36
720.66	247.16
721.103	238.36
721.546	225.06
721.989	217.46
722.432	202.86
722.874	210.96
723.317	206.66
723.76	209.16
724.203	230.36
724.645	270.96
725.088	387.96
725.531	508.36
725.974	583.66
726.416	491.56
726.859	265.56
727.301	220.06
727.744	209.76
728.187	206.56
728.629	211.36
729.071	212.56
729.514	227.16
729.956	233.06
730.399	256.86
730.841	266.76
731.283	246.56
731.726	228.66
732.168	229.66
732.61	224.56
733.053	245.86
733.495	276.96
733.937	303.86
734.379	346.36
734.821	379.46
735.263	477.86
735.705	706.96
736.148	1361.96
736.59	2258.86
737.032	2761.16
737.474	2244.56
737.916	720.16
738.357	379.56
738.799	293.66
739.241	268.16
739.683	241.06
740.125	250.06
740.567	259.96
741.008	273.66
741.45	282.06
741.892	273.66
742.334	304.56
742.775	317.76
743.217	308.46
743.658	236.06
744.1	225.96
744.542	221.36
744.983	272.86
745.425	311.06
745.866	309.36
746.307	250.56
746.749	240.66
747.19	282.46
747.632	380.96
748.073	750.66
748.514	1605.46
748.956	2508.66
749.397	3154.76
749.838	2612.26
750.279	2676.06
750.72	1338.36
751.162	492.96
751.603	283.46
752.044	217.66
752.485	192.16
752.926	182.86
753.367	180.66
753.808	170.26
754.249	164.96
754.69	167.66
755.131	159.96
755.572	161.66
756.013	155.56
756.453	163.86
756.894	163.36
757.335	174.46
757.776	170.86
758.216	178.86
758.657	168.36
759.098	179.36
759.538	201.66
759.979	223.76
760.42	315.56
760.86	598.76
761.301	1534.76
761.741	3815.66
762.182	5842.66
762.622	4096.26
763.063	1167.06
763.503	485.76
763.943	299.66
764.384	295.56
764.824	357.46
765.264	384.96
765.705	267.06
766.145	185.86
766.585	159.96
767.025	156.56
767.465	156.96
767.906	207.86
768.346	280.26
768.786	301.56
769.226	223.86
769.666	279.66
770.106	524.96
770.546	1327.56
770.986	2372.66
771.426	2148.36
771.866	703.76
772.306	289.16
772.745	184.16
773.185	148.66
773.625	146.66
774.065	149.56
774.505	162.46
774.944	254.46
775.384	559.96
775.824	1047.36
776.263	1054.16
776.703	442.86
777.142	190.96
777.582	133.16
778.021	126.76
778.461	124.96
778.9	125.26
779.34	118.66
779.779	107.36
780.219	98.66
780.658	100.26
781.097	93.56
781.537	103.66
781.976	100.66
782.415	91.76
782.855	89.66
783.294	85.16
783.733	88.66
784.172	101.26
784.611	88.86
785.05	95.86
785.489	96.16
785.928	98.86
786.367	111.06
786.806	104.36
787.245	112.96
787.684	120.26
788.123	134.66
788.562	118.86
789.001	110.56
789.44	105.16
789.879	102.16
790.317	103.16
790.756	111.66
791.195	114.06
791.634	128.96
792.072	171.86
792.511	310.46
792.95	853.86
793.388	1887.86
793.827	1751.26
794.265	597.36
794.704	247.36
795.142	153.76
795.581	133.46
796.019	124.66
796.458	121.56
796.896	109.46
797.334	116.46
797.773	134.76
798.211	191.36
798.649	371.06
799.087	887.76
799.526	1398.66
799.964	1765.56
800.402	1818.56
800.84	669.66
801.278	266.06
801.716	161.26
802.154	138.66
802.592	127.76
803.03	117.66
803.468	119.86
803.906	124.76
804.344	131.16
804.782	124.46
805.22	110.96
805.658	108.66
806.096	130.26
806.533	130.96
806.971	144.76
807.409	192.46
807.847	268.26
808.284	557.16
808.722	1598.16
809.16	2941.76
809.597	2715.26
810.035	4752.56
810.472	5283.86
810.91	1880.86
811.347	712.56
811.785	359.26
812.222	227.76
812.66	175.76
813.097	145.56
813.535	124.96
813.972	113.76
814.409	113.26
814.846	97.06
815.284	97.26
815.721	85.66
816.158	95.36
816.595	107.96
817.032	153.26
817.47	177.96
817.907	140.86
818.344	131.36
818.781	105.26
819.218	87.16
819.655	107.36
820.092	169.66
820.529	193.36
820.966	156.86
821.403	125.56
821.839	94.06
822.276	91.06
822.713	109.16
823.15	123.76
823.587	98.76
824.023	127.86
824.46	253.66
824.897	780.76
825.333	1233.86
825.77	516.46
826.206	198.56
826.643	118.66
827.08	83.36
827.516	71.66
827.953	62.16
828.389	69.46
828.825	64.86
829.262	58.96
829.698	57.96
830.135	53.96
830.571	50.76
831.007	52.36
831.443	55.86
831.88	53.66
832.316	56.56
832.752	59.66
833.188	62.36
833.624	53.06
834.06	56.26
834.497	58.76
834.933	63.56
835.369	67.46
835.805	63.76
836.241	67.26
836.677	75.76
837.112	73.16
837.548	87.06
837.984	114.86
838.42	170.66
838.856	424.66
839.292	1308.66
839.727	2083.06
840.163	959.66
840.599	796.06
841.034	1783.96
841.47	1934.36
841.906	702.16
842.341	292.26
842.777	202.46
843.212	272.26
843.648	280.06
844.083	138.46
844.519	82.16
844.954	67.86
845.39	57.86
845.825	53.96
846.261	49.06
846.696	52.06
847.131	43.26
847.566	56.26
848.002	53.16
848.437	51.86
848.872	55.46
849.307	58.36
849.742	77.56
850.177	151.16
850.613	473.46
851.048	785.66
851.483	339.46
851.918	130.96
852.353	77.16
852.788	50.46
853.223	51.46
853.657	43.06
854.092	40.76
854.527	37.76
854.962	32.26
855.397	37.46
855.832	47.56
856.266	36.76
856.701	35.86
857.136	31.36
857.57	36.66
858.005	40.46
858.44	52.96
858.874	40.86
859.309	51.46
859.743	36.26
860.178	42.06
860.612	32.16
861.047	47.66
861.481	56.26
861.915	58.26
862.35	44.76
862.784	28.46
863.218	36.56
863.653	31.16
864.087	43.16
864.521	49.96
864.955	60.96
865.39	136.76
865.824	159.46
866.258	103.36
866.692	153.26
867.126	161.76
867.56	94.56
867.994	47.56
868.428	35.46
868.862	40.96
869.296	51.56
869.73	52.96
870.164	47.36
870.598	40.66
871.031	41.36
871.465	30.06
871.899	29.66
872.333	18.06
872.766	27.96
873.2	16.46
873.634	25.16
874.067	22.26
874.501	17.46
874.935	24.96
875.368	26.66
875.802	26.56
876.235	20.76
876.669	21.66
877.102	20.96
877.535	29.56
877.969	15.66
878.402	24.86
878.836	12.76
879.269	22.36
879.702	25.36
880.135	19.36
880.569	17.46
881.002	17.76
881.435	23.76
881.868	18.06
882.301	15.96
882.734	14.76
883.167	19.86
883.601	14.26
884.034	23.26
884.467	13.66
884.899	20.76
885.332	12.96
885.765	16.46
886.198	14.46
886.631	16.26
887.064	13.26
887.497	16.66
887.929	17.56
888.362	17.86
888.795	8.66
889.228	20.66
889.66	20.96
890.093	16.76
890.526	18.46
890.958	16.06
891.391	22.66
891.823	26.26
892.256	14.76
892.688	8.76
893.121	10.76
893.553	9.16
893.985	18.86
894.418	19.16
894.85	14.36
895.282	19.36
895.715	15.26
896.147	19.26
896.579	14.56
897.011	15.46
897.444	11.96
897.876	11.26
898.308	11.46
898.74	10.06
899.172	13.16
899.604	22.16
900.036	20.66
900.468	3.26
900.9	16.86
901.332	16.66
901.764	11.16
902.196	18.26
902.628	23.36
903.06	16.56
903.491	26.26
903.923	21.66
904.355	19.36
904.787	23.86
905.218	18.96
905.65	21.66
906.082	9.56
906.513	10.96
906.945	18.36
907.376	11.56
907.808	16.36
908.239	18.96
908.671	17.86
909.102	20.76
909.534	21.16
909.965	42.06
910.397	83.06
910.828	283.66
911.259	421.46
911.691	195.66
912.122	98.56
912.553	46.86
912.984	31.16
913.415	28.56
913.847	22.86
914.278	14.06
914.709	9.46
915.14	18.16
915.571	18.36
916.002	12.46
916.433	20.06
916.864	13.56
917.295	11.56
917.726	17.16
918.157	13.56
918.587	26.76
919.018	15.26
919.449	18.66
919.88	21.76
920.311	26.36
920.741	40.36
921.172	150.36
921.603	134.16
922.033	65.56
922.464	45.56
922.895	21.66
923.325	15.56
923.756	20.26
924.186	12.16
924.617	19.56
925.047	38.16
925.478	48.56
925.908	43.26
926.338	18.06
926.769	21.16
927.199	16.96
927.629	7.56
928.06	13.16
928.49	8.16
928.92	15.26
929.35	14.16
929.78	10.46
930.21	4.06
930.641	15.16
931.071	9.86
931.501	1.56
931.931	10.86
932.361	8.66
932.791	2.96
933.221	-1.24
933.651	10.96
934.08	12.86
934.51	22.66
934.94	6.16
935.37	9.06
935.8	10.06
936.229	9.66
936.659	11.36
937.089	1.56
937.519	16.46
937.948	24.46
938.378	19.56
938.807	4.06
939.237	2.06
939.666	9.26
940.096	-1.34
940.525	1.76
940.955	1.66
941.384	5.86
941.814	-7.04
942.243	0.26
942.672	2.86
943.102	0.66
943.531	-4.14
943.96	8.36
944.39	4.16
944.819	-4.94
945.248	-0.84
945.677	-0.04
946.106	5.66
946.535	9.06
946.964	-0.24
947.393	-0.94
947.822	-1.34
948.251	-7.34
948.68	3.26
949.109	6.66
949.538	6.96
949.967	0.66
950.396	0.66
950.825	-2.44
951.254	4.86
951.682	-1.74
952.111	4.26
952.54	8.26
952.969	-1.14
953.397	-10.94
953.826	4.16
954.254	-1.94
954.683	1.66
955.112	-5.14
955.54	1.06
955.969	-1.84
956.397	0.86
956.826	0.46
957.254	7.66
957.682	4.26
958.111	3.06
958.539	-1.34
958.967	-1.24
959.396	-1.84
959.824	6.06
960.252	6.76
960.68	-7.54
961.109	-2.84
961.537	-0.94
961.965	-2.84
962.393	0.66
962.821	-2.64
963.249	-1.84
963.677	4.66
964.105	2.66
964.533	43.06
964.961	33.86
965.389	19.66
965.817	13.86
966.245	1.46
966.672	-3.14
967.1	-3.94
967.528	2.36
967.956	-4.64
968.383	-0.24
968.811	-2.44
969.239	-2.54
969.666	-1.34
970.094	0.66
970.522	-3.84
970.949	-2.24
971.377	-5.74
971.804	-1.04
972.232	-3.84
972.659	-7.74
973.087	2.56
973.514	-1.04
973.941	-8.14
974.369	6.06
974.796	0.36
975.223	-0.84
975.651	-0.24
976.078	-1.44
976.505	-2.24
976.932	2.06
977.359	8.36
977.786	15.46
978.214	-0.84
978.641	-2.24
979.068	-4.34
979.495	-8.24
979.922	2.66
980.349	-4.04
980.776	5.46
981.202	-1.54
981.629	10.16
982.056	6.96
982.483	-0.64
982.91	3.56
983.337	-9.14
983.763	7.36
984.19	-3.04
984.617	-1.14
985.043	-4.84
985.47	-5.24
985.897	-10.24
986.323	-7.74
986.75	5.66
987.176	-0.24
987.603	0.86
988.029	-3.14
988.456	-4.74
988.882	1.96
989.308	-7.84
989.735	-10.44
990.161	7.86
990.587	-5.64
991.014	-0.94
991.44	9.26
991.866	-2.74
992.292	4.46
992.719	-2.74
993.145	7.66
993.571	-4.04
993.997	-2.34
994.423	-8.44
994.849	-0.14
995.275	-2.14
995.701	-3.84
996.127	-4.24
996.553	-2.04
996.979	-3.24
997.405	-2.74
997.83	-6.24
998.256	-15.04
998.682	-0.44
999.108	-8.14
999.534	-1.44
999.959	-1.04
1000.385	-3.54
1000.811	1.16
1001.236	-12.54
1001.662	-8.34
1002.087	-11.14
1002.513	-1.44
1002.938	2.26
1003.364	-3.24
1003.789	-0.94
1004.215	1.46
1004.64	-1.84
1005.066	3.66
1005.491	1.26
1005.916	-0.34
1006.342	-4.44
1006.767	-14.14
1007.192	1.26
1007.617	-5.64
1008.042	-4.94
1008.468	-9.04
1008.893	-1.24
1009.318	0.26
1009.743	-3.84
1010.168	7.16
1010.593	0.56
1011.018	-7.94
1011.443	-2.34
1011.868	2.36
1012.293	-5.24
1012.718	-8.84
1013.143	0.76
1013.567	4.76
1013.992	-1.74
1014.417	-13.64
1014.842	1.46
1015.267	-10.04
1015.691	-3.44
1016.116	1.06
1016.541	-3.34
1016.965	1.26
1017.39	3.06
1017.814	-1.24
1018.239	-4.34
1018.663	-7.24
1019.088	-8.44
1019.512	-3.34
1019.937	-3.84
1020.361	0.26
1020.785	-4.84
1021.21	-1.14
1021.634	-1.94
1022.058	-1.44
1022.483	-2.84
1022.907	-6.14
1023.331	-3.34
1023.755	-2.64
1024.179	-1.54
1024.604	-6.74
1025.028	-9.34
1025.452	-2.24
1025.876	1.36
1026.3	-0.04
1026.724	-11.24
1027.148	-1.84
1027.572	-11.84
1027.996	-3.64
1028.42	-4.24
1028.843	-0.74
1029.267	-3.24
1029.691	-2.74
1030.115	-6.34
1030.539	-8.04
1030.962	-6.64
1031.386	-4.54
1031.81	-1.84
1032.233	4.56
1032.657	-3.04
1033.08	0.66
1033.504	0.56
1033.927	-1.14
1034.351	3.36
1034.774	-0.84
1035.198	-4.64
1035.621	-4.14
1036.045	0.36
1036.468	7.46
1036.891	-2.14
1037.315	-7.44
1037.738	-7.64
1038.161	3.46
1038.584	-6.04
1039.008	-5.54
1039.431	-2.34
1039.854	-7.84
1040.277	-9.74
1040.7	-12.34
1041.123	-1.34
1041.546	-5.24
1041.969	-11.04
1042.392	-0.84
1042.815	-1.44
1043.238	1.56
1043.661	1.06
1044.084	-9.44
1044.507	-5.04
1044.93	-2.54
1045.352	-4.84
1045.775	-1.34
1046.198	-0.64
1046.621	1.76
1047.043	-2.74
1047.466	7.66
1047.889	-5.64
1048.311	-1.54
1048.734	-4.74
1049.156	1.66
1049.579	1.76
1050.001	-0.84
1050.424	-4.14
1050.846	-2.04
1051.269	-0.64
1051.691	-2.94
1052.113	-4.14
1052.536	-5.44
1052.958	2.46
1053.38	-1.64
1053.802	-10.04
1054.225	1.46
1054.647	-7.64
1055.069	-4.54
1055.491	-2.94
1055.913	-5.44
1056.335	-1.74
1056.757	-1.64
1057.179	-7.54
1057.601	-2.74
1058.023	-7.74
1058.445	-3.84
1058.867	-7.04
1059.289	-1.24
1059.711	-4.94
1060.133	-4.24
1060.555	-3.14
1060.976	-3.64
1061.398	-2.74
1061.82	-6.54
1062.241	-7.54
1062.663	-9.24
1063.085	-8.24
1063.506	-1.84
1063.928	-7.14
1064.35	3.06
1064.771	-9.94
1065.193	-2.94
1065.614	-3.14
1066.035	1.76
1066.457	-1.74
1066.878	0.26
1067.3	-4.34
1067.721	-2.24
1068.142	-4.74
1068.564	-1.04
1068.985	-6.14
1069.406	-6.64
1069.827	-3.54
1070.248	-3.94
1070.67	-3.74
1071.091	-12.24
1071.512	-6.44
1071.933	-4.64
1072.354	-5.24
1072.775	-2.34
1073.196	-7.04
1073.617	-4.84
1074.038	-11.64
1074.459	-7.94
1074.88	-11.84
1075.3	-3.24
1075.721	-6.44
1076.142	-1.84
1076.563	2.06
1076.983	-11.14
1077.404	-6.64
1077.825	-5.74
1078.246	-3.14
1078.666	-5.14
1079.087	-2.24
1079.507	-7.34
1079.928	-2.74
1080.348	-9.24
1080.769	-7.44
1081.189	-0.84
1081.61	-4.34
1082.03	-3.34
1082.451	-5.24
1082.871	-1.54
1083.291	-0.04
1083.711	-11.94
1084.132	-0.34
1084.552	-2.24
1084.972	-0.64
1085.392	-9.54
1085.813	-8.34
1086.233	-10.14
1086.653	-8.04
1087.073	3.16
1087.493	0.16
1087.913	-11.14
1088.333	-10.14
1088.753	-2.24
1089.173	3.46
1089.593	-3.24
1090.013	-0.44
1090.433	4.86
1090.852	-5.34
1091.272	-0.14
1091.692	-3.84
1092.112	0.06
1092.531	-10.64
1092.951	-15.94
1093.371	-2.24
1093.79	-1.14
1094.21	-12.64
1094.63	-5.54
1095.049	-3.54
1095.469	1.86
1095.888	-5.14
1096.308	1.76
1096.727	5.06
1097.146	-4.94
1097.566	-4.74
1097.985	-10.24
1098.405	-4.04
1098.824	-3.54
1099.243	-9.74
1099.662	-10.24
1100.082	-5.94
1100.501	-1.54
1100.92	-8.54
1101.339	-6.34
1101.758	-6.44
