Data from 20171114-ORNL-Ar_H_NY_Subt18_08-08-16-203.txt Node
Date: Tue Nov 14 08:08:16 EST 2017
User: Ender
Spectrometer: HR+D1039
Trigger mode: 0
Integration Time (sec): 2.730000E-2
Scans to average: 10
Electric dark correction enabled: true
Nonlinearity correction enabled: false
Boxcar width: 0
XAxis mode: Wavelengths
Number of Pixels in Spectrum: 2048
>>>>>Begin Spectral Data<<<<<
187.836	-1.54
188.309	-1.54
188.782	-1.54
189.255	2.46
189.728	-2.44
190.201	1.06
190.674	0.46
191.147	2.56
191.619	-8.54
192.092	5.36
192.565	-0.44
193.038	6.26
193.511	0.96
193.984	2.66
194.456	-5.44
194.929	3.66
195.402	-9.64
195.874	2.66
196.347	-7.34
196.82	-3.94
197.292	4.56
197.765	-1.04
198.237	-4.84
198.71	-2.34
199.182	-3.14
199.655	-1.34
200.127	4.16
200.6	-5.64
201.072	-3.74
201.544	-2.24
202.017	-3.74
202.489	1.86
202.961	2.26
203.433	3.56
203.906	-5.64
204.378	-6.64
204.85	-1.34
205.322	-11.54
205.794	-3.94
206.266	0.46
206.739	-13.44
207.211	1.06
207.683	-4.64
208.155	-9.04
208.627	-5.74
209.099	-8.24
209.57	-12.34
210.042	-7.64
210.514	-4.34
210.986	-5.44
211.458	-9.34
211.93	-0.14
212.402	3.46
212.873	-4.94
213.345	-6.54
213.817	-6.64
214.288	-2.44
214.76	-13.34
215.232	-3.74
215.703	-1.14
216.175	-2.64
216.646	-2.44
217.118	-8.34
217.589	-10.94
218.061	-3.14
218.532	-3.04
219.004	-0.44
219.475	-1.44
219.946	-7.84
220.418	-6.94
220.889	-6.24
221.36	-0.94
221.832	-6.54
222.303	-6.04
222.774	0.16
223.245	-8.34
223.717	-11.94
224.188	-6.04
224.659	-8.64
225.13	-6.44
225.601	-0.84
226.072	-3.64
226.543	0.56
227.014	-3.64
227.485	-6.54
227.956	-7.34
228.427	0.26
228.898	8.36
229.369	7.46
229.839	-3.14
230.31	-5.14
230.781	1.96
231.252	-2.94
231.722	-6.04
232.193	-4.44
232.664	3.76
233.135	0.06
233.605	-2.74
234.076	-5.14
234.546	0.16
235.017	2.06
235.487	0.36
235.958	-1.74
236.428	-2.24
236.899	4.16
237.369	6.46
237.84	-3.94
238.31	9.26
238.78	2.66
239.251	2.16
239.721	1.26
240.191	1.96
240.662	-4.04
241.132	0.76
241.602	1.46
242.072	-2.74
242.542	6.86
243.013	-1.74
243.483	3.76
243.953	2.46
244.423	-3.14
244.893	-11.24
245.363	-0.54
245.833	4.76
246.303	-2.14
246.773	5.66
247.243	-3.34
247.712	5.76
248.182	1.26
248.652	4.56
249.122	-1.44
249.592	11.46
250.061	16.26
250.531	20.56
251.001	12.16
251.471	19.86
251.94	17.26
252.41	4.96
252.879	0.46
253.349	11.76
253.818	6.86
254.288	3.66
254.757	3.16
255.227	2.16
255.696	-5.94
256.166	5.26
256.635	8.16
257.105	11.66
257.574	5.76
258.043	6.96
258.513	12.76
258.982	14.36
259.451	11.26
259.92	4.06
260.389	8.86
260.859	20.06
261.328	13.06
261.797	15.96
262.266	9.86
262.735	10.06
263.204	7.56
263.673	1.66
264.142	4.66
264.611	0.66
265.08	0.76
265.549	-3.14
266.018	7.26
266.487	1.26
266.955	-4.24
267.424	-2.14
267.893	8.26
268.362	0.76
268.83	1.96
269.299	4.86
269.768	1.36
270.236	0.86
270.705	3.56
271.174	8.96
271.642	8.66
272.111	7.16
272.579	16.66
273.048	26.46
273.516	26.26
273.985	28.36
274.453	15.06
274.922	16.96
275.39	8.96
275.858	1.46
276.327	13.76
276.795	15.76
277.263	13.56
277.731	23.86
278.2	48.36
278.668	47.16
279.136	44.66
279.604	11.06
280.072	17.46
280.54	11.86
281.008	6.46
281.477	5.26
281.945	9.46
282.413	15.26
282.881	12.76
283.348	9.96
283.816	8.06
284.284	11.76
284.752	21.26
285.22	14.06
285.688	17.76
286.156	10.26
286.623	42.86
287.091	51.86
287.559	25.56
288.026	16.46
288.494	16.86
288.962	6.46
289.429	-2.14
289.897	18.86
290.364	13.16
290.832	15.06
291.3	11.56
291.767	15.36
292.234	20.26
292.702	11.86
293.169	17.76
293.637	16.66
294.104	23.56
294.571	6.56
295.039	16.16
295.506	12.06
295.973	15.66
296.44	10.76
296.908	17.56
297.375	19.96
297.842	16.66
298.309	13.36
298.776	13.46
299.243	12.86
299.71	14.26
300.177	27.26
300.644	19.76
301.111	18.76
301.578	26.96
302.045	14.36
302.512	19.26
302.979	26.66
303.446	24.46
303.913	14.66
304.379	20.36
304.846	22.16
305.313	22.36
305.78	20.06
306.246	22.26
306.713	27.96
307.18	24.26
307.646	25.86
308.113	26.26
308.579	25.86
309.046	24.36
309.512	28.86
309.979	17.56
310.445	27.46
310.912	23.06
311.378	33.86
311.845	27.96
312.311	26.26
312.777	30.16
313.244	31.46
313.71	38.46
314.176	27.66
314.642	28.46
315.109	31.56
315.575	31.26
316.041	43.86
316.507	24.16
316.973	34.16
317.439	30.26
317.905	35.96
318.371	34.06
318.837	26.56
319.303	31.46
319.769	31.26
320.235	30.06
320.701	33.96
321.167	36.66
321.633	28.36
322.099	38.46
322.564	43.56
323.03	43.26
323.496	36.66
323.962	38.46
324.427	39.26
324.893	39.96
325.359	38.36
325.824	35.46
326.29	32.36
326.755	38.86
327.221	36.56
327.686	42.06
328.152	49.86
328.617	38.86
329.083	40.86
329.548	48.06
330.014	38.96
330.479	40.86
330.944	45.26
331.41	36.76
331.875	48.26
332.34	42.56
332.805	44.86
333.271	48.06
333.736	43.76
334.201	52.56
334.666	50.36
335.131	52.46
335.596	46.96
336.061	51.16
336.526	42.96
336.991	43.96
337.456	59.66
337.921	53.36
338.386	40.86
338.851	47.66
339.316	50.96
339.781	49.16
340.246	42.86
340.711	44.86
341.175	45.56
341.64	42.46
342.105	46.06
342.569	47.96
343.034	59.46
343.499	54.46
343.963	49.06
344.428	58.16
344.893	58.76
345.357	64.56
345.822	57.96
346.286	63.96
346.751	75.26
347.215	65.06
347.679	77.26
348.144	95.56
348.608	86.66
349.073	71.66
349.537	69.56
350.001	70.26
350.465	89.66
350.93	79.96
351.394	80.16
351.858	67.66
352.322	91.96
352.786	88.96
353.25	99.36
353.715	107.76
354.179	96.66
354.643	119.06
355.107	123.76
355.571	115.96
356.035	109.56
356.498	118.56
356.962	121.96
357.426	128.06
357.89	116.76
358.354	85.66
358.818	78.46
359.281	77.86
359.745	69.56
360.209	69.96
360.673	74.16
361.136	76.06
361.6	80.46
362.064	80.36
362.527	86.06
362.991	90.66
363.454	76.36
363.918	75.76
364.381	76.26
364.845	78.56
365.308	88.96
365.772	84.86
366.235	85.16
366.698	82.66
367.162	91.86
367.625	88.06
368.088	90.06
368.552	88.86
369.015	89.06
369.478	94.56
369.941	98.76
370.404	91.76
370.867	108.06
371.331	110.46
371.794	117.06
372.257	108.56
372.72	118.46
373.183	105.16
373.646	98.46
374.109	103.26
374.572	102.96
375.035	110.16
375.497	117.56
375.96	105.06
376.423	100.66
376.886	115.56
377.349	106.86
377.811	105.96
378.274	103.06
378.737	107.36
379.199	109.66
379.662	111.36
380.125	120.86
380.587	117.76
381.05	126.46
381.512	121.56
381.975	134.36
382.437	130.66
382.9	129.66
383.362	125.26
383.825	146.76
384.287	152.36
384.75	143.26
385.212	135.36
385.674	139.16
386.136	136.76
386.599	124.86
387.061	133.66
387.523	128.76
387.985	135.66
388.447	144.76
388.91	147.26
389.372	163.16
389.834	158.56
390.296	147.46
390.758	162.76
391.22	174.76
391.682	211.16
392.144	307.06
392.606	240.06
393.068	165.66
393.529	166.76
393.991	157.66
394.453	148.66
394.915	161.96
395.377	199.26
395.838	222.46
396.3	153.96
396.762	138.56
397.224	133.36
397.685	132.56
398.147	135.96
398.608	125.76
399.07	127.96
399.531	140.06
399.993	142.06
400.454	153.06
400.916	144.66
401.377	148.56
401.839	151.06
402.3	153.76
402.762	167.46
403.223	182.86
403.684	174.66
404.145	171.26
404.607	164.36
405.068	164.26
405.529	171.46
405.99	193.36
406.451	177.26
406.913	183.46
407.374	168.46
407.835	163.36
408.296	165.16
408.757	171.56
409.218	187.36
409.679	186.76
410.14	175.86
410.601	177.16
411.062	180.26
411.522	194.86
411.983	194.56
412.444	183.36
412.905	178.86
413.366	181.86
413.826	194.06
414.287	218.96
414.748	265.26
415.208	248.56
415.669	211.46
416.13	205.16
416.59	202.16
417.051	217.06
417.511	217.46
417.972	238.96
418.432	247.76
418.893	289.96
419.353	252.06
419.814	197.66
420.274	184.96
420.734	187.06
421.195	204.16
421.655	207.06
422.115	204.06
422.576	192.56
423.036	196.16
423.496	204.56
423.956	219.36
424.416	235.36
424.876	267.36
425.336	260.76
425.797	268.56
426.257	251.46
426.717	235.36
427.177	233.16
427.637	224.76
428.097	243.16
428.556	258.36
429.016	274.66
429.476	277.06
429.936	273.26
430.396	279.76
430.856	295.56
431.315	321.56
431.775	354.46
432.235	385.86
432.694	351.76
433.154	367.06
433.614	396.86
434.073	342.26
434.533	289.86
434.993	275.46
435.452	291.16
435.912	306.06
436.371	290.36
436.83	290.16
437.29	276.06
437.749	260.56
438.209	253.06
438.668	283.76
439.127	294.76
439.587	269.76
440.046	255.36
440.505	262.86
440.964	279.16
441.424	326.36
441.883	314.26
442.342	260.06
442.801	222.66
443.26	220.76
443.719	224.86
444.178	217.56
444.637	214.26
445.096	222.16
445.555	224.06
446.014	225.96
446.473	230.16
446.932	239.46
447.391	230.16
447.849	235.96
448.308	221.96
448.767	225.86
449.226	235.56
449.685	233.66
450.143	250.46
450.602	235.56
451.061	225.76
451.519	240.06
451.978	233.46
452.436	233.46
452.895	243.46
453.353	257.76
453.812	243.86
454.27	239.96
454.729	239.76
455.187	241.06
455.646	245.36
456.104	249.56
456.562	267.36
457.021	273.76
457.479	261.46
457.937	278.56
458.395	265.76
458.854	259.86
459.312	264.36
459.77	279.96
460.228	262.06
460.686	243.56
461.144	246.86
461.602	244.96
462.06	250.56
462.518	251.06
462.976	260.76
463.434	255.86
463.892	260.86
464.35	270.66
464.808	279.86
465.266	274.36
465.724	274.36
466.181	270.86
466.639	269.76
467.097	288.46
467.555	288.56
468.012	300.36
468.47	309.76
468.928	328.06
469.385	341.76
469.843	348.96
470.3	348.46
470.758	364.16
471.215	388.36
471.673	409.56
472.13	415.76
472.588	421.56
473.045	377.16
473.503	381.06
473.96	392.26
474.417	405.66
474.875	435.06
475.332	485.56
475.789	461.06
476.246	469.96
476.704	484.26
477.161	510.36
477.618	528.46
478.075	560.76
478.532	621.16
478.989	701.86
479.446	808.56
479.903	777.06
480.36	809.46
480.817	868.46
481.274	970.66
481.731	1068.66
482.188	1164.66
482.645	1300.66
483.102	1404.86
483.558	1546.16
484.015	1606.56
484.472	1566.76
484.929	1506.96
485.385	1469.06
485.842	1425.16
486.299	1367.16
486.755	1306.76
487.212	1092.06
487.668	926.26
488.125	851.46
488.582	781.16
489.038	731.36
489.494	717.76
489.951	681.36
490.407	672.26
490.864	646.86
491.32	641.66
491.776	640.86
492.233	645.96
492.689	614.46
493.145	608.56
493.602	605.06
494.058	607.86
494.514	611.46
494.97	634.06
495.426	652.86
495.882	618.16
496.338	606.06
496.794	625.96
497.251	603.36
497.707	626.96
498.163	633.66
498.618	635.86
499.074	643.26
499.53	676.76
499.986	672.06
500.442	651.26
500.898	635.16
501.354	625.36
501.809	631.06
502.265	638.36
502.721	661.46
503.177	677.26
503.632	662.36
504.088	687.86
504.543	707.86
504.999	705.16
505.455	650.96
505.91	627.86
506.366	631.96
506.821	625.36
507.277	623.56
507.732	616.46
508.187	618.66
508.643	634.46
509.098	629.66
509.553	652.26
510.009	659.06
510.464	662.46
510.919	686.66
511.375	693.26
511.83	704.76
512.285	718.96
512.74	749.96
513.195	783.96
513.65	767.86
514.105	771.06
514.56	766.46
515.015	779.36
515.47	805.56
515.925	781.46
516.38	786.06
516.835	786.26
517.29	772.46
517.745	774.06
518.2	754.76
518.655	741.86
519.109	743.36
519.564	734.16
520.019	729.96
520.474	716.36
520.928	730.16
521.383	726.46
521.838	709.36
522.292	708.46
522.747	712.16
523.201	696.56
523.656	697.06
524.11	687.36
524.565	692.56
525.019	686.16
525.474	703.46
525.928	692.86
526.382	693.66
526.837	695.36
527.291	704.76
527.745	692.16
528.2	695.06
528.654	690.76
529.108	681.56
529.562	692.96
530.016	693.96
530.47	690.66
530.925	690.36
531.379	690.96
531.833	703.96
532.287	692.96
532.741	701.56
533.195	695.86
533.649	709.16
534.103	715.96
534.556	707.86
535.01	705.36
535.464	690.36
535.918	717.36
536.372	707.86
536.826	718.46
537.279	699.76
537.733	717.66
538.187	714.76
538.64	714.06
539.094	719.26
539.548	724.66
540.001	727.96
540.455	719.66
540.908	726.66
541.362	728.96
541.815	749.26
542.269	751.66
542.722	758.56
543.175	767.86
543.629	770.26
544.082	781.46
544.536	784.96
544.989	785.26
545.442	782.76
545.895	785.06
546.349	800.36
546.802	791.66
547.255	793.16
547.708	800.76
548.161	798.86
548.614	811.86
549.067	826.06
549.52	822.76
549.973	804.56
550.426	816.76
550.879	794.06
551.332	798.76
551.785	803.26
552.238	807.86
552.691	819.76
553.144	830.06
553.596	839.76
554.049	856.96
554.502	890.26
554.955	902.36
555.407	904.16
555.86	888.76
556.313	892.16
556.765	882.26
557.218	882.26
557.67	867.56
558.123	864.86
558.576	870.56
559.028	877.36
559.48	877.16
559.933	870.46
560.385	834.46
560.838	808.76
561.29	775.86
561.742	771.36
562.195	762.66
562.647	764.36
563.099	765.96
563.551	777.66
564.004	781.26
564.456	768.86
564.908	761.06
565.36	751.96
565.812	728.96
566.264	733.46
566.716	727.96
567.168	725.76
567.62	721.26
568.072	700.46
568.524	691.06
568.976	688.76
569.428	682.36
569.88	679.06
570.332	682.06
570.784	681.06
571.235	681.36
571.687	694.26
572.139	695.36
572.59	708.06
573.042	712.26
573.494	707.56
573.945	697.06
574.397	683.26
574.849	685.46
575.3	696.26
575.752	691.76
576.203	679.16
576.655	691.46
577.106	667.76
577.557	663.26
578.009	672.06
578.46	671.16
578.912	664.46
579.363	667.86
579.814	672.76
580.265	668.96
580.717	667.96
581.168	661.96
581.619	681.46
582.07	681.76
582.521	678.16
582.972	673.76
583.423	683.76
583.875	681.26
584.326	699.16
584.777	758.36
585.227	835.16
585.678	922.66
586.129	1018.76
586.58	1086.66
587.031	1166.66
587.482	1324.36
587.933	1520.26
588.384	1328.16
588.834	977.96
589.285	807.56
589.736	785.76
590.186	787.36
590.637	771.86
591.088	739.66
591.538	740.56
591.989	737.46
592.439	729.16
592.89	730.86
593.34	706.36
593.791	712.56
594.241	703.66
594.692	709.26
595.142	705.66
595.593	703.76
596.043	700.56
596.493	717.36
596.943	716.36
597.394	728.56
597.844	721.36
598.294	725.16
598.744	750.56
599.195	777.16
599.645	826.16
600.095	852.06
600.545	925.96
600.995	975.06
601.445	1034.46
601.895	1090.26
602.345	1134.96
602.795	1106.66
603.245	1063.16
603.695	1014.86
604.145	954.16
604.594	906.46
605.044	847.46
605.494	791.56
605.944	756.36
606.393	748.26
606.843	734.56
607.293	735.86
607.743	727.06
608.192	750.56
608.642	761.86
609.091	770.36
609.541	775.96
609.99	777.46
610.44	770.86
610.889	728.76
611.339	702.26
611.788	697.76
612.238	698.66
612.687	719.06
613.136	721.86
613.586	745.56
614.035	741.46
614.484	764.36
614.933	762.76
615.383	752.36
615.832	740.66
616.281	728.56
616.73	685.56
617.179	673.16
617.628	656.36
618.077	634.36
618.526	620.36
618.975	626.16
619.424	625.16
619.873	621.06
620.322	621.16
620.771	614.46
621.22	618.46
621.669	597.36
622.118	594.56
622.567	580.86
623.015	573.56
623.464	575.96
623.913	565.96
624.361	561.26
624.81	558.66
625.259	559.86
625.707	555.76
626.156	553.26
626.604	570.26
627.053	561.06
627.501	558.76
627.95	578.06
628.398	582.96
628.847	577.16
629.295	569.96
629.744	584.06
630.192	573.86
630.64	573.76
631.089	572.76
631.537	581.66
631.985	596.96
632.433	611.96
632.881	618.06
633.33	668.66
633.778	649.66
634.226	569.96
634.674	576.36
635.122	582.66
635.57	608.56
636.018	632.56
636.466	592.36
636.914	568.26
637.362	570.26
637.81	577.46
638.258	584.86
638.705	580.36
639.153	620.76
639.601	619.46
640.049	642.86
640.497	682.16
640.944	695.66
641.392	655.16
641.84	617.86
642.287	592.06
642.735	576.56
643.182	577.36
643.63	584.16
644.078	590.66
644.525	600.66
644.973	602.26
645.42	614.56
645.867	623.26
646.315	645.66
646.762	677.06
647.21	689.56
647.657	719.86
648.104	752.26
648.551	778.66
648.999	857.76
649.446	930.16
649.893	1020.86
650.34	1182.66
650.787	1404.46
651.234	1753.06
651.682	2291.76
652.129	3172.36
652.576	4577.06
653.023	6742.96
653.47	9193.06
653.917	11438.76
654.363	13114.66
654.81	14390.56
655.257	13682.96
655.704	8953.06
656.151	5296.66
656.598	3423.26
657.044	2428.16
657.491	1869.56
657.938	1501.76
658.385	1259.26
658.831	1080.46
659.278	969.36
659.724	860.36
660.171	792.76
660.618	733.06
661.064	698.16
661.511	672.36
661.957	655.56
662.404	653.46
662.85	669.16
663.296	627.76
663.743	563.16
664.189	545.86
664.635	543.56
665.082	528.46
665.528	529.66
665.974	526.76
666.42	510.46
666.867	516.36
667.313	502.96
667.759	486.26
668.205	492.76
668.651	487.26
669.097	496.76
669.543	502.66
669.989	481.56
670.435	461.86
670.881	450.76
671.327	453.96
671.773	470.46
672.219	487.46
672.665	554.06
673.11	590.16
673.556	628.86
674.002	664.86
674.448	656.66
674.893	543.26
675.339	487.26
675.785	448.26
676.23	421.46
676.676	400.06
677.122	384.56
677.567	375.96
678.013	368.16
678.458	353.96
678.904	357.66
679.349	348.96
679.794	353.76
680.24	352.36
680.685	349.76
681.131	350.26
681.576	347.76
682.021	351.26
682.466	354.66
682.912	353.26
683.357	359.66
683.802	382.76
684.247	416.76
684.692	464.86
685.137	491.96
685.583	533.06
686.028	563.76
686.473	526.36
686.918	448.56
687.363	416.86
687.807	393.46
688.252	369.56
688.697	352.76
689.142	351.26
689.587	337.56
690.032	324.56
690.477	339.46
690.921	353.06
691.366	389.06
691.811	407.06
692.255	436.96
692.7	468.46
693.145	511.46
693.589	715.16
694.034	1158.06
694.478	1569.06
694.923	1728.86
695.367	2246.76
695.812	1194.06
696.256	501.26
696.701	369.46
697.145	348.76
697.59	334.16
698.034	326.96
698.478	336.66
698.922	329.56
699.367	323.86
699.811	339.46
700.255	359.56
700.699	389.76
701.143	439.56
701.588	481.96
702.032	514.66
702.476	512.66
702.92	493.76
703.364	496.26
703.808	661.76
704.252	1074.66
704.696	1484.46
705.14	1673.06
705.584	2124.36
706.027	1053.26
706.471	526.36
706.915	402.76
707.359	354.96
707.803	321.86
708.246	316.76
708.69	318.26
709.134	317.96
709.577	316.36
710.021	323.16
710.465	313.66
710.908	307.86
711.352	301.16
711.795	315.06
712.239	368.86
712.682	392.66
713.126	416.26
713.569	467.66
714.012	376.16
714.456	321.46
714.899	302.96
715.342	285.06
715.786	267.86
716.229	260.86
716.672	258.66
717.115	252.76
717.558	256.36
718.002	258.16
718.445	261.16
718.888	292.46
719.331	304.06
719.774	313.96
720.217	310.26
720.66	285.96
721.103	267.06
721.546	255.16
721.989	250.46
722.432	239.56
722.874	237.36
723.317	235.06
723.76	240.66
724.203	268.26
724.645	328.96
725.088	451.56
725.531	578.36
725.974	647.76
726.416	554.16
726.859	313.06
727.301	253.56
727.744	241.36
728.187	232.76
728.629	240.16
729.071	243.16
729.514	258.26
729.956	278.56
730.399	283.66
730.841	287.86
731.283	280.16
731.726	271.76
732.168	263.56
732.61	273.56
733.053	291.46
733.495	312.16
733.937	357.96
734.379	401.56
734.821	450.76
735.263	550.76
735.705	867.56
736.148	1647.46
736.59	2604.26
737.032	3036.26
737.474	2458.06
737.916	806.36
738.357	434.26
738.799	323.06
739.241	304.96
739.683	286.76
740.125	287.56
740.567	301.46
741.008	319.96
741.45	316.76
741.892	320.36
742.334	347.66
742.775	357.96
743.217	335.36
743.658	269.06
744.1	256.76
744.542	266.16
744.983	321.96
745.425	340.76
745.866	342.26
746.307	285.26
746.749	289.36
747.19	331.66
747.632	471.86
748.073	931.56
748.514	1931.96
748.956	2868.06
749.397	3591.76
749.838	2985.16
750.279	2921.86
750.72	1472.06
751.162	546.76
751.603	322.96
752.044	253.16
752.485	217.46
752.926	213.46
753.367	209.76
753.808	191.06
754.249	193.26
754.69	187.86
755.131	192.76
755.572	180.76
756.013	180.56
756.453	175.96
756.894	189.86
757.335	191.56
757.776	196.36
758.216	198.86
758.657	197.76
759.098	204.56
759.538	232.66
759.979	278.96
760.42	391.56
760.86	739.66
761.301	1922.66
761.741	4529.96
762.182	6320.36
762.622	4435.76
763.063	1301.96
763.503	543.36
763.943	353.16
764.384	349.66
764.824	421.06
765.264	447.36
765.705	316.16
766.145	211.26
766.585	196.46
767.025	182.76
767.465	195.36
767.906	255.26
768.346	328.96
768.786	350.46
769.226	266.06
769.666	334.26
770.106	640.26
770.546	1615.46
770.986	2631.16
771.426	2335.46
771.866	795.86
772.306	324.86
772.745	215.26
773.185	173.06
773.625	175.56
774.065	164.66
774.505	200.56
774.944	321.96
775.384	707.46
775.824	1225.56
776.263	1174.76
776.703	514.36
777.142	223.56
777.582	158.76
778.021	144.76
778.461	142.96
778.9	139.36
779.34	133.36
779.779	122.66
780.219	113.46
780.658	106.96
781.097	114.36
781.537	120.56
781.976	108.76
782.415	109.66
782.855	105.96
783.294	108.76
783.733	109.96
784.172	108.96
784.611	107.96
785.05	103.06
785.489	113.06
785.928	118.46
786.367	115.06
786.806	117.46
787.245	135.56
787.684	136.06
788.123	155.26
788.562	133.66
789.001	129.66
789.44	123.56
789.879	115.56
790.317	121.96
790.756	127.16
791.195	127.16
791.634	144.46
792.072	209.96
792.511	390.86
792.95	1044.86
793.388	2152.86
793.827	1907.46
794.265	676.46
794.704	275.36
795.142	182.96
795.581	152.56
796.019	134.16
796.458	122.76
796.896	128.96
797.334	136.26
797.773	156.16
798.211	225.46
798.649	462.26
799.087	1051.66
799.526	1611.36
799.964	2032.96
800.402	1976.86
800.84	761.06
801.278	308.46
801.716	194.06
802.154	157.16
802.592	150.16
803.03	137.36
803.468	135.26
803.906	146.66
804.344	146.76
804.782	141.46
805.22	128.76
805.658	128.16
806.096	148.46
806.533	157.86
806.971	182.46
807.409	219.86
807.847	318.86
808.284	691.16
808.722	1914.26
809.16	3282.46
809.597	3198.36
810.035	5455.56
810.472	5653.76
810.91	2080.36
811.347	798.76
811.785	406.46
812.222	253.26
812.66	195.76
813.097	164.56
813.535	139.66
813.972	130.06
814.409	117.16
814.846	111.76
815.284	106.26
815.721	101.56
816.158	103.96
816.595	123.16
817.032	177.46
817.47	204.56
817.907	165.26
818.344	155.96
818.781	114.16
819.218	106.06
819.655	131.26
820.092	185.96
820.529	210.26
820.966	177.96
821.403	136.26
821.839	106.66
822.276	103.66
822.713	128.56
823.15	130.16
823.587	121.06
824.023	155.86
824.46	306.66
824.897	917.86
825.333	1330.96
825.77	572.76
826.206	233.76
826.643	143.36
827.08	101.56
827.516	79.66
827.953	82.06
828.389	85.56
828.825	70.26
829.262	68.96
829.698	64.16
830.135	69.76
830.571	61.96
831.007	69.06
831.443	67.66
831.88	65.86
832.316	63.96
832.752	67.26
833.188	70.06
833.624	62.76
834.06	66.66
834.497	72.06
834.933	73.76
835.369	78.56
835.805	68.46
836.241	77.76
836.677	78.56
837.112	89.66
837.548	107.76
837.984	132.36
838.42	208.76
838.856	516.56
839.292	1545.86
839.727	2274.06
840.163	1058.36
840.599	944.16
841.034	2057.06
841.47	2086.96
841.906	770.66
842.341	333.96
842.777	228.66
843.212	323.76
843.648	306.46
844.083	154.86
844.519	95.06
844.954	77.26
845.39	58.16
845.825	57.56
846.261	61.66
846.696	56.36
847.131	49.26
847.566	57.46
848.002	50.76
848.437	52.26
848.872	56.26
849.307	63.46
849.742	78.66
850.177	187.86
850.613	567.46
851.048	877.06
851.483	377.66
851.918	157.76
852.353	88.86
852.788	63.46
853.223	60.56
853.657	58.36
854.092	49.66
854.527	39.86
854.962	42.86
855.397	49.96
855.832	47.16
856.266	43.36
856.701	46.66
857.136	38.26
857.57	44.26
858.005	55.36
858.44	53.36
858.874	43.46
859.309	48.66
859.743	39.36
860.178	50.86
860.612	40.16
861.047	52.86
861.481	65.36
861.915	67.06
862.35	49.56
862.784	39.46
863.218	39.86
863.653	37.36
864.087	45.56
864.521	59.46
864.955	74.56
865.39	157.66
865.824	172.26
866.258	109.56
866.692	162.46
867.126	169.26
867.56	104.66
867.994	46.56
868.428	41.56
868.862	50.26
869.296	56.36
869.73	56.16
870.164	55.36
870.598	41.66
871.031	34.56
871.465	32.26
871.899	36.66
872.333	27.46
872.766	27.16
873.2	16.46
873.634	27.86
874.067	22.66
874.501	25.66
874.935	31.96
875.368	31.06
875.802	25.96
876.235	20.66
876.669	22.76
877.102	25.26
877.535	20.46
877.969	22.26
878.402	28.56
878.836	21.96
879.269	27.86
879.702	24.26
880.135	21.76
880.569	25.76
881.002	27.96
881.435	24.06
881.868	14.86
882.301	23.26
882.734	12.36
883.167	29.76
883.601	17.66
884.034	20.36
884.467	17.86
884.899	12.06
885.332	13.86
885.765	14.56
886.198	14.36
886.631	19.46
887.064	24.76
887.497	23.46
887.929	27.56
888.362	11.96
888.795	14.46
889.228	14.46
889.66	18.16
890.093	20.26
890.526	13.66
890.958	15.86
891.391	20.06
891.823	19.76
892.256	15.86
892.688	16.06
893.121	17.86
893.553	11.76
893.985	19.36
894.418	21.26
894.85	9.46
895.282	10.76
895.715	15.46
896.147	19.06
896.579	15.76
897.011	19.66
897.444	19.66
897.876	12.96
898.308	22.16
898.74	17.36
899.172	15.66
899.604	23.16
900.036	15.66
900.468	11.86
900.9	17.36
901.332	18.06
901.764	15.36
902.196	22.46
902.628	20.96
903.06	15.26
903.491	28.66
903.923	17.96
904.355	21.16
904.787	23.46
905.218	20.46
905.65	20.56
906.082	14.06
906.513	17.66
906.945	14.26
907.376	14.66
907.808	23.76
908.239	21.56
908.671	18.16
909.102	20.46
909.534	23.86
909.965	43.36
910.397	92.76
910.828	313.66
911.259	470.06
911.691	214.46
912.122	106.76
912.553	47.16
912.984	33.56
913.415	27.76
913.847	24.76
914.278	18.16
914.709	17.76
915.14	21.96
915.571	13.46
916.002	14.36
916.433	21.66
916.864	15.96
917.295	13.06
917.726	23.76
918.157	22.56
918.587	28.86
919.018	24.86
919.449	26.16
919.88	33.36
920.311	34.86
920.741	49.96
921.172	171.36
921.603	151.96
922.033	71.66
922.464	45.06
922.895	22.46
923.325	19.36
923.756	16.46
924.186	11.76
924.617	28.76
925.047	49.36
925.478	54.26
925.908	42.56
926.338	25.26
926.769	19.36
927.199	17.16
927.629	4.36
928.06	14.66
928.49	16.66
928.92	15.46
929.35	8.46
929.78	13.06
930.21	5.86
930.641	12.06
931.071	11.76
931.501	5.76
931.931	9.46
932.361	6.76
932.791	3.76
933.221	8.46
933.651	3.36
934.08	14.36
934.51	31.76
934.94	9.66
935.37	4.56
935.8	7.46
936.229	7.96
936.659	9.76
937.089	-0.44
937.519	16.26
937.948	23.76
938.378	15.16
938.807	-2.04
939.237	1.46
939.666	8.26
940.096	-2.04
940.525	5.46
940.955	7.76
941.384	5.06
941.814	-2.84
942.243	-1.74
942.672	-1.24
943.102	-2.74
943.531	-0.24
943.96	1.16
944.39	-5.44
944.819	2.06
945.248	6.26
945.677	2.56
946.106	5.06
946.535	2.16
946.964	4.46
947.393	6.96
947.822	6.56
948.251	-5.24
948.68	-2.24
949.109	3.16
949.538	2.26
949.967	-2.24
950.396	0.26
950.825	-1.34
951.254	3.16
951.682	-3.64
952.111	2.56
952.54	1.86
952.969	-0.64
953.397	-2.94
953.826	5.66
954.254	-5.04
954.683	0.16
955.112	-4.24
955.54	4.76
955.969	3.16
956.397	2.76
956.826	-5.04
957.254	-0.34
957.682	3.76
958.111	2.76
958.539	1.16
958.967	-6.04
959.396	-3.54
959.824	-3.64
960.252	2.76
960.68	-1.34
961.109	-1.94
961.537	-0.94
961.965	0.06
962.393	0.36
962.821	-1.04
963.249	3.66
963.677	8.56
964.105	9.16
964.533	45.96
964.961	40.16
965.389	19.36
965.817	5.26
966.245	7.06
966.672	2.86
967.1	-6.34
967.528	-2.04
967.956	3.46
968.383	3.56
968.811	-5.54
969.239	-2.14
969.666	-9.14
970.094	1.76
970.522	-4.14
970.949	-1.84
971.377	-8.04
971.804	1.36
972.232	-0.44
972.659	1.26
973.087	-0.84
973.514	-6.34
973.941	-5.84
974.369	3.26
974.796	1.36
975.223	1.16
975.651	2.06
976.078	0.36
976.505	-0.24
976.932	4.56
977.359	12.36
977.786	16.96
978.214	-6.14
978.641	-4.74
979.068	3.16
979.495	-5.74
979.922	-0.04
980.349	-5.34
980.776	-0.14
981.202	-6.54
981.629	2.16
982.056	2.16
982.483	1.16
982.91	1.96
983.337	-3.74
983.763	-1.64
984.19	-6.04
984.617	-5.44
985.043	-9.94
985.47	1.06
985.897	-3.24
986.323	-5.54
986.75	2.56
987.176	0.96
987.603	-3.84
988.029	0.46
988.456	0.96
988.882	3.26
989.308	-6.14
989.735	-5.54
990.161	4.16
990.587	-3.54
991.014	1.16
991.44	6.56
991.866	0.36
992.292	2.96
992.719	-2.74
993.145	2.66
993.571	-11.54
993.997	-3.84
994.423	-5.84
994.849	-8.04
995.275	2.16
995.701	-0.74
996.127	-8.04
996.553	-3.04
996.979	0.56
997.405	-9.34
997.83	-4.84
998.256	-6.94
998.682	-8.54
999.108	-15.54
999.534	-0.24
999.959	-0.84
1000.385	-1.54
1000.811	0.46
1001.236	-7.64
1001.662	-7.04
1002.087	-10.94
1002.513	2.56
1002.938	3.26
1003.364	-2.64
1003.789	-1.04
1004.215	-0.14
1004.64	-0.44
1005.066	-3.84
1005.491	3.66
1005.916	-7.64
1006.342	-1.94
1006.767	-8.44
1007.192	5.46
1007.617	-0.34
1008.042	-9.24
1008.468	-3.04
1008.893	-7.24
1009.318	-2.84
1009.743	-4.54
1010.168	0.86
1010.593	-3.14
1011.018	-4.74
1011.443	1.06
1011.868	0.76
1012.293	-1.24
1012.718	-10.04
1013.143	1.36
1013.567	-1.54
1013.992	-3.34
1014.417	-13.44
1014.842	0.26
1015.267	-1.04
1015.691	-2.44
1016.116	4.06
1016.541	0.16
1016.965	3.66
1017.39	1.26
1017.814	3.56
1018.239	3.36
1018.663	-4.54
1019.088	-11.74
1019.512	3.26
1019.937	6.16
1020.361	-10.14
1020.785	-5.64
1021.21	-5.64
1021.634	-0.94
1022.058	2.56
1022.483	2.66
1022.907	-4.34
1023.331	-3.94
1023.755	-2.24
1024.179	-0.64
1024.604	-4.04
1025.028	-0.44
1025.452	-7.24
1025.876	-3.24
1026.3	-2.84
1026.724	-6.14
1027.148	-4.64
1027.572	-6.24
1027.996	-7.04
1028.42	0.76
1028.843	-4.34
1029.267	-7.14
1029.691	-6.44
1030.115	-7.64
1030.539	-6.34
1030.962	-5.04
1031.386	-13.34
1031.81	-1.34
1032.233	5.86
1032.657	-5.34
1033.08	3.06
1033.504	1.06
1033.927	-4.94
1034.351	4.96
1034.774	-4.54
1035.198	0.66
1035.621	-9.44
1036.045	-13.24
1036.468	-0.04
1036.891	-8.94
1037.315	-12.94
1037.738	-11.14
1038.161	-1.34
1038.584	-8.54
1039.008	-6.34
1039.431	-4.74
1039.854	2.76
1040.277	-4.04
1040.7	-9.14
1041.123	-0.44
1041.546	-8.74
1041.969	-1.24
1042.392	-10.94
1042.815	-6.54
1043.238	2.16
1043.661	5.36
1044.084	-7.84
1044.507	-7.14
1044.93	-10.54
1045.352	-5.24
1045.775	-7.74
1046.198	0.96
1046.621	3.96
1047.043	-4.74
1047.466	8.26
1047.889	-3.04
1048.311	-6.84
1048.734	-6.34
1049.156	-5.24
1049.579	-1.94
1050.001	-3.04
1050.424	-3.84
1050.846	-0.24
1051.269	-3.54
1051.691	-10.64
1052.113	-2.04
1052.536	-6.44
1052.958	-4.84
1053.38	-7.14
1053.802	-10.34
1054.225	5.16
1054.647	-10.14
1055.069	-5.44
1055.491	-5.44
1055.913	-7.54
1056.335	-4.24
1056.757	-5.54
1057.179	-6.94
1057.601	-2.34
1058.023	-2.74
1058.445	-7.44
1058.867	-0.14
1059.289	2.06
1059.711	-2.54
1060.133	-3.34
1060.555	-1.14
1060.976	-7.64
1061.398	-0.74
1061.82	-3.04
1062.241	-3.64
1062.663	-5.24
1063.085	-6.94
1063.506	-3.84
1063.928	-5.44
1064.35	-4.04
1064.771	-8.44
1065.193	-5.44
1065.614	-11.44
1066.035	-6.04
1066.457	-0.14
1066.878	1.86
1067.3	-2.94
1067.721	-6.64
1068.142	-5.34
1068.564	-5.94
1068.985	-3.74
1069.406	-2.54
1069.827	-4.84
1070.248	-4.34
1070.67	-5.14
1071.091	-7.24
1071.512	-8.14
1071.933	-8.54
1072.354	-8.14
1072.775	-4.34
1073.196	-8.64
1073.617	-7.64
1074.038	-5.34
1074.459	0.86
1074.88	-7.94
1075.3	-5.64
1075.721	-4.64
1076.142	-4.54
1076.563	-4.54
1076.983	-5.54
1077.404	-4.14
1077.825	-10.84
1078.246	-1.14
1078.666	-8.54
1079.087	-9.14
1079.507	-6.34
1079.928	-3.74
1080.348	3.36
1080.769	-12.74
1081.189	-9.24
1081.61	-3.64
1082.03	-11.24
1082.451	-8.44
1082.871	-5.14
1083.291	-3.04
1083.711	-6.34
1084.132	-4.94
1084.552	-3.44
1084.972	0.46
1085.392	-9.74
1085.813	-11.44
1086.233	-8.04
1086.653	-6.64
1087.073	-5.04
1087.493	-10.74
1087.913	-5.74
1088.333	-3.64
1088.753	-2.94
1089.173	5.86
1089.593	-3.04
1090.013	-0.94
1090.433	-3.34
1090.852	-4.84
1091.272	1.66
1091.692	-5.14
1092.112	-3.64
1092.531	-8.54
1092.951	-16.04
1093.371	-4.84
1093.79	-2.84
1094.21	-7.94
1094.63	1.06
1095.049	-6.24
1095.469	-5.94
1095.888	-2.94
1096.308	4.26
1096.727	4.06
1097.146	-6.74
1097.566	-6.24
1097.985	-8.14
1098.405	-5.74
1098.824	-8.24
1099.243	-10.44
1099.662	-7.44
1100.082	-1.94
1100.501	-2.04
1100.92	-11.54
1101.339	-2.14
1101.758	-5.14
