Data from 20171114-ORNL-Ar_H_NY_Subt18_08-07-53-273.txt Node
Date: Tue Nov 14 08:07:53 EST 2017
User: Ender
Spectrometer: HR+D1039
Trigger mode: 0
Integration Time (sec): 2.730000E-2
Scans to average: 10
Electric dark correction enabled: true
Nonlinearity correction enabled: false
Boxcar width: 0
XAxis mode: Wavelengths
Number of Pixels in Spectrum: 2048
>>>>>Begin Spectral Data<<<<<
187.836	-7.94
188.309	-7.94
188.782	-7.94
189.255	-1.64
189.728	4.86
190.201	10.36
190.674	-3.34
191.147	3.66
191.619	-4.74
192.092	-0.84
192.565	-0.34
193.038	-1.64
193.511	0.86
193.984	1.36
194.456	-4.44
194.929	3.66
195.402	-5.34
195.874	5.46
196.347	4.36
196.82	-3.44
197.292	8.86
197.765	-1.84
198.237	-4.14
198.71	1.66
199.182	-3.24
199.655	1.46
200.127	6.96
200.6	-1.64
201.072	-2.44
201.544	-2.04
202.017	-1.64
202.489	2.26
202.961	1.76
203.433	-5.34
203.906	-6.74
204.378	-3.54
204.85	-2.84
205.322	-8.44
205.794	-5.04
206.266	-4.64
206.739	-7.14
207.211	2.06
207.683	-6.64
208.155	-5.84
208.627	-3.84
209.099	1.66
209.57	-7.04
210.042	-6.14
210.514	-8.74
210.986	-5.24
211.458	-3.54
211.93	-2.04
212.402	1.66
212.873	-4.94
213.345	-16.54
213.817	-5.34
214.288	2.16
214.76	-7.64
215.232	-0.74
215.703	-4.44
216.175	-2.34
216.646	-1.64
217.118	-13.04
217.589	-7.94
218.061	-3.04
218.532	-1.44
219.004	-2.94
219.475	0.36
219.946	0.96
220.418	-4.84
220.889	1.06
221.36	4.26
221.832	-2.14
222.303	1.26
222.774	3.16
223.245	-7.24
223.717	-5.94
224.188	-4.74
224.659	-6.34
225.13	-6.74
225.601	-6.94
226.072	-1.94
226.543	3.36
227.014	-1.44
227.485	-5.74
227.956	-4.94
228.427	1.36
228.898	-1.44
229.369	0.86
229.839	1.16
230.31	-1.74
230.781	2.96
231.252	-1.64
231.722	-0.14
232.193	-3.14
232.664	1.16
233.135	-2.44
233.605	-2.84
234.076	-4.44
234.546	-2.14
235.017	5.16
235.487	2.36
235.958	-3.44
236.428	-1.44
236.899	1.96
237.369	2.36
237.84	-7.24
238.31	2.06
238.78	0.56
239.251	-1.54
239.721	5.16
240.191	5.16
240.662	-4.64
241.132	4.56
241.602	2.36
242.072	0.56
242.542	7.26
243.013	-0.74
243.483	4.16
243.953	1.36
244.423	3.36
244.893	-2.34
245.363	-1.74
245.833	-1.14
246.303	2.46
246.773	7.36
247.243	5.26
247.712	-0.44
248.182	5.36
248.652	8.76
249.122	-0.74
249.592	7.56
250.061	17.46
250.531	25.96
251.001	18.26
251.471	20.96
251.94	14.16
252.41	5.36
252.879	-0.54
253.349	12.86
253.818	6.86
254.288	6.36
254.757	5.36
255.227	4.96
255.696	2.36
256.166	2.36
256.635	14.66
257.105	3.86
257.574	2.06
258.043	9.16
258.513	9.76
258.982	13.06
259.451	4.66
259.92	2.96
260.389	8.96
260.859	18.36
261.328	10.66
261.797	16.36
262.266	10.26
262.735	6.36
263.204	3.26
263.673	2.46
264.142	8.96
264.611	-4.44
265.08	-0.64
265.549	4.16
266.018	6.16
266.487	-2.84
266.955	3.06
267.424	0.66
267.893	11.36
268.362	1.56
268.83	6.06
269.299	11.36
269.768	6.56
270.236	5.36
270.705	1.16
271.174	7.76
271.642	16.66
272.111	12.16
272.579	16.86
273.048	16.46
273.516	20.46
273.985	23.16
274.453	25.46
274.922	22.56
275.39	14.66
275.858	0.06
276.327	9.96
276.795	22.46
277.263	11.66
277.731	28.66
278.2	48.26
278.668	50.56
279.136	55.06
279.604	22.66
280.072	10.56
280.54	10.16
281.008	7.16
281.477	15.76
281.945	9.56
282.413	17.46
282.881	12.56
283.348	3.26
283.816	14.66
284.284	14.16
284.752	19.16
285.22	12.76
285.688	8.76
286.156	18.96
286.623	36.36
287.091	43.86
287.559	26.96
288.026	14.76
288.494	11.16
288.962	3.66
289.429	5.16
289.897	18.66
290.364	14.26
290.832	16.76
291.3	15.86
291.767	17.06
292.234	20.96
292.702	11.66
293.169	19.06
293.637	23.76
294.104	16.96
294.571	8.26
295.039	14.56
295.506	20.16
295.973	18.16
296.44	9.36
296.908	17.56
297.375	18.26
297.842	12.06
298.309	16.66
298.776	12.66
299.243	18.36
299.71	7.36
300.177	16.76
300.644	19.66
301.111	17.16
301.578	18.36
302.045	12.26
302.512	22.06
302.979	20.86
303.446	22.76
303.913	17.06
304.379	19.06
304.846	23.56
305.313	21.96
305.78	20.36
306.246	22.56
306.713	22.96
307.18	19.06
307.646	28.16
308.113	26.96
308.579	21.76
309.046	21.76
309.512	23.56
309.979	18.76
310.445	29.76
310.912	27.86
311.378	28.26
311.845	23.26
312.311	29.86
312.777	23.76
313.244	30.36
313.71	34.26
314.176	29.86
314.642	27.26
315.109	29.56
315.575	38.36
316.041	36.66
316.507	30.16
316.973	41.66
317.439	32.36
317.905	27.96
318.371	33.46
318.837	31.86
319.303	30.96
319.769	29.86
320.235	37.16
320.701	32.96
321.167	32.66
321.633	31.36
322.099	37.96
322.564	42.56
323.03	34.36
323.496	34.26
323.962	33.66
324.427	31.86
324.893	36.56
325.359	35.06
325.824	33.46
326.29	33.06
326.755	32.16
327.221	40.66
327.686	34.66
328.152	45.86
328.617	36.76
329.083	38.36
329.548	44.36
330.014	44.16
330.479	35.06
330.944	38.46
331.41	35.86
331.875	39.26
332.34	43.56
332.805	39.86
333.271	46.56
333.736	39.56
334.201	51.86
334.666	49.86
335.131	55.86
335.596	48.66
336.061	43.76
336.526	32.76
336.991	47.56
337.456	51.76
337.921	46.86
338.386	33.46
338.851	45.16
339.316	41.46
339.781	47.96
340.246	51.16
340.711	44.46
341.175	45.76
341.64	39.56
342.105	51.56
342.569	48.96
343.034	49.96
343.499	52.16
343.963	44.66
344.428	55.76
344.893	55.96
345.357	62.06
345.822	58.76
346.286	66.86
346.751	65.96
347.215	58.86
347.679	64.46
348.144	89.56
348.608	74.66
349.073	66.46
349.537	73.46
350.001	74.16
350.465	78.96
350.93	72.66
351.394	69.96
351.858	67.56
352.322	77.56
352.786	79.96
353.25	99.66
353.715	107.76
354.179	98.36
354.643	116.36
355.107	119.46
355.571	99.16
356.035	100.56
356.498	117.26
356.962	114.06
357.426	129.66
357.89	113.46
358.354	84.66
358.818	79.56
359.281	79.56
359.745	72.56
360.209	69.36
360.673	68.96
361.136	72.26
361.6	80.46
362.064	75.96
362.527	82.56
362.991	84.76
363.454	77.06
363.918	71.76
364.381	72.66
364.845	81.36
365.308	75.36
365.772	82.46
366.235	77.36
366.698	80.26
367.162	85.86
367.625	77.96
368.088	82.46
368.552	84.76
369.015	86.16
369.478	88.86
369.941	92.16
370.404	88.06
370.867	102.06
371.331	105.56
371.794	110.86
372.257	100.96
372.72	112.76
373.183	107.26
373.646	94.96
374.109	96.06
374.572	102.36
375.035	105.76
375.497	100.86
375.96	97.56
376.423	97.36
376.886	110.06
377.349	100.26
377.811	97.76
378.274	104.36
378.737	106.86
379.199	110.36
379.662	108.16
380.125	111.76
380.587	113.26
381.05	113.56
381.512	120.86
381.975	127.86
382.437	124.46
382.9	123.06
383.362	132.76
383.825	134.26
384.287	137.56
384.75	134.16
385.212	135.76
385.674	128.46
386.136	133.56
386.599	119.56
387.061	118.06
387.523	122.16
387.985	131.96
388.447	137.36
388.91	134.56
389.372	153.46
389.834	140.46
390.296	134.76
390.758	154.06
391.22	163.36
391.682	201.16
392.144	288.16
392.606	221.86
393.068	157.96
393.529	155.86
393.991	148.36
394.453	139.96
394.915	148.46
395.377	192.16
395.838	205.26
396.3	149.96
396.762	130.76
397.224	127.26
397.685	123.26
398.147	122.96
398.608	120.86
399.07	124.36
399.531	131.36
399.993	135.26
400.454	143.86
400.916	143.26
401.377	137.16
401.839	145.06
402.3	149.06
402.762	158.96
403.223	169.46
403.684	164.26
404.145	154.06
404.607	152.46
405.068	159.66
405.529	162.76
405.99	188.26
406.451	161.16
406.913	162.66
407.374	158.86
407.835	156.06
408.296	158.86
408.757	168.26
409.218	178.96
409.679	174.26
410.14	167.66
410.601	166.36
411.062	177.76
411.522	190.26
411.983	182.36
412.444	168.66
412.905	176.36
413.366	175.36
413.826	183.26
414.287	201.36
414.748	248.36
415.208	228.06
415.669	208.06
416.13	197.96
416.59	199.46
417.051	208.46
417.511	211.46
417.972	225.86
418.432	233.16
418.893	272.36
419.353	234.96
419.814	198.46
420.274	175.26
420.734	171.46
421.195	190.86
421.655	184.86
422.115	191.86
422.576	184.56
423.036	187.96
423.496	201.96
423.956	209.16
424.416	221.16
424.876	257.16
425.336	245.56
425.797	250.96
426.257	248.36
426.717	230.16
427.177	222.96
427.637	219.76
428.097	227.76
428.556	233.16
429.016	264.36
429.476	259.16
429.936	269.86
430.396	271.06
430.856	278.96
431.315	302.96
431.775	337.36
432.235	363.46
432.694	339.16
433.154	349.86
433.614	384.76
434.073	331.56
434.533	282.26
434.993	265.76
435.452	274.86
435.912	279.76
436.371	277.26
436.83	281.56
437.29	263.66
437.749	238.46
438.209	237.66
438.668	263.46
439.127	281.06
439.587	256.26
440.046	240.26
440.505	253.36
440.964	272.46
441.424	308.56
441.883	300.36
442.342	252.46
442.801	216.86
443.26	211.06
443.719	214.26
444.178	220.26
444.637	203.16
445.096	217.36
445.555	212.46
446.014	210.26
446.473	219.96
446.932	232.16
447.391	219.56
447.849	223.06
448.308	207.86
448.767	209.56
449.226	227.96
449.685	230.36
450.143	238.46
450.602	224.66
451.061	219.86
451.519	228.36
451.978	228.26
452.436	223.46
452.895	225.86
453.353	243.56
453.812	225.86
454.27	230.36
454.729	235.76
455.187	233.26
455.646	239.96
456.104	240.36
456.562	252.86
457.021	260.46
457.479	246.16
457.937	259.96
458.395	251.96
458.854	235.56
459.312	240.76
459.77	269.26
460.228	247.86
460.686	228.26
461.144	236.86
461.602	238.66
462.06	235.76
462.518	242.36
462.976	243.66
463.434	251.56
463.892	254.86
464.35	264.86
464.808	282.76
465.266	258.66
465.724	259.06
466.181	258.26
466.639	258.36
467.097	282.16
467.555	289.16
468.012	289.66
468.47	303.36
468.928	316.76
469.385	332.46
469.843	333.56
470.3	332.36
470.758	350.06
471.215	366.76
471.673	408.86
472.13	393.16
472.588	402.96
473.045	356.06
473.503	363.96
473.96	386.16
474.417	390.96
474.875	420.96
475.332	456.06
475.789	443.96
476.246	455.66
476.704	475.56
477.161	494.36
477.618	508.56
478.075	536.96
478.532	600.16
478.989	666.66
479.446	781.36
479.903	739.96
480.36	781.66
480.817	838.56
481.274	928.26
481.731	1043.86
482.188	1115.16
482.645	1242.96
483.102	1356.06
483.558	1480.46
484.015	1534.36
484.472	1518.36
484.929	1470.36
485.385	1426.96
485.842	1375.46
486.299	1310.16
486.755	1260.06
487.212	1053.76
487.668	893.06
488.125	828.86
488.582	743.46
489.038	715.86
489.494	681.86
489.951	670.66
490.407	640.86
490.864	621.86
491.32	614.16
491.776	613.26
492.233	622.46
492.689	579.76
493.145	584.86
493.602	574.56
494.058	591.76
494.514	594.16
494.97	611.56
495.426	628.86
495.882	600.46
496.338	592.76
496.794	597.86
497.251	595.66
497.707	613.46
498.163	610.96
498.618	619.76
499.074	623.66
499.53	654.76
499.986	646.16
500.442	631.06
500.898	603.56
501.354	596.46
501.809	614.16
502.265	619.16
502.721	630.66
503.177	652.76
503.632	638.56
504.088	647.96
504.543	693.96
504.999	695.16
505.455	637.16
505.91	611.86
506.366	602.66
506.821	603.06
507.277	593.56
507.732	600.96
508.187	606.66
508.643	610.86
509.098	625.86
509.553	629.86
510.009	645.96
510.464	644.36
510.919	662.26
511.375	666.66
511.83	671.96
512.285	695.56
512.74	731.06
513.195	751.36
513.65	742.56
514.105	742.56
514.56	740.66
515.015	769.36
515.47	773.06
515.925	758.16
516.38	765.56
516.835	763.26
517.29	757.26
517.745	746.76
518.2	737.96
518.655	718.56
519.109	714.46
519.564	718.36
520.019	698.76
520.474	691.16
520.928	692.96
521.383	705.76
521.838	685.56
522.292	691.26
522.747	685.56
523.201	679.16
523.656	659.46
524.11	671.16
524.565	674.06
525.019	669.86
525.474	687.66
525.928	675.16
526.382	667.86
526.837	676.76
527.291	681.26
527.745	670.76
528.2	674.06
528.654	678.36
529.108	657.66
529.562	665.86
530.016	665.96
530.47	665.26
530.925	664.06
531.379	672.76
531.833	678.16
532.287	678.36
532.741	674.36
533.195	675.26
533.649	681.66
534.103	694.66
534.556	674.16
535.01	694.36
535.464	679.66
535.918	696.66
536.372	691.56
536.826	686.66
537.279	685.66
537.733	689.36
538.187	694.46
538.64	689.36
539.094	698.76
539.548	705.46
540.001	703.56
540.455	700.86
540.908	695.36
541.362	712.76
541.815	726.56
542.269	732.96
542.722	737.56
543.175	750.36
543.629	744.56
544.082	751.86
544.536	761.46
544.989	753.06
545.442	770.46
545.895	768.86
546.349	762.16
546.802	765.66
547.255	768.16
547.708	775.76
548.161	785.26
548.614	789.16
549.067	800.56
549.52	795.06
549.973	788.86
550.426	781.06
550.879	767.36
551.332	767.06
551.785	787.56
552.238	777.46
552.691	793.96
553.144	799.26
553.596	821.26
554.049	825.46
554.502	855.26
554.955	871.16
555.407	874.16
555.86	873.76
556.313	864.46
556.765	850.06
557.218	855.26
557.67	861.26
558.123	840.56
558.576	840.66
559.028	851.36
559.48	842.76
559.933	840.76
560.385	810.26
560.838	784.36
561.29	764.46
561.742	756.36
562.195	731.26
562.647	740.16
563.099	758.26
563.551	747.06
564.004	757.26
564.456	757.46
564.908	736.66
565.36	722.46
565.812	715.76
566.264	702.56
566.716	707.06
567.168	689.36
567.62	704.46
568.072	687.66
568.524	676.86
568.976	664.56
569.428	657.46
569.88	667.96
570.332	663.36
570.784	665.66
571.235	660.36
571.687	665.66
572.139	689.76
572.59	688.46
573.042	684.06
573.494	690.06
573.945	677.36
574.397	656.36
574.849	663.16
575.3	671.16
575.752	660.86
576.203	661.56
576.655	660.86
577.106	640.26
577.557	650.76
578.009	649.76
578.46	634.16
578.912	644.06
579.363	646.26
579.814	645.56
580.265	637.36
580.717	648.06
581.168	645.16
581.619	657.26
582.07	667.06
582.521	655.96
582.972	647.76
583.423	662.66
583.875	659.46
584.326	682.86
584.777	730.36
585.227	810.66
585.678	894.76
586.129	977.06
586.58	1049.16
587.031	1127.96
587.482	1268.06
587.933	1441.96
588.384	1262.66
588.834	950.76
589.285	793.26
589.736	769.06
590.186	752.56
590.637	738.36
591.088	728.06
591.538	713.76
591.989	713.36
592.439	700.16
592.89	695.96
593.34	700.76
593.791	690.76
594.241	684.36
594.692	683.66
595.142	685.86
595.593	668.96
596.043	687.16
596.493	688.56
596.943	693.56
597.394	705.86
597.844	693.86
598.294	713.66
598.744	737.46
599.195	755.86
599.645	797.96
600.095	833.76
600.545	892.16
600.995	944.16
601.445	1001.56
601.895	1051.46
602.345	1097.56
602.795	1077.66
603.245	1031.46
603.695	980.96
604.145	928.66
604.594	891.56
605.044	835.06
605.494	774.26
605.944	723.36
606.393	721.76
606.843	705.96
607.293	711.86
607.743	725.36
608.192	733.26
608.642	741.36
609.091	750.06
609.541	756.86
609.99	745.96
610.44	751.66
610.889	704.76
611.339	673.86
611.788	665.86
612.238	674.06
612.687	709.86
613.136	703.46
613.586	720.76
614.035	711.96
614.484	735.26
614.933	746.36
615.383	734.76
615.832	723.86
616.281	708.36
616.73	675.66
617.179	653.26
617.628	631.76
618.077	621.16
618.526	610.86
618.975	600.96
619.424	596.76
619.873	593.96
620.322	603.86
620.771	610.96
621.22	595.46
621.669	591.56
622.118	570.06
622.567	562.66
623.015	557.16
623.464	558.36
623.913	548.06
624.361	542.76
624.81	545.06
625.259	532.96
625.707	541.36
626.156	543.06
626.604	551.16
627.053	546.16
627.501	541.86
627.95	546.66
628.398	553.56
628.847	551.56
629.295	560.66
629.744	553.16
630.192	551.46
630.64	554.06
631.089	547.76
631.537	564.96
631.985	580.46
632.433	591.46
632.881	597.26
633.33	652.16
633.778	635.16
634.226	558.36
634.674	557.96
635.122	558.56
635.57	588.16
636.018	614.86
636.466	559.26
636.914	544.76
637.362	557.86
637.81	563.36
638.258	557.76
638.705	566.46
639.153	597.66
639.601	605.06
640.049	627.56
640.497	661.76
640.944	681.06
641.392	633.36
641.84	590.86
642.287	565.06
642.735	556.56
643.182	560.16
643.63	565.36
644.078	557.56
644.525	565.66
644.973	581.66
645.42	586.86
645.867	610.36
646.315	623.86
646.762	652.46
647.21	673.46
647.657	699.26
648.104	736.86
648.551	752.36
648.999	830.66
649.446	893.06
649.893	992.06
650.34	1141.86
650.787	1362.66
651.234	1704.96
651.682	2238.96
652.129	3071.76
652.576	4414.96
653.023	6514.46
653.47	8894.06
653.917	11070.16
654.363	12707.36
654.81	14022.26
655.257	13306.46
655.704	8696.16
656.151	5131.66
656.598	3322.16
657.044	2351.56
657.491	1809.06
657.938	1445.56
658.385	1215.66
658.831	1056.66
659.278	934.96
659.724	828.46
660.171	773.06
660.618	702.16
661.064	678.36
661.511	655.06
661.957	646.96
662.404	634.36
662.85	645.56
663.296	605.86
663.743	554.36
664.189	525.36
664.635	522.86
665.082	513.26
665.528	510.86
665.974	505.66
666.42	506.16
666.867	495.36
667.313	483.46
667.759	475.26
668.205	464.96
668.651	472.86
669.097	469.16
669.543	488.76
669.989	459.36
670.435	440.06
670.881	443.56
671.327	434.36
671.773	458.76
672.219	478.06
672.665	533.76
673.11	570.96
673.556	611.96
674.002	646.16
674.448	634.36
674.893	532.56
675.339	458.36
675.785	432.36
676.23	403.56
676.676	381.16
677.122	383.36
677.567	368.56
678.013	365.76
678.458	354.66
678.904	355.26
679.349	342.06
679.794	349.36
680.24	346.96
680.685	344.06
681.131	334.36
681.576	333.96
682.021	337.36
682.466	336.06
682.912	344.26
683.357	348.36
683.802	375.66
684.247	398.86
684.692	432.26
685.137	475.86
685.583	522.06
686.028	536.66
686.473	496.96
686.918	430.96
687.363	406.46
687.807	380.56
688.252	363.36
688.697	344.86
689.142	323.76
689.587	323.76
690.032	314.06
690.477	327.56
690.921	340.96
691.366	372.76
691.811	392.96
692.255	417.66
692.7	452.16
693.145	491.76
693.589	685.66
694.034	1120.56
694.478	1503.66
694.923	1690.56
695.367	2175.46
695.812	1154.56
696.256	481.76
696.701	368.76
697.145	336.66
697.59	323.56
698.034	312.46
698.478	321.46
698.922	317.66
699.367	315.36
699.811	334.26
700.255	352.16
700.699	383.36
701.143	415.36
701.588	464.96
702.032	507.66
702.476	506.36
702.92	479.86
703.364	490.26
703.808	629.56
704.252	1026.06
704.696	1423.46
705.14	1620.06
705.584	2042.36
706.027	1017.36
706.471	510.16
706.915	387.86
707.359	333.86
707.803	311.46
708.246	308.46
708.69	300.56
709.134	307.26
709.577	301.96
710.021	312.56
710.465	303.96
710.908	295.46
711.352	292.86
711.795	297.36
712.239	343.16
712.682	380.36
713.126	406.26
713.569	457.36
714.012	361.96
714.456	310.76
714.899	291.46
715.342	265.86
715.786	256.16
716.229	255.26
716.672	250.66
717.115	246.46
717.558	250.76
718.002	247.16
718.445	257.46
718.888	280.86
719.331	291.16
719.774	300.56
720.217	297.96
720.66	278.56
721.103	259.86
721.546	251.06
721.989	243.96
722.432	235.36
722.874	232.66
723.317	226.36
723.76	233.96
724.203	249.06
724.645	324.16
725.088	443.56
725.531	546.46
725.974	624.96
726.416	525.56
726.859	299.66
727.301	242.46
727.744	242.46
728.187	221.96
728.629	231.46
729.071	236.66
729.514	254.46
729.956	260.16
730.399	273.56
730.841	280.76
731.283	261.96
731.726	258.26
732.168	250.26
732.61	264.76
733.053	272.46
733.495	307.36
733.937	338.76
734.379	396.96
734.821	427.56
735.263	541.66
735.705	840.46
736.148	1566.56
736.59	2527.06
737.032	2928.56
737.474	2389.26
737.916	786.56
738.357	413.26
738.799	317.66
739.241	292.16
739.683	277.26
740.125	288.26
740.567	294.06
741.008	303.16
741.45	301.86
741.892	312.86
742.334	339.46
742.775	351.06
743.217	324.46
743.658	270.06
744.1	253.36
744.542	258.26
744.983	305.86
745.425	338.66
745.866	330.16
746.307	279.86
746.749	278.06
747.19	316.66
747.632	456.46
748.073	887.36
748.514	1854.76
748.956	2783.36
749.397	3485.36
749.838	2876.96
750.279	2847.56
750.72	1444.86
751.162	528.96
751.603	310.86
752.044	242.96
752.485	213.16
752.926	200.16
753.367	195.06
753.808	194.06
754.249	187.66
754.69	180.56
755.131	179.06
755.572	179.56
756.013	179.16
756.453	180.26
756.894	183.96
757.335	178.76
757.776	189.36
758.216	195.46
758.657	196.66
759.098	200.06
759.538	213.26
759.979	258.36
760.42	369.66
760.86	709.96
761.301	1846.06
761.741	4339.86
762.182	6156.26
762.622	4299.36
763.063	1262.96
763.503	528.86
763.943	347.96
764.384	339.96
764.824	397.96
765.264	422.76
765.705	292.76
766.145	209.26
766.585	180.86
767.025	182.36
767.465	186.56
767.906	235.56
768.346	309.46
768.786	327.66
769.226	255.46
769.666	315.86
770.106	622.56
770.546	1551.66
770.986	2536.76
771.426	2273.16
771.866	762.86
772.306	323.16
772.745	213.96
773.185	169.26
773.625	170.56
774.065	166.06
774.505	191.46
774.944	310.96
775.384	681.36
775.824	1188.76
776.263	1147.76
776.703	492.56
777.142	214.46
777.582	161.66
778.021	134.46
778.461	135.76
778.9	135.96
779.34	131.06
779.779	106.26
780.219	106.96
780.658	105.16
781.097	113.66
781.537	110.76
781.976	104.76
782.415	104.66
782.855	110.36
783.294	102.66
783.733	105.26
784.172	104.36
784.611	100.66
785.05	109.46
785.489	110.96
785.928	116.86
786.367	119.76
786.806	117.86
787.245	124.56
787.684	129.46
788.123	142.56
788.562	135.56
789.001	129.56
789.44	119.56
789.879	118.06
790.317	115.56
790.756	123.46
791.195	124.86
791.634	143.56
792.072	203.86
792.511	365.56
792.95	1017.06
793.388	2074.86
793.827	1856.06
794.265	661.26
794.704	276.16
795.142	180.76
795.581	149.56
796.019	127.66
796.458	124.66
796.896	121.26
797.334	124.86
797.773	154.66
798.211	219.06
798.649	439.46
799.087	994.46
799.526	1549.66
799.964	1963.26
800.402	1925.46
800.84	729.16
801.278	295.96
801.716	184.96
802.154	150.16
802.592	144.56
803.03	134.06
803.468	131.76
803.906	136.26
804.344	141.06
804.782	136.56
805.22	129.66
805.658	126.66
806.096	140.16
806.533	152.66
806.971	163.96
807.409	220.16
807.847	310.66
808.284	661.16
808.722	1838.46
809.16	3161.86
809.597	3072.56
810.035	5296.26
810.472	5499.66
810.91	2004.26
811.347	765.56
811.785	391.66
812.222	251.46
812.66	186.66
813.097	155.96
813.535	136.96
813.972	125.56
814.409	118.06
814.846	105.26
815.284	107.26
815.721	96.56
816.158	105.56
816.595	113.96
817.032	167.56
817.47	193.26
817.907	155.36
818.344	143.76
818.781	113.76
819.218	99.36
819.655	120.96
820.092	179.06
820.529	203.96
820.966	172.96
821.403	130.16
821.839	108.76
822.276	100.26
822.713	115.96
823.15	130.16
823.587	113.66
824.023	143.26
824.46	304.16
824.897	886.66
825.333	1299.86
825.77	555.96
826.206	220.56
826.643	129.56
827.08	103.96
827.516	84.96
827.953	76.06
828.389	77.76
828.825	74.36
829.262	69.26
829.698	59.56
830.135	63.66
830.571	65.76
831.007	61.46
831.443	62.96
831.88	62.16
832.316	62.26
832.752	58.06
833.188	62.06
833.624	66.16
834.06	64.16
834.497	67.36
834.933	67.86
835.369	78.86
835.805	62.26
836.241	76.16
836.677	79.46
837.112	93.26
837.548	102.86
837.984	128.86
838.42	195.56
838.856	499.16
839.292	1503.56
839.727	2221.16
840.163	1040.16
840.599	913.16
841.034	1988.96
841.47	2036.26
841.906	748.96
842.341	328.86
842.777	227.06
843.212	310.46
843.648	295.06
844.083	142.06
844.519	89.16
844.954	74.76
845.39	60.56
845.825	58.76
846.261	53.86
846.696	52.16
847.131	51.76
847.566	57.36
848.002	49.86
848.437	50.86
848.872	55.46
849.307	58.26
849.742	86.06
850.177	170.56
850.613	543.36
851.048	848.66
851.483	369.56
851.918	151.66
852.353	83.36
852.788	60.16
853.223	57.06
853.657	53.66
854.092	45.96
854.527	40.06
854.962	44.06
855.397	44.96
855.832	47.46
856.266	44.56
856.701	33.96
857.136	31.56
857.57	39.56
858.005	46.36
858.44	58.96
858.874	37.76
859.309	53.66
859.743	37.26
860.178	42.36
860.612	44.66
861.047	49.36
861.481	68.06
861.915	65.06
862.35	48.06
862.784	34.06
863.218	30.96
863.653	31.66
864.087	47.26
864.521	57.16
864.955	76.26
865.39	151.66
865.824	167.66
866.258	119.36
866.692	156.46
867.126	165.96
867.56	103.46
867.994	54.86
868.428	33.76
868.862	45.36
869.296	52.86
869.73	60.66
870.164	52.36
870.598	48.16
871.031	37.26
871.465	25.66
871.899	30.66
872.333	29.36
872.766	22.36
873.2	23.06
873.634	29.36
874.067	24.96
874.501	26.06
874.935	37.16
875.368	29.96
875.802	24.66
876.235	26.26
876.669	29.36
877.102	23.36
877.535	26.76
877.969	23.36
878.402	21.36
878.836	17.26
879.269	25.46
879.702	23.86
880.135	18.46
880.569	24.66
881.002	28.46
881.435	21.96
881.868	19.96
882.301	21.56
882.734	15.06
883.167	23.96
883.601	19.86
884.034	18.56
884.467	12.46
884.899	17.26
885.332	14.46
885.765	14.66
886.198	13.96
886.631	16.66
887.064	23.66
887.497	19.06
887.929	22.56
888.362	15.56
888.795	11.26
889.228	16.26
889.66	21.06
890.093	17.06
890.526	16.76
890.958	19.16
891.391	17.26
891.823	22.96
892.256	16.26
892.688	14.86
893.121	17.76
893.553	19.36
893.985	22.36
894.418	17.66
894.85	9.36
895.282	11.66
895.715	20.26
896.147	17.06
896.579	16.96
897.011	10.76
897.444	15.56
897.876	20.86
898.308	18.56
898.74	12.96
899.172	16.56
899.604	31.06
900.036	24.36
900.468	15.66
900.9	19.26
901.332	18.26
901.764	14.96
902.196	21.06
902.628	16.46
903.06	16.06
903.491	29.96
903.923	23.36
904.355	19.56
904.787	21.96
905.218	27.56
905.65	20.96
906.082	14.76
906.513	12.96
906.945	16.56
907.376	19.16
907.808	18.56
908.239	23.46
908.671	14.66
909.102	22.36
909.534	27.56
909.965	44.46
910.397	88.26
910.828	308.96
911.259	457.96
911.691	207.56
912.122	108.96
912.553	49.86
912.984	33.16
913.415	21.76
913.847	25.46
914.278	13.76
914.709	11.36
915.14	18.76
915.571	21.46
916.002	13.26
916.433	19.36
916.864	10.36
917.295	14.36
917.726	20.36
918.157	15.36
918.587	23.56
919.018	16.86
919.449	25.36
919.88	22.96
920.311	30.76
920.741	46.96
921.172	166.96
921.603	151.86
922.033	66.86
922.464	40.36
922.895	22.16
923.325	19.46
923.756	17.96
924.186	12.56
924.617	24.86
925.047	40.86
925.478	58.06
925.908	38.26
926.338	30.76
926.769	18.06
927.199	18.86
927.629	6.86
928.06	17.26
928.49	10.96
928.92	13.56
929.35	11.76
929.78	9.56
930.21	7.56
930.641	10.06
931.071	5.46
931.501	5.86
931.931	7.86
932.361	10.06
932.791	5.86
933.221	7.26
933.651	3.36
934.08	19.86
934.51	31.46
934.94	7.06
935.37	12.16
935.8	13.16
936.229	5.86
936.659	14.36
937.089	3.16
937.519	18.26
937.948	27.96
938.378	11.26
938.807	7.76
939.237	6.36
939.666	11.56
940.096	-8.94
940.525	-1.64
940.955	-0.24
941.384	1.36
941.814	-3.94
942.243	-5.44
942.672	2.06
943.102	-6.64
943.531	-2.24
943.96	6.66
944.39	5.06
944.819	4.86
945.248	1.56
945.677	6.96
946.106	7.36
946.535	5.76
946.964	-3.14
947.393	6.86
947.822	1.16
948.251	-6.24
948.68	3.06
949.109	5.26
949.538	10.46
949.967	-1.24
950.396	4.16
950.825	-1.04
951.254	-0.34
951.682	-6.34
952.111	2.56
952.54	2.86
952.969	-3.14
953.397	-2.84
953.826	-3.14
954.254	-7.84
954.683	0.26
955.112	-6.14
955.54	-0.54
955.969	3.06
956.397	4.76
956.826	-1.74
957.254	3.96
957.682	5.06
958.111	-0.74
958.539	4.06
958.967	0.26
959.396	-1.34
959.824	-0.64
960.252	2.46
960.68	-3.34
961.109	-1.54
961.537	-3.64
961.965	-3.94
962.393	-5.64
962.821	-3.54
963.249	-0.94
963.677	4.06
964.105	2.96
964.533	43.96
964.961	33.96
965.389	17.76
965.817	10.66
966.245	1.96
966.672	4.26
967.1	-7.54
967.528	1.76
967.956	-2.44
968.383	2.06
968.811	1.76
969.239	-2.14
969.666	-6.34
970.094	-0.74
970.522	0.96
970.949	-2.34
971.377	-2.84
971.804	0.26
972.232	1.16
972.659	-4.14
973.087	-5.54
973.514	-5.34
973.941	-2.74
974.369	2.36
974.796	6.46
975.223	-0.54
975.651	-1.34
976.078	2.66
976.505	-1.04
976.932	2.06
977.359	18.66
977.786	13.16
978.214	0.96
978.641	-2.64
979.068	-7.34
979.495	-7.94
979.922	-3.74
980.349	-5.04
980.776	-3.54
981.202	0.06
981.629	5.16
982.056	2.46
982.483	-2.84
982.91	0.26
983.337	-7.24
983.763	6.46
984.19	-10.44
984.617	-9.94
985.043	-8.94
985.47	-6.54
985.897	-6.54
986.323	-1.84
986.75	0.96
987.176	3.16
987.603	-4.94
988.029	2.66
988.456	-3.74
988.882	2.76
989.308	-7.94
989.735	-12.64
990.161	2.36
990.587	-6.34
991.014	2.76
991.44	5.56
991.866	-3.84
992.292	-0.04
992.719	-3.24
993.145	4.56
993.571	-7.24
993.997	0.96
994.423	-4.54
994.849	-6.34
995.275	2.16
995.701	2.06
996.127	-3.04
996.553	2.06
996.979	-0.24
997.405	-1.64
997.83	-9.94
998.256	-6.14
998.682	-8.54
999.108	-9.44
999.534	1.46
999.959	2.06
1000.385	-4.64
1000.811	-4.14
1001.236	-5.24
1001.662	-6.14
1002.087	-5.44
1002.513	0.86
1002.938	1.26
1003.364	-0.44
1003.789	-1.04
1004.215	2.56
1004.64	-3.24
1005.066	10.46
1005.491	1.16
1005.916	-1.24
1006.342	-2.44
1006.767	-9.84
1007.192	8.06
1007.617	-5.44
1008.042	-2.94
1008.468	-4.94
1008.893	-3.84
1009.318	-8.14
1009.743	-6.34
1010.168	2.86
1010.593	-0.54
1011.018	-11.74
1011.443	4.46
1011.868	3.46
1012.293	-3.54
1012.718	-4.64
1013.143	-1.24
1013.567	3.06
1013.992	-0.34
1014.417	-11.34
1014.842	0.56
1015.267	-3.34
1015.691	-0.74
1016.116	-0.24
1016.541	4.26
1016.965	6.86
1017.39	1.26
1017.814	3.46
1018.239	-3.74
1018.663	-6.94
1019.088	-12.84
1019.512	-1.44
1019.937	4.06
1020.361	-3.04
1020.785	-13.54
1021.21	-6.54
1021.634	-2.44
1022.058	0.36
1022.483	2.56
1022.907	-7.34
1023.331	-4.14
1023.755	-2.14
1024.179	-0.84
1024.604	-9.64
1025.028	-2.24
1025.452	-0.04
1025.876	-2.04
1026.3	0.16
1026.724	-16.54
1027.148	-12.44
1027.572	-9.44
1027.996	-6.04
1028.42	-0.34
1028.843	-0.44
1029.267	-5.84
1029.691	0.86
1030.115	-3.44
1030.539	-12.44
1030.962	-2.14
1031.386	-11.34
1031.81	-4.34
1032.233	0.66
1032.657	-1.34
1033.08	1.06
1033.504	-0.34
1033.927	0.06
1034.351	1.56
1034.774	-0.64
1035.198	-1.94
1035.621	-1.44
1036.045	-9.04
1036.468	3.06
1036.891	-9.64
1037.315	-5.64
1037.738	-11.24
1038.161	-2.34
1038.584	-5.54
1039.008	-7.34
1039.431	1.96
1039.854	-3.34
1040.277	-4.24
1040.7	-12.34
1041.123	0.06
1041.546	-9.04
1041.969	0.56
1042.392	-6.54
1042.815	-1.34
1043.238	5.06
1043.661	-3.04
1044.084	-8.84
1044.507	-2.54
1044.93	-9.54
1045.352	-4.64
1045.775	-0.44
1046.198	-2.24
1046.621	0.16
1047.043	3.06
1047.466	6.46
1047.889	-1.84
1048.311	-13.34
1048.734	-0.84
1049.156	1.56
1049.579	-6.64
1050.001	-4.24
1050.424	-5.34
1050.846	-2.54
1051.269	-4.24
1051.691	-5.74
1052.113	-2.04
1052.536	2.36
1052.958	-1.44
1053.38	-4.14
1053.802	-4.14
1054.225	0.36
1054.647	-5.74
1055.069	-4.94
1055.491	4.66
1055.913	-7.24
1056.335	-5.04
1056.757	-4.94
1057.179	-6.84
1057.601	-0.44
1058.023	2.96
1058.445	2.46
1058.867	-5.64
1059.289	-2.64
1059.711	-7.14
1060.133	2.26
1060.555	-5.44
1060.976	-6.54
1061.398	-10.44
1061.82	-14.04
1062.241	-10.34
1062.663	-6.44
1063.085	-4.74
1063.506	-3.34
1063.928	-1.34
1064.35	-4.34
1064.771	-15.34
1065.193	-5.14
1065.614	-5.94
1066.035	-2.94
1066.457	-4.44
1066.878	1.16
1067.3	2.66
1067.721	-2.64
1068.142	-3.64
1068.564	-4.34
1068.985	-1.94
1069.406	-5.64
1069.827	-2.74
1070.248	1.86
1070.67	-7.34
1071.091	-2.24
1071.512	-2.14
1071.933	-5.94
1072.354	-7.64
1072.775	-6.94
1073.196	-8.44
1073.617	-1.94
1074.038	-7.54
1074.459	1.26
1074.88	-4.64
1075.3	1.56
1075.721	-8.94
1076.142	4.06
1076.563	-0.84
1076.983	-10.24
1077.404	-2.54
1077.825	-7.04
1078.246	-2.24
1078.666	-4.04
1079.087	-1.04
1079.507	-8.54
1079.928	6.56
1080.348	-3.64
1080.769	-5.44
1081.189	-1.84
1081.61	-1.04
1082.03	-4.94
1082.451	-5.64
1082.871	-6.74
1083.291	-9.64
1083.711	-9.14
1084.132	-8.24
1084.552	-2.24
1084.972	-6.84
1085.392	-9.44
1085.813	-8.44
1086.233	-4.24
1086.653	-4.04
1087.073	-1.14
1087.493	-5.54
1087.913	-4.44
1088.333	-9.64
1088.753	-3.94
1089.173	1.86
1089.593	-4.34
1090.013	-0.44
1090.433	-3.74
1090.852	-3.04
1091.272	-0.54
1091.692	-4.64
1092.112	-1.04
1092.531	-7.84
1092.951	-12.34
1093.371	-0.94
1093.79	1.26
1094.21	-2.34
1094.63	-7.04
1095.049	-5.54
1095.469	-0.34
1095.888	-2.24
1096.308	-0.74
1096.727	4.96
1097.146	-4.24
1097.566	6.16
1097.985	-6.14
1098.405	-6.54
1098.824	-6.84
1099.243	-9.94
1099.662	-9.64
1100.082	-3.24
1100.501	-4.84
1100.92	-2.54
1101.339	-4.84
1101.758	-8.84
