Data from 20171114-ORNL-Ar_H_NY_Subt18_08-05-38-423.txt Node
Date: Tue Nov 14 08:05:38 EST 2017
User: Ender
Spectrometer: HR+D1039
Trigger mode: 0
Integration Time (sec): 2.730000E-2
Scans to average: 10
Electric dark correction enabled: true
Nonlinearity correction enabled: false
Boxcar width: 0
XAxis mode: Wavelengths
Number of Pixels in Spectrum: 2048
>>>>>Begin Spectral Data<<<<<
187.836	0.51
188.309	0.51
188.782	0.51
189.255	0.41
189.728	-3.89
190.201	8.41
190.674	-3.69
191.147	2.51
191.619	-10.19
192.092	-1.79
192.565	1.61
193.038	3.91
193.511	-0.19
193.984	0.61
194.456	-2.79
194.929	2.31
195.402	4.21
195.874	-1.89
196.347	-0.39
196.82	-0.19
197.292	3.11
197.765	-1.59
198.237	-7.99
198.71	5.11
199.182	-9.79
199.655	2.91
200.127	-1.69
200.6	-1.39
201.072	-5.29
201.544	-2.09
202.017	-0.49
202.489	3.71
202.961	-2.09
203.433	-6.29
203.906	-9.49
204.378	-11.19
204.85	-4.29
205.322	-10.79
205.794	-2.19
206.266	-9.09
206.739	-5.09
207.211	-0.99
207.683	-6.09
208.155	-4.09
208.627	-5.39
209.099	1.21
209.57	-10.19
210.042	-8.89
210.514	-6.19
210.986	-4.09
211.458	-11.99
211.93	-5.19
212.402	0.21
212.873	-13.79
213.345	-1.99
213.817	-11.19
214.288	-0.39
214.76	-7.69
215.232	3.01
215.703	-1.69
216.175	-5.49
216.646	-3.39
217.118	-3.49
217.589	-5.39
218.061	0.61
218.532	-3.89
219.004	-1.39
219.475	-3.89
219.946	-0.59
220.418	-3.69
220.889	8.21
221.36	-3.59
221.832	-1.59
222.303	-5.29
222.774	7.71
223.245	-7.89
223.717	-5.39
224.188	-8.99
224.659	-7.99
225.13	-8.79
225.601	-3.69
226.072	-1.99
226.543	-3.29
227.014	0.51
227.485	-6.99
227.956	-4.49
228.427	0.71
228.898	-0.89
229.369	6.91
229.839	-1.89
230.31	-4.89
230.781	2.71
231.252	-0.59
231.722	-12.69
232.193	-2.89
232.664	0.01
233.135	-0.89
233.605	-0.69
234.076	-7.09
234.546	-0.69
235.017	-1.69
235.487	-0.99
235.958	2.31
236.428	2.11
236.899	6.41
237.369	5.11
237.84	-1.79
238.31	5.01
238.78	5.31
239.251	1.71
239.721	9.41
240.191	0.41
240.662	-4.89
241.132	0.71
241.602	-3.79
242.072	5.81
242.542	7.11
243.013	3.51
243.483	0.71
243.953	2.01
244.423	-6.29
244.893	-3.19
245.363	2.41
245.833	0.01
246.303	-7.29
246.773	7.01
247.243	3.71
247.712	1.81
248.182	9.21
248.652	6.41
249.122	2.41
249.592	9.91
250.061	16.01
250.531	33.91
251.001	12.91
251.471	20.21
251.94	15.31
252.41	12.11
252.879	-2.09
253.349	9.51
253.818	11.91
254.288	9.51
254.757	4.81
255.227	3.41
255.696	5.81
256.166	6.71
256.635	12.61
257.105	8.31
257.574	5.51
258.043	2.51
258.513	11.61
258.982	13.11
259.451	6.21
259.92	15.91
260.389	8.41
260.859	15.61
261.328	5.21
261.797	22.51
262.266	11.61
262.735	15.41
263.204	-0.69
263.673	-1.39
264.142	7.41
264.611	-0.29
265.08	4.61
265.549	-7.99
266.018	6.11
266.487	-3.79
266.955	-2.19
267.424	-2.89
267.893	9.11
268.362	5.51
268.83	-2.39
269.299	16.81
269.768	3.81
270.236	14.31
270.705	8.11
271.174	7.41
271.642	8.81
272.111	6.51
272.579	15.31
273.048	26.81
273.516	31.31
273.985	29.61
274.453	22.21
274.922	12.51
275.39	13.11
275.858	3.21
276.327	8.01
276.795	16.71
277.263	10.91
277.731	29.41
278.2	55.41
278.668	64.41
279.136	47.61
279.604	18.01
280.072	15.41
280.54	11.11
281.008	16.51
281.477	14.51
281.945	16.11
282.413	12.71
282.881	17.81
283.348	0.81
283.816	17.61
284.284	12.11
284.752	26.21
285.22	11.41
285.688	15.51
286.156	23.01
286.623	43.41
287.091	50.81
287.559	30.61
288.026	24.31
288.494	17.91
288.962	11.41
289.429	10.81
289.897	21.51
290.364	19.71
290.832	13.81
291.3	17.51
291.767	15.51
292.234	19.51
292.702	14.81
293.169	23.91
293.637	23.31
294.104	23.21
294.571	10.61
295.039	14.71
295.506	16.81
295.973	14.71
296.44	14.51
296.908	18.51
297.375	18.61
297.842	20.21
298.309	23.61
298.776	16.61
299.243	19.51
299.71	14.81
300.177	23.71
300.644	21.51
301.111	16.61
301.578	19.41
302.045	16.01
302.512	28.31
302.979	24.81
303.446	19.21
303.913	27.31
304.379	16.41
304.846	33.01
305.313	29.61
305.78	26.81
306.246	22.41
306.713	28.51
307.18	26.21
307.646	29.71
308.113	29.21
308.579	27.51
309.046	31.21
309.512	24.01
309.979	16.91
310.445	25.41
310.912	32.91
311.378	40.21
311.845	30.41
312.311	32.11
312.777	29.01
313.244	34.41
313.71	38.41
314.176	34.71
314.642	33.81
315.109	33.21
315.575	39.11
316.041	39.91
316.507	36.01
316.973	36.91
317.439	32.51
317.905	35.51
318.371	41.21
318.837	36.21
319.303	42.11
319.769	36.31
320.235	39.11
320.701	35.11
321.167	37.61
321.633	35.01
322.099	39.21
322.564	49.91
323.03	37.91
323.496	40.41
323.962	46.71
324.427	40.91
324.893	36.41
325.359	38.21
325.824	39.41
326.29	38.91
326.755	37.61
327.221	39.41
327.686	43.91
328.152	49.01
328.617	43.41
329.083	49.71
329.548	51.51
330.014	46.21
330.479	43.11
330.944	50.81
331.41	46.81
331.875	49.01
332.34	43.31
332.805	43.71
333.271	47.51
333.736	47.11
334.201	59.01
334.666	50.81
335.131	59.01
335.596	49.51
336.061	58.31
336.526	43.31
336.991	49.81
337.456	60.31
337.921	55.71
338.386	48.51
338.851	44.91
339.316	52.61
339.781	52.71
340.246	54.91
340.711	47.41
341.175	58.01
341.64	45.41
342.105	51.21
342.569	54.71
343.034	61.71
343.499	59.71
343.963	55.21
344.428	69.61
344.893	63.81
345.357	65.41
345.822	62.91
346.286	69.91
346.751	75.51
347.215	74.11
347.679	78.41
348.144	97.81
348.608	85.41
349.073	69.41
349.537	75.21
350.001	83.81
350.465	89.91
350.93	80.51
351.394	86.21
351.858	73.51
352.322	92.21
352.786	86.61
353.25	105.91
353.715	114.21
354.179	103.21
354.643	122.41
355.107	133.41
355.571	107.71
356.035	103.11
356.498	116.11
356.962	126.81
357.426	128.01
357.89	123.51
358.354	90.41
358.818	86.21
359.281	76.91
359.745	75.21
360.209	78.21
360.673	72.81
361.136	80.11
361.6	88.21
362.064	87.31
362.527	87.11
362.991	92.11
363.454	83.11
363.918	78.11
364.381	86.01
364.845	81.51
365.308	88.71
365.772	92.61
366.235	86.41
366.698	88.31
367.162	90.01
367.625	86.71
368.088	88.31
368.552	86.41
369.015	87.21
369.478	99.71
369.941	103.61
370.404	91.21
370.867	101.81
371.331	108.51
371.794	114.41
372.257	115.01
372.72	124.81
373.183	112.41
373.646	105.51
374.109	105.81
374.572	105.91
375.035	107.71
375.497	106.61
375.96	102.41
376.423	105.51
376.886	113.41
377.349	107.11
377.811	101.91
378.274	110.31
378.737	103.61
379.199	114.31
379.662	113.01
380.125	117.51
380.587	118.01
381.05	122.01
381.512	125.41
381.975	137.61
382.437	126.71
382.9	125.61
383.362	132.01
383.825	141.21
384.287	144.91
384.75	139.81
385.212	140.11
385.674	138.71
386.136	132.51
386.599	121.91
387.061	128.41
387.523	125.01
387.985	135.81
388.447	147.41
388.91	142.01
389.372	154.91
389.834	148.71
390.296	143.71
390.758	150.21
391.22	176.51
391.682	207.51
392.144	296.21
392.606	224.81
393.068	168.91
393.529	165.31
393.991	155.11
394.453	154.31
394.915	157.81
395.377	190.11
395.838	204.21
396.3	155.31
396.762	138.11
397.224	134.81
397.685	130.21
398.147	129.21
398.608	125.41
399.07	126.11
399.531	135.11
399.993	142.91
400.454	163.91
400.916	148.81
401.377	143.01
401.839	151.91
402.3	150.61
402.762	165.91
403.223	182.81
403.684	173.91
404.145	157.11
404.607	164.21
405.068	157.01
405.529	172.51
405.99	198.51
406.451	180.81
406.913	177.41
407.374	166.61
407.835	162.21
408.296	160.21
408.757	173.41
409.218	184.01
409.679	185.21
410.14	169.01
410.601	177.31
411.062	186.11
411.522	193.41
411.983	190.01
412.444	174.71
412.905	181.41
413.366	173.61
413.826	197.81
414.287	222.81
414.748	258.41
415.208	239.41
415.669	209.31
416.13	206.31
416.59	207.01
417.051	209.61
417.511	214.21
417.972	229.01
418.432	243.21
418.893	286.71
419.353	252.51
419.814	199.81
420.274	182.41
420.734	180.21
421.195	201.11
421.655	195.01
422.115	194.01
422.576	190.61
423.036	194.51
423.496	202.01
423.956	214.61
424.416	236.01
424.876	263.51
425.336	264.11
425.797	257.91
426.257	259.51
426.717	244.41
427.177	231.11
427.637	218.31
428.097	237.01
428.556	240.61
429.016	276.01
429.476	269.51
429.936	276.11
430.396	281.91
430.856	293.01
431.315	317.01
431.775	354.71
432.235	377.51
432.694	351.61
433.154	356.31
433.614	397.61
434.073	341.01
434.533	284.81
434.993	262.61
435.452	291.61
435.912	302.41
436.371	290.91
436.83	284.41
437.29	271.11
437.749	252.41
438.209	248.11
438.668	273.61
439.127	285.61
439.587	269.11
440.046	244.71
440.505	270.11
440.964	282.51
441.424	331.31
441.883	313.61
442.342	258.11
442.801	228.91
443.26	220.91
443.719	227.41
444.178	216.81
444.637	213.01
445.096	217.51
445.555	221.01
446.014	224.21
446.473	227.41
446.932	230.01
447.391	228.31
447.849	228.01
448.308	222.71
448.767	229.51
449.226	240.21
449.685	238.01
450.143	249.31
450.602	237.71
451.061	230.51
451.519	234.71
451.978	234.91
452.436	234.61
452.895	237.61
453.353	253.11
453.812	241.41
454.27	241.91
454.729	237.31
455.187	240.41
455.646	241.61
456.104	245.61
456.562	261.91
457.021	270.01
457.479	257.11
457.937	276.11
458.395	269.51
458.854	247.71
459.312	258.21
459.77	273.01
460.228	261.01
460.686	249.61
461.144	256.11
461.602	246.31
462.06	247.31
462.518	255.31
462.976	250.81
463.434	256.51
463.892	263.11
464.35	280.01
464.808	286.41
465.266	271.41
465.724	268.01
466.181	271.41
466.639	269.01
467.097	290.21
467.555	301.21
468.012	307.01
468.47	307.11
468.928	326.81
469.385	338.51
469.843	354.01
470.3	352.31
470.758	365.51
471.215	388.51
471.673	408.21
472.13	415.11
472.588	419.91
473.045	383.01
473.503	379.21
473.96	397.41
474.417	398.71
474.875	442.31
475.332	477.11
475.789	472.71
476.246	479.31
476.704	493.01
477.161	511.81
477.618	534.01
478.075	550.41
478.532	620.11
478.989	700.91
479.446	814.71
479.903	786.61
480.36	809.41
480.817	871.91
481.274	975.81
481.731	1096.71
482.188	1159.81
482.645	1311.01
483.102	1412.11
483.558	1554.61
484.015	1606.21
484.472	1595.61
484.929	1529.11
485.385	1482.71
485.842	1452.71
486.299	1378.51
486.755	1314.61
487.212	1102.91
487.668	933.71
488.125	859.21
488.582	787.61
489.038	758.41
489.494	722.71
489.951	700.81
490.407	678.31
490.864	655.81
491.32	648.11
491.776	659.71
492.233	657.01
492.689	613.31
493.145	614.81
493.602	605.11
494.058	619.51
494.514	628.21
494.97	635.31
495.426	649.81
495.882	619.01
496.338	617.91
496.794	627.71
497.251	634.71
497.707	642.81
498.163	644.81
498.618	655.41
499.074	654.31
499.53	674.61
499.986	687.01
500.442	662.31
500.898	638.01
501.354	627.31
501.809	646.51
502.265	648.31
502.721	659.11
503.177	677.21
503.632	669.61
504.088	677.11
504.543	714.01
504.999	725.11
505.455	661.81
505.91	645.71
506.366	641.31
506.821	637.61
507.277	627.11
507.732	633.11
508.187	634.61
508.643	638.91
509.098	643.51
509.553	663.21
510.009	663.71
510.464	675.81
510.919	689.21
511.375	707.11
511.83	718.31
512.285	734.11
512.74	764.81
513.195	795.31
513.65	780.51
514.105	780.81
514.56	783.31
515.015	803.21
515.47	819.01
515.925	800.01
516.38	804.21
516.835	803.91
517.29	797.91
517.745	781.81
518.2	770.01
518.655	752.51
519.109	752.71
519.564	742.61
520.019	735.71
520.474	734.91
520.928	738.51
521.383	732.81
521.838	731.11
522.292	710.21
522.747	710.91
523.201	719.81
523.656	700.51
524.11	696.01
524.565	695.31
525.019	692.71
525.474	711.21
525.928	714.71
526.382	700.51
526.837	697.91
527.291	703.11
527.745	707.41
528.2	697.61
528.654	698.11
529.108	685.91
529.562	701.01
530.016	701.51
530.47	694.01
530.925	712.21
531.379	705.41
531.833	709.81
532.287	705.91
532.741	717.31
533.195	716.81
533.649	716.61
534.103	730.21
534.556	716.91
535.01	712.61
535.464	711.31
535.918	731.51
536.372	720.81
536.826	726.61
537.279	717.31
537.733	715.11
538.187	721.31
538.64	721.51
539.094	731.11
539.548	734.91
540.001	724.11
540.455	719.81
540.908	744.01
541.362	730.11
541.815	748.91
542.269	764.41
542.722	755.61
543.175	772.61
543.629	782.91
544.082	795.81
544.536	791.11
544.989	789.11
545.442	794.11
545.895	784.41
546.349	782.51
546.802	798.91
547.255	793.61
547.708	805.21
548.161	819.21
548.614	825.31
549.067	832.91
549.52	821.61
549.973	806.21
550.426	809.41
550.879	796.61
551.332	803.81
551.785	814.11
552.238	823.51
552.691	814.41
553.144	832.81
553.596	846.91
554.049	865.71
554.502	890.51
554.955	917.81
555.407	914.51
555.86	925.11
556.313	897.61
556.765	883.81
557.218	892.61
557.67	884.41
558.123	882.31
558.576	890.31
559.028	885.01
559.48	885.71
559.933	871.81
560.385	850.11
560.838	817.81
561.29	784.61
561.742	780.51
562.195	776.71
562.647	762.41
563.099	777.51
563.551	760.21
564.004	795.01
564.456	767.51
564.908	764.91
565.36	746.41
565.812	728.41
566.264	733.21
566.716	727.51
567.168	722.71
567.62	715.71
568.072	706.01
568.524	699.21
568.976	683.11
569.428	676.01
569.88	670.21
570.332	685.31
570.784	683.61
571.235	688.51
571.687	693.11
572.139	703.01
572.59	722.61
573.042	711.61
573.494	711.91
573.945	700.91
574.397	687.21
574.849	687.11
575.3	694.11
575.752	677.81
576.203	671.81
576.655	684.11
577.106	674.31
577.557	660.21
578.009	663.71
578.46	668.71
578.912	665.31
579.363	667.61
579.814	670.41
580.265	663.31
580.717	669.81
581.168	671.71
581.619	677.21
582.07	673.91
582.521	674.71
582.972	661.81
583.423	663.91
583.875	683.21
584.326	707.61
584.777	743.81
585.227	807.91
585.678	890.51
586.129	980.71
586.58	1044.71
587.031	1131.71
587.482	1278.41
587.933	1448.21
588.384	1254.11
588.834	961.71
589.285	801.81
589.736	785.51
590.186	778.21
590.637	767.61
591.088	737.61
591.538	730.31
591.989	726.41
592.439	706.71
592.89	714.71
593.34	709.61
593.791	712.41
594.241	698.61
594.692	699.21
595.142	697.91
595.593	696.71
596.043	703.91
596.493	704.41
596.943	703.21
597.394	709.31
597.844	707.21
598.294	728.41
598.744	742.81
599.195	768.61
599.645	808.31
600.095	848.51
600.545	902.21
600.995	961.01
601.445	1014.31
601.895	1086.41
602.345	1116.01
602.795	1106.01
603.245	1053.51
603.695	1006.91
604.145	946.01
604.594	900.01
605.044	849.31
605.494	791.11
605.944	736.41
606.393	731.41
606.843	714.21
607.293	719.41
607.743	724.41
608.192	739.21
608.642	750.01
609.091	756.21
609.541	762.91
609.99	755.81
610.44	758.11
610.889	713.81
611.339	684.51
611.788	679.51
612.238	687.01
612.687	704.71
613.136	707.21
613.586	721.21
614.035	720.21
614.484	750.41
614.933	744.81
615.383	737.21
615.832	724.81
616.281	713.71
616.73	674.91
617.179	653.31
617.628	634.31
618.077	622.51
618.526	611.01
618.975	606.51
619.424	606.81
619.873	610.01
620.322	612.91
620.771	594.11
621.22	593.11
621.669	588.41
622.118	580.51
622.567	576.61
623.015	564.51
623.464	561.41
623.913	556.51
624.361	538.91
624.81	541.81
625.259	540.71
625.707	545.31
626.156	546.21
626.604	543.11
627.053	545.71
627.501	549.31
627.95	552.61
628.398	573.11
628.847	556.71
629.295	555.81
629.744	565.71
630.192	556.71
630.64	563.21
631.089	548.41
631.537	557.41
631.985	570.71
632.433	579.51
632.881	591.41
633.33	635.61
633.778	627.01
634.226	552.91
634.674	556.51
635.122	557.51
635.57	568.71
636.018	610.11
636.466	570.81
636.914	550.11
637.362	553.91
637.81	563.51
638.258	564.61
638.705	557.51
639.153	594.01
639.601	604.01
640.049	627.51
640.497	649.41
640.944	680.71
641.392	637.11
641.84	606.81
642.287	572.41
642.735	557.51
643.182	553.81
643.63	552.51
644.078	561.71
644.525	575.61
644.973	586.21
645.42	587.61
645.867	610.41
646.315	615.41
646.762	653.21
647.21	665.01
647.657	698.41
648.104	727.91
648.551	749.11
648.999	825.61
649.446	896.01
649.893	977.41
650.34	1131.71
650.787	1349.71
651.234	1658.11
651.682	2177.21
652.129	2977.81
652.576	4261.91
653.023	6310.51
653.47	8651.71
653.917	10904.51
654.363	12624.31
654.81	14053.71
655.257	13386.81
655.704	8735.01
656.151	5167.51
656.598	3357.31
657.044	2365.91
657.491	1795.91
657.938	1453.91
658.385	1216.21
658.831	1060.31
659.278	936.61
659.724	827.81
660.171	766.41
660.618	712.51
661.064	665.41
661.511	647.31
661.957	642.61
662.404	616.51
662.85	636.61
663.296	606.51
663.743	545.91
664.189	520.11
664.635	514.21
665.082	509.71
665.528	500.41
665.974	501.11
666.42	495.61
666.867	496.01
667.313	475.71
667.759	464.91
668.205	458.61
668.651	457.11
669.097	473.61
669.543	478.11
669.989	455.11
670.435	436.71
670.881	437.41
671.327	435.01
671.773	449.71
672.219	472.91
672.665	528.11
673.11	563.31
673.556	608.41
674.002	654.11
674.448	635.41
674.893	528.41
675.339	450.91
675.785	435.21
676.23	405.01
676.676	380.21
677.122	372.31
677.567	353.11
678.013	355.11
678.458	346.01
678.904	356.21
679.349	341.11
679.794	340.11
680.24	341.41
680.685	340.21
681.131	339.21
681.576	336.11
682.021	345.01
682.466	331.71
682.912	335.81
683.357	334.21
683.802	361.71
684.247	388.21
684.692	439.21
685.137	475.61
685.583	520.31
686.028	542.91
686.473	495.01
686.918	424.61
687.363	412.51
687.807	384.91
688.252	350.41
688.697	342.21
689.142	328.91
689.587	316.21
690.032	315.71
690.477	326.71
690.921	336.21
691.366	361.71
691.811	391.71
692.255	416.91
692.7	449.21
693.145	481.11
693.589	655.31
694.034	1071.61
694.478	1471.91
694.923	1670.41
695.367	2199.21
695.812	1156.41
696.256	476.21
696.701	352.11
697.145	325.81
697.59	321.61
698.034	318.71
698.478	312.21
698.922	311.51
699.367	318.01
699.811	329.01
700.255	343.91
700.699	367.81
701.143	408.31
701.588	457.41
702.032	497.61
702.476	495.51
702.92	476.61
703.364	466.51
703.808	606.11
704.252	977.21
704.696	1384.81
705.14	1610.91
705.584	2066.01
706.027	1030.51
706.471	491.11
706.915	381.81
707.359	333.01
707.803	310.11
708.246	296.41
708.69	300.21
709.134	295.91
709.577	303.01
710.021	307.01
710.465	295.21
710.908	289.71
711.352	289.11
711.795	297.61
712.239	338.21
712.682	373.01
713.126	403.91
713.569	450.51
714.012	363.51
714.456	302.31
714.899	285.31
715.342	263.01
715.786	258.71
716.229	248.71
716.672	252.31
717.115	234.61
717.558	245.31
718.002	239.21
718.445	246.71
718.888	283.21
719.331	273.71
719.774	297.11
720.217	292.51
720.66	279.01
721.103	258.71
721.546	251.91
721.989	244.11
722.432	231.61
722.874	225.81
723.317	220.41
723.76	231.11
724.203	246.71
724.645	303.21
725.088	425.11
725.531	540.81
725.974	619.21
726.416	528.11
726.859	296.11
727.301	242.31
727.744	234.51
728.187	223.31
728.629	237.31
729.071	226.21
729.514	245.71
729.956	262.11
730.399	268.21
730.841	274.51
731.283	257.11
731.726	256.31
732.168	245.91
732.61	256.91
733.053	275.81
733.495	303.91
733.937	336.41
734.379	381.31
734.821	413.61
735.263	515.41
735.705	794.01
736.148	1463.61
736.59	2449.01
737.032	2956.01
737.474	2413.21
737.916	771.21
738.357	403.11
738.799	311.81
739.241	290.71
739.683	264.61
740.125	288.31
740.567	283.21
741.008	296.91
741.45	311.41
741.892	302.61
742.334	329.31
742.775	338.91
743.217	324.01
743.658	255.81
744.1	243.91
744.542	252.01
744.983	294.71
745.425	332.91
745.866	332.31
746.307	272.51
746.749	271.81
747.19	315.91
747.632	430.51
748.073	817.21
748.514	1749.71
748.956	2723.01
749.397	3409.71
749.838	2823.21
750.279	2867.91
750.72	1436.91
751.162	520.81
751.603	310.41
752.044	238.71
752.485	207.51
752.926	199.11
753.367	193.21
753.808	185.41
754.249	183.61
754.69	175.91
755.131	173.51
755.572	176.71
756.013	172.31
756.453	177.11
756.894	175.11
757.335	184.71
757.776	188.81
758.216	184.71
758.657	193.11
759.098	189.31
759.538	208.71
759.979	251.81
760.42	361.01
760.86	643.91
761.301	1694.01
761.741	4162.11
762.182	6238.51
762.622	4404.51
763.063	1261.31
763.503	513.31
763.943	327.81
764.384	321.31
764.824	372.51
765.264	415.91
765.705	290.61
766.145	207.01
766.585	182.91
767.025	175.21
767.465	173.71
767.906	223.71
768.346	292.91
768.786	319.21
769.226	256.21
769.666	297.71
770.106	567.41
770.546	1450.61
770.986	2531.91
771.426	2280.01
771.866	761.11
772.306	310.91
772.745	195.81
773.185	171.81
773.625	159.31
774.065	151.51
774.505	186.11
774.944	281.41
775.384	610.31
775.824	1139.51
776.263	1122.71
776.703	471.91
777.142	212.41
777.582	147.11
778.021	132.81
778.461	133.91
778.9	133.21
779.34	129.41
779.779	112.11
780.219	105.31
780.658	103.11
781.097	102.31
781.537	110.51
781.976	108.51
782.415	99.11
782.855	99.91
783.294	97.51
783.733	102.21
784.172	103.61
784.611	98.81
785.05	109.11
785.489	99.11
785.928	111.61
786.367	118.11
786.806	114.11
787.245	125.81
787.684	129.31
788.123	140.51
788.562	125.81
789.001	120.21
789.44	113.81
789.879	116.61
790.317	110.21
790.756	117.91
791.195	113.51
791.634	133.01
792.072	197.31
792.511	340.41
792.95	936.51
793.388	2034.51
793.827	1864.31
794.265	653.61
794.704	269.81
795.142	176.81
795.581	142.11
796.019	135.21
796.458	111.11
796.896	111.01
797.334	124.01
797.773	152.51
798.211	197.61
798.649	410.81
799.087	954.61
799.526	1520.11
799.964	1909.61
800.402	1949.31
800.84	719.41
801.278	285.61
801.716	180.01
802.154	148.01
802.592	139.41
803.03	128.11
803.468	127.81
803.906	135.91
804.344	145.11
804.782	131.21
805.22	129.71
805.658	116.41
806.096	141.21
806.533	152.01
806.971	167.31
807.409	210.41
807.847	297.31
808.284	617.91
808.722	1744.41
809.16	3145.01
809.597	2932.71
810.035	5131.81
810.472	5631.71
810.91	2008.81
811.347	755.71
811.785	392.81
812.222	254.71
812.66	190.01
813.097	159.61
813.535	139.31
813.972	116.71
814.409	115.81
814.846	106.71
815.284	109.51
815.721	96.51
816.158	103.41
816.595	108.71
817.032	168.81
817.47	192.21
817.907	164.01
818.344	143.61
818.781	112.51
819.218	101.41
819.655	115.41
820.092	174.81
820.529	201.61
820.966	174.21
821.403	125.31
821.839	107.21
822.276	100.91
822.713	114.41
823.15	130.21
823.587	109.31
824.023	135.61
824.46	277.71
824.897	848.41
825.333	1312.81
825.77	562.11
826.206	212.31
826.643	129.81
827.08	96.61
827.516	81.31
827.953	76.81
828.389	74.81
828.825	67.51
829.262	67.51
829.698	61.31
830.135	65.51
830.571	56.51
831.007	60.71
831.443	59.21
831.88	64.91
832.316	64.01
832.752	62.81
833.188	60.51
833.624	60.01
834.06	68.01
834.497	58.71
834.933	73.71
835.369	72.41
835.805	62.01
836.241	69.71
836.677	75.11
837.112	79.21
837.548	92.91
837.984	127.41
838.42	183.81
838.856	461.01
839.292	1416.21
839.727	2223.51
840.163	1018.81
840.599	869.41
841.034	1918.61
841.47	2047.51
841.906	744.91
842.341	322.41
842.777	215.71
843.212	300.61
843.648	297.01
844.083	143.81
844.519	93.01
844.954	73.41
845.39	58.11
845.825	58.91
846.261	52.71
846.696	54.91
847.131	50.01
847.566	56.31
848.002	50.81
848.437	55.61
848.872	58.21
849.307	58.11
849.742	82.71
850.177	174.31
850.613	528.01
851.048	840.51
851.483	358.01
851.918	142.11
852.353	79.51
852.788	57.61
853.223	53.51
853.657	57.61
854.092	40.81
854.527	37.31
854.962	32.71
855.397	40.61
855.832	48.81
856.266	40.11
856.701	34.91
857.136	36.21
857.57	37.11
858.005	41.71
858.44	55.21
858.874	39.21
859.309	54.21
859.743	36.01
860.178	39.81
860.612	36.31
861.047	53.21
861.481	59.11
861.915	67.71
862.35	48.21
862.784	31.91
863.218	35.41
863.653	32.21
864.087	48.31
864.521	51.01
864.955	71.61
865.39	143.01
865.824	169.61
866.258	110.11
866.692	154.31
867.126	168.71
867.56	94.51
867.994	48.01
868.428	32.21
868.862	49.61
869.296	57.51
869.73	56.11
870.164	44.41
870.598	50.31
871.031	36.61
871.465	28.31
871.899	30.71
872.333	19.31
872.766	20.61
873.2	23.21
873.634	26.81
874.067	27.11
874.501	27.31
874.935	36.81
875.368	29.21
875.802	26.71
876.235	20.81
876.669	22.61
877.102	21.51
877.535	30.71
877.969	16.51
878.402	16.11
878.836	18.21
879.269	16.61
879.702	22.01
880.135	17.91
880.569	20.31
881.002	22.51
881.435	17.31
881.868	17.21
882.301	20.11
882.734	15.01
883.167	16.21
883.601	24.31
884.034	20.01
884.467	11.81
884.899	15.71
885.332	18.81
885.765	14.71
886.198	14.61
886.631	17.71
887.064	17.91
887.497	20.01
887.929	20.31
888.362	14.81
888.795	8.11
889.228	18.21
889.66	15.91
890.093	9.71
890.526	17.01
890.958	20.51
891.391	19.41
891.823	22.31
892.256	12.91
892.688	9.41
893.121	15.91
893.553	17.21
893.985	21.61
894.418	17.31
894.85	11.41
895.282	17.61
895.715	11.21
896.147	15.81
896.579	16.91
897.011	11.81
897.444	14.91
897.876	14.71
898.308	17.41
898.74	14.71
899.172	12.41
899.604	18.21
900.036	19.71
900.468	12.51
900.9	13.91
901.332	11.51
901.764	7.91
902.196	20.41
902.628	19.01
903.06	13.61
903.491	21.21
903.923	21.81
904.355	24.81
904.787	23.81
905.218	19.11
905.65	17.41
906.082	12.01
906.513	7.61
906.945	17.91
907.376	9.41
907.808	18.41
908.239	19.81
908.671	19.51
909.102	13.11
909.534	19.01
909.965	44.31
910.397	83.41
910.828	298.81
911.259	455.71
911.691	211.71
912.122	99.41
912.553	55.21
912.984	36.31
913.415	22.61
913.847	24.31
914.278	17.51
914.709	15.91
915.14	17.31
915.571	14.11
916.002	8.71
916.433	21.21
916.864	13.21
917.295	7.01
917.726	22.31
918.157	10.11
918.587	31.81
919.018	14.81
919.449	20.01
919.88	22.11
920.311	32.01
920.741	44.21
921.172	160.41
921.603	148.21
922.033	68.31
922.464	43.51
922.895	22.41
923.325	21.31
923.756	10.91
924.186	9.71
924.617	23.91
925.047	40.41
925.478	43.91
925.908	42.21
926.338	22.11
926.769	17.31
927.199	18.81
927.629	7.11
928.06	15.01
928.49	8.81
928.92	14.81
929.35	11.51
929.78	10.71
930.21	8.71
930.641	5.31
931.071	6.71
931.501	2.11
931.931	15.91
932.361	11.61
932.791	6.11
933.221	0.51
933.651	1.91
934.08	15.51
934.51	25.81
934.94	15.31
935.37	7.61
935.8	5.41
936.229	4.31
936.659	12.81
937.089	1.91
937.519	16.51
937.948	21.81
938.378	20.01
938.807	7.51
939.237	0.21
939.666	9.91
940.096	-6.79
940.525	1.01
940.955	2.41
941.384	2.91
941.814	-0.79
942.243	4.41
942.672	5.51
943.102	-4.39
943.531	3.11
943.96	2.21
944.39	2.71
944.819	-5.99
945.248	1.31
945.677	4.01
946.106	1.21
946.535	7.01
946.964	-2.99
947.393	2.41
947.822	-0.69
948.251	-4.49
948.68	-2.59
949.109	2.81
949.538	3.21
949.967	-1.99
950.396	1.31
950.825	-1.49
951.254	5.31
951.682	-9.99
952.111	7.11
952.54	-3.19
952.969	0.71
953.397	-5.79
953.826	0.41
954.254	-4.79
954.683	-5.59
955.112	-3.89
955.54	2.31
955.969	1.91
956.397	-1.39
956.826	-4.29
957.254	1.51
957.682	5.01
958.111	6.31
958.539	-2.49
958.967	2.21
959.396	-9.99
959.824	8.81
960.252	0.61
960.68	-0.79
961.109	-1.59
961.537	-5.69
961.965	-5.99
962.393	-3.09
962.821	-0.59
963.249	-2.79
963.677	6.41
964.105	-3.79
964.533	37.31
964.961	36.81
965.389	22.81
965.817	6.61
966.245	4.61
966.672	1.21
967.1	-7.99
967.528	0.91
967.956	-1.09
968.383	7.01
968.811	2.61
969.239	-1.09
969.666	-6.39
970.094	-1.99
970.522	1.71
970.949	-1.29
971.377	-0.99
971.804	-2.19
972.232	2.21
972.659	-2.69
973.087	-2.89
973.514	-9.09
973.941	-4.89
974.369	4.11
974.796	-1.99
975.223	-2.69
975.651	-9.19
976.078	6.81
976.505	0.51
976.932	4.41
977.359	14.51
977.786	13.41
978.214	-2.79
978.641	-9.29
979.068	-1.89
979.495	-5.29
979.922	4.71
980.349	-6.69
980.776	5.71
981.202	-5.09
981.629	4.11
982.056	0.71
982.483	-8.79
982.91	1.61
983.337	-6.69
983.763	4.71
984.19	-6.39
984.617	-1.19
985.043	-6.09
985.47	-4.99
985.897	-0.59
986.323	-2.29
986.75	0.41
987.176	-0.29
987.603	0.21
988.029	-2.79
988.456	-5.09
988.882	1.21
989.308	-2.89
989.735	-7.49
990.161	1.91
990.587	-0.49
991.014	-1.69
991.44	4.51
991.866	-0.99
992.292	-5.59
992.719	-6.09
993.145	3.11
993.571	-9.29
993.997	-2.09
994.423	-3.39
994.849	-2.99
995.275	1.81
995.701	-6.29
996.127	-8.69
996.553	1.41
996.979	-1.09
997.405	-5.39
997.83	-3.09
998.256	-8.09
998.682	-0.79
999.108	-9.59
999.534	-2.89
999.959	-1.89
1000.385	-4.49
1000.811	2.11
1001.236	-8.09
1001.662	-7.29
1002.087	-11.79
1002.513	-0.79
1002.938	0.51
1003.364	-0.49
1003.789	0.11
1004.215	-2.59
1004.64	-7.89
1005.066	-3.39
1005.491	1.51
1005.916	-0.19
1006.342	-7.79
1006.767	-9.69
1007.192	1.51
1007.617	-3.19
1008.042	-2.79
1008.468	-5.79
1008.893	-3.69
1009.318	-5.29
1009.743	-2.89
1010.168	-0.99
1010.593	4.71
1011.018	-8.59
1011.443	-0.29
1011.868	-2.99
1012.293	-3.59
1012.718	-11.89
1013.143	-1.49
1013.567	1.21
1013.992	-2.59
1014.417	-12.99
1014.842	-2.09
1015.267	-0.19
1015.691	-4.89
1016.116	9.51
1016.541	1.31
1016.965	3.11
1017.39	-0.09
1017.814	-5.39
1018.239	-3.89
1018.663	-10.59
1019.088	-11.69
1019.512	-1.49
1019.937	-0.89
1020.361	-7.89
1020.785	-3.59
1021.21	-2.89
1021.634	-3.89
1022.058	1.11
1022.483	-0.09
1022.907	-7.09
1023.331	-6.39
1023.755	-3.69
1024.179	-2.59
1024.604	-7.69
1025.028	-11.29
1025.452	1.41
1025.876	-6.79
1026.3	1.21
1026.724	-4.79
1027.148	-9.49
1027.572	-7.09
1027.996	1.21
1028.42	-7.29
1028.843	-3.09
1029.267	-3.49
1029.691	0.91
1030.115	-4.79
1030.539	-6.19
1030.962	-10.79
1031.386	-12.19
1031.81	-6.19
1032.233	-0.59
1032.657	-6.39
1033.08	-2.59
1033.504	-3.39
1033.927	-9.49
1034.351	-4.19
1034.774	-13.79
1035.198	0.71
1035.621	-5.59
1036.045	-5.39
1036.468	-2.19
1036.891	-8.59
1037.315	-9.49
1037.738	-10.59
1038.161	-1.29
1038.584	-7.49
1039.008	-6.19
1039.431	-8.09
1039.854	-4.29
1040.277	-10.39
1040.7	-8.59
1041.123	-0.69
1041.546	-14.69
1041.969	-5.99
1042.392	-6.79
1042.815	-4.99
1043.238	-5.69
1043.661	-1.29
1044.084	-10.29
1044.507	-2.79
1044.93	-7.19
1045.352	-4.59
1045.775	-1.79
1046.198	-5.69
1046.621	-6.69
1047.043	-2.79
1047.466	13.21
1047.889	-8.09
1048.311	-4.39
1048.734	-4.69
1049.156	-3.99
1049.579	-2.49
1050.001	-3.59
1050.424	0.91
1050.846	-9.59
1051.269	-0.09
1051.691	-8.99
1052.113	-4.09
1052.536	1.01
1052.958	-2.29
1053.38	-3.59
1053.802	-13.99
1054.225	3.11
1054.647	-12.09
1055.069	-4.09
1055.491	-5.29
1055.913	-5.99
1056.335	-2.19
1056.757	-13.59
1057.179	-3.09
1057.601	-6.29
1058.023	-1.09
1058.445	-7.49
1058.867	1.01
1059.289	-1.79
1059.711	-5.09
1060.133	-9.39
1060.555	-1.19
1060.976	-10.69
1061.398	-13.89
1061.82	-3.09
1062.241	-6.39
1062.663	-5.29
1063.085	-6.29
1063.506	2.01
1063.928	-4.29
1064.35	-5.99
1064.771	-11.49
1065.193	-4.99
1065.614	-4.09
1066.035	-5.49
1066.457	-0.79
1066.878	0.51
1067.3	-6.99
1067.721	0.81
1068.142	-2.19
1068.564	-0.39
1068.985	-3.49
1069.406	-5.89
1069.827	-5.49
1070.248	-0.89
1070.67	-6.09
1071.091	-2.59
1071.512	-0.29
1071.933	-8.79
1072.354	-6.19
1072.775	-2.29
1073.196	-6.79
1073.617	-6.89
1074.038	-8.69
1074.459	-5.29
1074.88	-10.09
1075.3	-6.79
1075.721	-5.99
1076.142	-1.69
1076.563	0.31
1076.983	-7.09
1077.404	-6.99
1077.825	-12.79
1078.246	-4.79
1078.666	-1.59
1079.087	-2.99
1079.507	-5.59
1079.928	-0.99
1080.348	2.21
1080.769	-4.19
1081.189	-1.09
1081.61	0.31
1082.03	-16.39
1082.451	-1.69
1082.871	-6.29
1083.291	-6.29
1083.711	-9.69
1084.132	-7.99
1084.552	-14.99
1084.972	-5.39
1085.392	-11.19
1085.813	-8.39
1086.233	-4.79
1086.653	-6.39
1087.073	-0.79
1087.493	-8.49
1087.913	-7.99
1088.333	-7.59
1088.753	-7.59
1089.173	5.11
1089.593	-3.09
1090.013	2.61
1090.433	1.51
1090.852	-3.99
1091.272	-4.39
1091.692	-4.99
1092.112	-2.49
1092.531	-13.99
1092.951	-9.69
1093.371	-10.09
1093.79	2.01
1094.21	-2.79
1094.63	-4.69
1095.049	-7.79
1095.469	-0.89
1095.888	-1.69
1096.308	0.71
1096.727	3.31
1097.146	-9.49
1097.566	-0.89
1097.985	-7.99
1098.405	-1.79
1098.824	-5.99
1099.243	-9.79
1099.662	-6.29
1100.082	-6.19
1100.501	0.31
1100.92	-5.99
1101.339	-2.99
1101.758	-5.79
