Data from 20171114-ORNL-Ar_H_NY_Subt18_08-04-04-792.txt Node
Date: Tue Nov 14 08:04:04 EST 2017
User: Ender
Spectrometer: HR+D1039
Trigger mode: 0
Integration Time (sec): 2.730000E-2
Scans to average: 10
Electric dark correction enabled: true
Nonlinearity correction enabled: false
Boxcar width: 0
XAxis mode: Wavelengths
Number of Pixels in Spectrum: 2048
>>>>>Begin Spectral Data<<<<<
187.836	-8.51
188.309	-8.51
188.782	-8.51
189.255	6.79
189.728	4.19
190.201	2.89
190.674	1.19
191.147	-4.31
191.619	-5.31
192.092	-1.91
192.565	3.19
193.038	1.79
193.511	4.99
193.984	-6.01
194.456	-3.51
194.929	6.89
195.402	-3.51
195.874	1.09
196.347	1.99
196.82	-5.11
197.292	1.49
197.765	-4.61
198.237	-7.71
198.71	2.39
199.182	1.69
199.655	1.29
200.127	1.59
200.6	-7.21
201.072	0.29
201.544	-5.61
202.017	-3.41
202.489	2.19
202.961	-2.61
203.433	-7.21
203.906	-5.01
204.378	-3.31
204.85	1.19
205.322	-6.51
205.794	-3.61
206.266	-7.01
206.739	-10.91
207.211	-1.81
207.683	-12.21
208.155	-6.61
208.627	-9.01
209.099	-7.21
209.57	-6.51
210.042	-6.61
210.514	-4.91
210.986	-1.71
211.458	-11.31
211.93	-7.11
212.402	6.49
212.873	-4.81
213.345	-7.31
213.817	-16.61
214.288	-4.91
214.76	-8.71
215.232	-6.41
215.703	-4.91
216.175	-0.41
216.646	-6.11
217.118	-11.91
217.589	-2.51
218.061	-1.21
218.532	-8.31
219.004	0.29
219.475	-3.91
219.946	-4.71
220.418	-5.71
220.889	5.59
221.36	-3.71
221.832	-4.31
222.303	-5.21
222.774	-4.91
223.245	-7.31
223.717	-9.41
224.188	-7.21
224.659	-3.21
225.13	-4.11
225.601	0.49
226.072	-4.01
226.543	-3.71
227.014	-0.11
227.485	-3.11
227.956	-12.01
228.427	-0.21
228.898	-2.81
229.369	1.59
229.839	-5.91
230.31	-10.61
230.781	-0.31
231.252	-3.21
231.722	3.69
232.193	-3.61
232.664	-0.01
233.135	-1.51
233.605	3.19
234.076	-5.61
234.546	-0.61
235.017	-2.11
235.487	-0.41
235.958	0.69
236.428	-4.91
236.899	6.39
237.369	5.29
237.84	-0.11
238.31	1.39
238.78	2.49
239.251	-5.81
239.721	3.49
240.191	3.99
240.662	-3.41
241.132	-2.41
241.602	-7.61
242.072	5.29
242.542	5.59
243.013	0.29
243.483	0.79
243.953	0.59
244.423	-0.61
244.893	-2.71
245.363	7.09
245.833	-2.01
246.303	-1.11
246.773	4.39
247.243	-0.41
247.712	-1.21
248.182	1.69
248.652	6.29
249.122	-8.51
249.592	8.09
250.061	9.49
250.531	26.99
251.001	8.49
251.471	14.69
251.94	14.29
252.41	2.29
252.879	-2.71
253.349	9.09
253.818	5.89
254.288	3.19
254.757	0.09
255.227	-4.21
255.696	3.99
256.166	-1.31
256.635	5.89
257.105	-0.51
257.574	-1.41
258.043	4.49
258.513	3.29
258.982	10.79
259.451	5.59
259.92	11.79
260.389	5.79
260.859	10.89
261.328	8.59
261.797	5.39
262.266	8.89
262.735	-1.31
263.204	3.29
263.673	-6.31
264.142	7.79
264.611	-10.61
265.08	-0.41
265.549	0.59
266.018	0.99
266.487	-3.01
266.955	-1.51
267.424	0.89
267.893	-0.11
268.362	-3.41
268.83	1.69
269.299	4.29
269.768	2.89
270.236	-1.11
270.705	-0.71
271.174	2.29
271.642	1.69
272.111	6.89
272.579	11.39
273.048	14.59
273.516	13.29
273.985	12.89
274.453	10.69
274.922	9.49
275.39	0.39
275.858	-0.01
276.327	12.69
276.795	12.39
277.263	3.89
277.731	22.69
278.2	29.69
278.668	33.99
279.136	32.19
279.604	7.69
280.072	8.49
280.54	6.39
281.008	10.09
281.477	11.99
281.945	8.09
282.413	9.49
282.881	10.89
283.348	1.19
283.816	12.59
284.284	16.29
284.752	13.09
285.22	8.39
285.688	7.69
286.156	11.59
286.623	25.59
287.091	29.19
287.559	19.59
288.026	7.99
288.494	12.99
288.962	6.39
289.429	4.69
289.897	14.09
290.364	8.19
290.832	11.49
291.3	12.09
291.767	8.29
292.234	10.89
292.702	9.19
293.169	10.79
293.637	17.69
294.104	7.69
294.571	4.89
295.039	5.89
295.506	5.69
295.973	16.69
296.44	10.59
296.908	18.69
297.375	10.39
297.842	13.29
298.309	9.29
298.776	6.19
299.243	11.39
299.71	9.69
300.177	14.29
300.644	10.49
301.111	14.99
301.578	14.49
302.045	7.19
302.512	13.49
302.979	18.29
303.446	10.29
303.913	16.59
304.379	7.89
304.846	20.69
305.313	17.49
305.78	12.09
306.246	17.19
306.713	18.59
307.18	17.09
307.646	15.49
308.113	19.59
308.579	8.79
309.046	23.59
309.512	22.39
309.979	16.29
310.445	21.89
310.912	20.89
311.378	28.89
311.845	23.29
312.311	25.09
312.777	20.89
313.244	27.39
313.71	29.49
314.176	26.29
314.642	25.99
315.109	22.19
315.575	31.99
316.041	25.69
316.507	22.69
316.973	28.49
317.439	29.99
317.905	29.09
318.371	24.99
318.837	19.39
319.303	18.59
319.769	20.19
320.235	25.99
320.701	25.69
321.167	26.09
321.633	23.79
322.099	29.99
322.564	33.79
323.03	35.59
323.496	23.59
323.962	35.19
324.427	29.49
324.893	36.29
325.359	33.19
325.824	29.49
326.29	27.99
326.755	31.39
327.221	35.79
327.686	28.19
328.152	37.89
328.617	29.19
329.083	38.49
329.548	40.79
330.014	41.19
330.479	35.19
330.944	36.89
331.41	33.89
331.875	37.69
332.34	39.69
332.805	35.69
333.271	40.49
333.736	36.39
334.201	43.19
334.666	42.99
335.131	42.29
335.596	43.99
336.061	37.39
336.526	29.49
336.991	34.99
337.456	47.19
337.921	33.29
338.386	36.69
338.851	37.59
339.316	37.19
339.781	35.19
340.246	42.19
340.711	33.79
341.175	41.39
341.64	43.09
342.105	39.29
342.569	45.19
343.034	43.49
343.499	48.09
343.963	39.79
344.428	51.19
344.893	43.09
345.357	46.49
345.822	53.79
346.286	52.79
346.751	56.19
347.215	53.99
347.679	59.99
348.144	72.89
348.608	63.59
349.073	62.09
349.537	59.49
350.001	60.79
350.465	70.99
350.93	65.19
351.394	66.89
351.858	53.29
352.322	66.09
352.786	62.89
353.25	78.29
353.715	81.79
354.179	75.29
354.643	88.99
355.107	95.49
355.571	83.49
356.035	85.59
356.498	87.19
356.962	93.99
357.426	102.09
357.89	87.89
358.354	76.99
358.818	68.59
359.281	68.99
359.745	64.09
360.209	62.59
360.673	61.29
361.136	71.29
361.6	75.29
362.064	67.69
362.527	69.49
362.991	72.89
363.454	65.59
363.918	63.19
364.381	64.59
364.845	66.09
365.308	73.79
365.772	68.19
366.235	67.99
366.698	72.59
367.162	71.49
367.625	73.69
368.088	74.49
368.552	76.39
369.015	67.59
369.478	82.69
369.941	82.59
370.404	81.69
370.867	84.39
371.331	88.89
371.794	90.39
372.257	89.39
372.72	98.49
373.183	89.59
373.646	85.49
374.109	84.99
374.572	84.69
375.035	93.29
375.497	87.59
375.96	91.89
376.423	86.39
376.886	98.99
377.349	94.19
377.811	85.79
378.274	87.39
378.737	87.29
379.199	98.49
379.662	92.39
380.125	96.09
380.587	96.29
381.05	105.19
381.512	109.69
381.975	113.49
382.437	107.59
382.9	110.19
383.362	106.39
383.825	112.99
384.287	130.79
384.75	119.99
385.212	122.09
385.674	113.29
386.136	119.39
386.599	107.99
387.061	110.39
387.523	113.09
387.985	107.39
388.447	123.09
388.91	118.19
389.372	131.89
389.834	124.19
390.296	123.79
390.758	126.59
391.22	140.09
391.682	162.49
392.144	234.39
392.606	187.59
393.068	134.99
393.529	147.19
393.991	126.99
394.453	129.49
394.915	131.29
395.377	158.69
395.838	179.79
396.3	134.39
396.762	127.19
397.224	116.19
397.685	109.39
398.147	115.99
398.608	114.59
399.07	110.59
399.531	112.99
399.993	127.09
400.454	131.19
400.916	131.79
401.377	129.09
401.839	132.89
402.3	132.39
402.762	143.49
403.223	153.09
403.684	142.79
404.145	141.49
404.607	132.69
405.068	143.19
405.529	151.99
405.99	159.39
406.451	152.79
406.913	153.39
407.374	148.69
407.835	143.19
408.296	150.39
408.757	148.29
409.218	160.09
409.679	162.09
410.14	161.69
410.601	149.59
411.062	165.79
411.522	164.49
411.983	168.29
412.444	160.29
412.905	161.39
413.366	158.29
413.826	170.09
414.287	192.69
414.748	232.19
415.208	228.99
415.669	188.89
416.13	184.39
416.59	176.19
417.051	190.19
417.511	197.29
417.972	212.39
418.432	225.79
418.893	262.79
419.353	223.69
419.814	180.69
420.274	159.59
420.734	159.59
421.195	179.79
421.655	169.39
422.115	173.09
422.576	169.49
423.036	175.29
423.496	182.49
423.956	192.29
424.416	200.69
424.876	234.19
425.336	231.89
425.797	224.29
426.257	222.59
426.717	209.59
427.177	209.49
427.637	198.09
428.097	206.89
428.556	215.89
429.016	242.49
429.476	232.89
429.936	236.19
430.396	238.19
430.856	255.89
431.315	278.09
431.775	303.89
432.235	324.49
432.694	310.49
433.154	309.59
433.614	323.79
434.073	286.49
434.533	251.49
434.993	242.89
435.452	242.69
435.912	257.19
436.371	236.09
436.83	245.49
437.29	224.39
437.749	210.89
438.209	213.09
438.668	233.59
439.127	236.49
439.587	222.39
440.046	204.29
440.505	218.89
440.964	242.99
441.424	266.99
441.883	258.59
442.342	225.69
442.801	204.99
443.26	195.49
443.719	199.99
444.178	195.69
444.637	187.69
445.096	197.19
445.555	194.99
446.014	199.69
446.473	198.49
446.932	205.59
447.391	200.09
447.849	206.69
448.308	200.49
448.767	196.89
449.226	207.89
449.685	211.89
450.143	224.99
450.602	211.69
451.061	199.49
451.519	204.49
451.978	207.19
452.436	207.79
452.895	213.59
453.353	216.69
453.812	208.99
454.27	213.09
454.729	206.79
455.187	213.39
455.646	213.79
456.104	217.09
456.562	218.59
457.021	224.99
457.479	224.49
457.937	227.79
458.395	234.69
458.854	215.29
459.312	225.29
459.77	229.49
460.228	221.69
460.686	212.69
461.144	220.29
461.602	216.19
462.06	217.39
462.518	225.09
462.976	229.29
463.434	233.89
463.892	229.19
464.35	244.49
464.808	250.79
465.266	244.89
465.724	239.69
466.181	238.79
466.639	241.09
467.097	258.79
467.555	270.19
468.012	273.59
468.47	271.59
468.928	288.89
469.385	296.79
469.843	300.29
470.3	300.59
470.758	307.79
471.215	319.89
471.673	344.19
472.13	343.39
472.588	351.59
473.045	316.69
473.503	331.19
473.96	345.99
474.417	348.29
474.875	379.29
475.332	403.69
475.789	403.89
476.246	399.49
476.704	422.09
477.161	436.99
477.618	448.89
478.075	482.19
478.532	540.79
478.989	592.59
479.446	663.49
479.903	664.19
480.36	699.49
480.817	751.29
481.274	836.99
481.731	931.29
482.188	1003.89
482.645	1138.29
483.102	1229.89
483.558	1336.79
484.015	1379.89
484.472	1377.29
484.929	1329.29
485.385	1293.69
485.842	1259.19
486.299	1195.49
486.755	1113.59
487.212	952.79
487.668	804.69
488.125	754.19
488.582	688.59
489.038	670.39
489.494	635.59
489.951	610.49
490.407	581.79
490.864	560.19
491.32	555.09
491.776	562.19
492.233	558.69
492.689	529.79
493.145	532.89
493.602	523.59
494.058	533.09
494.514	533.49
494.97	547.99
495.426	553.09
495.882	532.49
496.338	533.79
496.794	546.89
497.251	530.79
497.707	537.29
498.163	549.69
498.618	549.59
499.074	552.79
499.53	576.89
499.986	571.99
500.442	555.69
500.898	540.49
501.354	539.89
501.809	547.29
502.265	549.09
502.721	563.79
503.177	577.59
503.632	574.69
504.088	579.39
504.543	600.79
504.999	597.99
505.455	569.39
505.91	553.29
506.366	549.09
506.821	544.79
507.277	542.19
507.732	534.79
508.187	545.49
508.643	546.09
509.098	550.49
509.553	571.99
510.009	572.59
510.464	575.99
510.919	592.29
511.375	594.79
511.83	603.19
512.285	627.69
512.74	653.19
513.195	669.69
513.65	662.89
514.105	656.39
514.56	668.59
515.015	687.89
515.47	695.79
515.925	678.89
516.38	689.39
516.835	683.49
517.29	679.19
517.745	671.19
518.2	656.69
518.655	651.99
519.109	634.59
519.564	643.39
520.019	625.59
520.474	622.69
520.928	623.99
521.383	621.89
521.838	614.59
522.292	603.79
522.747	614.39
523.201	604.29
523.656	596.19
524.11	593.99
524.565	584.29
525.019	588.79
525.474	596.29
525.928	597.39
526.382	587.89
526.837	591.69
527.291	593.79
527.745	599.69
528.2	598.09
528.654	587.99
529.108	582.69
529.562	587.39
530.016	585.99
530.47	589.09
530.925	590.29
531.379	592.29
531.833	590.19
532.287	589.19
532.741	596.89
533.195	599.59
533.649	600.39
534.103	602.19
534.556	594.59
535.01	593.79
535.464	589.49
535.918	610.99
536.372	604.29
536.826	604.19
537.279	602.49
537.733	601.19
538.187	607.09
538.64	595.29
539.094	605.79
539.548	614.59
540.001	610.09
540.455	609.09
540.908	613.89
541.362	611.99
541.815	620.79
542.269	641.59
542.722	638.59
543.175	648.89
543.629	635.99
544.082	663.29
544.536	661.09
544.989	669.19
545.442	661.69
545.895	664.49
546.349	662.99
546.802	670.19
547.255	673.19
547.708	674.69
548.161	687.19
548.614	686.69
549.067	695.19
549.52	677.39
549.973	672.39
550.426	674.19
550.879	663.99
551.332	653.39
551.785	671.39
552.238	671.59
552.691	686.79
553.144	686.59
553.596	699.69
554.049	711.59
554.502	741.19
554.955	761.39
555.407	755.19
555.86	747.79
556.313	737.99
556.765	724.49
557.218	734.09
557.67	733.69
558.123	719.19
558.576	722.19
559.028	721.69
559.48	731.49
559.933	729.69
560.385	699.89
560.838	659.39
561.29	643.09
561.742	652.69
562.195	638.59
562.647	629.29
563.099	646.99
563.551	636.39
564.004	647.49
564.456	634.29
564.908	621.69
565.36	608.29
565.812	600.79
566.264	587.99
566.716	592.69
567.168	585.19
567.62	590.39
568.072	578.49
568.524	565.49
568.976	563.29
569.428	554.09
569.88	540.19
570.332	550.59
570.784	546.39
571.235	555.79
571.687	561.89
572.139	564.39
572.59	578.79
573.042	578.19
573.494	587.39
573.945	567.39
574.397	562.49
574.849	556.69
575.3	562.99
575.752	558.29
576.203	548.09
576.655	549.39
577.106	535.99
577.557	541.19
578.009	539.79
578.46	541.79
578.912	529.79
579.363	540.49
579.814	532.39
580.265	532.69
580.717	538.29
581.168	534.29
581.619	540.39
582.07	551.69
582.521	541.59
582.972	526.89
583.423	538.99
583.875	546.99
584.326	563.89
584.777	591.29
585.227	651.09
585.678	725.19
586.129	786.79
586.58	850.49
587.031	912.89
587.482	1041.89
587.933	1181.99
588.384	1035.79
588.834	769.79
589.285	642.29
589.736	630.99
590.186	623.29
590.637	604.29
591.088	588.59
591.538	584.19
591.989	578.89
592.439	588.39
592.89	567.39
593.34	564.49
593.791	559.29
594.241	548.89
594.692	565.29
595.142	558.09
595.593	550.69
596.043	559.49
596.493	562.49
596.943	564.19
597.394	566.39
597.844	551.19
598.294	570.79
598.744	599.99
599.195	605.59
599.645	644.59
600.095	670.79
600.545	711.29
600.995	754.39
601.445	807.19
601.895	851.29
602.345	897.99
602.795	880.09
603.245	841.89
603.695	796.29
604.145	752.09
604.594	712.59
605.044	683.59
605.494	627.79
605.944	592.79
606.393	580.49
606.843	564.79
607.293	567.99
607.743	559.29
608.192	572.09
608.642	589.19
609.091	592.29
609.541	591.09
609.99	598.29
610.44	591.99
610.889	550.99
611.339	540.99
611.788	535.39
612.238	534.39
612.687	556.09
613.136	549.09
613.586	574.89
614.035	573.59
614.484	579.89
614.933	579.29
615.383	570.99
615.832	569.79
616.281	550.39
616.73	526.09
617.179	516.29
617.628	498.29
618.077	489.99
618.526	480.39
618.975	473.09
619.424	473.29
619.873	470.19
620.322	475.69
620.771	468.79
621.22	461.49
621.669	456.99
622.118	449.59
622.567	440.19
623.015	439.89
623.464	434.49
623.913	429.19
624.361	420.89
624.81	422.89
625.259	433.19
625.707	429.79
626.156	417.79
626.604	440.89
627.053	430.69
627.501	424.89
627.95	445.49
628.398	444.99
628.847	425.49
629.295	426.29
629.744	443.09
630.192	431.09
630.64	424.99
631.089	426.29
631.537	435.49
631.985	431.09
632.433	437.29
632.881	447.69
633.33	468.29
633.778	465.49
634.226	420.59
634.674	428.19
635.122	426.89
635.57	445.19
636.018	466.29
636.466	441.89
636.914	422.59
637.362	435.09
637.81	437.09
638.258	438.49
638.705	446.59
639.153	461.69
639.601	471.29
640.049	491.19
640.497	507.79
640.944	531.09
641.392	481.79
641.84	468.69
642.287	437.79
642.735	433.99
643.182	442.29
643.63	434.29
644.078	433.09
644.525	440.19
644.973	448.29
645.42	452.89
645.867	464.69
646.315	484.99
646.762	497.19
647.21	512.49
647.657	533.49
648.104	562.49
648.551	575.59
648.999	628.69
649.446	689.69
649.893	742.59
650.34	852.29
650.787	1015.39
651.234	1261.29
651.682	1639.79
652.129	2222.59
652.576	3190.99
653.023	4737.69
653.47	6570.49
653.917	8308.89
654.363	9803.49
654.81	11076.19
655.257	10558.19
655.704	6843.69
656.151	3996.39
656.598	2601.39
657.044	1831.29
657.491	1410.99
657.938	1123.09
658.385	946.19
658.831	805.99
659.278	719.39
659.724	642.89
660.171	586.99
660.618	536.99
661.064	506.89
661.511	481.09
661.957	477.79
662.404	462.19
662.85	467.09
663.296	457.89
663.743	412.29
664.189	397.99
664.635	402.29
665.082	393.59
665.528	388.69
665.974	386.89
666.42	378.39
666.867	373.89
667.313	361.59
667.759	353.29
668.205	351.19
668.651	362.09
669.097	354.79
669.543	370.89
669.989	352.59
670.435	336.69
670.881	327.59
671.327	330.99
671.773	350.09
672.219	361.29
672.665	403.29
673.11	430.59
673.556	472.79
674.002	497.59
674.448	486.89
674.893	413.29
675.339	348.89
675.785	327.39
676.23	314.09
676.676	284.99
677.122	284.89
677.567	276.99
678.013	278.29
678.458	259.09
678.904	261.79
679.349	252.99
679.794	260.09
680.24	254.79
680.685	256.59
681.131	256.39
681.576	258.09
682.021	264.29
682.466	252.39
682.912	252.39
683.357	251.39
683.802	278.99
684.247	295.39
684.692	336.09
685.137	366.09
685.583	401.29
686.028	425.39
686.473	387.89
686.918	333.79
687.363	310.69
687.807	294.29
688.252	268.69
688.697	265.99
689.142	251.69
689.587	241.19
690.032	229.99
690.477	257.09
690.921	253.29
691.366	277.09
691.811	299.39
692.255	317.69
692.7	335.79
693.145	364.09
693.589	496.89
694.034	807.39
694.478	1124.89
694.923	1309.59
695.367	1743.39
695.812	910.39
696.256	368.39
696.701	271.19
697.145	257.39
697.59	249.39
698.034	233.89
698.478	245.29
698.922	236.39
699.367	246.19
699.811	253.69
700.255	260.09
700.699	281.19
701.143	302.39
701.588	353.49
702.032	385.19
702.476	383.99
702.92	358.39
703.364	353.39
703.808	449.89
704.252	725.89
704.696	1049.29
705.14	1264.99
705.584	1644.49
706.027	799.99
706.471	387.29
706.915	289.69
707.359	255.89
707.803	232.69
708.246	223.89
708.69	230.19
709.134	222.39
709.577	230.09
710.021	233.69
710.465	223.79
710.908	213.79
711.352	217.19
711.795	221.89
712.239	254.59
712.682	284.99
713.126	306.69
713.569	348.19
714.012	268.59
714.456	241.39
714.899	215.19
715.342	206.19
715.786	195.49
716.229	184.29
716.672	186.19
717.115	182.29
717.558	184.09
718.002	183.79
718.445	191.39
718.888	207.09
719.331	215.49
719.774	223.69
720.217	220.89
720.66	211.29
721.103	190.79
721.546	186.49
721.989	184.29
722.432	174.09
722.874	171.69
723.317	165.59
723.76	169.69
724.203	182.99
724.645	222.19
725.088	310.79
725.531	408.89
725.974	483.79
726.416	412.09
726.859	213.49
727.301	175.99
727.744	175.49
728.187	166.99
728.629	170.79
729.071	180.89
729.514	195.89
729.956	198.09
730.399	207.79
730.841	216.09
731.283	193.59
731.726	194.29
732.168	195.49
732.61	195.29
733.053	207.89
733.495	221.19
733.937	248.99
734.379	290.99
734.821	320.29
735.263	384.49
735.705	590.89
736.148	1119.59
736.59	1902.69
737.032	2346.89
737.474	1934.59
737.916	601.59
738.357	320.59
738.799	242.49
739.241	219.79
739.683	203.49
740.125	207.39
740.567	224.19
741.008	235.99
741.45	240.49
741.892	233.79
742.334	262.79
742.775	270.09
743.217	257.29
743.658	199.79
744.1	194.89
744.542	195.89
744.983	232.79
745.425	266.59
745.866	259.09
746.307	215.09
746.749	209.19
747.19	237.59
747.632	320.79
748.073	615.99
748.514	1318.09
748.956	2119.99
749.397	2659.39
749.838	2211.09
750.279	2294.59
750.72	1144.19
751.162	412.49
751.603	233.79
752.044	183.29
752.485	151.69
752.926	155.39
753.367	138.29
753.808	144.49
754.249	145.09
754.69	133.59
755.131	131.09
755.572	120.49
756.013	129.99
756.453	126.49
756.894	139.69
757.335	136.09
757.776	135.99
758.216	147.49
758.657	140.89
759.098	155.09
759.538	162.69
759.979	189.89
760.42	263.89
760.86	493.69
761.301	1286.19
761.741	3236.79
762.182	5055.49
762.622	3555.39
763.063	1008.09
763.503	399.99
763.943	260.89
764.384	245.49
764.824	301.39
765.264	328.39
765.705	224.59
766.145	148.79
766.585	135.09
767.025	135.89
767.465	126.09
767.906	180.09
768.346	233.39
768.786	254.39
769.226	193.69
769.666	231.49
770.106	432.59
770.546	1096.59
770.986	2017.49
771.426	1849.29
771.866	600.89
772.306	241.49
772.745	157.09
773.185	125.39
773.625	121.79
774.065	117.59
774.505	136.59
774.944	213.79
775.384	451.69
775.824	855.99
776.263	861.29
776.703	368.79
777.142	159.49
777.582	114.59
778.021	99.69
778.461	94.99
778.9	103.49
779.34	95.19
779.779	86.79
780.219	80.69
780.658	74.99
781.097	72.69
781.537	86.09
781.976	79.19
782.415	71.49
782.855	76.79
783.294	72.49
783.733	71.09
784.172	74.99
784.611	77.39
785.05	81.19
785.489	82.19
785.928	86.59
786.367	81.19
786.806	83.29
787.245	94.59
787.684	98.99
788.123	106.59
788.562	99.89
789.001	91.09
789.44	85.49
789.879	86.89
790.317	83.29
790.756	96.39
791.195	91.69
791.634	106.09
792.072	150.39
792.511	255.69
792.95	714.69
793.388	1627.89
793.827	1501.89
794.265	509.99
794.704	207.69
795.142	132.49
795.581	113.39
796.019	92.59
796.458	96.29
796.896	90.19
797.334	92.69
797.773	114.29
798.211	159.79
798.649	305.49
799.087	742.09
799.526	1192.19
799.964	1502.79
800.402	1581.79
800.84	576.49
801.278	223.79
801.716	134.69
802.154	110.19
802.592	106.29
803.03	98.79
803.468	93.99
803.906	106.29
804.344	108.99
804.782	100.19
805.22	94.69
805.658	96.09
806.096	109.49
806.533	117.19
806.971	129.59
807.409	159.39
807.847	221.69
808.284	471.99
808.722	1355.39
809.16	2524.49
809.597	2325.29
810.035	4139.19
810.472	4678.89
810.91	1648.19
811.347	601.99
811.785	301.99
812.222	192.29
812.66	149.69
813.097	125.69
813.535	101.29
813.972	89.49
814.409	87.79
814.846	78.79
815.284	80.39
815.721	66.99
816.158	75.49
816.595	89.69
817.032	131.19
817.47	149.79
817.907	135.29
818.344	108.09
818.781	82.69
819.218	75.79
819.655	91.59
820.092	140.69
820.529	164.09
820.966	133.49
821.403	99.99
821.839	79.29
822.276	75.49
822.713	90.99
823.15	103.99
823.587	78.99
824.023	101.69
824.46	203.99
824.897	652.49
825.333	1032.19
825.77	445.59
826.206	166.89
826.643	105.89
827.08	80.69
827.516	58.09
827.953	61.39
828.389	59.39
828.825	56.69
829.262	49.59
829.698	45.09
830.135	44.69
830.571	49.19
831.007	48.09
831.443	48.09
831.88	45.49
832.316	37.79
832.752	46.99
833.188	48.39
833.624	46.29
834.06	49.39
834.497	50.39
834.933	53.39
835.369	52.49
835.805	47.69
836.241	54.79
836.677	62.09
837.112	68.19
837.548	75.19
837.984	95.79
838.42	149.19
838.856	355.19
839.292	1136.09
839.727	1811.49
840.163	832.49
840.599	678.09
841.034	1531.29
841.47	1706.79
841.906	604.59
842.341	250.89
842.777	169.19
843.212	227.49
843.648	229.69
844.083	109.29
844.519	72.89
844.954	64.99
845.39	44.79
845.825	37.69
846.261	42.99
846.696	44.19
847.131	44.49
847.566	38.79
848.002	36.29
848.437	45.79
848.872	44.09
849.307	43.49
849.742	66.09
850.177	129.79
850.613	411.09
851.048	678.59
851.483	290.29
851.918	110.79
852.353	66.39
852.788	37.59
853.223	39.89
853.657	38.79
854.092	33.59
854.527	26.59
854.962	27.69
855.397	32.39
855.832	41.39
856.266	30.49
856.701	26.79
857.136	27.99
857.57	27.59
858.005	40.69
858.44	48.19
858.874	36.69
859.309	37.29
859.743	24.09
860.178	34.99
860.612	31.19
861.047	39.69
861.481	46.79
861.915	63.09
862.35	38.89
862.784	21.99
863.218	26.59
863.653	22.19
864.087	33.89
864.521	37.59
864.955	52.09
865.39	118.59
865.824	139.69
866.258	84.39
866.692	127.69
867.126	138.79
867.56	85.29
867.994	31.39
868.428	26.79
868.862	43.79
869.296	40.79
869.73	43.09
870.164	38.89
870.598	35.69
871.031	22.59
871.465	22.89
871.899	22.29
872.333	13.69
872.766	18.09
873.2	14.39
873.634	19.39
874.067	20.79
874.501	21.69
874.935	25.79
875.368	23.49
875.802	19.89
876.235	10.59
876.669	14.19
877.102	13.49
877.535	17.09
877.969	11.89
878.402	14.99
878.836	10.89
879.269	17.89
879.702	16.49
880.135	12.89
880.569	15.39
881.002	22.99
881.435	15.69
881.868	9.09
882.301	19.89
882.734	10.39
883.167	18.19
883.601	19.69
884.034	18.19
884.467	8.99
884.899	16.19
885.332	13.69
885.765	6.09
886.198	20.49
886.631	13.49
887.064	14.29
887.497	12.39
887.929	18.19
888.362	3.59
888.795	8.59
889.228	10.89
889.66	18.29
890.093	6.69
890.526	12.59
890.958	13.39
891.391	9.89
891.823	15.59
892.256	13.89
892.688	8.09
893.121	11.99
893.553	7.79
893.985	17.09
894.418	14.79
894.85	13.29
895.282	9.59
895.715	8.79
896.147	14.69
896.579	8.89
897.011	8.09
897.444	15.59
897.876	13.39
898.308	13.89
898.74	14.59
899.172	5.49
899.604	16.49
900.036	13.89
900.468	13.09
900.9	13.89
901.332	5.79
901.764	6.39
902.196	10.99
902.628	10.09
903.06	7.49
903.491	25.49
903.923	14.39
904.355	14.69
904.787	21.29
905.218	19.99
905.65	16.79
906.082	7.29
906.513	12.89
906.945	12.49
907.376	10.79
907.808	13.19
908.239	16.29
908.671	8.19
909.102	14.19
909.534	21.79
909.965	34.79
910.397	71.69
910.828	244.19
911.259	381.59
911.691	165.69
912.122	85.59
912.553	39.79
912.984	24.39
913.415	20.29
913.847	18.19
914.278	7.99
914.709	8.79
915.14	16.09
915.571	14.69
916.002	5.29
916.433	13.89
916.864	13.59
917.295	8.09
917.726	14.49
918.157	15.99
918.587	18.69
919.018	16.19
919.449	9.59
919.88	12.09
920.311	21.79
920.741	33.89
921.172	119.89
921.603	116.99
922.033	50.69
922.464	29.89
922.895	15.59
923.325	14.79
923.756	7.39
924.186	8.79
924.617	19.59
925.047	28.59
925.478	37.59
925.908	28.79
926.338	12.59
926.769	16.59
927.199	12.49
927.629	3.59
928.06	6.59
928.49	10.29
928.92	12.09
929.35	6.29
929.78	11.89
930.21	9.19
930.641	9.29
931.071	6.99
931.501	7.59
931.931	3.59
932.361	1.69
932.791	0.89
933.221	-2.91
933.651	5.39
934.08	8.59
934.51	28.59
934.94	4.99
935.37	4.89
935.8	-0.01
936.229	5.09
936.659	3.59
937.089	2.39
937.519	10.59
937.948	18.19
938.378	14.49
938.807	5.19
939.237	0.99
939.666	6.99
940.096	-3.81
940.525	0.79
940.955	-1.51
941.384	1.39
941.814	-4.41
942.243	-1.51
942.672	-3.01
943.102	6.99
943.531	-0.51
943.96	3.19
944.39	-0.51
944.819	-1.31
945.248	6.39
945.677	0.39
946.106	5.69
946.535	4.09
946.964	3.29
947.393	0.09
947.822	4.79
948.251	-3.71
948.68	3.39
949.109	-2.31
949.538	6.59
949.967	1.29
950.396	-0.81
950.825	3.29
951.254	-0.11
951.682	-4.61
952.111	7.99
952.54	11.69
952.969	-7.11
953.397	-8.21
953.826	0.29
954.254	-5.01
954.683	1.29
955.112	-1.91
955.54	2.59
955.969	1.69
956.397	0.79
956.826	-1.71
957.254	10.29
957.682	-2.21
958.111	1.99
958.539	1.99
958.967	4.39
959.396	2.69
959.824	3.99
960.252	5.29
960.68	-6.91
961.109	-2.11
961.537	-4.31
961.965	-1.61
962.393	4.69
962.821	-6.31
963.249	4.59
963.677	1.69
964.105	5.59
964.533	31.29
964.961	29.39
965.389	18.69
965.817	6.39
966.245	2.19
966.672	2.29
967.1	-5.61
967.528	-3.71
967.956	1.09
968.383	-0.61
968.811	-0.91
969.239	1.79
969.666	-6.41
970.094	-0.71
970.522	-3.31
970.949	0.29
971.377	-2.81
971.804	-3.91
972.232	1.09
972.659	-1.91
973.087	2.99
973.514	-8.81
973.941	-4.81
974.369	0.09
974.796	0.79
975.223	2.79
975.651	-2.61
976.078	1.09
976.505	-6.11
976.932	6.89
977.359	10.89
977.786	11.79
978.214	-7.41
978.641	-4.61
979.068	-4.21
979.495	-1.31
979.922	-5.11
980.349	-1.11
980.776	1.49
981.202	3.29
981.629	1.09
982.056	2.89
982.483	-2.41
982.91	2.89
983.337	0.59
983.763	4.79
984.19	-1.21
984.617	0.19
985.043	-4.21
985.47	-1.01
985.897	-1.51
986.323	-7.51
986.75	0.09
987.176	1.59
987.603	-3.51
988.029	-1.01
988.456	0.09
988.882	7.39
989.308	-9.01
989.735	-8.51
990.161	-5.81
990.587	-7.91
991.014	-1.01
991.44	1.09
991.866	1.09
992.292	-5.71
992.719	-2.21
993.145	3.09
993.571	-13.11
993.997	-7.91
994.423	-4.21
994.849	2.69
995.275	-0.11
995.701	2.09
996.127	-8.41
996.553	-4.01
996.979	-8.91
997.405	-1.51
997.83	-8.31
998.256	-12.01
998.682	-1.91
999.108	-4.91
999.534	2.49
999.959	-3.31
1000.385	-4.11
1000.811	0.79
1001.236	-8.31
1001.662	-9.01
1002.087	-2.81
1002.513	-0.41
1002.938	-1.71
1003.364	3.29
1003.789	-0.91
1004.215	6.49
1004.64	-6.71
1005.066	-1.01
1005.491	3.59
1005.916	-5.51
1006.342	-4.01
1006.767	-11.91
1007.192	7.69
1007.617	-6.01
1008.042	1.89
1008.468	-2.71
1008.893	-4.31
1009.318	-4.21
1009.743	-6.81
1010.168	3.09
1010.593	-1.81
1011.018	-7.91
1011.443	-2.21
1011.868	4.19
1012.293	-4.51
1012.718	-4.01
1013.143	-0.11
1013.567	5.29
1013.992	0.29
1014.417	-8.81
1014.842	4.49
1015.267	-6.11
1015.691	-4.61
1016.116	3.59
1016.541	3.09
1016.965	0.19
1017.39	4.79
1017.814	-4.11
1018.239	-12.11
1018.663	-8.51
1019.088	-11.61
1019.512	-3.41
1019.937	1.09
1020.361	-3.01
1020.785	-8.91
1021.21	-3.21
1021.634	-5.31
1022.058	-1.21
1022.483	0.59
1022.907	-7.41
1023.331	-7.11
1023.755	-2.41
1024.179	-1.11
1024.604	-11.31
1025.028	-0.21
1025.452	-9.21
1025.876	-8.31
1026.3	5.19
1026.724	-7.11
1027.148	-4.21
1027.572	-11.71
1027.996	-3.61
1028.42	0.39
1028.843	-0.81
1029.267	-9.81
1029.691	-3.01
1030.115	-5.21
1030.539	-7.61
1030.962	-1.11
1031.386	-9.81
1031.81	-1.01
1032.233	0.59
1032.657	-0.21
1033.08	1.69
1033.504	-4.71
1033.927	-8.11
1034.351	-2.61
1034.774	-2.91
1035.198	-4.51
1035.621	-6.11
1036.045	-6.11
1036.468	2.99
1036.891	-9.61
1037.315	-4.01
1037.738	-14.31
1038.161	-5.61
1038.584	-4.11
1039.008	-10.21
1039.431	0.09
1039.854	-5.71
1040.277	-3.81
1040.7	-9.41
1041.123	3.09
1041.546	-11.71
1041.969	-2.71
1042.392	-1.61
1042.815	-1.41
1043.238	4.69
1043.661	2.59
1044.084	-10.11
1044.507	-12.11
1044.93	-5.31
1045.352	-8.61
1045.775	-6.91
1046.198	-3.41
1046.621	-0.11
1047.043	-3.71
1047.466	4.59
1047.889	-5.21
1048.311	-5.21
1048.734	-0.21
1049.156	-6.71
1049.579	-1.81
1050.001	1.49
1050.424	-4.21
1050.846	-2.01
1051.269	-3.41
1051.691	-4.31
1052.113	-4.31
1052.536	-0.01
1052.958	3.79
1053.38	-5.11
1053.802	-1.31
1054.225	1.79
1054.647	-3.91
1055.069	-10.71
1055.491	4.99
1055.913	-9.61
1056.335	-1.91
1056.757	-6.91
1057.179	-8.41
1057.601	-6.61
1058.023	-6.51
1058.445	-5.41
1058.867	-4.51
1059.289	-7.71
1059.711	-11.91
1060.133	-4.01
1060.555	-4.21
1060.976	-5.01
1061.398	-5.81
1061.82	-8.01
1062.241	-8.21
1062.663	-8.91
1063.085	-3.91
1063.506	-3.71
1063.928	-4.41
1064.35	-4.61
1064.771	-10.01
1065.193	-3.71
1065.614	-7.71
1066.035	-4.31
1066.457	-6.01
1066.878	0.59
1067.3	-3.31
1067.721	1.09
1068.142	-8.21
1068.564	-4.91
1068.985	-3.71
1069.406	-11.81
1069.827	-4.81
1070.248	-8.71
1070.67	-6.61
1071.091	-7.61
1071.512	-5.11
1071.933	-10.41
1072.354	-4.71
1072.775	-3.41
1073.196	-10.61
1073.617	-6.21
1074.038	-6.21
1074.459	-0.41
1074.88	-10.91
1075.3	-3.91
1075.721	-4.71
1076.142	0.69
1076.563	-0.71
1076.983	-14.41
1077.404	-7.81
1077.825	-9.91
1078.246	1.09
1078.666	-8.81
1079.087	-8.91
1079.507	-10.41
1079.928	0.69
1080.348	-0.21
1080.769	-3.31
1081.189	-1.41
1081.61	-9.31
1082.03	-1.51
1082.451	-9.91
1082.871	-7.01
1083.291	-1.21
1083.711	-7.91
1084.132	-4.51
1084.552	0.89
1084.972	-0.81
1085.392	-9.71
1085.813	-13.41
1086.233	-5.51
1086.653	-0.71
1087.073	-7.31
1087.493	-7.11
1087.913	-9.11
1088.333	-6.21
1088.753	-5.41
1089.173	-2.61
1089.593	3.09
1090.013	3.69
1090.433	3.69
1090.852	-5.71
1091.272	-0.21
1091.692	-0.61
1092.112	-2.61
1092.531	-5.21
1092.951	-15.51
1093.371	1.39
1093.79	-1.31
1094.21	0.69
1094.63	-12.11
1095.049	-7.71
1095.469	-5.81
1095.888	-4.21
1096.308	2.69
1096.727	2.19
1097.146	-1.11
1097.566	1.19
1097.985	-3.31
1098.405	-4.11
1098.824	-2.71
1099.243	-6.61
1099.662	-8.31
1100.082	-7.61
1100.501	0.99
1100.92	-6.21
1101.339	-4.71
1101.758	-2.21
