Data from 20171114-ORNL-Ar_H_NY_Subt18_08-05-45-793.txt Node
Date: Tue Nov 14 08:05:45 EST 2017
User: Ender
Spectrometer: HR+D1039
Trigger mode: 0
Integration Time (sec): 2.730000E-2
Scans to average: 10
Electric dark correction enabled: true
Nonlinearity correction enabled: false
Boxcar width: 0
XAxis mode: Wavelengths
Number of Pixels in Spectrum: 2048
>>>>>Begin Spectral Data<<<<<
187.836	-3.41
188.309	-3.41
188.782	-3.41
189.255	-1.01
189.728	0.89
190.201	1.59
190.674	3.29
191.147	1.59
191.619	-4.91
192.092	0.59
192.565	3.39
193.038	-0.41
193.511	4.99
193.984	5.29
194.456	-2.21
194.929	-1.41
195.402	-6.71
195.874	-1.61
196.347	-3.01
196.82	-10.71
197.292	2.09
197.765	-1.71
198.237	-9.41
198.71	-3.01
199.182	-3.11
199.655	-0.41
200.127	2.09
200.6	-4.41
201.072	-3.21
201.544	-1.51
202.017	-6.91
202.489	2.09
202.961	-5.11
203.433	-5.61
203.906	-11.21
204.378	-7.01
204.85	-9.61
205.322	-7.11
205.794	-1.21
206.266	-4.51
206.739	-4.21
207.211	2.49
207.683	-6.71
208.155	-5.81
208.627	-7.51
209.099	-5.51
209.57	-5.91
210.042	-8.21
210.514	-0.41
210.986	-3.21
211.458	-4.51
211.93	-5.11
212.402	1.19
212.873	-8.01
213.345	-13.41
213.817	-11.51
214.288	-4.41
214.76	-4.61
215.232	-7.61
215.703	-5.41
216.175	-3.71
216.646	-9.81
217.118	-8.01
217.589	-14.31
218.061	-5.21
218.532	-7.51
219.004	-3.11
219.475	-4.41
219.946	-4.31
220.418	-7.91
220.889	4.19
221.36	-3.71
221.832	-3.31
222.303	1.59
222.774	-2.71
223.245	-11.31
223.717	-8.21
224.188	-0.11
224.659	-9.11
225.13	-8.31
225.601	-3.41
226.072	0.49
226.543	3.69
227.014	-0.61
227.485	-2.21
227.956	-4.51
228.427	1.99
228.898	2.39
229.369	6.79
229.839	-2.21
230.31	-3.21
230.781	-0.41
231.252	-1.71
231.722	-7.31
232.193	-5.31
232.664	-0.21
233.135	3.89
233.605	-0.01
234.076	-4.81
234.546	3.19
235.017	3.99
235.487	-2.31
235.958	-3.51
236.428	-0.31
236.899	4.49
237.369	0.29
237.84	-2.61
238.31	3.99
238.78	3.59
239.251	0.79
239.721	1.59
240.191	-1.91
240.662	0.79
241.132	6.29
241.602	-6.51
242.072	-0.51
242.542	1.89
243.013	-4.31
243.483	6.69
243.953	-1.41
244.423	1.59
244.893	-10.61
245.363	1.89
245.833	1.09
246.303	-0.71
246.773	3.19
247.243	6.19
247.712	4.19
248.182	10.09
248.652	3.89
249.122	-1.41
249.592	8.69
250.061	22.29
250.531	32.39
251.001	22.99
251.471	24.29
251.94	20.59
252.41	7.89
252.879	6.89
253.349	10.49
253.818	12.39
254.288	3.49
254.757	4.19
255.227	0.29
255.696	0.59
256.166	6.09
256.635	12.09
257.105	10.29
257.574	5.09
258.043	9.79
258.513	15.39
258.982	21.19
259.451	11.19
259.92	12.49
260.389	10.99
260.859	15.59
261.328	12.29
261.797	17.39
262.266	13.79
262.735	7.19
263.204	7.39
263.673	0.29
264.142	8.09
264.611	-3.41
265.08	-1.61
265.549	3.59
266.018	3.29
266.487	1.79
266.955	4.39
267.424	4.99
267.893	4.99
268.362	-5.51
268.83	12.99
269.299	10.99
269.768	9.19
270.236	7.59
270.705	0.79
271.174	4.79
271.642	7.69
272.111	5.79
272.579	22.19
273.048	26.29
273.516	29.99
273.985	28.19
274.453	25.39
274.922	16.49
275.39	13.09
275.858	7.99
276.327	13.19
276.795	17.39
277.263	10.09
277.731	32.59
278.2	50.69
278.668	58.59
279.136	52.69
279.604	23.29
280.072	19.69
280.54	12.29
281.008	8.79
281.477	14.29
281.945	12.99
282.413	11.99
282.881	11.69
283.348	10.69
283.816	19.09
284.284	15.69
284.752	18.49
285.22	13.59
285.688	19.39
286.156	23.89
286.623	44.49
287.091	56.59
287.559	28.59
288.026	24.99
288.494	20.99
288.962	5.59
289.429	11.19
289.897	17.09
290.364	16.99
290.832	20.49
291.3	14.79
291.767	17.09
292.234	22.19
292.702	13.49
293.169	13.99
293.637	20.99
294.104	21.69
294.571	13.09
295.039	15.19
295.506	17.49
295.973	17.79
296.44	16.99
296.908	22.29
297.375	20.49
297.842	27.09
298.309	19.09
298.776	13.89
299.243	26.39
299.71	16.19
300.177	21.89
300.644	17.39
301.111	22.99
301.578	22.59
302.045	21.09
302.512	21.19
302.979	22.79
303.446	18.79
303.913	18.89
304.379	20.89
304.846	30.39
305.313	24.59
305.78	19.89
306.246	26.89
306.713	31.99
307.18	23.09
307.646	31.99
308.113	25.79
308.579	21.39
309.046	29.89
309.512	26.59
309.979	20.49
310.445	34.39
310.912	34.79
311.378	38.89
311.845	36.29
312.311	32.99
312.777	28.59
313.244	35.79
313.71	37.59
314.176	27.49
314.642	32.69
315.109	28.39
315.575	43.29
316.041	40.09
316.507	31.69
316.973	43.29
317.439	36.09
317.905	39.69
318.371	39.29
318.837	31.89
319.303	32.29
319.769	34.09
320.235	35.69
320.701	37.99
321.167	41.89
321.633	28.99
322.099	41.79
322.564	48.19
323.03	40.69
323.496	39.49
323.962	43.99
324.427	42.59
324.893	41.29
325.359	37.59
325.824	34.49
326.29	37.69
326.755	39.89
327.221	42.99
327.686	41.99
328.152	49.49
328.617	42.49
329.083	47.29
329.548	51.79
330.014	47.39
330.479	40.29
330.944	42.69
331.41	37.89
331.875	46.29
332.34	37.29
332.805	47.59
333.271	52.29
333.736	45.69
334.201	47.59
334.666	58.79
335.131	54.79
335.596	55.69
336.061	55.39
336.526	47.19
336.991	53.99
337.456	55.59
337.921	48.19
338.386	42.09
338.851	41.29
339.316	48.89
339.781	51.39
340.246	50.29
340.711	48.39
341.175	59.49
341.64	48.29
342.105	55.59
342.569	55.29
343.034	58.89
343.499	55.19
343.963	54.79
344.428	66.29
344.893	61.89
345.357	66.39
345.822	64.19
346.286	70.49
346.751	70.99
347.215	71.19
347.679	74.49
348.144	92.49
348.608	84.49
349.073	68.49
349.537	70.49
350.001	76.49
350.465	96.09
350.93	84.99
351.394	75.29
351.858	68.89
352.322	88.09
352.786	82.89
353.25	102.39
353.715	105.59
354.179	105.09
354.643	125.19
355.107	139.89
355.571	115.39
356.035	107.29
356.498	115.59
356.962	119.69
357.426	139.49
357.89	113.79
358.354	88.69
358.818	86.39
359.281	87.49
359.745	83.79
360.209	74.39
360.673	75.79
361.136	79.09
361.6	81.89
362.064	88.09
362.527	87.59
362.991	90.29
363.454	86.39
363.918	79.29
364.381	81.99
364.845	84.09
365.308	83.89
365.772	81.49
366.235	87.49
366.698	84.89
367.162	82.89
367.625	86.89
368.088	93.09
368.552	89.39
369.015	90.99
369.478	94.59
369.941	100.99
370.404	94.79
370.867	106.29
371.331	108.09
371.794	116.99
372.257	114.69
372.72	116.19
373.183	112.19
373.646	104.89
374.109	105.79
374.572	105.99
375.035	112.09
375.497	113.49
375.96	113.59
376.423	105.99
376.886	116.69
377.349	117.49
377.811	102.19
378.274	104.49
378.737	114.29
379.199	118.19
379.662	113.19
380.125	120.99
380.587	116.39
381.05	119.99
381.512	131.79
381.975	137.09
382.437	126.09
382.9	127.29
383.362	133.09
383.825	149.79
384.287	149.79
384.75	146.09
385.212	139.19
385.674	143.39
386.136	138.39
386.599	126.89
387.061	128.49
387.523	133.89
387.985	139.79
388.447	144.29
388.91	145.99
389.372	161.09
389.834	153.29
390.296	150.69
390.758	157.99
391.22	167.89
391.682	202.89
392.144	303.89
392.606	234.19
393.068	168.19
393.529	172.39
393.991	153.29
394.453	144.19
394.915	159.79
395.377	189.89
395.838	212.79
396.3	154.89
396.762	145.39
397.224	136.19
397.685	136.69
398.147	132.29
398.608	129.19
399.07	134.39
399.531	136.69
399.993	140.59
400.454	159.49
400.916	150.59
401.377	143.29
401.839	153.99
402.3	152.09
402.762	171.89
403.223	183.59
403.684	172.39
404.145	163.59
404.607	161.69
405.068	169.89
405.529	178.79
405.99	187.89
406.451	178.69
406.913	180.79
407.374	169.59
407.835	159.19
408.296	170.29
408.757	174.79
409.218	189.49
409.679	180.39
410.14	176.09
410.601	183.49
411.062	188.49
411.522	191.29
411.983	187.89
412.444	184.99
412.905	180.09
413.366	177.89
413.826	195.19
414.287	222.89
414.748	271.69
415.208	249.79
415.669	210.89
416.13	202.59
416.59	200.89
417.051	210.69
417.511	219.69
417.972	235.69
418.432	246.99
418.893	291.79
419.353	248.69
419.814	203.39
420.274	186.49
420.734	189.79
421.195	204.39
421.655	201.89
422.115	199.19
422.576	186.99
423.036	192.39
423.496	210.09
423.956	214.39
424.416	233.79
424.876	260.99
425.336	263.39
425.797	263.59
426.257	262.79
426.717	245.79
427.177	238.49
427.637	226.79
428.097	239.49
428.556	244.09
429.016	272.29
429.476	274.09
429.936	276.89
430.396	288.59
430.856	292.19
431.315	314.89
431.775	356.89
432.235	381.79
432.694	362.09
433.154	364.29
433.614	397.39
434.073	349.19
434.533	289.49
434.993	272.19
435.452	288.39
435.912	299.69
436.371	295.59
436.83	283.79
437.29	275.19
437.749	253.59
438.209	245.79
438.668	278.19
439.127	291.19
439.587	266.49
440.046	249.09
440.505	262.49
440.964	272.19
441.424	324.39
441.883	317.39
442.342	261.99
442.801	224.39
443.26	223.59
443.719	225.69
444.178	219.59
444.637	205.89
445.096	220.79
445.555	219.19
446.014	222.29
446.473	230.09
446.932	228.59
447.391	230.19
447.849	228.79
448.308	220.29
448.767	225.09
449.226	235.29
449.685	237.29
450.143	252.99
450.602	241.49
451.061	226.09
451.519	236.99
451.978	233.89
452.436	240.69
452.895	238.79
453.353	257.69
453.812	242.59
454.27	240.79
454.729	242.89
455.187	247.69
455.646	253.79
456.104	248.99
456.562	260.99
457.021	269.69
457.479	260.09
457.937	282.09
458.395	264.29
458.854	247.19
459.312	261.29
459.77	273.89
460.228	259.39
460.686	241.79
461.144	260.29
461.602	247.89
462.06	246.39
462.518	253.59
462.976	256.39
463.434	258.39
463.892	264.89
464.35	278.69
464.808	295.89
465.266	275.29
465.724	269.79
466.181	279.89
466.639	266.89
467.097	294.79
467.555	309.19
468.012	308.99
468.47	306.39
468.928	328.59
469.385	348.19
469.843	356.69
470.3	350.69
470.758	367.19
471.215	391.49
471.673	408.49
472.13	411.99
472.588	428.79
473.045	376.79
473.503	382.79
473.96	393.99
474.417	405.09
474.875	439.19
475.332	476.39
475.789	469.29
476.246	471.69
476.704	499.29
477.161	522.19
477.618	529.69
478.075	567.49
478.532	630.39
478.989	697.89
479.446	805.59
479.903	785.19
480.36	824.99
480.817	877.29
481.274	993.89
481.731	1094.99
482.188	1189.99
482.645	1321.79
483.102	1437.19
483.558	1571.19
484.015	1623.29
484.472	1600.49
484.929	1555.89
485.385	1522.49
485.842	1461.69
486.299	1393.29
486.755	1326.99
487.212	1110.39
487.668	938.49
488.125	864.89
488.582	794.09
489.038	756.79
489.494	719.09
489.951	691.09
490.407	681.49
490.864	658.69
491.32	656.69
491.776	644.19
492.233	657.69
492.689	620.89
493.145	612.29
493.602	604.69
494.058	611.69
494.514	622.49
494.97	638.39
495.426	665.19
495.882	633.09
496.338	621.19
496.794	645.99
497.251	635.19
497.707	633.09
498.163	644.89
498.618	657.39
499.074	657.49
499.53	688.49
499.986	697.19
500.442	657.19
500.898	635.09
501.354	638.99
501.809	648.49
502.265	653.69
502.721	673.99
503.177	682.69
503.632	680.39
504.088	689.09
504.543	714.29
504.999	717.09
505.455	664.89
505.91	640.29
506.366	645.19
506.821	635.49
507.277	626.29
507.732	634.69
508.187	627.59
508.643	635.69
509.098	634.79
509.553	664.49
510.009	667.39
510.464	673.39
510.919	695.89
511.375	695.39
511.83	713.59
512.285	733.89
512.74	767.89
513.195	791.39
513.65	777.69
514.105	771.89
514.56	784.29
515.015	805.49
515.47	816.39
515.925	797.09
516.38	796.09
516.835	800.79
517.29	796.79
517.745	789.59
518.2	768.49
518.655	756.49
519.109	746.99
519.564	748.69
520.019	734.49
520.474	725.69
520.928	727.79
521.383	730.59
521.838	725.79
522.292	724.09
522.747	720.29
523.201	709.09
523.656	705.19
524.11	698.39
524.565	702.19
525.019	685.29
525.474	705.59
525.928	715.99
526.382	704.09
526.837	694.79
527.291	716.79
527.745	704.69
528.2	704.19
528.654	694.59
529.108	687.09
529.562	692.69
530.016	692.39
530.47	703.09
530.925	705.39
531.379	704.99
531.833	705.59
532.287	710.79
532.741	704.19
533.195	705.69
533.649	720.99
534.103	730.69
534.556	711.79
535.01	717.99
535.464	720.39
535.918	738.99
536.372	733.69
536.826	726.39
537.279	717.49
537.733	726.99
538.187	726.29
538.64	723.89
539.094	733.89
539.548	726.79
540.001	727.39
540.455	734.39
540.908	742.39
541.362	742.49
541.815	753.09
542.269	768.59
542.722	764.39
543.175	774.79
543.629	781.59
544.082	789.99
544.536	789.49
544.989	790.89
545.442	800.59
545.895	792.19
546.349	793.19
546.802	797.59
547.255	796.19
547.708	810.69
548.161	804.69
548.614	820.39
549.067	840.29
549.52	821.49
549.973	817.59
550.426	814.89
550.879	798.39
551.332	800.89
551.785	810.19
552.238	815.59
552.691	820.79
553.144	828.19
553.596	846.39
554.049	869.99
554.502	903.39
554.955	915.79
555.407	915.89
555.86	912.39
556.313	903.39
556.765	887.29
557.218	875.09
557.67	889.69
558.123	873.49
558.576	878.79
559.028	884.99
559.48	882.29
559.933	879.49
560.385	842.19
560.838	805.69
561.29	785.19
561.742	785.99
562.195	764.89
562.647	763.99
563.099	775.29
563.551	769.89
564.004	785.59
564.456	774.49
564.908	759.19
565.36	747.09
565.812	728.99
566.264	726.69
566.716	729.49
567.168	729.49
567.62	728.49
568.072	698.69
568.524	700.39
568.976	689.09
569.428	673.29
569.88	670.89
570.332	674.79
570.784	681.89
571.235	685.99
571.687	691.59
572.139	694.29
572.59	710.99
573.042	718.29
573.494	707.99
573.945	709.09
574.397	689.29
574.849	696.19
575.3	693.09
575.752	677.09
576.203	685.09
576.655	678.89
577.106	671.19
577.557	662.89
578.009	661.89
578.46	670.19
578.912	667.99
579.363	659.49
579.814	666.19
580.265	664.29
580.717	668.59
581.168	668.09
581.619	677.99
582.07	683.49
582.521	676.39
582.972	670.19
583.423	678.59
583.875	683.59
584.326	700.79
584.777	739.09
585.227	818.99
585.678	923.79
586.129	996.79
586.58	1079.49
587.031	1163.39
587.482	1322.09
587.933	1504.89
588.384	1307.49
588.834	970.49
589.285	804.59
589.736	775.99
590.186	769.99
590.637	756.59
591.088	743.19
591.538	728.09
591.989	725.19
592.439	730.39
592.89	720.39
593.34	711.09
593.791	704.79
594.241	691.49
594.692	712.89
595.142	694.79
595.593	699.09
596.043	712.49
596.493	707.29
596.943	715.09
597.394	711.89
597.844	707.69
598.294	722.29
598.744	748.39
599.195	771.29
599.645	809.19
600.095	848.59
600.545	912.29
600.995	952.69
601.445	1012.89
601.895	1068.19
602.345	1124.89
602.795	1100.09
603.245	1057.39
603.695	1003.99
604.145	958.29
604.594	905.89
605.044	842.29
605.494	792.59
605.944	745.59
606.393	732.69
606.843	707.89
607.293	736.49
607.743	731.19
608.192	745.59
608.642	739.69
609.091	757.79
609.541	763.49
609.99	760.19
610.44	762.59
610.889	715.09
611.339	697.29
611.788	684.29
612.238	692.29
612.687	703.59
613.136	714.19
613.586	726.69
614.035	733.29
614.484	748.59
614.933	758.49
615.383	739.99
615.832	730.89
616.281	713.29
616.73	672.29
617.179	654.89
617.628	634.09
618.077	630.39
618.526	609.59
618.975	598.29
619.424	614.79
619.873	608.99
620.322	608.89
620.771	596.99
621.22	601.79
621.669	591.49
622.118	581.59
622.567	574.89
623.015	559.89
623.464	562.79
623.913	557.29
624.361	545.59
624.81	548.49
625.259	549.19
625.707	549.39
626.156	543.39
626.604	557.59
627.053	549.29
627.501	552.89
627.95	559.89
628.398	565.69
628.847	565.29
629.295	560.69
629.744	565.39
630.192	559.59
630.64	553.59
631.089	558.59
631.537	564.09
631.985	568.79
632.433	584.19
632.881	600.69
633.33	644.99
633.778	625.89
634.226	555.49
634.674	557.09
635.122	559.19
635.57	587.89
636.018	613.59
636.466	567.79
636.914	545.29
637.362	558.29
637.81	562.29
638.258	573.39
638.705	559.19
639.153	596.59
639.601	603.29
640.049	632.09
640.497	667.69
640.944	676.39
641.392	630.59
641.84	601.69
642.287	570.59
642.735	560.49
643.182	564.19
643.63	553.49
644.078	559.79
644.525	577.09
644.973	582.69
645.42	583.29
645.867	605.29
646.315	637.79
646.762	657.49
647.21	676.09
647.657	701.89
648.104	737.19
648.551	758.99
648.999	820.19
649.446	906.79
649.893	990.49
650.34	1137.09
650.787	1360.19
651.234	1691.99
651.682	2199.69
652.129	3026.99
652.576	4380.19
653.023	6467.59
653.47	8883.39
653.917	11109.99
654.363	12910.49
654.81	14297.59
655.257	13647.09
655.704	8908.69
656.151	5257.19
656.598	3394.19
657.044	2399.59
657.491	1840.09
657.938	1461.29
658.385	1223.09
658.831	1063.69
659.278	955.79
659.724	846.49
660.171	781.19
660.618	712.39
661.064	674.39
661.511	649.79
661.957	646.09
662.404	628.69
662.85	638.69
663.296	607.69
663.743	555.69
664.189	522.99
664.635	512.89
665.082	519.99
665.528	514.29
665.974	498.49
666.42	498.39
666.867	491.89
667.313	479.99
667.759	474.59
668.205	464.69
668.651	468.99
669.097	469.49
669.543	490.79
669.989	463.29
670.435	432.89
670.881	420.09
671.327	446.39
671.773	458.19
672.219	471.49
672.665	523.39
673.11	551.89
673.556	610.99
674.002	655.29
674.448	635.19
674.893	525.59
675.339	466.09
675.785	426.99
676.23	409.19
676.676	391.49
677.122	374.99
677.567	355.79
678.013	363.79
678.458	351.29
678.904	350.29
679.349	337.39
679.794	340.39
680.24	337.59
680.685	333.69
681.131	327.59
681.576	337.89
682.021	340.19
682.466	333.99
682.912	338.89
683.357	340.19
683.802	364.99
684.247	394.19
684.692	442.39
685.137	477.19
685.583	522.29
686.028	537.59
686.473	503.29
686.918	434.69
687.363	401.89
687.807	375.79
688.252	354.19
688.697	342.59
689.142	324.69
689.587	321.99
690.032	315.69
690.477	333.29
690.921	344.59
691.366	366.39
691.811	383.19
692.255	420.19
692.7	447.99
693.145	486.79
693.589	659.29
694.034	1083.39
694.478	1481.99
694.923	1688.59
695.367	2214.99
695.812	1165.89
696.256	486.19
696.701	361.89
697.145	332.99
697.59	316.39
698.034	303.89
698.478	313.89
698.922	312.09
699.367	310.19
699.811	321.29
700.255	338.29
700.699	372.29
701.143	411.79
701.588	460.79
702.032	488.19
702.476	493.89
702.92	475.49
703.364	471.39
703.808	605.29
704.252	982.29
704.696	1389.99
705.14	1632.69
705.584	2079.19
706.027	1032.59
706.471	511.79
706.915	380.89
707.359	337.29
707.803	306.59
708.246	298.39
708.69	298.19
709.134	306.39
709.577	298.69
710.021	303.59
710.465	297.99
710.908	288.39
711.352	289.19
711.795	292.29
712.239	337.09
712.682	364.89
713.126	405.29
713.569	460.09
714.012	361.89
714.456	308.89
714.899	287.09
715.342	271.39
715.786	252.49
716.229	255.69
716.672	246.39
717.115	241.99
717.558	242.49
718.002	246.69
718.445	255.89
718.888	273.89
719.331	286.79
719.774	292.59
720.217	294.49
720.66	276.49
721.103	254.19
721.546	244.49
721.989	233.99
722.432	225.99
722.874	223.69
723.317	226.09
723.76	229.69
724.203	253.39
724.645	306.99
725.088	434.49
725.531	550.09
725.974	630.59
726.416	530.09
726.859	302.29
727.301	230.39
727.744	226.99
728.187	220.19
728.629	228.09
729.071	230.09
729.514	246.29
729.956	252.89
730.399	270.49
730.841	276.99
731.283	262.79
731.726	248.69
732.168	252.39
732.61	250.89
733.053	274.59
733.495	296.99
733.937	337.29
734.379	382.69
734.821	415.39
735.263	511.99
735.705	776.39
736.148	1480.59
736.59	2462.29
737.032	2962.99
737.474	2408.39
737.916	772.79
738.357	419.79
738.799	317.19
739.241	286.29
739.683	271.19
740.125	271.59
740.567	287.29
741.008	299.59
741.45	306.69
741.892	304.19
742.334	328.89
742.775	353.19
743.217	335.89
743.658	255.79
744.1	239.89
744.542	244.49
744.983	290.49
745.425	324.79
745.866	327.29
746.307	267.29
746.749	268.99
747.19	311.69
747.632	422.69
748.073	821.89
748.514	1767.59
748.956	2723.39
749.397	3429.39
749.838	2835.79
750.279	2863.59
750.72	1444.39
751.162	520.69
751.603	307.99
752.044	237.49
752.485	204.09
752.926	206.89
753.367	200.79
753.808	185.89
754.249	183.69
754.69	177.59
755.131	176.39
755.572	169.49
756.013	174.69
756.453	180.99
756.894	181.39
757.335	172.99
757.776	187.69
758.216	186.49
758.657	192.99
759.098	189.09
759.538	215.79
759.979	250.09
760.42	356.79
760.86	659.99
761.301	1697.09
761.741	4179.99
762.182	6240.09
762.622	4361.69
763.063	1258.59
763.503	519.79
763.943	323.49
764.384	325.59
764.824	389.79
765.264	431.59
765.705	302.29
766.145	200.09
766.585	177.09
767.025	174.69
767.465	180.39
767.906	232.39
768.346	308.19
768.786	334.29
769.226	249.99
769.666	302.69
770.106	572.49
770.546	1461.99
770.986	2533.69
771.426	2278.89
771.866	753.69
772.306	315.59
772.745	200.89
773.185	167.69
773.625	165.99
774.065	154.89
774.505	189.19
774.944	290.59
775.384	651.69
775.824	1193.19
776.263	1178.59
776.703	490.89
777.142	211.49
777.582	148.19
778.021	131.99
778.461	129.19
778.9	132.19
779.34	123.09
779.779	104.29
780.219	105.79
780.658	105.79
781.097	100.39
781.537	114.49
781.976	106.59
782.415	105.09
782.855	98.99
783.294	99.29
783.733	101.09
784.172	105.69
784.611	106.59
785.05	107.69
785.489	106.79
785.928	112.69
786.367	116.49
786.806	108.09
787.245	126.09
787.684	128.49
788.123	144.59
788.562	125.49
789.001	123.29
789.44	117.89
789.879	114.89
790.317	117.29
790.756	121.49
791.195	122.19
791.634	141.49
792.072	188.19
792.511	339.49
792.95	942.89
793.388	2042.19
793.827	1884.49
794.265	649.89
794.704	268.39
795.142	179.79
795.581	140.59
796.019	125.89
796.458	127.09
796.896	111.39
797.334	118.49
797.773	150.69
798.211	209.09
798.649	407.29
799.087	965.39
799.526	1520.09
799.964	1916.79
800.402	1940.59
800.84	719.49
801.278	292.59
801.716	176.49
802.154	153.39
802.592	141.39
803.03	130.89
803.468	130.19
803.906	135.99
804.344	140.29
804.782	130.79
805.22	123.49
805.658	119.69
806.096	136.59
806.533	152.99
806.971	164.09
807.409	200.59
807.847	292.29
808.284	615.69
808.722	1753.99
809.16	3148.59
809.597	2946.89
810.035	5144.49
810.472	5625.29
810.91	2020.09
811.347	758.59
811.785	384.59
812.222	247.29
812.66	182.69
813.097	157.79
813.535	129.19
813.972	119.59
814.409	112.79
814.846	99.69
815.284	103.49
815.721	105.69
816.158	101.19
816.595	111.89
817.032	169.99
817.47	186.79
817.907	164.59
818.344	142.39
818.781	114.59
819.218	93.29
819.655	117.29
820.092	174.19
820.529	202.49
820.966	173.99
821.403	129.39
821.839	105.59
822.276	89.19
822.713	110.49
823.15	129.69
823.587	113.99
824.023	134.59
824.46	280.39
824.897	841.79
825.333	1304.49
825.77	557.99
826.206	220.09
826.643	128.69
827.08	87.79
827.516	81.39
827.953	74.69
828.389	77.09
828.825	67.69
829.262	68.39
829.698	62.39
830.135	64.99
830.571	55.79
831.007	58.99
831.443	62.89
831.88	60.09
832.316	58.79
832.752	67.19
833.188	60.69
833.624	58.59
834.06	67.39
834.497	67.69
834.933	66.09
835.369	67.09
835.805	63.99
836.241	75.19
836.677	76.49
837.112	81.39
837.548	97.89
837.984	128.39
838.42	187.79
838.856	453.89
839.292	1425.69
839.727	2204.99
840.163	1022.09
840.599	862.99
841.034	1932.59
841.47	2061.19
841.906	748.39
842.341	321.99
842.777	228.29
843.212	309.89
843.648	304.89
844.083	150.99
844.519	90.19
844.954	71.69
845.39	53.79
845.825	55.69
846.261	59.59
846.696	47.49
847.131	51.39
847.566	55.99
848.002	56.39
848.437	50.29
848.872	54.79
849.307	59.79
849.742	84.29
850.177	169.89
850.613	525.59
851.048	841.89
851.483	365.39
851.918	146.39
852.353	79.19
852.788	55.79
853.223	52.59
853.657	49.29
854.092	48.49
854.527	37.09
854.962	36.09
855.397	41.79
855.832	50.89
856.266	44.69
856.701	40.39
857.136	36.29
857.57	38.39
858.005	47.99
858.44	54.49
858.874	41.49
859.309	49.69
859.743	41.49
860.178	48.19
860.612	39.19
861.047	47.59
861.481	67.29
861.915	65.09
862.35	42.09
862.784	27.59
863.218	33.69
863.653	32.89
864.087	41.99
864.521	50.19
864.955	63.39
865.39	151.89
865.824	165.09
866.258	109.79
866.692	158.99
867.126	168.69
867.56	99.89
867.994	46.39
868.428	43.59
868.862	44.29
869.296	55.29
869.73	56.59
870.164	50.19
870.598	38.49
871.031	35.09
871.465	35.19
871.899	28.19
872.333	23.79
872.766	20.89
873.2	19.89
873.634	25.49
874.067	19.29
874.501	21.99
874.935	33.69
875.368	28.89
875.802	26.69
876.235	25.29
876.669	18.79
877.102	22.39
877.535	18.99
877.969	21.19
878.402	24.89
878.836	16.39
879.269	20.59
879.702	24.59
880.135	22.19
880.569	20.89
881.002	24.49
881.435	25.79
881.868	14.39
882.301	23.29
882.734	12.19
883.167	24.49
883.601	19.09
884.034	21.09
884.467	12.59
884.899	18.29
885.332	18.39
885.765	17.09
886.198	15.19
886.631	19.59
887.064	18.89
887.497	24.49
887.929	20.59
888.362	13.49
888.795	8.29
889.228	20.69
889.66	21.49
890.093	22.09
890.526	12.99
890.958	21.59
891.391	17.29
891.823	23.59
892.256	18.39
892.688	14.39
893.121	18.99
893.553	16.59
893.985	19.99
894.418	16.99
894.85	10.29
895.282	14.09
895.715	11.29
896.147	19.49
896.579	15.49
897.011	13.09
897.444	10.09
897.876	11.19
898.308	11.69
898.74	17.59
899.172	12.59
899.604	25.59
900.036	17.89
900.468	12.19
900.9	9.99
901.332	21.79
901.764	10.79
902.196	19.99
902.628	17.09
903.06	16.49
903.491	28.89
903.923	21.89
904.355	18.79
904.787	22.89
905.218	25.59
905.65	23.89
906.082	11.99
906.513	10.69
906.945	14.69
907.376	15.59
907.808	15.29
908.239	20.69
908.671	15.79
909.102	19.59
909.534	24.09
909.965	45.89
910.397	89.39
910.828	302.09
911.259	457.69
911.691	210.99
912.122	105.09
912.553	55.79
912.984	33.69
913.415	21.59
913.847	24.99
914.278	12.89
914.709	7.89
915.14	15.39
915.571	17.59
916.002	12.09
916.433	16.29
916.864	15.49
917.295	12.99
917.726	20.99
918.157	14.89
918.587	29.79
919.018	26.89
919.449	17.59
919.88	24.49
920.311	29.29
920.741	47.29
921.172	156.39
921.603	142.29
922.033	63.69
922.464	44.79
922.895	24.19
923.325	19.19
923.756	15.69
924.186	11.69
924.617	22.59
925.047	37.99
925.478	54.19
925.908	41.39
926.338	25.59
926.769	22.09
927.199	16.99
927.629	7.09
928.06	11.09
928.49	12.79
928.92	17.99
929.35	12.39
929.78	16.19
930.21	-0.71
930.641	2.89
931.071	11.89
931.501	3.09
931.931	1.49
932.361	6.19
932.791	5.19
933.221	8.39
933.651	2.39
934.08	16.79
934.51	24.49
934.94	10.69
935.37	9.39
935.8	11.69
936.229	7.89
936.659	4.99
937.089	1.99
937.519	11.29
937.948	17.99
938.378	18.89
938.807	8.19
939.237	7.09
939.666	-1.21
940.096	-6.91
940.525	-1.11
940.955	2.39
941.384	2.19
941.814	-8.21
942.243	1.69
942.672	5.39
943.102	2.59
943.531	-4.51
943.96	2.49
944.39	2.49
944.819	2.69
945.248	2.89
945.677	3.49
946.106	6.69
946.535	9.69
946.964	-0.71
947.393	-2.41
947.822	1.99
948.251	-4.41
948.68	-3.91
949.109	0.89
949.538	0.19
949.967	-3.31
950.396	-0.01
950.825	-0.51
951.254	-0.21
951.682	-12.41
952.111	-1.51
952.54	5.79
952.969	-4.71
953.397	-4.01
953.826	2.89
954.254	-3.01
954.683	4.09
955.112	0.69
955.54	0.39
955.969	-3.01
956.397	-1.21
956.826	-4.11
957.254	-2.21
957.682	-2.01
958.111	5.39
958.539	-3.41
958.967	-2.01
959.396	-2.31
959.824	-4.71
960.252	2.49
960.68	-10.51
961.109	1.29
961.537	-3.51
961.965	-3.01
962.393	3.79
962.821	-4.81
963.249	3.69
963.677	3.59
964.105	5.19
964.533	38.29
964.961	41.19
965.389	19.09
965.817	3.39
966.245	1.69
966.672	0.69
967.1	-7.51
967.528	-3.31
967.956	4.49
968.383	0.09
968.811	0.59
969.239	-8.51
969.666	-9.41
970.094	-6.71
970.522	-3.61
970.949	-3.41
971.377	-2.71
971.804	-4.21
972.232	0.89
972.659	-7.01
973.087	-4.61
973.514	-3.61
973.941	-9.61
974.369	1.99
974.796	5.29
975.223	-3.51
975.651	-2.81
976.078	-2.21
976.505	1.59
976.932	0.09
977.359	14.99
977.786	17.19
978.214	2.69
978.641	-1.91
979.068	-6.71
979.495	-1.81
979.922	-6.01
980.349	-5.11
980.776	1.89
981.202	-3.61
981.629	-2.11
982.056	0.39
982.483	-2.51
982.91	2.69
983.337	-2.41
983.763	-1.21
984.19	-5.21
984.617	-1.11
985.043	-5.71
985.47	-3.41
985.897	-5.51
986.323	-8.81
986.75	2.59
987.176	-3.81
987.603	-5.11
988.029	2.09
988.456	-1.01
988.882	2.79
989.308	-6.41
989.735	-5.01
990.161	-6.01
990.587	-7.71
991.014	-3.11
991.44	8.39
991.866	0.59
992.292	-3.51
992.719	-2.81
993.145	4.49
993.571	-9.81
993.997	-2.81
994.423	-5.31
994.849	-6.61
995.275	-0.51
995.701	4.89
996.127	-7.51
996.553	3.49
996.979	-8.21
997.405	-5.41
997.83	-4.81
998.256	-1.31
998.682	-7.71
999.108	-6.41
999.534	0.79
999.959	-2.31
1000.385	-0.41
1000.811	-1.31
1001.236	-7.11
1001.662	-8.01
1002.087	-12.31
1002.513	-3.01
1002.938	5.09
1003.364	-5.01
1003.789	-5.61
1004.215	3.29
1004.64	0.99
1005.066	4.49
1005.491	0.69
1005.916	-1.71
1006.342	-4.01
1006.767	-7.41
1007.192	5.09
1007.617	-5.51
1008.042	-7.11
1008.468	-8.01
1008.893	-4.61
1009.318	-2.91
1009.743	-6.91
1010.168	1.19
1010.593	0.59
1011.018	-5.71
1011.443	-1.71
1011.868	-4.51
1012.293	-6.01
1012.718	-8.41
1013.143	-1.71
1013.567	-2.91
1013.992	-4.41
1014.417	-12.11
1014.842	3.49
1015.267	-5.71
1015.691	-5.81
1016.116	2.49
1016.541	-3.61
1016.965	3.39
1017.39	-0.51
1017.814	3.39
1018.239	-1.91
1018.663	-6.31
1019.088	-9.01
1019.512	-4.01
1019.937	-3.51
1020.361	-6.11
1020.785	-8.91
1021.21	-6.61
1021.634	-0.01
1022.058	1.59
1022.483	-1.41
1022.907	-1.41
1023.331	-3.81
1023.755	-5.41
1024.179	-4.71
1024.604	-3.91
1025.028	-6.31
1025.452	-6.61
1025.876	-1.61
1026.3	1.19
1026.724	-12.11
1027.148	-7.91
1027.572	-9.11
1027.996	-6.11
1028.42	-5.01
1028.843	-5.11
1029.267	-7.01
1029.691	-6.61
1030.115	-3.91
1030.539	-7.51
1030.962	-4.61
1031.386	-9.91
1031.81	1.59
1032.233	-5.31
1032.657	-4.21
1033.08	-1.11
1033.504	-1.31
1033.927	-5.21
1034.351	-1.61
1034.774	-3.81
1035.198	-9.11
1035.621	-10.31
1036.045	-7.81
1036.468	-1.71
1036.891	-9.81
1037.315	-10.51
1037.738	-6.21
1038.161	1.99
1038.584	-7.81
1039.008	-8.31
1039.431	0.49
1039.854	-2.51
1040.277	-13.11
1040.7	-6.91
1041.123	-5.61
1041.546	-5.81
1041.969	-9.71
1042.392	-5.11
1042.815	-5.81
1043.238	0.09
1043.661	-0.21
1044.084	-11.11
1044.507	-2.21
1044.93	-10.31
1045.352	-13.11
1045.775	-2.61
1046.198	-0.41
1046.621	-4.41
1047.043	1.89
1047.466	1.69
1047.889	-4.81
1048.311	-1.41
1048.734	-7.31
1049.156	0.89
1049.579	-1.11
1050.001	-4.61
1050.424	-5.01
1050.846	-1.01
1051.269	-2.11
1051.691	-6.21
1052.113	-2.61
1052.536	-1.71
1052.958	0.29
1053.38	-4.61
1053.802	-4.21
1054.225	0.59
1054.647	-9.51
1055.069	-8.01
1055.491	-0.71
1055.913	-12.61
1056.335	-1.51
1056.757	-6.21
1057.179	-9.91
1057.601	-2.21
1058.023	-2.41
1058.445	-3.71
1058.867	-7.41
1059.289	-2.71
1059.711	-5.61
1060.133	-5.21
1060.555	-5.41
1060.976	-8.71
1061.398	-8.11
1061.82	-7.31
1062.241	-9.71
1062.663	-12.11
1063.085	-2.91
1063.506	-1.61
1063.928	-3.61
1064.35	-0.81
1064.771	-10.51
1065.193	-5.31
1065.614	-8.71
1066.035	-3.11
1066.457	-4.11
1066.878	5.29
1067.3	-4.91
1067.721	-4.71
1068.142	-0.91
1068.564	-2.91
1068.985	0.19
1069.406	-6.71
1069.827	-8.51
1070.248	0.39
1070.67	-5.91
1071.091	-8.51
1071.512	-12.41
1071.933	-3.61
1072.354	-6.51
1072.775	-3.01
1073.196	-9.81
1073.617	-1.51
1074.038	-7.31
1074.459	-8.41
1074.88	-11.01
1075.3	1.09
1075.721	-6.71
1076.142	-3.71
1076.563	-4.21
1076.983	-7.61
1077.404	-4.71
1077.825	-13.71
1078.246	-0.91
1078.666	-16.51
1079.087	-8.21
1079.507	-6.91
1079.928	-1.81
1080.348	-6.01
1080.769	-3.21
1081.189	-0.71
1081.61	-3.41
1082.03	-7.91
1082.451	-9.81
1082.871	-4.61
1083.291	-7.21
1083.711	-6.91
1084.132	-0.71
1084.552	-5.61
1084.972	1.89
1085.392	-12.21
1085.813	-12.11
1086.233	-5.21
1086.653	-4.51
1087.073	-6.01
1087.493	-10.41
1087.913	-4.81
1088.333	-10.61
1088.753	-4.21
1089.173	-3.21
1089.593	-4.41
1090.013	2.09
1090.433	5.19
1090.852	-6.41
1091.272	-1.21
1091.692	-4.71
1092.112	-6.51
1092.531	-5.21
1092.951	-11.91
1093.371	1.89
1093.79	-0.01
1094.21	-6.41
1094.63	-7.21
1095.049	-7.61
1095.469	-5.71
1095.888	-5.01
1096.308	3.89
1096.727	-1.91
1097.146	-8.01
1097.566	-7.01
1097.985	-1.41
1098.405	-2.61
1098.824	-3.01
1099.243	-2.71
1099.662	-10.91
1100.082	-3.91
1100.501	-4.91
1100.92	-7.61
1101.339	-1.11
1101.758	-1.81
