Data from 20171114-ORNL-Ar_H_NY_Subt18_08-08-26-030.txt Node
Date: Tue Nov 14 08:08:26 EST 2017
User: Ender
Spectrometer: HR+D1039
Trigger mode: 0
Integration Time (sec): 2.730000E-2
Scans to average: 10
Electric dark correction enabled: true
Nonlinearity correction enabled: false
Boxcar width: 0
XAxis mode: Wavelengths
Number of Pixels in Spectrum: 2048
>>>>>Begin Spectral Data<<<<<
187.836	-2.53
188.309	-2.53
188.782	-2.53
189.255	-2.73
189.728	-0.53
190.201	8.87
190.674	2.57
191.147	4.07
191.619	-8.43
192.092	-0.43
192.565	3.07
193.038	0.07
193.511	0.37
193.984	1.67
194.456	-6.73
194.929	-1.33
195.402	-2.23
195.874	4.27
196.347	2.57
196.82	-6.33
197.292	7.37
197.765	-3.43
198.237	-9.53
198.71	2.87
199.182	-1.93
199.655	5.87
200.127	2.17
200.6	2.97
201.072	-0.13
201.544	0.37
202.017	-5.13
202.489	0.67
202.961	-2.53
203.433	-5.13
203.906	-3.13
204.378	-9.33
204.85	-8.23
205.322	-13.63
205.794	0.17
206.266	-2.53
206.739	-8.53
207.211	4.67
207.683	-6.93
208.155	-5.93
208.627	-4.23
209.099	-2.73
209.57	-11.53
210.042	-1.83
210.514	-2.83
210.986	4.17
211.458	-6.73
211.93	-7.33
212.402	-5.03
212.873	-6.03
213.345	-8.43
213.817	-14.43
214.288	-1.63
214.76	-8.83
215.232	-1.93
215.703	0.07
216.175	-3.53
216.646	-9.13
217.118	-5.83
217.589	2.47
218.061	-3.33
218.532	-10.23
219.004	-0.83
219.475	-2.33
219.946	-0.43
220.418	-4.43
220.889	9.97
221.36	-2.83
221.832	-2.13
222.303	-7.03
222.774	0.97
223.245	-6.83
223.717	-3.93
224.188	2.67
224.659	-9.63
225.13	-2.03
225.601	-4.93
226.072	1.87
226.543	-4.23
227.014	2.07
227.485	4.67
227.956	-0.93
228.427	3.77
228.898	4.17
229.369	4.57
229.839	-3.93
230.31	-5.53
230.781	-0.83
231.252	-10.43
231.722	-6.43
232.193	-3.83
232.664	3.27
233.135	-0.33
233.605	-5.13
234.076	-3.33
234.546	4.57
235.017	4.37
235.487	-1.83
235.958	-4.33
236.428	-1.53
236.899	1.57
237.369	-0.43
237.84	-1.43
238.31	2.47
238.78	-6.53
239.251	-8.83
239.721	-7.53
240.191	-3.93
240.662	-1.23
241.132	-0.33
241.602	-3.13
242.072	-2.53
242.542	1.67
243.013	-1.23
243.483	2.47
243.953	3.57
244.423	-1.13
244.893	-12.13
245.363	-2.33
245.833	-0.03
246.303	0.17
246.773	4.57
247.243	-2.63
247.712	-0.63
248.182	2.27
248.652	-0.43
249.122	-8.93
249.592	6.57
250.061	9.47
250.531	3.17
251.001	-1.83
251.471	6.67
251.94	10.87
252.41	1.17
252.879	-2.23
253.349	15.57
253.818	7.77
254.288	-1.33
254.757	-1.63
255.227	-3.63
255.696	-1.23
256.166	1.47
256.635	-0.23
257.105	1.37
257.574	3.57
258.043	4.07
258.513	0.07
258.982	10.27
259.451	-1.83
259.92	0.97
260.389	-0.43
260.859	4.57
261.328	3.37
261.797	7.47
262.266	-2.13
262.735	9.97
263.204	5.77
263.673	1.77
264.142	3.87
264.611	-5.03
265.08	0.07
265.549	1.37
266.018	4.77
266.487	4.77
266.955	-2.23
267.424	0.17
267.893	5.97
268.362	2.07
268.83	10.17
269.299	13.57
269.768	1.67
270.236	0.27
270.705	0.87
271.174	4.47
271.642	4.17
272.111	6.17
272.579	7.07
273.048	6.07
273.516	7.87
273.985	3.07
274.453	12.37
274.922	10.57
275.39	8.57
275.858	-0.23
276.327	5.77
276.795	17.97
277.263	0.77
277.731	13.17
278.2	14.57
278.668	15.97
279.136	15.37
279.604	9.07
280.072	8.47
280.54	6.87
281.008	9.17
281.477	14.57
281.945	4.37
282.413	13.47
282.881	15.17
283.348	7.67
283.816	14.27
284.284	10.37
284.752	21.87
285.22	11.37
285.688	17.57
286.156	16.77
286.623	19.57
287.091	12.57
287.559	12.47
288.026	9.47
288.494	16.47
288.962	7.37
289.429	11.97
289.897	19.47
290.364	10.57
290.832	18.37
291.3	15.57
291.767	13.17
292.234	15.17
292.702	13.27
293.169	16.27
293.637	21.07
294.104	17.97
294.571	10.77
295.039	13.37
295.506	9.77
295.973	17.07
296.44	8.07
296.908	16.07
297.375	19.27
297.842	23.37
298.309	14.27
298.776	11.77
299.243	16.77
299.71	13.47
300.177	21.57
300.644	25.27
301.111	20.57
301.578	20.87
302.045	16.07
302.512	25.17
302.979	26.87
303.446	24.07
303.913	19.97
304.379	12.97
304.846	27.17
305.313	20.37
305.78	20.07
306.246	25.97
306.713	29.27
307.18	30.17
307.646	24.07
308.113	24.37
308.579	26.57
309.046	31.37
309.512	19.57
309.979	21.47
310.445	28.87
310.912	28.17
311.378	34.17
311.845	31.77
312.311	28.77
312.777	37.37
313.244	34.97
313.71	34.97
314.176	30.77
314.642	32.97
315.109	30.67
315.575	30.67
316.041	34.57
316.507	25.17
316.973	31.27
317.439	32.67
317.905	45.57
318.371	37.47
318.837	32.87
319.303	38.27
319.769	36.37
320.235	32.77
320.701	32.77
321.167	37.97
321.633	36.07
322.099	37.87
322.564	39.67
323.03	34.57
323.496	35.77
323.962	42.17
324.427	38.67
324.893	41.07
325.359	44.87
325.824	39.77
326.29	37.87
326.755	36.77
327.221	36.97
327.686	41.07
328.152	44.17
328.617	40.67
329.083	51.87
329.548	53.87
330.014	48.97
330.479	41.77
330.944	48.37
331.41	40.97
331.875	43.17
332.34	42.47
332.805	41.47
333.271	47.87
333.736	39.77
334.201	55.77
334.666	52.27
335.131	46.87
335.596	50.07
336.061	51.07
336.526	43.37
336.991	52.17
337.456	60.37
337.921	50.57
338.386	43.07
338.851	41.17
339.316	49.47
339.781	50.57
340.246	52.97
340.711	45.97
341.175	54.37
341.64	44.07
342.105	50.37
342.569	60.37
343.034	58.57
343.499	49.07
343.963	51.07
344.428	63.47
344.893	60.67
345.357	62.97
345.822	62.17
346.286	64.97
346.751	80.37
347.215	73.77
347.679	84.27
348.144	100.77
348.608	86.77
349.073	79.27
349.537	75.87
350.001	78.97
350.465	86.17
350.93	84.17
351.394	81.77
351.858	75.67
352.322	90.87
352.786	91.57
353.25	103.27
353.715	115.27
354.179	104.07
354.643	126.57
355.107	128.77
355.571	99.87
356.035	96.77
356.498	114.37
356.962	118.57
357.426	127.47
357.89	120.07
358.354	92.37
358.818	85.87
359.281	81.87
359.745	76.17
360.209	80.97
360.673	77.37
361.136	76.47
361.6	91.57
362.064	85.07
362.527	85.67
362.991	89.57
363.454	81.67
363.918	76.17
364.381	82.77
364.845	81.27
365.308	87.77
365.772	90.07
366.235	91.67
366.698	83.97
367.162	89.97
367.625	91.07
368.088	90.07
368.552	92.37
369.015	85.57
369.478	100.17
369.941	99.57
370.404	93.47
370.867	105.37
371.331	111.47
371.794	115.97
372.257	103.67
372.72	109.47
373.183	104.77
373.646	95.77
374.109	102.27
374.572	104.37
375.035	102.77
375.497	105.37
375.96	107.27
376.423	101.37
376.886	117.77
377.349	112.97
377.811	107.77
378.274	108.67
378.737	104.77
379.199	109.87
379.662	109.47
380.125	115.77
380.587	107.77
381.05	110.67
381.512	115.87
381.975	133.07
382.437	127.17
382.9	126.07
383.362	128.37
383.825	137.27
384.287	124.07
384.75	118.67
385.212	128.87
385.674	138.67
386.136	135.47
386.599	129.27
387.061	124.77
387.523	123.27
387.985	127.07
388.447	143.07
388.91	125.77
389.372	137.67
389.834	137.57
390.296	128.17
390.758	140.87
391.22	147.27
391.682	159.57
392.144	174.57
392.606	153.57
393.068	151.47
393.529	152.87
393.991	146.17
394.453	136.77
394.915	138.17
395.377	141.47
395.838	144.27
396.3	137.07
396.762	154.77
397.224	146.47
397.685	135.37
398.147	141.87
398.608	134.07
399.07	136.47
399.531	147.37
399.993	145.57
400.454	160.07
400.916	154.37
401.377	160.37
401.839	161.37
402.3	162.57
402.762	173.87
403.223	188.87
403.684	173.77
404.145	172.57
404.607	167.77
405.068	172.27
405.529	178.07
405.99	194.07
406.451	185.57
406.913	182.37
407.374	178.77
407.835	171.27
408.296	174.37
408.757	178.07
409.218	195.67
409.679	189.57
410.14	182.27
410.601	190.37
411.062	196.17
411.522	187.37
411.983	189.67
412.444	183.07
412.905	191.37
413.366	194.77
413.826	208.67
414.287	238.17
414.748	279.97
415.208	257.27
415.669	217.57
416.13	213.97
416.59	213.27
417.051	227.47
417.511	229.17
417.972	250.27
418.432	260.87
418.893	308.17
419.353	267.77
419.814	208.17
420.274	196.37
420.734	193.07
421.195	204.97
421.655	200.87
422.115	210.07
422.576	209.17
423.036	210.77
423.496	217.07
423.956	233.77
424.416	254.17
424.876	279.37
425.336	282.37
425.797	273.57
426.257	268.97
426.717	250.77
427.177	243.47
427.637	243.17
428.097	243.77
428.556	256.27
429.016	277.77
429.476	275.97
429.936	290.07
430.396	285.97
430.856	298.97
431.315	327.07
431.775	359.77
432.235	390.67
432.694	361.47
433.154	372.47
433.614	406.57
434.073	350.77
434.533	298.17
434.993	286.67
435.452	293.47
435.912	306.07
436.371	288.27
436.83	297.97
437.29	271.47
437.749	258.87
438.209	260.27
438.668	295.27
439.127	310.77
439.587	278.17
440.046	258.57
440.505	273.17
440.964	296.97
441.424	348.67
441.883	333.37
442.342	285.47
442.801	242.17
443.26	242.57
443.719	239.17
444.178	234.07
444.637	223.37
445.096	233.27
445.555	235.47
446.014	234.07
446.473	240.57
446.932	249.37
447.391	244.27
447.849	247.97
448.308	234.87
448.767	243.97
449.226	245.57
449.685	253.07
450.143	266.97
450.602	257.37
451.061	242.37
451.519	253.07
451.978	247.87
452.436	251.07
452.895	254.37
453.353	269.17
453.812	261.57
454.27	251.37
454.729	266.57
455.187	255.97
455.646	259.27
456.104	262.57
456.562	288.87
457.021	294.17
457.479	281.87
457.937	297.77
458.395	280.17
458.854	268.47
459.312	271.37
459.77	300.57
460.228	268.67
460.686	257.77
461.144	263.07
461.602	259.97
462.06	271.27
462.518	267.17
462.976	270.87
463.434	280.57
463.892	281.07
464.35	296.17
464.808	310.07
465.266	290.17
465.724	291.97
466.181	297.97
466.639	299.77
467.097	313.47
467.555	319.37
468.012	316.37
468.47	330.07
468.928	346.77
469.385	365.27
469.843	373.67
470.3	365.67
470.758	392.27
471.215	403.27
471.673	426.77
472.13	428.07
472.588	440.57
473.045	398.57
473.503	409.87
473.96	424.37
474.417	430.77
474.875	456.77
475.332	503.57
475.789	485.37
476.246	501.77
476.704	511.47
477.161	536.07
477.618	557.87
478.075	588.27
478.532	642.47
478.989	715.47
479.446	844.67
479.903	792.27
480.36	823.27
480.817	863.27
481.274	959.47
481.731	1045.77
482.188	1133.37
482.645	1260.57
483.102	1359.67
483.558	1471.87
484.015	1518.17
484.472	1488.77
484.929	1448.37
485.385	1407.97
485.842	1377.27
486.299	1323.57
486.755	1288.07
487.212	1101.17
487.668	936.97
488.125	869.07
488.582	799.27
489.038	766.97
489.494	742.17
489.951	726.27
490.407	694.87
490.864	671.77
491.32	676.77
491.776	675.97
492.233	681.37
492.689	646.17
493.145	638.07
493.602	633.27
494.058	646.27
494.514	643.37
494.97	667.07
495.426	678.27
495.882	653.17
496.338	658.17
496.794	648.97
497.251	654.27
497.707	664.07
498.163	665.17
498.618	678.77
499.074	685.87
499.53	711.37
499.986	708.97
500.442	680.37
500.898	648.27
501.354	646.57
501.809	653.87
502.265	651.07
502.721	662.87
503.177	674.67
503.632	680.07
504.088	676.37
504.543	721.17
504.999	732.87
505.455	691.27
505.91	664.07
506.366	666.47
506.821	672.77
507.277	658.07
507.732	663.37
508.187	673.57
508.643	676.47
509.098	672.67
509.553	684.37
510.009	702.47
510.464	705.07
510.919	738.17
511.375	739.37
511.83	745.17
512.285	767.17
512.74	798.47
513.195	830.77
513.65	804.17
514.105	801.67
514.56	811.07
515.015	832.47
515.47	835.27
515.925	817.57
516.38	826.57
516.835	837.97
517.29	820.27
517.745	821.17
518.2	797.67
518.655	795.47
519.109	780.57
519.564	783.07
520.019	776.77
520.474	765.07
520.928	766.47
521.383	754.37
521.838	749.77
522.292	748.07
522.747	756.97
523.201	749.27
523.656	739.77
524.11	732.87
524.565	740.47
525.019	734.57
525.474	735.77
525.928	737.17
526.382	741.57
526.837	737.77
527.291	739.57
527.745	733.87
528.2	734.47
528.654	728.47
529.108	727.57
529.562	736.27
530.016	729.07
530.47	727.07
530.925	731.97
531.379	726.97
531.833	734.87
532.287	742.17
532.741	734.57
533.195	744.17
533.649	748.87
534.103	760.87
534.556	743.77
535.01	750.97
535.464	749.07
535.918	750.97
536.372	755.97
536.826	749.67
537.279	743.97
537.733	754.07
538.187	747.07
538.64	754.67
539.094	761.57
539.548	763.47
540.001	767.07
540.455	767.47
540.908	773.07
541.362	776.97
541.815	774.97
542.269	803.67
542.722	798.87
543.175	813.87
543.629	808.77
544.082	831.57
544.536	835.07
544.989	835.37
545.442	840.57
545.895	830.17
546.349	846.57
546.802	844.87
547.255	838.07
547.708	845.87
548.161	864.07
548.614	867.17
549.067	883.67
549.52	870.87
549.973	850.07
550.426	857.67
550.879	850.87
551.332	848.97
551.785	847.27
552.238	854.97
552.691	874.07
553.144	877.27
553.596	902.87
554.049	908.57
554.502	937.77
554.955	963.07
555.407	956.37
555.86	949.67
556.313	945.57
556.765	929.77
557.218	925.07
557.67	943.17
558.123	922.47
558.576	927.17
559.028	929.27
559.48	932.47
559.933	935.87
560.385	891.27
560.838	857.67
561.29	841.87
561.742	827.67
562.195	810.37
562.647	809.97
563.099	824.57
563.551	814.17
564.004	831.37
564.456	810.17
564.908	801.47
565.36	794.47
565.812	775.87
566.264	761.37
566.716	760.97
567.168	743.97
567.62	760.07
568.072	738.47
568.524	737.57
568.976	735.37
569.428	721.67
569.88	720.47
570.332	731.47
570.784	730.47
571.235	730.27
571.687	740.47
572.139	742.07
572.59	762.07
573.042	753.67
573.494	744.17
573.945	738.17
574.397	734.67
574.849	738.27
575.3	733.27
575.752	731.77
576.203	724.07
576.655	724.27
577.106	707.87
577.557	709.97
578.009	713.07
578.46	712.67
578.912	706.37
579.363	706.77
579.814	701.57
580.265	710.87
580.717	702.97
581.168	711.47
581.619	723.47
582.07	724.67
582.521	715.57
582.972	704.97
583.423	714.37
583.875	710.47
584.326	717.07
584.777	743.17
585.227	765.27
585.678	800.67
586.129	807.17
586.58	837.77
587.031	865.57
587.482	899.17
587.933	947.77
588.384	903.27
588.834	845.37
589.285	819.27
589.736	808.77
590.186	817.07
590.637	813.27
591.088	789.37
591.538	768.87
591.989	767.37
592.439	766.97
592.89	748.17
593.34	745.87
593.791	746.67
594.241	728.77
594.692	744.07
595.142	731.07
595.593	727.17
596.043	743.07
596.493	752.87
596.943	745.07
597.394	761.17
597.844	757.87
598.294	778.27
598.744	798.97
599.195	827.67
599.645	874.57
600.095	909.07
600.545	978.97
600.995	1018.77
601.445	1079.77
601.895	1143.27
602.345	1192.57
602.795	1172.17
603.245	1128.57
603.695	1064.67
604.145	1024.77
604.594	968.27
605.044	904.77
605.494	857.27
605.944	807.27
606.393	790.67
606.843	765.57
607.293	776.17
607.743	765.87
608.192	783.97
608.642	785.27
609.091	807.17
609.541	801.07
609.99	803.67
610.44	808.57
610.889	765.67
611.339	740.57
611.788	721.97
612.238	720.37
612.687	738.17
613.136	728.47
613.586	750.17
614.035	740.87
614.484	749.57
614.933	755.77
615.383	748.47
615.832	735.67
616.281	730.27
616.73	709.87
617.179	698.17
617.628	683.97
618.077	656.47
618.526	663.87
618.975	645.07
619.424	650.07
619.873	641.97
620.322	650.47
620.771	645.97
621.22	646.67
621.669	613.67
622.118	619.77
622.567	612.67
623.015	602.77
623.464	605.77
623.913	594.57
624.361	589.07
624.81	590.07
625.259	584.77
625.707	581.77
626.156	584.27
626.604	595.67
627.053	594.47
627.501	605.77
627.95	602.07
628.398	615.77
628.847	600.17
629.295	605.87
629.744	616.17
630.192	599.37
630.64	587.37
631.089	575.47
631.537	577.87
631.985	561.37
632.433	562.17
632.881	567.07
633.33	574.87
633.778	566.27
634.226	568.17
634.674	562.37
635.122	566.67
635.57	583.27
636.018	593.57
636.466	595.17
636.914	580.67
637.362	602.87
637.81	615.27
638.258	612.47
638.705	618.97
639.153	645.67
639.601	663.27
640.049	682.27
640.497	703.47
640.944	732.97
641.392	673.17
641.84	652.57
642.287	609.17
642.735	595.47
643.182	594.97
643.63	592.17
644.078	589.87
644.525	606.17
644.973	618.17
645.42	624.07
645.867	643.17
646.315	670.57
646.762	690.47
647.21	718.37
647.657	737.07
648.104	776.47
648.551	801.77
648.999	864.57
649.446	929.97
649.893	1018.67
650.34	1165.47
650.787	1385.67
651.234	1699.07
651.682	2211.97
652.129	3006.47
652.576	4255.37
653.023	6192.17
653.47	8311.47
653.917	10278.37
654.363	11820.87
654.81	12958.57
655.257	12264.37
655.704	8173.27
656.151	4947.97
656.598	3271.37
657.044	2342.07
657.491	1818.87
657.938	1464.57
658.385	1236.37
658.831	1089.57
659.278	964.17
659.724	863.47
660.171	805.17
660.618	742.37
661.064	711.77
661.511	699.27
661.957	676.07
662.404	665.87
662.85	683.17
663.296	648.57
663.743	589.17
664.189	574.97
664.635	555.57
665.082	555.27
665.528	551.37
665.974	553.27
666.42	528.17
666.867	536.77
667.313	515.67
667.759	497.07
668.205	480.17
668.651	484.67
669.097	473.47
669.543	466.77
669.989	474.37
670.435	480.47
670.881	459.67
671.327	479.27
671.773	493.47
672.219	525.77
672.665	575.27
673.11	629.97
673.556	673.87
674.002	701.97
674.448	691.57
674.893	580.07
675.339	503.77
675.785	469.37
676.23	448.67
676.676	412.67
677.122	410.27
677.567	401.17
678.013	388.77
678.458	390.37
678.904	391.97
679.349	371.67
679.794	371.67
680.24	372.27
680.685	368.67
681.131	373.37
681.576	372.17
682.021	376.77
682.466	367.37
682.912	370.37
683.357	375.97
683.802	412.07
684.247	440.07
684.692	482.17
685.137	522.47
685.583	582.97
686.028	602.87
686.473	553.97
686.918	472.47
687.363	445.97
687.807	421.97
688.252	382.77
688.697	378.87
689.142	363.27
689.587	360.67
690.032	352.77
690.477	374.97
690.921	372.67
691.366	406.47
691.811	431.57
692.255	459.87
692.7	493.67
693.145	548.87
693.589	764.17
694.034	1235.77
694.478	1649.17
694.923	1832.97
695.367	2379.27
695.812	1279.77
696.256	535.37
696.701	392.57
697.145	360.67
697.59	352.57
698.034	338.97
698.478	353.47
698.922	342.87
699.367	348.37
699.811	355.77
700.255	385.07
700.699	416.37
701.143	452.27
701.588	505.37
702.032	540.37
702.476	555.77
702.92	527.07
703.364	538.17
703.808	712.97
704.252	1148.07
704.696	1572.67
705.14	1785.57
705.584	2256.87
706.027	1146.67
706.471	556.37
706.915	426.47
707.359	376.87
707.803	341.97
708.246	341.47
708.69	337.07
709.134	330.87
709.577	327.97
710.021	337.77
710.465	319.07
710.908	327.77
711.352	321.57
711.795	337.77
712.239	373.97
712.682	407.17
713.126	431.87
713.569	480.07
714.012	385.87
714.456	329.17
714.899	309.47
715.342	291.07
715.786	277.57
716.229	281.07
716.672	273.87
717.115	264.57
717.558	268.97
718.002	264.27
718.445	281.67
718.888	305.17
719.331	307.97
719.774	322.17
720.217	324.37
720.66	308.67
721.103	282.27
721.546	276.87
721.989	260.57
722.432	252.77
722.874	246.57
723.317	246.07
723.76	251.27
724.203	268.97
724.645	342.37
725.088	483.37
725.531	612.87
725.974	680.57
726.416	589.97
726.859	331.17
727.301	268.97
727.744	252.17
728.187	247.77
728.629	259.87
729.071	266.27
729.514	275.47
729.956	294.67
730.399	305.77
730.841	307.67
731.283	296.37
731.726	294.17
732.168	287.37
732.61	284.47
733.053	314.07
733.495	341.37
733.937	376.07
734.379	428.77
734.821	472.67
735.263	594.37
735.705	917.87
736.148	1735.37
736.59	2799.17
737.032	3222.97
737.474	2636.77
737.916	880.87
738.357	464.47
738.799	352.57
739.241	321.87
739.683	307.77
740.125	313.97
740.567	317.67
741.008	334.27
741.45	341.27
741.892	340.97
742.334	377.27
742.775	380.97
743.217	366.57
743.658	287.37
744.1	277.67
744.542	282.67
744.983	338.37
745.425	366.87
745.866	364.97
746.307	298.57
746.749	299.47
747.19	352.67
747.632	512.77
748.073	986.67
748.514	2048.77
748.956	3066.17
749.397	3840.17
749.838	3199.37
750.279	3114.37
750.72	1603.17
751.162	589.47
751.603	346.07
752.044	273.07
752.485	230.27
752.926	226.27
753.367	218.27
753.808	202.27
754.249	208.27
754.69	204.57
755.131	190.97
755.572	194.67
756.013	193.47
756.453	198.07
756.894	200.37
757.335	212.87
757.776	209.17
758.216	210.87
758.657	210.37
759.098	218.17
759.538	247.37
759.979	292.37
760.42	413.17
760.86	790.07
761.301	2051.47
761.741	4838.37
762.182	6756.47
762.622	4759.17
763.063	1404.37
763.503	582.67
763.943	357.17
764.384	308.17
764.824	293.57
765.264	283.07
765.705	239.37
766.145	202.67
766.585	194.17
767.025	186.07
767.465	175.87
767.906	202.17
768.346	227.97
768.786	242.67
769.226	237.77
769.666	341.77
770.106	684.37
770.546	1722.87
770.986	2812.17
771.426	2503.87
771.866	851.17
772.306	347.07
772.745	216.47
773.185	178.97
773.625	170.37
774.065	164.37
774.505	175.57
774.944	230.87
775.384	399.87
775.824	631.67
776.263	600.77
776.703	306.57
777.142	170.97
777.582	142.57
778.021	135.37
778.461	137.17
778.9	127.17
779.34	135.67
779.779	123.57
780.219	114.17
780.658	115.67
781.097	117.87
781.537	118.47
781.976	109.17
782.415	116.77
782.855	108.87
783.294	107.17
783.733	110.47
784.172	121.37
784.611	108.67
785.05	112.57
785.489	118.47
785.928	122.17
786.367	128.57
786.806	124.07
787.245	137.07
787.684	137.97
788.123	153.37
788.562	141.37
789.001	134.17
789.44	124.77
789.879	129.07
790.317	131.07
790.756	133.97
791.195	133.57
791.634	155.57
792.072	209.27
792.511	396.27
792.95	1125.77
793.388	2249.27
793.827	1998.87
794.265	712.27
794.704	304.57
795.142	190.37
795.581	160.07
796.019	143.17
796.458	142.87
796.896	136.27
797.334	146.47
797.773	177.67
798.211	248.37
798.649	486.77
799.087	1092.47
799.526	1727.47
799.964	2147.27
800.402	2107.17
800.84	817.47
801.278	331.07
801.716	196.67
802.154	169.07
802.592	153.97
803.03	151.57
803.468	145.87
803.906	151.17
804.344	161.97
804.782	146.27
805.22	145.57
805.658	142.67
806.096	162.57
806.533	170.97
806.971	186.37
807.409	240.87
807.847	356.47
808.284	738.87
808.722	2058.17
809.16	3485.37
809.597	3406.47
810.035	5832.67
810.472	6013.27
810.91	2227.17
811.347	866.97
811.785	431.27
812.222	277.67
812.66	212.07
813.097	186.27
813.535	154.47
813.972	137.27
814.409	129.77
814.846	119.97
815.284	118.17
815.721	109.37
816.158	112.27
816.595	114.47
817.032	165.87
817.47	191.37
817.907	136.37
818.344	109.57
818.781	113.67
819.218	101.47
819.655	134.17
820.092	203.37
820.529	228.37
820.966	185.07
821.403	137.07
821.839	109.67
822.276	110.87
822.713	127.67
823.15	145.57
823.587	124.47
824.023	162.57
824.46	332.77
824.897	986.57
825.333	1423.47
825.77	620.57
826.206	244.87
826.643	141.17
827.08	111.17
827.516	90.47
827.953	86.37
828.389	86.37
828.825	83.77
829.262	75.87
829.698	64.87
830.135	70.97
830.571	67.37
831.007	66.87
831.443	65.77
831.88	67.47
832.316	71.07
832.752	66.47
833.188	72.57
833.624	65.57
834.06	75.07
834.497	67.77
834.933	75.77
835.369	75.97
835.805	70.37
836.241	82.97
836.677	85.47
837.112	101.37
837.548	116.67
837.984	139.77
838.42	222.47
838.856	559.57
839.292	1646.17
839.727	2407.27
840.163	1150.67
840.599	1030.57
841.034	2202.17
841.47	2226.17
841.906	817.37
842.341	361.17
842.777	221.17
843.212	221.07
843.648	199.17
844.083	119.67
844.519	94.07
844.954	72.47
845.39	63.17
845.825	64.37
846.261	56.07
846.696	58.87
847.131	51.27
847.566	67.17
848.002	58.17
848.437	64.47
848.872	69.07
849.307	62.97
849.742	93.37
850.177	196.57
850.613	602.87
851.048	926.87
851.483	397.47
851.918	160.57
852.353	89.77
852.788	59.87
853.223	50.97
853.657	52.97
854.092	48.17
854.527	47.97
854.962	46.97
855.397	49.97
855.832	55.97
856.266	46.77
856.701	47.07
857.136	39.67
857.57	44.57
858.005	59.67
858.44	65.27
858.874	49.47
859.309	59.27
859.743	52.27
860.178	50.97
860.612	45.27
861.047	58.87
861.481	78.77
861.915	74.67
862.35	55.67
862.784	36.97
863.218	41.27
863.653	34.27
864.087	46.87
864.521	63.07
864.955	72.67
865.39	171.57
865.824	186.47
866.258	126.27
866.692	178.37
867.126	196.77
867.56	107.97
867.994	57.17
868.428	40.47
868.862	52.57
869.296	57.67
869.73	66.27
870.164	63.17
870.598	52.37
871.031	41.27
871.465	36.17
871.899	32.87
872.333	31.17
872.766	28.47
873.2	19.77
873.634	32.17
874.067	26.77
874.501	24.77
874.935	37.07
875.368	31.97
875.802	31.87
876.235	32.57
876.669	31.47
877.102	26.37
877.535	28.07
877.969	22.77
878.402	28.27
878.836	19.87
879.269	31.37
879.702	23.87
880.135	19.87
880.569	17.87
881.002	28.77
881.435	29.47
881.868	18.97
882.301	24.37
882.734	23.37
883.167	25.97
883.601	24.77
884.034	24.27
884.467	22.57
884.899	21.27
885.332	19.57
885.765	20.57
886.198	20.67
886.631	21.37
887.064	15.47
887.497	26.37
887.929	27.77
888.362	20.67
888.795	12.07
889.228	22.87
889.66	25.17
890.093	22.57
890.526	20.67
890.958	15.67
891.391	21.27
891.823	20.57
892.256	16.67
892.688	13.77
893.121	18.27
893.553	21.07
893.985	20.97
894.418	19.17
894.85	10.57
895.282	20.67
895.715	19.87
896.147	23.07
896.579	20.67
897.011	15.27
897.444	22.17
897.876	13.57
898.308	14.57
898.74	11.07
899.172	17.97
899.604	24.87
900.036	20.77
900.468	12.57
900.9	19.97
901.332	20.27
901.764	16.17
902.196	17.87
902.628	18.17
903.06	23.07
903.491	28.27
903.923	25.27
904.355	22.07
904.787	24.97
905.218	23.67
905.65	21.87
906.082	18.27
906.513	15.07
906.945	16.27
907.376	11.87
907.808	21.07
908.239	15.67
908.671	22.27
909.102	24.57
909.534	23.77
909.965	49.07
910.397	101.37
910.828	335.97
911.259	497.77
911.691	233.07
912.122	111.77
912.553	57.37
912.984	39.57
913.415	32.37
913.847	29.87
914.278	14.67
914.709	16.37
915.14	21.17
915.571	23.37
916.002	13.47
916.433	17.87
916.864	20.97
917.295	17.67
917.726	23.67
918.157	18.57
918.587	31.87
919.018	22.57
919.449	26.47
919.88	29.57
920.311	32.97
920.741	53.67
921.172	183.47
921.603	163.27
922.033	83.37
922.464	50.47
922.895	30.37
923.325	18.77
923.756	12.07
924.186	9.67
924.617	21.17
925.047	26.37
925.478	30.67
925.908	17.57
926.338	10.37
926.769	10.87
927.199	21.37
927.629	8.97
928.06	16.47
928.49	15.77
928.92	17.67
929.35	12.17
929.78	14.27
930.21	9.67
930.641	7.17
931.071	7.97
931.501	6.67
931.931	13.47
932.361	8.87
932.791	8.77
933.221	3.17
933.651	12.27
934.08	18.67
934.51	34.47
934.94	16.67
935.37	10.57
935.8	13.67
936.229	6.67
936.659	9.57
937.089	6.87
937.519	11.97
937.948	19.27
938.378	14.57
938.807	6.07
939.237	4.97
939.666	8.67
940.096	-3.03
940.525	0.47
940.955	2.07
941.384	4.97
941.814	-3.63
942.243	-2.63
942.672	6.77
943.102	0.27
943.531	-0.93
943.96	3.07
944.39	5.07
944.819	5.07
945.248	8.77
945.677	7.97
946.106	5.17
946.535	3.57
946.964	0.27
947.393	10.77
947.822	6.57
948.251	-5.13
948.68	10.97
949.109	4.87
949.538	-3.33
949.967	-0.73
950.396	8.87
950.825	0.17
951.254	0.87
951.682	-7.73
952.111	3.07
952.54	3.57
952.969	-0.43
953.397	-7.43
953.826	8.37
954.254	-3.43
954.683	3.97
955.112	-0.13
955.54	0.17
955.969	3.17
956.397	-2.13
956.826	1.37
957.254	8.17
957.682	0.77
958.111	5.27
958.539	-3.53
958.967	4.07
959.396	-3.33
959.824	1.27
960.252	1.77
960.68	-5.23
961.109	0.77
961.537	-1.93
961.965	-2.53
962.393	2.07
962.821	1.67
963.249	-2.43
963.677	2.67
964.105	8.17
964.533	56.57
964.961	44.77
965.389	25.57
965.817	12.67
966.245	7.77
966.672	-2.73
967.1	-6.43
967.528	-3.63
967.956	4.57
968.383	-4.53
968.811	-4.63
969.239	-1.43
969.666	-3.23
970.094	-0.73
970.522	3.77
970.949	-0.33
971.377	-1.83
971.804	-1.33
972.232	4.77
972.659	-2.03
973.087	-4.33
973.514	3.17
973.941	-3.43
974.369	3.57
974.796	2.27
975.223	-1.63
975.651	-4.33
976.078	6.77
976.505	-0.33
976.932	6.07
977.359	13.77
977.786	16.77
978.214	1.97
978.641	-7.43
979.068	-3.03
979.495	-8.73
979.922	-2.73
980.349	-5.13
980.776	7.17
981.202	-2.13
981.629	5.77
982.056	3.87
982.483	0.17
982.91	8.87
983.337	-2.43
983.763	2.07
984.19	-5.33
984.617	-6.63
985.043	-7.13
985.47	0.37
985.897	0.17
986.323	-6.23
986.75	0.97
987.176	1.97
987.603	2.77
988.029	-0.33
988.456	-4.73
988.882	3.37
989.308	-9.93
989.735	-5.53
990.161	-0.93
990.587	-4.63
991.014	-1.53
991.44	7.27
991.866	-3.33
992.292	-4.83
992.719	-1.63
993.145	2.47
993.571	-4.43
993.997	-4.53
994.423	3.97
994.849	-3.83
995.275	2.87
995.701	0.97
996.127	-4.03
996.553	-1.23
996.979	-8.03
997.405	-5.43
997.83	-2.83
998.256	-2.93
998.682	-5.13
999.108	-8.93
999.534	-2.93
999.959	0.47
1000.385	-4.23
1000.811	2.77
1001.236	-8.53
1001.662	-7.13
1002.087	-2.73
1002.513	-3.43
1002.938	-1.33
1003.364	1.17
1003.789	3.47
1004.215	2.07
1004.64	-0.63
1005.066	-0.63
1005.491	3.57
1005.916	1.47
1006.342	-2.63
1006.767	-5.53
1007.192	0.87
1007.617	-0.03
1008.042	-6.33
1008.468	-2.13
1008.893	-4.53
1009.318	-6.73
1009.743	-4.03
1010.168	-1.23
1010.593	5.87
1011.018	-0.93
1011.443	4.97
1011.868	-2.13
1012.293	-2.43
1012.718	-9.23
1013.143	0.47
1013.567	-1.73
1013.992	-1.53
1014.417	-16.93
1014.842	2.67
1015.267	-0.73
1015.691	-8.23
1016.116	6.17
1016.541	1.57
1016.965	4.07
1017.39	1.77
1017.814	-1.93
1018.239	-0.03
1018.663	-7.13
1019.088	-8.33
1019.512	-7.43
1019.937	0.97
1020.361	-4.33
1020.785	-7.53
1021.21	-1.63
1021.634	-0.13
1022.058	0.47
1022.483	5.17
1022.907	1.77
1023.331	-2.43
1023.755	-1.13
1024.179	-1.93
1024.604	-9.83
1025.028	-3.33
1025.452	-2.33
1025.876	-0.43
1026.3	2.07
1026.724	-7.03
1027.148	-4.93
1027.572	-7.63
1027.996	-3.13
1028.42	-3.73
1028.843	3.27
1029.267	-8.33
1029.691	-7.93
1030.115	-9.93
1030.539	-13.63
1030.962	-4.83
1031.386	-7.63
1031.81	4.87
1032.233	-1.93
1032.657	-5.33
1033.08	-5.33
1033.504	0.47
1033.927	-1.43
1034.351	-1.23
1034.774	-3.53
1035.198	-4.53
1035.621	-10.43
1036.045	-2.73
1036.468	-1.63
1036.891	-10.53
1037.315	-9.83
1037.738	-11.03
1038.161	0.97
1038.584	-6.63
1039.008	-2.93
1039.431	-0.63
1039.854	-1.43
1040.277	-7.53
1040.7	-9.53
1041.123	-2.03
1041.546	-4.63
1041.969	-8.63
1042.392	-2.03
1042.815	-2.53
1043.238	-0.73
1043.661	3.57
1044.084	-2.33
1044.507	-8.63
1044.93	-4.43
1045.352	-4.43
1045.775	2.27
1046.198	-2.13
1046.621	1.67
1047.043	-3.13
1047.466	6.57
1047.889	-1.63
1048.311	-5.13
1048.734	-4.53
1049.156	-4.63
1049.579	0.97
1050.001	-1.23
1050.424	0.77
1050.846	-4.23
1051.269	-3.43
1051.691	-3.43
1052.113	-4.33
1052.536	2.77
1052.958	-5.33
1053.38	-6.83
1053.802	-10.03
1054.225	-0.63
1054.647	-12.63
1055.069	-4.93
1055.491	-0.13
1055.913	-10.63
1056.335	-4.03
1056.757	-4.33
1057.179	-6.83
1057.601	-5.33
1058.023	-2.83
1058.445	-5.73
1058.867	-2.33
1059.289	-8.63
1059.711	-6.33
1060.133	0.17
1060.555	-2.93
1060.976	-5.43
1061.398	-6.53
1061.82	-9.93
1062.241	-6.43
1062.663	-5.23
1063.085	0.27
1063.506	4.37
1063.928	-4.63
1064.35	-0.23
1064.771	-9.43
1065.193	-6.83
1065.614	-6.73
1066.035	-2.03
1066.457	-5.83
1066.878	2.47
1067.3	-2.13
1067.721	-2.53
1068.142	-9.73
1068.564	-8.63
1068.985	-5.43
1069.406	-5.43
1069.827	-5.43
1070.248	-0.53
1070.67	-7.13
1071.091	-2.23
1071.512	-2.13
1071.933	-9.03
1072.354	-11.03
1072.775	-8.23
1073.196	-11.73
1073.617	-4.33
1074.038	-6.63
1074.459	-3.53
1074.88	-9.23
1075.3	3.87
1075.721	-7.43
1076.142	5.37
1076.563	2.27
1076.983	-8.13
1077.404	-8.93
1077.825	-17.53
1078.246	-3.63
1078.666	-10.23
1079.087	-2.73
1079.507	-9.13
1079.928	1.57
1080.348	-1.03
1080.769	-5.13
1081.189	-2.73
1081.61	-0.83
1082.03	-8.13
1082.451	-0.63
1082.871	-6.13
1083.291	-9.13
1083.711	-7.53
1084.132	-5.93
1084.552	-4.73
1084.972	2.87
1085.392	-13.23
1085.813	-10.93
1086.233	-7.73
1086.653	-5.53
1087.073	-1.43
1087.493	-4.73
1087.913	-7.53
1088.333	-7.13
1088.753	-0.13
1089.173	2.27
1089.593	-5.73
1090.013	1.57
1090.433	1.87
1090.852	-3.63
1091.272	-3.93
1091.692	-3.13
1092.112	-2.13
1092.531	-5.23
1092.951	-11.63
1093.371	-0.63
1093.79	-0.63
1094.21	-3.83
1094.63	-7.93
1095.049	-1.83
1095.469	-4.13
1095.888	-0.63
1096.308	2.47
1096.727	7.27
1097.146	-1.53
1097.566	0.57
1097.985	-1.93
1098.405	-3.83
1098.824	-4.83
1099.243	-2.33
1099.662	-9.33
1100.082	-4.23
1100.501	-4.13
1100.92	-9.33
1101.339	-7.73
1101.758	-6.43
