Data from 20171114-ORNL-Ar_H_NY_Subt18_08-05-19-860.txt Node
Date: Tue Nov 14 08:05:19 EST 2017
User: Ender
Spectrometer: HR+D1039
Trigger mode: 0
Integration Time (sec): 2.730000E-2
Scans to average: 10
Electric dark correction enabled: true
Nonlinearity correction enabled: false
Boxcar width: 0
XAxis mode: Wavelengths
Number of Pixels in Spectrum: 2048
>>>>>Begin Spectral Data<<<<<
187.836	0.48
188.309	0.48
188.782	0.48
189.255	4.88
189.728	0.38
190.201	4.58
190.674	-0.52
191.147	0.58
191.619	-8.92
192.092	4.08
192.565	3.88
193.038	3.18
193.511	0.58
193.984	1.28
194.456	-5.92
194.929	1.38
195.402	-3.92
195.874	-6.02
196.347	-1.12
196.82	-7.32
197.292	5.48
197.765	-4.92
198.237	-4.42
198.71	8.08
199.182	-1.22
199.655	7.98
200.127	3.98
200.6	1.58
201.072	-4.82
201.544	-3.62
202.017	-6.42
202.489	2.58
202.961	1.98
203.433	-8.72
203.906	-2.22
204.378	-10.52
204.85	-5.32
205.322	-5.92
205.794	-3.82
206.266	-3.02
206.739	-4.92
207.211	5.38
207.683	-2.82
208.155	-1.12
208.627	-8.52
209.099	-5.42
209.57	-3.62
210.042	1.58
210.514	2.48
210.986	1.38
211.458	-7.32
211.93	-3.22
212.402	2.38
212.873	-2.42
213.345	-5.12
213.817	-13.72
214.288	-2.62
214.76	-7.62
215.232	-1.12
215.703	1.68
216.175	-2.52
216.646	1.08
217.118	-3.12
217.589	-0.62
218.061	2.98
218.532	3.18
219.004	0.58
219.475	-0.32
219.946	0.68
220.418	0.58
220.889	3.48
221.36	2.18
221.832	-5.52
222.303	-4.32
222.774	0.98
223.245	-9.32
223.717	-6.92
224.188	0.48
224.659	-8.62
225.13	-3.92
225.601	-4.12
226.072	2.78
226.543	-1.02
227.014	2.98
227.485	-5.42
227.956	-1.92
228.427	1.58
228.898	-0.32
229.369	5.78
229.839	-3.22
230.31	-9.02
230.781	5.58
231.252	-1.92
231.722	-10.02
232.193	-1.42
232.664	3.18
233.135	8.88
233.605	4.38
234.076	-2.52
234.546	0.98
235.017	3.78
235.487	5.18
235.958	2.18
236.428	3.88
236.899	5.18
237.369	8.68
237.84	2.28
238.31	11.38
238.78	9.48
239.251	6.58
239.721	4.98
240.191	-0.52
240.662	5.08
241.132	-0.72
241.602	-3.92
242.072	3.58
242.542	4.28
243.013	3.08
243.483	8.18
243.953	5.28
244.423	1.98
244.893	1.98
245.363	6.38
245.833	7.38
246.303	0.28
246.773	4.18
247.243	3.38
247.712	6.28
248.182	10.48
248.652	14.38
249.122	2.88
249.592	15.78
250.061	27.58
250.531	37.48
251.001	21.08
251.471	27.08
251.94	21.08
252.41	10.48
252.879	2.28
253.349	16.58
253.818	7.58
254.288	5.58
254.757	5.08
255.227	5.08
255.696	6.48
256.166	7.98
256.635	12.68
257.105	10.28
257.574	10.68
258.043	10.48
258.513	20.38
258.982	14.48
259.451	7.28
259.92	17.48
260.389	17.28
260.859	19.88
261.328	14.68
261.797	24.48
262.266	7.88
262.735	18.28
263.204	4.48
263.673	4.38
264.142	10.28
264.611	-0.92
265.08	2.48
265.549	5.58
266.018	11.38
266.487	3.38
266.955	-0.62
267.424	2.28
267.893	9.38
268.362	9.68
268.83	7.68
269.299	18.18
269.768	7.18
270.236	16.18
270.705	8.08
271.174	11.88
271.642	12.58
272.111	12.08
272.579	16.78
273.048	23.68
273.516	28.58
273.985	34.28
274.453	31.28
274.922	19.48
275.39	14.08
275.858	6.68
276.327	16.18
276.795	21.08
277.263	9.98
277.731	40.08
278.2	63.98
278.668	68.48
279.136	53.18
279.604	25.78
280.072	17.78
280.54	10.78
281.008	17.18
281.477	17.48
281.945	21.78
282.413	16.88
282.881	16.48
283.348	12.48
283.816	20.58
284.284	18.88
284.752	23.28
285.22	16.78
285.688	13.68
286.156	23.28
286.623	49.28
287.091	57.18
287.559	36.38
288.026	25.98
288.494	20.18
288.962	16.28
289.429	13.58
289.897	26.68
290.364	22.68
290.832	20.58
291.3	19.18
291.767	15.58
292.234	22.28
292.702	18.88
293.169	22.68
293.637	25.18
294.104	22.98
294.571	17.08
295.039	18.98
295.506	18.38
295.973	20.48
296.44	21.48
296.908	25.88
297.375	19.98
297.842	23.28
298.309	15.58
298.776	24.28
299.243	30.98
299.71	23.28
300.177	25.48
300.644	23.28
301.111	18.78
301.578	24.18
302.045	16.88
302.512	27.08
302.979	28.78
303.446	24.98
303.913	17.08
304.379	22.68
304.846	33.08
305.313	28.58
305.78	25.58
306.246	32.58
306.713	35.08
307.18	27.48
307.646	34.28
308.113	31.78
308.579	26.48
309.046	25.48
309.512	32.18
309.979	23.98
310.445	29.98
310.912	27.78
311.378	37.18
311.845	33.88
312.311	35.98
312.777	37.78
313.244	34.98
313.71	40.88
314.176	36.98
314.642	33.78
315.109	33.28
315.575	37.78
316.041	42.28
316.507	33.68
316.973	44.88
317.439	37.98
317.905	41.78
318.371	37.18
318.837	34.68
319.303	41.08
319.769	37.98
320.235	37.68
320.701	43.58
321.167	39.68
321.633	41.58
322.099	44.78
322.564	51.08
323.03	47.98
323.496	44.58
323.962	40.08
324.427	43.68
324.893	46.08
325.359	38.08
325.824	49.28
326.29	39.08
326.755	39.88
327.221	43.98
327.686	54.98
328.152	49.28
328.617	48.88
329.083	54.28
329.548	55.88
330.014	54.18
330.479	42.08
330.944	52.38
331.41	45.88
331.875	52.08
332.34	43.68
332.805	46.58
333.271	57.08
333.736	50.68
334.201	62.88
334.666	58.08
335.131	57.88
335.596	55.98
336.061	56.18
336.526	47.88
336.991	53.58
337.456	59.38
337.921	51.28
338.386	46.08
338.851	49.88
339.316	48.38
339.781	45.68
340.246	53.88
340.711	44.18
341.175	56.78
341.64	49.58
342.105	58.98
342.569	59.18
343.034	63.98
343.499	63.18
343.963	52.48
344.428	62.98
344.893	69.88
345.357	70.18
345.822	70.18
346.286	67.88
346.751	82.48
347.215	68.38
347.679	83.28
348.144	102.08
348.608	90.48
349.073	77.28
349.537	76.28
350.001	82.88
350.465	95.08
350.93	88.08
351.394	80.08
351.858	76.08
352.322	92.78
352.786	84.18
353.25	106.88
353.715	115.38
354.179	106.98
354.643	134.48
355.107	131.88
355.571	110.28
356.035	103.18
356.498	121.08
356.962	130.58
357.426	130.38
357.89	127.48
358.354	94.38
358.818	90.98
359.281	82.98
359.745	84.28
360.209	81.08
360.673	83.88
361.136	83.08
361.6	87.78
362.064	85.28
362.527	86.38
362.991	91.48
363.454	83.98
363.918	84.08
364.381	83.08
364.845	84.98
365.308	90.58
365.772	91.18
366.235	95.68
366.698	82.98
367.162	93.68
367.625	91.38
368.088	96.48
368.552	92.08
369.015	89.28
369.478	98.38
369.941	103.08
370.404	95.18
370.867	106.68
371.331	112.98
371.794	117.98
372.257	113.48
372.72	119.88
373.183	114.48
373.646	102.58
374.109	105.78
374.572	106.58
375.035	112.58
375.497	108.28
375.96	107.78
376.423	107.68
376.886	113.78
377.349	107.18
377.811	103.58
378.274	106.68
378.737	113.08
379.199	111.78
379.662	113.38
380.125	127.98
380.587	119.78
381.05	131.48
381.512	135.98
381.975	141.88
382.437	133.58
382.9	128.08
383.362	132.98
383.825	149.58
384.287	145.88
384.75	143.58
385.212	149.08
385.674	140.88
386.136	145.78
386.599	122.48
387.061	134.58
387.523	128.78
387.985	143.58
388.447	148.58
388.91	146.78
389.372	155.38
389.834	155.48
390.296	148.48
390.758	154.98
391.22	167.38
391.682	209.18
392.144	297.08
392.606	230.88
393.068	174.38
393.529	172.68
393.991	160.98
394.453	155.38
394.915	159.78
395.377	197.88
395.838	219.08
396.3	158.38
396.762	142.28
397.224	140.68
397.685	131.78
398.147	133.38
398.608	133.78
399.07	131.68
399.531	140.58
399.993	148.78
400.454	159.18
400.916	149.18
401.377	146.58
401.839	152.58
402.3	155.48
402.762	170.18
403.223	189.28
403.684	183.28
404.145	168.78
404.607	160.38
405.068	165.68
405.529	179.98
405.99	188.78
406.451	182.68
406.913	178.68
407.374	168.28
407.835	165.38
408.296	170.78
408.757	179.18
409.218	194.28
409.679	191.98
410.14	178.78
410.601	184.18
411.062	185.88
411.522	192.28
411.983	195.78
412.444	176.78
412.905	181.48
413.366	182.68
413.826	200.18
414.287	218.48
414.748	259.98
415.208	249.48
415.669	219.18
416.13	213.28
416.59	214.28
417.051	218.48
417.511	219.48
417.972	238.88
418.432	255.98
418.893	295.88
419.353	249.78
419.814	202.98
420.274	181.78
420.734	181.18
421.195	203.88
421.655	206.58
422.115	209.78
422.576	198.48
423.036	199.08
423.496	214.78
423.956	217.98
424.416	235.78
424.876	270.48
425.336	264.58
425.797	260.08
426.257	261.48
426.717	240.18
427.177	237.68
427.637	224.68
428.097	238.68
428.556	249.78
429.016	268.98
429.476	260.38
429.936	278.18
430.396	280.18
430.856	294.98
431.315	320.58
431.775	358.08
432.235	382.28
432.694	364.48
433.154	365.78
433.614	397.88
434.073	329.98
434.533	287.08
434.993	272.18
435.452	289.68
435.912	296.08
436.371	292.68
436.83	291.08
437.29	278.38
437.749	254.28
438.209	249.18
438.668	272.78
439.127	293.08
439.587	270.28
440.046	256.68
440.505	272.38
440.964	285.08
441.424	333.78
441.883	313.98
442.342	258.58
442.801	226.78
443.26	224.18
443.719	225.38
444.178	226.18
444.637	212.88
445.096	222.58
445.555	233.08
446.014	226.08
446.473	229.28
446.932	233.18
447.391	230.08
447.849	229.58
448.308	225.58
448.767	231.28
449.226	238.18
449.685	242.38
450.143	255.28
450.602	242.78
451.061	227.38
451.519	236.98
451.978	236.88
452.436	235.38
452.895	243.78
453.353	252.58
453.812	244.18
454.27	253.58
454.729	244.28
455.187	242.38
455.646	248.38
456.104	250.08
456.562	261.98
457.021	266.18
457.479	263.58
457.937	275.48
458.395	269.78
458.854	262.98
459.312	261.38
459.77	275.58
460.228	264.78
460.686	247.08
461.144	252.18
461.602	244.08
462.06	248.98
462.518	262.18
462.976	257.18
463.434	264.38
463.892	274.58
464.35	289.28
464.808	288.28
465.266	269.98
465.724	269.08
466.181	280.98
466.639	275.08
467.097	294.88
467.555	310.88
468.012	312.18
468.47	316.18
468.928	333.28
469.385	347.28
469.843	350.48
470.3	355.18
470.758	366.98
471.215	392.08
471.673	414.88
472.13	406.18
472.588	421.98
473.045	377.58
473.503	379.98
473.96	386.48
474.417	403.78
474.875	433.88
475.332	477.08
475.789	473.78
476.246	482.98
476.704	498.08
477.161	512.08
477.618	537.58
478.075	559.78
478.532	619.58
478.989	701.78
479.446	815.58
479.903	776.98
480.36	811.58
480.817	880.78
481.274	979.28
481.731	1089.38
482.188	1187.18
482.645	1316.38
483.102	1415.58
483.558	1560.28
484.015	1638.78
484.472	1590.88
484.929	1536.58
485.385	1480.48
485.842	1455.98
486.299	1385.38
486.755	1308.98
487.212	1099.98
487.668	949.58
488.125	867.88
488.582	786.98
489.038	760.78
489.494	719.48
489.951	703.38
490.407	679.98
490.864	659.18
491.32	654.58
491.776	646.98
492.233	649.48
492.689	620.28
493.145	613.28
493.602	597.28
494.058	611.88
494.514	622.38
494.97	651.38
495.426	655.18
495.882	631.98
496.338	629.58
496.794	632.58
497.251	631.38
497.707	639.58
498.163	647.58
498.618	662.28
499.074	651.08
499.53	687.18
499.986	685.28
500.442	669.08
500.898	645.18
501.354	631.48
501.809	641.28
502.265	654.98
502.721	669.88
503.177	682.08
503.632	667.78
504.088	692.38
504.543	718.28
504.999	721.98
505.455	661.88
505.91	636.68
506.366	633.58
506.821	634.18
507.277	625.78
507.732	633.38
508.187	631.08
508.643	642.88
509.098	648.38
509.553	669.58
510.009	678.98
510.464	684.08
510.919	702.58
511.375	702.48
511.83	715.98
512.285	734.48
512.74	771.48
513.195	793.38
513.65	771.28
514.105	776.98
514.56	786.48
515.015	801.78
515.47	822.08
515.925	798.08
516.38	810.08
516.835	803.38
517.29	799.68
517.745	785.38
518.2	770.98
518.655	759.88
519.109	753.38
519.564	754.88
520.019	743.48
520.474	731.58
520.928	735.18
521.383	729.28
521.838	720.98
522.292	719.18
522.747	717.38
523.201	710.08
523.656	694.58
524.11	696.08
524.565	697.48
525.019	695.18
525.474	711.18
525.928	705.68
526.382	699.08
526.837	709.98
527.291	715.68
527.745	701.68
528.2	700.48
528.654	695.38
529.108	688.58
529.562	699.38
530.016	705.38
530.47	697.48
530.925	695.98
531.379	701.08
531.833	712.78
532.287	709.88
532.741	709.18
533.195	714.48
533.649	721.98
534.103	726.48
534.556	714.68
535.01	724.98
535.464	715.68
535.918	735.38
536.372	724.28
536.826	725.48
537.279	707.98
537.733	719.08
538.187	718.78
538.64	718.28
539.094	732.88
539.548	738.98
540.001	736.78
540.455	727.38
540.908	731.58
541.362	736.98
541.815	759.58
542.269	764.68
542.722	762.98
543.175	774.48
543.629	780.48
544.082	790.68
544.536	795.98
544.989	788.48
545.442	790.48
545.895	787.28
546.349	786.18
546.802	789.78
547.255	798.58
547.708	805.18
548.161	822.38
548.614	823.18
549.067	827.18
549.52	825.38
549.973	815.98
550.426	809.28
550.879	800.58
551.332	803.68
551.785	809.78
552.238	806.78
552.691	830.28
553.144	836.58
553.596	840.38
554.049	864.38
554.502	906.38
554.955	916.98
555.407	921.68
555.86	909.78
556.313	888.78
556.765	887.48
557.218	892.48
557.67	878.88
558.123	877.48
558.576	870.08
559.028	873.98
559.48	881.58
559.933	884.98
560.385	847.38
560.838	802.68
561.29	774.88
561.742	770.28
562.195	761.68
562.647	760.58
563.099	777.08
563.551	775.78
564.004	791.18
564.456	776.88
564.908	760.78
565.36	747.58
565.812	725.18
566.264	736.18
566.716	720.28
567.168	713.68
567.62	706.58
568.072	694.88
568.524	689.58
568.976	686.48
569.428	679.88
569.88	669.18
570.332	680.68
570.784	671.38
571.235	688.68
571.687	693.18
572.139	692.68
572.59	703.58
573.042	714.28
573.494	706.78
573.945	703.48
574.397	685.68
574.849	683.38
575.3	690.68
575.752	686.58
576.203	679.18
576.655	688.68
577.106	679.08
577.557	661.28
578.009	669.88
578.46	657.08
578.912	649.18
579.363	661.78
579.814	660.18
580.265	669.18
580.717	661.38
581.168	665.68
581.619	677.18
582.07	671.68
582.521	662.38
582.972	668.18
583.423	665.58
583.875	671.98
584.326	700.88
584.777	744.28
585.227	811.98
585.678	893.68
586.129	986.58
586.58	1054.68
587.031	1127.38
587.482	1307.38
587.933	1467.08
588.384	1282.78
588.834	968.38
589.285	797.18
589.736	765.88
590.186	767.98
590.637	746.58
591.088	730.08
591.538	728.48
591.989	717.58
592.439	717.88
592.89	715.28
593.34	704.08
593.791	699.78
594.241	704.18
594.692	705.28
595.142	694.68
595.593	686.38
596.043	696.78
596.493	708.08
596.943	700.58
597.394	713.68
597.844	699.18
598.294	718.78
598.744	734.28
599.195	766.38
599.645	802.38
600.095	836.18
600.545	890.08
600.995	950.28
601.445	998.28
601.895	1066.28
602.345	1107.38
602.795	1090.68
603.245	1054.88
603.695	994.98
604.145	946.98
604.594	903.28
605.044	835.38
605.494	785.78
605.944	739.38
606.393	732.78
606.843	705.28
607.293	720.98
607.743	712.78
608.192	724.18
608.642	742.98
609.091	741.98
609.541	755.98
609.99	751.28
610.44	750.98
610.889	703.78
611.339	689.88
611.788	672.98
612.238	676.38
612.687	702.78
613.136	702.48
613.586	717.28
614.035	709.48
614.484	729.18
614.933	734.98
615.383	722.88
615.832	716.08
616.281	703.78
616.73	666.28
617.179	652.88
617.628	628.68
618.077	618.48
618.526	608.88
618.975	604.38
619.424	589.78
619.873	596.58
620.322	604.48
620.771	597.88
621.22	592.58
621.669	583.38
622.118	573.38
622.567	556.48
623.015	557.18
623.464	551.88
623.913	549.88
624.361	543.88
624.81	537.28
625.259	534.58
625.707	543.68
626.156	542.28
626.604	553.88
627.053	541.18
627.501	539.88
627.95	552.28
628.398	561.08
628.847	546.98
629.295	556.58
629.744	556.68
630.192	550.88
630.64	550.98
631.089	561.68
631.537	560.48
631.985	560.18
632.433	574.98
632.881	600.08
633.33	645.98
633.778	618.48
634.226	553.28
634.674	549.48
635.122	554.98
635.57	576.38
636.018	603.48
636.466	562.78
636.914	544.18
637.362	550.08
637.81	564.98
638.258	556.58
638.705	555.28
639.153	588.88
639.601	589.98
640.049	610.68
640.497	643.28
640.944	678.78
641.392	623.58
641.84	596.88
642.287	573.08
642.735	550.58
643.182	549.48
643.63	553.18
644.078	549.68
644.525	569.18
644.973	572.38
645.42	573.18
645.867	595.58
646.315	615.18
646.762	642.08
647.21	666.38
647.657	695.78
648.104	730.98
648.551	744.18
648.999	814.08
649.446	884.68
649.893	972.08
650.34	1112.98
650.787	1328.88
651.234	1643.28
651.682	2140.18
652.129	2941.88
652.576	4199.28
653.023	6218.68
653.47	8527.88
653.917	10733.18
654.363	12459.68
654.81	13886.88
655.257	13223.88
655.704	8640.38
656.151	5098.78
656.598	3293.08
657.044	2336.38
657.491	1797.48
657.938	1431.78
658.385	1188.18
658.831	1027.68
659.278	927.88
659.724	837.98
660.171	761.58
660.618	695.28
661.064	654.28
661.511	633.08
661.957	627.08
662.404	623.48
662.85	629.28
663.296	593.78
663.743	541.48
664.189	517.08
664.635	501.18
665.082	508.28
665.528	507.38
665.974	504.58
666.42	493.88
666.867	485.38
667.313	470.48
667.759	459.58
668.205	458.28
668.651	472.08
669.097	459.08
669.543	480.58
669.989	454.88
670.435	438.68
670.881	423.08
671.327	428.68
671.773	448.68
672.219	466.98
672.665	516.48
673.11	552.68
673.556	598.08
674.002	645.68
674.448	626.88
674.893	533.18
675.339	450.38
675.785	423.98
676.23	397.08
676.676	379.18
677.122	372.98
677.567	362.38
678.013	355.48
678.458	349.78
678.904	349.28
679.349	323.88
679.794	338.08
680.24	335.88
680.685	333.88
681.131	325.78
681.576	332.58
682.021	342.38
682.466	330.88
682.912	323.28
683.357	337.08
683.802	368.38
684.247	387.68
684.692	433.18
685.137	472.78
685.583	516.88
686.028	528.88
686.473	492.88
686.918	419.68
687.363	402.58
687.807	378.78
688.252	342.48
688.697	334.78
689.142	324.88
689.587	322.38
690.032	310.98
690.477	322.78
690.921	333.38
691.366	365.48
691.811	383.68
692.255	410.68
692.7	444.38
693.145	467.78
693.589	653.28
694.034	1044.28
694.478	1443.18
694.923	1662.18
695.367	2167.88
695.812	1142.38
696.256	476.18
696.701	350.38
697.145	326.78
697.59	312.18
698.034	307.08
698.478	309.28
698.922	314.28
699.367	307.78
699.811	330.48
700.255	337.08
700.699	361.98
701.143	401.88
701.588	444.38
702.032	484.58
702.476	486.88
702.92	469.18
703.364	461.68
703.808	592.68
704.252	950.48
704.696	1358.58
705.14	1597.98
705.584	2042.18
706.027	1010.58
706.471	499.28
706.915	375.18
707.359	332.08
707.803	305.68
708.246	292.78
708.69	292.38
709.134	304.18
709.577	297.28
710.021	305.08
710.465	287.98
710.908	276.68
711.352	286.38
711.795	293.88
712.239	333.08
712.682	358.38
713.126	395.68
713.569	446.98
714.012	355.58
714.456	307.18
714.899	293.68
715.342	262.38
715.786	239.98
716.229	236.88
716.672	233.38
717.115	241.18
717.558	237.28
718.002	237.98
718.445	244.18
718.888	271.58
719.331	277.38
719.774	293.68
720.217	284.88
720.66	272.48
721.103	253.28
721.546	241.18
721.989	236.38
722.432	222.58
722.874	222.98
723.317	222.08
723.76	229.18
724.203	242.78
724.645	297.08
725.088	414.48
725.531	544.28
725.974	610.88
726.416	517.08
726.859	290.38
727.301	231.48
727.744	227.68
728.187	221.88
728.629	232.58
729.071	240.68
729.514	248.98
729.956	254.78
730.399	263.38
730.841	266.08
731.283	259.58
731.726	251.28
732.168	243.98
732.61	257.68
733.053	269.58
733.495	294.78
733.937	335.88
734.379	381.18
734.821	405.38
735.263	503.68
735.705	769.98
736.148	1443.78
736.59	2396.28
737.032	2898.88
737.474	2369.58
737.916	770.38
738.357	399.28
738.799	310.58
739.241	278.58
739.683	268.18
740.125	280.48
740.567	287.28
741.008	290.98
741.45	298.28
741.892	299.98
742.334	325.88
742.775	335.18
743.217	321.68
743.658	257.98
744.1	236.78
744.542	243.88
744.983	292.88
745.425	321.68
745.866	318.98
746.307	270.58
746.749	259.98
747.19	296.78
747.632	425.18
748.073	799.88
748.514	1718.28
748.956	2665.28
749.397	3366.08
749.838	2786.08
750.279	2831.48
750.72	1420.18
751.162	516.68
751.603	307.78
752.044	235.48
752.485	210.78
752.926	200.58
753.367	190.38
753.808	179.88
754.249	181.88
754.69	174.98
755.131	178.48
755.572	176.48
756.013	173.18
756.453	171.38
756.894	174.08
757.335	176.48
757.776	183.28
758.216	183.48
758.657	190.08
759.098	187.48
759.538	213.88
759.979	248.48
760.42	346.88
760.86	638.38
761.301	1647.28
761.741	4088.48
762.182	6115.28
762.622	4339.28
763.063	1238.48
763.503	508.48
763.943	326.68
764.384	315.78
764.824	373.18
765.264	414.28
765.705	288.38
766.145	198.98
766.585	174.68
767.025	170.28
767.465	175.08
767.906	229.58
768.346	299.08
768.786	318.38
769.226	243.78
769.666	291.28
770.106	564.88
770.546	1423.88
770.986	2497.88
771.426	2253.18
771.866	747.68
772.306	312.68
772.745	199.18
773.185	161.18
773.625	165.18
774.065	149.98
774.505	181.38
774.944	280.98
775.384	606.78
775.824	1129.38
776.263	1120.18
776.703	466.68
777.142	211.08
777.582	147.48
778.021	129.28
778.461	129.18
778.9	140.08
779.34	128.38
779.779	113.78
780.219	103.98
780.658	105.98
781.097	102.58
781.537	111.88
781.976	104.38
782.415	101.18
782.855	103.48
783.294	99.38
783.733	101.58
784.172	106.78
784.611	98.28
785.05	107.48
785.489	104.18
785.928	111.88
786.367	119.78
786.806	104.58
787.245	122.08
787.684	131.68
788.123	137.28
788.562	123.28
789.001	115.58
789.44	113.68
789.879	111.48
790.317	114.28
790.756	118.58
791.195	122.58
791.634	132.48
792.072	186.78
792.511	330.58
792.95	910.08
793.388	2017.98
793.827	1848.68
794.265	649.48
794.704	266.58
795.142	173.58
795.581	140.68
796.019	124.38
796.458	126.98
796.896	116.48
797.334	128.28
797.773	141.98
798.211	205.58
798.649	402.08
799.087	940.98
799.526	1500.88
799.964	1880.08
800.402	1940.18
800.84	723.88
801.278	287.38
801.716	170.28
802.154	147.68
802.592	137.78
803.03	128.38
803.468	130.28
803.906	132.28
804.344	138.78
804.782	134.68
805.22	124.98
805.658	123.38
806.096	135.38
806.533	149.48
806.971	164.68
807.409	202.08
807.847	288.78
808.284	606.88
808.722	1709.98
809.16	3122.18
809.597	2885.88
810.035	5049.78
810.472	5562.28
810.91	1997.98
811.347	752.48
811.785	387.28
812.222	240.68
812.66	185.98
813.097	160.68
813.535	135.18
813.972	124.78
814.409	112.38
814.846	99.28
815.284	101.58
815.721	100.68
816.158	105.88
816.595	109.78
817.032	169.68
817.47	188.08
817.907	167.68
818.344	147.08
818.781	112.38
819.218	98.68
819.655	116.78
820.092	176.38
820.529	207.48
820.966	172.78
821.403	134.98
821.839	105.48
822.276	97.88
822.713	116.38
823.15	124.98
823.587	111.88
824.023	134.58
824.46	274.58
824.897	825.38
825.333	1292.58
825.77	555.28
826.206	220.48
826.643	131.08
827.08	97.68
827.516	72.18
827.953	72.98
828.389	73.78
828.825	62.78
829.262	63.68
829.698	57.98
830.135	60.28
830.571	59.78
831.007	61.18
831.443	57.98
831.88	61.28
832.316	59.98
832.752	60.98
833.188	60.88
833.624	67.18
834.06	68.18
834.497	67.08
834.933	75.48
835.369	70.48
835.805	67.28
836.241	74.88
836.677	73.68
837.112	85.38
837.548	99.78
837.984	120.98
838.42	174.48
838.856	454.98
839.292	1399.88
839.727	2196.28
840.163	1010.78
840.599	840.68
841.034	1876.78
841.47	2046.18
841.906	748.48
842.341	313.58
842.777	217.28
843.212	281.28
843.648	292.98
844.083	137.58
844.519	93.58
844.954	74.38
845.39	58.38
845.825	55.78
846.261	60.78
846.696	60.08
847.131	53.88
847.566	57.68
848.002	55.18
848.437	51.58
848.872	55.48
849.307	57.38
849.742	75.98
850.177	165.78
850.613	515.18
851.048	829.18
851.483	366.18
851.918	147.28
852.353	83.48
852.788	57.18
853.223	52.58
853.657	54.98
854.092	45.88
854.527	40.88
854.962	42.38
855.397	46.08
855.832	44.98
856.266	42.08
856.701	39.08
857.136	35.18
857.57	39.18
858.005	42.68
858.44	55.08
858.874	45.08
859.309	55.78
859.743	34.08
860.178	45.38
860.612	40.08
861.047	50.88
861.481	66.38
861.915	68.38
862.35	50.68
862.784	33.58
863.218	36.88
863.653	35.98
864.087	47.98
864.521	53.88
864.955	58.98
865.39	149.08
865.824	164.08
866.258	106.58
866.692	158.18
867.126	176.18
867.56	103.88
867.994	52.98
868.428	35.48
868.862	42.28
869.296	50.68
869.73	58.48
870.164	50.08
870.598	40.88
871.031	40.18
871.465	30.38
871.899	32.18
872.333	20.38
872.766	27.58
873.2	21.18
873.634	25.08
874.067	21.98
874.501	32.68
874.935	31.88
875.368	31.18
875.802	32.08
876.235	25.08
876.669	27.38
877.102	25.48
877.535	26.58
877.969	23.48
878.402	21.98
878.836	24.08
879.269	23.38
879.702	19.98
880.135	17.98
880.569	27.18
881.002	25.28
881.435	18.98
881.868	11.78
882.301	29.38
882.734	17.08
883.167	18.38
883.601	19.68
884.034	18.78
884.467	13.98
884.899	15.98
885.332	20.38
885.765	16.98
886.198	18.08
886.631	18.88
887.064	19.78
887.497	24.28
887.929	26.08
888.362	16.78
888.795	8.08
889.228	17.88
889.66	19.38
890.093	20.08
890.526	16.48
890.958	18.88
891.391	20.98
891.823	22.98
892.256	17.18
892.688	11.58
893.121	13.68
893.553	12.58
893.985	23.28
894.418	23.98
894.85	12.18
895.282	18.28
895.715	15.18
896.147	13.38
896.579	16.98
897.011	9.38
897.444	18.28
897.876	12.28
898.308	18.28
898.74	13.58
899.172	12.38
899.604	20.48
900.036	21.68
900.468	11.58
900.9	13.78
901.332	13.38
901.764	17.48
902.196	14.88
902.628	15.58
903.06	16.88
903.491	28.58
903.923	23.68
904.355	19.58
904.787	25.88
905.218	14.38
905.65	20.78
906.082	13.48
906.513	16.48
906.945	15.08
907.376	12.48
907.808	22.08
908.239	17.98
908.671	22.68
909.102	17.68
909.534	24.78
909.965	46.38
910.397	87.68
910.828	289.48
911.259	458.68
911.691	211.48
912.122	102.38
912.553	48.58
912.984	36.08
913.415	28.58
913.847	22.98
914.278	13.88
914.709	17.88
915.14	19.98
915.571	20.68
916.002	14.88
916.433	19.68
916.864	16.18
917.295	14.68
917.726	22.38
918.157	12.78
918.587	30.88
919.018	19.58
919.449	23.58
919.88	24.18
920.311	29.68
920.741	42.78
921.172	157.38
921.603	146.28
922.033	67.78
922.464	46.98
922.895	20.38
923.325	20.48
923.756	19.08
924.186	21.18
924.617	22.98
925.047	38.88
925.478	48.28
925.908	38.18
926.338	24.28
926.769	18.78
927.199	20.48
927.629	5.08
928.06	18.18
928.49	15.08
928.92	17.38
929.35	10.88
929.78	6.78
930.21	7.28
930.641	6.28
931.071	10.38
931.501	6.08
931.931	12.88
932.361	15.28
932.791	4.98
933.221	14.88
933.651	7.68
934.08	22.38
934.51	34.58
934.94	9.78
935.37	8.78
935.8	9.58
936.229	5.38
936.659	10.28
937.089	3.18
937.519	14.28
937.948	26.38
938.378	19.48
938.807	2.58
939.237	4.68
939.666	13.08
940.096	-7.72
940.525	2.68
940.955	4.98
941.384	7.88
941.814	-6.52
942.243	2.48
942.672	6.58
943.102	-4.72
943.531	2.48
943.96	-1.22
944.39	1.18
944.819	3.68
945.248	6.78
945.677	3.58
946.106	6.18
946.535	5.68
946.964	0.68
947.393	6.58
947.822	5.58
948.251	1.28
948.68	5.08
949.109	6.38
949.538	5.48
949.967	0.28
950.396	1.28
950.825	7.18
951.254	0.18
951.682	-2.92
952.111	2.98
952.54	3.58
952.969	-0.02
953.397	-3.42
953.826	1.18
954.254	-8.92
954.683	1.28
955.112	2.78
955.54	-2.12
955.969	-1.32
956.397	0.68
956.826	-5.02
957.254	5.58
957.682	-1.22
958.111	-0.32
958.539	-4.62
958.967	-0.72
959.396	0.88
959.824	2.68
960.252	-2.42
960.68	-5.72
961.109	-2.02
961.537	-3.22
961.965	-4.82
962.393	-0.22
962.821	-0.22
963.249	3.58
963.677	4.88
964.105	0.28
964.533	47.38
964.961	35.58
965.389	23.28
965.817	1.78
966.245	5.88
966.672	4.78
967.1	-4.52
967.528	3.98
967.956	-7.02
968.383	-1.52
968.811	-4.22
969.239	2.38
969.666	-3.42
970.094	4.48
970.522	2.18
970.949	-4.82
971.377	0.68
971.804	-4.82
972.232	0.38
972.659	2.98
973.087	-0.82
973.514	-1.32
973.941	-5.32
974.369	0.28
974.796	-2.82
975.223	-0.12
975.651	1.98
976.078	2.28
976.505	-1.92
976.932	3.88
977.359	14.18
977.786	16.28
978.214	2.78
978.641	-2.92
979.068	-2.82
979.495	-8.12
979.922	1.08
980.349	-2.72
980.776	3.48
981.202	-0.42
981.629	3.98
982.056	6.08
982.483	3.08
982.91	1.58
983.337	-6.52
983.763	3.48
984.19	-4.82
984.617	-2.52
985.043	-3.22
985.47	2.28
985.897	0.48
986.323	-5.42
986.75	3.38
987.176	1.18
987.603	4.38
988.029	2.48
988.456	-2.12
988.882	4.48
989.308	-8.22
989.735	-6.02
990.161	3.18
990.587	-4.12
991.014	5.48
991.44	8.58
991.866	0.58
992.292	-0.32
992.719	-1.52
993.145	7.08
993.571	-7.02
993.997	-5.62
994.423	-1.22
994.849	-2.52
995.275	2.48
995.701	3.68
996.127	-2.22
996.553	1.48
996.979	0.68
997.405	4.78
997.83	-3.62
998.256	-8.22
998.682	-8.02
999.108	-8.02
999.534	-0.12
999.959	4.88
1000.385	-4.52
1000.811	4.58
1001.236	-9.22
1001.662	-11.22
1002.087	-8.22
1002.513	-0.02
1002.938	2.08
1003.364	-4.92
1003.789	-0.12
1004.215	8.08
1004.64	-3.82
1005.066	0.18
1005.491	-0.52
1005.916	0.18
1006.342	-1.12
1006.767	-4.02
1007.192	9.48
1007.617	-1.62
1008.042	-7.82
1008.468	-6.92
1008.893	0.38
1009.318	-1.12
1009.743	-3.12
1010.168	0.68
1010.593	-0.62
1011.018	-5.42
1011.443	-1.52
1011.868	0.98
1012.293	-0.82
1012.718	-11.52
1013.143	5.78
1013.567	2.68
1013.992	-5.32
1014.417	-14.32
1014.842	-1.42
1015.267	-6.02
1015.691	-2.02
1016.116	9.48
1016.541	3.38
1016.965	6.28
1017.39	0.18
1017.814	1.68
1018.239	2.38
1018.663	-4.22
1019.088	-6.62
1019.512	-2.02
1019.937	1.08
1020.361	-6.12
1020.785	-7.42
1021.21	-8.82
1021.634	-0.42
1022.058	-1.62
1022.483	4.38
1022.907	-2.92
1023.331	-2.02
1023.755	-5.02
1024.179	4.08
1024.604	-3.62
1025.028	-12.22
1025.452	0.08
1025.876	-1.32
1026.3	1.28
1026.724	-9.92
1027.148	-5.02
1027.572	-7.22
1027.996	-0.52
1028.42	-4.72
1028.843	-5.92
1029.267	-1.92
1029.691	2.38
1030.115	-6.12
1030.539	-0.42
1030.962	-5.12
1031.386	-5.42
1031.81	5.68
1032.233	-1.52
1032.657	-2.42
1033.08	-6.72
1033.504	0.98
1033.927	-2.12
1034.351	0.28
1034.774	-4.02
1035.198	-5.02
1035.621	-0.92
1036.045	-5.12
1036.468	4.78
1036.891	-7.72
1037.315	-10.52
1037.738	-6.72
1038.161	4.58
1038.584	-5.12
1039.008	-8.62
1039.431	-1.62
1039.854	1.98
1040.277	-7.52
1040.7	-8.32
1041.123	0.08
1041.546	1.58
1041.969	-0.32
1042.392	0.68
1042.815	-0.92
1043.238	0.68
1043.661	0.98
1044.084	-8.02
1044.507	-6.02
1044.93	-3.32
1045.352	-2.52
1045.775	-3.32
1046.198	-3.32
1046.621	0.78
1047.043	4.38
1047.466	9.28
1047.889	2.38
1048.311	-7.02
1048.734	-7.42
1049.156	-6.12
1049.579	-6.02
1050.001	-5.02
1050.424	-6.02
1050.846	-4.72
1051.269	1.18
1051.691	-1.32
1052.113	-6.22
1052.536	-2.22
1052.958	-4.72
1053.38	0.38
1053.802	-10.52
1054.225	-0.32
1054.647	-10.02
1055.069	-4.42
1055.491	3.78
1055.913	0.78
1056.335	0.28
1056.757	-1.22
1057.179	-9.92
1057.601	0.48
1058.023	1.08
1058.445	-3.92
1058.867	-3.22
1059.289	-2.82
1059.711	-10.32
1060.133	-3.42
1060.555	-6.12
1060.976	-5.82
1061.398	-4.22
1061.82	-8.62
1062.241	-1.42
1062.663	-4.82
1063.085	-1.12
1063.506	2.48
1063.928	0.78
1064.35	-4.32
1064.771	-10.82
1065.193	-4.22
1065.614	-7.42
1066.035	-0.12
1066.457	-0.02
1066.878	-0.42
1067.3	-4.72
1067.721	-0.52
1068.142	-4.42
1068.564	-3.92
1068.985	-3.52
1069.406	-9.42
1069.827	-6.02
1070.248	2.78
1070.67	-7.52
1071.091	-5.62
1071.512	-2.02
1071.933	-2.72
1072.354	-4.82
1072.775	-6.62
1073.196	-4.72
1073.617	-4.62
1074.038	-4.02
1074.459	-3.32
1074.88	-8.02
1075.3	6.28
1075.721	-5.22
1076.142	-4.22
1076.563	-1.52
1076.983	-10.12
1077.404	-1.12
1077.825	-4.92
1078.246	-3.72
1078.666	-10.92
1079.087	-6.12
1079.507	-3.42
1079.928	2.08
1080.348	1.48
1080.769	-6.52
1081.189	3.08
1081.61	-3.92
1082.03	0.98
1082.451	-2.32
1082.871	-7.12
1083.291	-7.32
1083.711	-6.82
1084.132	-5.12
1084.552	-5.52
1084.972	-3.52
1085.392	-13.12
1085.813	-10.22
1086.233	-4.62
1086.653	-6.12
1087.073	3.78
1087.493	-7.32
1087.913	-0.72
1088.333	-9.52
1088.753	-3.92
1089.173	4.28
1089.593	-0.12
1090.013	-1.32
1090.433	-0.72
1090.852	-1.92
1091.272	0.98
1091.692	-2.02
1092.112	-6.32
1092.531	-4.22
1092.951	-8.92
1093.371	0.18
1093.79	5.08
1094.21	-1.92
1094.63	-2.32
1095.049	0.18
1095.469	-5.12
1095.888	-4.42
1096.308	3.28
1096.727	8.78
1097.146	-6.62
1097.566	-1.02
1097.985	-6.02
1098.405	2.88
1098.824	-6.12
1099.243	-0.32
1099.662	-11.02
1100.082	-5.02
1100.501	-1.42
1100.92	-5.72
1101.339	-2.52
1101.758	-3.02
