Data from 20171114-ORNL-Ar_H_NY_Subt18_08-09-02-941.txt Node
Date: Tue Nov 14 08:09:02 EST 2017
User: Ender
Spectrometer: HR+D1039
Trigger mode: 0
Integration Time (sec): 2.730000E-2
Scans to average: 10
Electric dark correction enabled: true
Nonlinearity correction enabled: false
Boxcar width: 0
XAxis mode: Wavelengths
Number of Pixels in Spectrum: 2048
>>>>>Begin Spectral Data<<<<<
187.836	-4.48
188.309	-4.48
188.782	-4.48
189.255	-0.28
189.728	1.72
190.201	2.12
190.674	0.32
191.147	5.52
191.619	-7.38
192.092	2.12
192.565	4.62
193.038	0.72
193.511	3.02
193.984	0.72
194.456	-2.28
194.929	-2.88
195.402	-0.18
195.874	-3.48
196.347	-0.18
196.82	-4.28
197.292	4.52
197.765	0.72
198.237	-7.68
198.71	2.62
199.182	-2.28
199.655	1.32
200.127	-0.68
200.6	-2.18
201.072	-7.68
201.544	-6.78
202.017	1.92
202.489	1.42
202.961	-0.28
203.433	-0.98
203.906	-3.58
204.378	-9.98
204.85	-7.88
205.322	-7.48
205.794	-2.08
206.266	-2.58
206.739	-6.08
207.211	3.62
207.683	-4.08
208.155	-3.38
208.627	-8.38
209.099	-4.68
209.57	-11.08
210.042	-7.08
210.514	-4.48
210.986	-7.18
211.458	-6.68
211.93	-4.48
212.402	0.82
212.873	-3.68
213.345	-10.18
213.817	-19.88
214.288	-3.58
214.76	-14.08
215.232	-6.58
215.703	-6.38
216.175	-5.78
216.646	-2.78
217.118	-9.18
217.589	-4.48
218.061	-1.48
218.532	-1.98
219.004	-1.08
219.475	-4.68
219.946	-2.78
220.418	-4.58
220.889	4.42
221.36	-2.98
221.832	-0.38
222.303	-9.78
222.774	0.62
223.245	-11.78
223.717	-3.78
224.188	-4.48
224.659	-1.88
225.13	-6.58
225.601	-0.68
226.072	2.22
226.543	-4.88
227.014	-3.98
227.485	-3.28
227.956	-5.68
228.427	0.22
228.898	-2.58
229.369	1.42
229.839	-7.08
230.31	-6.88
230.781	1.72
231.252	-8.48
231.722	-9.88
232.193	-9.68
232.664	-6.58
233.135	-6.38
233.605	-8.28
234.076	-12.48
234.546	-4.68
235.017	0.42
235.487	0.12
235.958	3.22
236.428	-7.38
236.899	-5.58
237.369	-5.38
237.84	-9.18
238.31	-2.28
238.78	0.22
239.251	-9.18
239.721	-2.18
240.191	0.52
240.662	-0.98
241.132	-5.48
241.602	-5.68
242.072	-6.08
242.542	2.52
243.013	-5.98
243.483	-4.18
243.953	-1.28
244.423	-7.58
244.893	-10.38
245.363	-1.68
245.833	0.32
246.303	-6.58
246.773	1.72
247.243	1.02
247.712	-3.18
248.182	5.42
248.652	-0.58
249.122	-7.98
249.592	-4.98
250.061	2.62
250.531	10.32
251.001	-2.48
251.471	2.32
251.94	8.82
252.41	-5.68
252.879	-2.88
253.349	5.72
253.818	5.42
254.288	3.12
254.757	2.62
255.227	-4.68
255.696	1.82
256.166	2.42
256.635	-2.88
257.105	8.42
257.574	-4.38
258.043	-4.18
258.513	-6.18
258.982	5.92
259.451	-8.38
259.92	-1.58
260.389	-5.38
260.859	9.92
261.328	-4.08
261.797	-0.38
262.266	-1.08
262.735	3.92
263.204	1.42
263.673	-8.38
264.142	-5.08
264.611	-6.08
265.08	-14.88
265.549	-6.88
266.018	2.72
266.487	-7.48
266.955	-4.88
267.424	-2.58
267.893	-3.68
268.362	-3.08
268.83	0.72
269.299	4.22
269.768	0.02
270.236	-0.28
270.705	-2.08
271.174	4.42
271.642	-3.68
272.111	-0.68
272.579	2.52
273.048	-3.18
273.516	1.12
273.985	5.82
274.453	8.02
274.922	10.12
275.39	5.62
275.858	-9.08
276.327	3.82
276.795	9.02
277.263	0.92
277.731	7.92
278.2	7.22
278.668	1.82
279.136	9.02
279.604	-4.58
280.072	9.62
280.54	4.62
281.008	3.92
281.477	9.12
281.945	2.42
282.413	7.62
282.881	9.52
283.348	-1.98
283.816	6.02
284.284	10.52
284.752	12.32
285.22	8.82
285.688	1.22
286.156	0.72
286.623	9.72
287.091	1.92
287.559	6.62
288.026	8.52
288.494	12.32
288.962	0.92
289.429	0.82
289.897	8.62
290.364	10.42
290.832	15.42
291.3	7.02
291.767	9.12
292.234	9.42
292.702	6.22
293.169	14.72
293.637	11.02
294.104	11.92
294.571	1.92
295.039	3.52
295.506	8.82
295.973	12.32
296.44	6.92
296.908	9.52
297.375	3.02
297.842	11.12
298.309	6.12
298.776	5.42
299.243	6.02
299.71	2.42
300.177	9.12
300.644	8.22
301.111	13.32
301.578	13.32
302.045	9.12
302.512	17.42
302.979	18.02
303.446	11.22
303.913	11.62
304.379	7.72
304.846	17.62
305.313	14.72
305.78	15.62
306.246	19.92
306.713	18.82
307.18	16.12
307.646	17.42
308.113	20.62
308.579	11.12
309.046	16.02
309.512	20.02
309.979	10.22
310.445	16.72
310.912	19.02
311.378	20.82
311.845	22.62
312.311	21.92
312.777	28.32
313.244	26.42
313.71	25.42
314.176	24.32
314.642	21.52
315.109	22.42
315.575	24.22
316.041	21.32
316.507	17.52
316.973	21.12
317.439	20.12
317.905	24.82
318.371	24.12
318.837	25.22
319.303	20.82
319.769	20.52
320.235	20.12
320.701	27.42
321.167	29.22
321.633	17.92
322.099	26.62
322.564	28.22
323.03	28.12
323.496	26.72
323.962	25.02
324.427	24.02
324.893	30.22
325.359	31.22
325.824	29.82
326.29	25.62
326.755	27.32
327.221	30.52
327.686	29.42
328.152	38.02
328.617	26.42
329.083	33.82
329.548	41.92
330.014	35.32
330.479	28.42
330.944	32.62
331.41	35.32
331.875	33.52
332.34	33.32
332.805	30.82
333.271	31.52
333.736	30.22
334.201	36.32
334.666	38.12
335.131	38.52
335.596	36.62
336.061	38.22
336.526	28.92
336.991	33.42
337.456	40.92
337.921	34.22
338.386	32.52
338.851	32.22
339.316	36.22
339.781	38.12
340.246	35.92
340.711	34.82
341.175	40.62
341.64	31.72
342.105	42.72
342.569	45.22
343.034	46.32
343.499	43.02
343.963	40.82
344.428	50.42
344.893	48.02
345.357	44.32
345.822	45.72
346.286	50.72
346.751	54.92
347.215	50.52
347.679	56.62
348.144	64.32
348.608	59.62
349.073	57.62
349.537	58.02
350.001	56.52
350.465	74.12
350.93	61.22
351.394	62.72
351.858	52.42
352.322	69.52
352.786	61.62
353.25	80.92
353.715	83.42
354.179	81.72
354.643	90.82
355.107	91.62
355.571	82.62
356.035	78.42
356.498	88.42
356.962	89.02
357.426	90.52
357.89	95.12
358.354	75.32
358.818	71.52
359.281	64.72
359.745	61.22
360.209	65.82
360.673	64.32
361.136	63.22
361.6	70.52
362.064	74.02
362.527	71.52
362.991	78.52
363.454	66.52
363.918	62.82
364.381	66.82
364.845	70.32
365.308	70.42
365.772	68.52
366.235	74.22
366.698	68.12
367.162	78.02
367.625	72.42
368.088	77.12
368.552	71.22
369.015	73.42
369.478	76.42
369.941	86.52
370.404	76.12
370.867	82.32
371.331	84.52
371.794	92.12
372.257	81.22
372.72	80.32
373.183	88.02
373.646	75.12
374.109	81.02
374.572	86.02
375.035	86.02
375.497	82.92
375.96	90.32
376.423	82.32
376.886	93.22
377.349	89.42
377.811	84.62
378.274	89.52
378.737	83.92
379.199	97.82
379.662	94.82
380.125	98.02
380.587	91.42
381.05	91.02
381.512	97.92
381.975	101.22
382.437	104.62
382.9	99.22
383.362	106.12
383.825	112.82
384.287	107.12
384.75	104.22
385.212	108.12
385.674	115.72
386.136	114.52
386.599	105.82
387.061	108.32
387.523	104.42
387.985	106.12
388.447	123.72
388.91	112.42
389.372	104.92
389.834	110.32
390.296	100.42
390.758	120.12
391.22	117.62
391.682	131.32
392.144	126.92
392.606	121.72
393.068	120.12
393.529	129.02
393.991	121.52
394.453	116.12
394.915	116.22
395.377	117.82
395.838	119.92
396.3	115.72
396.762	128.42
397.224	125.32
397.685	119.42
398.147	124.12
398.608	118.82
399.07	118.02
399.531	121.92
399.993	127.72
400.454	132.92
400.916	136.72
401.377	130.12
401.839	135.52
402.3	142.42
402.762	152.22
403.223	163.92
403.684	154.32
404.145	145.62
404.607	141.72
405.068	143.22
405.529	154.62
405.99	173.82
406.451	158.32
406.913	154.82
407.374	144.92
407.835	148.82
408.296	155.32
408.757	149.72
409.218	169.62
409.679	158.12
410.14	161.92
410.601	170.42
411.062	162.82
411.522	163.12
411.983	162.42
412.444	165.12
412.905	175.92
413.366	172.42
413.826	182.02
414.287	212.32
414.748	248.62
415.208	239.22
415.669	208.12
416.13	192.22
416.59	195.12
417.051	201.72
417.511	204.52
417.972	224.92
418.432	231.62
418.893	273.72
419.353	240.72
419.814	185.22
420.274	168.72
420.734	172.72
421.195	187.82
421.655	176.12
422.115	180.62
422.576	187.22
423.036	193.42
423.496	196.22
423.956	209.22
424.416	221.42
424.876	253.62
425.336	241.62
425.797	241.52
426.257	239.12
426.717	228.02
427.177	217.52
427.637	209.32
428.097	221.72
428.556	228.02
429.016	252.62
429.476	244.92
429.936	250.52
430.396	254.62
430.856	267.92
431.315	292.32
431.775	321.32
432.235	345.12
432.694	328.32
433.154	332.52
433.614	357.72
434.073	307.72
434.533	261.92
434.993	256.92
435.452	260.82
435.912	271.92
436.371	268.92
436.83	259.52
437.29	242.92
437.749	229.92
438.209	230.32
438.668	261.42
439.127	270.02
439.587	253.72
440.046	234.22
440.505	243.22
440.964	266.92
441.424	301.32
441.883	289.02
442.342	241.12
442.801	215.42
443.26	217.62
443.719	223.52
444.178	216.52
444.637	203.92
445.096	217.62
445.555	215.82
446.014	216.92
446.473	221.82
446.932	228.92
447.391	219.22
447.849	218.92
448.308	216.92
448.767	219.12
449.226	228.92
449.685	236.12
450.143	239.02
450.602	233.62
451.061	218.62
451.519	224.02
451.978	229.92
452.436	232.42
452.895	234.82
453.353	245.62
453.812	231.42
454.27	235.72
454.729	235.82
455.187	232.92
455.646	242.62
456.104	240.12
456.562	260.92
457.021	259.52
457.479	254.12
457.937	262.32
458.395	259.92
458.854	246.92
459.312	246.42
459.77	273.72
460.228	243.82
460.686	236.62
461.144	251.52
461.602	238.62
462.06	236.02
462.518	248.82
462.976	251.42
463.434	255.32
463.892	260.52
464.35	265.22
464.808	281.22
465.266	261.32
465.724	271.02
466.181	271.32
466.639	269.72
467.097	290.82
467.555	293.92
468.012	299.72
468.47	304.02
468.928	327.02
469.385	336.32
469.843	345.32
470.3	344.02
470.758	356.12
471.215	375.02
471.673	401.92
472.13	400.32
472.588	407.42
473.045	370.82
473.503	374.82
473.96	394.52
474.417	393.02
474.875	425.62
475.332	464.42
475.789	450.62
476.246	466.52
476.704	477.82
477.161	502.42
477.618	508.82
478.075	546.22
478.532	599.62
478.989	662.22
479.446	775.82
479.903	741.52
480.36	754.12
480.817	803.72
481.274	893.32
481.731	974.22
482.188	1052.72
482.645	1172.62
483.102	1242.32
483.558	1359.02
484.015	1396.12
484.472	1376.12
484.929	1338.82
485.385	1300.02
485.842	1273.12
486.299	1224.72
486.755	1192.92
487.212	1014.32
487.668	871.62
488.125	800.32
488.582	739.32
489.038	712.02
489.494	682.32
489.951	656.72
490.407	642.42
490.864	628.82
491.32	627.22
491.776	624.42
492.233	629.62
492.689	598.72
493.145	596.42
493.602	589.02
494.058	595.82
494.514	595.62
494.97	626.02
495.426	632.42
495.882	617.32
496.338	600.42
496.794	613.02
497.251	601.92
497.707	619.92
498.163	614.92
498.618	634.82
499.074	630.62
499.53	656.92
499.986	648.32
500.442	627.42
500.898	605.82
501.354	596.12
501.809	610.72
502.265	612.52
502.721	619.22
503.177	625.62
503.632	631.82
504.088	635.42
504.543	659.22
504.999	688.62
505.455	648.92
505.91	631.62
506.366	630.52
506.821	634.02
507.277	626.82
507.732	620.42
508.187	631.82
508.643	634.42
509.098	637.92
509.553	653.82
510.009	667.72
510.464	676.62
510.919	686.52
511.375	694.12
511.83	696.12
512.285	722.62
512.74	751.02
513.195	778.02
513.65	757.32
514.105	759.02
514.56	761.42
515.015	773.42
515.47	791.52
515.925	781.72
516.38	778.72
516.835	792.02
517.29	772.22
517.745	766.32
518.2	749.72
518.655	744.72
519.109	740.02
519.564	746.52
520.019	728.92
520.474	719.92
520.928	718.42
521.383	713.52
521.838	709.32
522.292	715.32
522.747	715.72
523.201	709.62
523.656	696.02
524.11	699.02
524.565	687.52
525.019	691.32
525.474	703.92
525.928	691.12
526.382	685.12
526.837	695.12
527.291	690.32
527.745	697.62
528.2	697.02
528.654	686.62
529.108	689.82
529.562	680.62
530.016	681.32
530.47	691.72
530.925	686.42
531.379	690.82
531.833	701.32
532.287	703.22
532.741	695.52
533.195	700.52
533.649	707.72
534.103	718.02
534.556	702.32
535.01	712.52
535.464	700.12
535.918	715.02
536.372	713.32
536.826	728.72
537.279	713.82
537.733	716.92
538.187	707.52
538.64	712.82
539.094	724.92
539.548	734.02
540.001	729.52
540.455	731.92
540.908	731.92
541.362	739.72
541.815	751.82
542.269	760.62
542.722	766.72
543.175	769.92
543.629	761.82
544.082	788.42
544.536	788.32
544.989	790.52
545.442	794.82
545.895	798.82
546.349	800.52
546.802	800.32
547.255	806.52
547.708	805.42
548.161	825.22
548.614	826.42
549.067	841.72
549.52	827.42
549.973	815.72
550.426	814.42
550.879	809.52
551.332	805.92
551.785	812.82
552.238	810.92
552.691	832.42
553.144	835.82
553.596	853.62
554.049	878.32
554.502	902.42
554.955	919.92
555.407	908.12
555.86	904.62
556.313	890.12
556.765	882.42
557.218	887.42
557.67	892.22
558.123	883.92
558.576	878.22
559.028	892.02
559.48	890.82
559.933	882.62
560.385	841.42
560.838	814.42
561.29	799.52
561.742	796.82
562.195	781.52
562.647	769.42
563.099	782.32
563.551	785.22
564.004	796.92
564.456	779.92
564.908	767.42
565.36	753.22
565.812	737.82
566.264	728.82
566.716	724.52
567.168	726.82
567.62	721.32
568.072	710.02
568.524	701.92
568.976	697.32
569.428	689.32
569.88	680.02
570.332	698.92
570.784	692.52
571.235	695.42
571.687	702.72
572.139	714.92
572.59	721.62
573.042	723.52
573.494	720.42
573.945	718.22
574.397	686.22
574.849	698.82
575.3	713.32
575.752	698.02
576.203	693.02
576.655	696.92
577.106	681.72
577.557	679.62
578.009	675.02
578.46	684.12
578.912	672.82
579.363	677.22
579.814	677.42
580.265	680.02
580.717	678.52
581.168	679.92
581.619	682.12
582.07	692.62
582.521	681.62
582.972	681.62
583.423	683.92
583.875	685.02
584.326	692.72
584.777	710.32
585.227	732.12
585.678	735.62
586.129	742.62
586.58	768.02
587.031	787.82
587.482	813.72
587.933	834.52
588.384	826.12
588.834	798.82
589.285	785.22
589.736	778.22
590.186	777.72
590.637	778.22
591.088	759.82
591.538	754.92
591.989	741.62
592.439	734.42
592.89	721.52
593.34	717.42
593.791	721.62
594.241	704.82
594.692	706.22
595.142	706.42
595.593	709.72
596.043	714.32
596.493	711.82
596.943	712.52
597.394	732.72
597.844	728.92
598.294	746.82
598.744	766.62
599.195	795.32
599.645	837.92
600.095	879.52
600.545	943.42
600.995	986.32
601.445	1043.02
601.895	1107.12
602.345	1159.22
602.795	1130.22
603.245	1088.92
603.695	1037.02
604.145	968.32
604.594	932.12
605.044	871.42
605.494	824.92
605.944	771.12
606.393	762.12
606.843	742.02
607.293	753.22
607.743	746.82
608.192	753.62
608.642	768.92
609.091	772.22
609.541	779.12
609.99	772.72
610.44	777.62
610.889	729.62
611.339	713.22
611.788	693.82
612.238	702.42
612.687	719.32
613.136	703.02
613.586	713.12
614.035	712.82
614.484	728.62
614.933	720.92
615.383	725.62
615.832	725.42
616.281	721.82
616.73	692.22
617.179	662.12
617.628	652.42
618.077	636.62
618.526	638.62
618.975	626.82
619.424	626.82
619.873	628.52
620.322	629.22
620.771	615.32
621.22	616.02
621.669	599.32
622.118	603.42
622.567	591.82
623.015	580.02
623.464	571.52
623.913	571.92
624.361	561.82
624.81	564.22
625.259	556.72
625.707	554.22
626.156	566.42
626.604	574.62
627.053	578.92
627.501	576.42
627.95	591.32
628.398	599.12
628.847	586.92
629.295	586.02
629.744	590.12
630.192	583.02
630.64	577.12
631.089	551.32
631.537	546.32
631.985	542.22
632.433	546.12
632.881	535.82
633.33	537.62
633.778	534.42
634.226	537.12
634.674	550.32
635.122	551.72
635.57	562.92
636.018	570.82
636.466	573.02
636.914	564.32
637.362	590.92
637.81	588.72
638.258	586.02
638.705	596.62
639.153	635.12
639.601	633.02
640.049	668.22
640.497	688.12
640.944	702.22
641.392	654.52
641.84	629.72
642.287	595.62
642.735	574.72
643.182	568.82
643.63	580.02
644.078	587.82
644.525	598.32
644.973	592.82
645.42	607.42
645.867	632.72
646.315	638.32
646.762	668.92
647.21	698.82
647.657	711.12
648.104	743.62
648.551	761.32
648.999	833.32
649.446	900.82
649.893	991.52
650.34	1125.62
650.787	1342.12
651.234	1650.92
651.682	2135.32
652.129	2892.42
652.576	4133.12
653.023	6024.93
653.47	8096.92
653.917	9963.33
654.363	11396.13
654.81	12525.23
655.257	11859.33
655.704	7870.63
656.151	4742.02
656.598	3105.42
657.044	2253.93
657.491	1742.42
657.938	1423.22
658.385	1191.52
658.831	1044.12
659.278	939.32
659.724	837.72
660.171	783.12
660.618	718.82
661.064	687.62
661.511	661.52
661.957	656.32
662.404	642.92
662.85	649.72
663.296	631.52
663.743	563.12
664.189	542.32
664.635	541.32
665.082	536.52
665.528	539.32
665.974	522.52
666.42	513.22
666.867	510.02
667.313	504.42
667.759	483.12
668.205	469.62
668.651	469.42
669.097	459.02
669.543	453.92
669.989	456.92
670.435	457.62
670.881	456.42
671.327	465.52
671.773	481.92
672.219	502.92
672.665	572.72
673.11	616.32
673.556	659.62
674.002	688.42
674.448	676.42
674.893	571.12
675.339	491.62
675.785	459.92
676.23	435.62
676.676	407.72
677.122	402.22
677.567	382.32
678.013	386.82
678.458	376.92
678.904	370.62
679.349	361.52
679.794	369.92
680.24	370.12
680.685	360.82
681.131	365.02
681.576	371.72
682.021	369.72
682.466	363.52
682.912	359.22
683.357	357.02
683.802	400.72
684.247	423.32
684.692	473.12
685.137	525.82
685.583	550.52
686.028	575.72
686.473	543.22
686.918	471.12
687.363	436.42
687.807	409.22
688.252	380.92
688.697	372.52
689.142	340.92
689.587	338.92
690.032	340.42
690.477	355.02
690.921	362.52
691.366	395.42
691.811	429.42
692.255	455.22
692.7	485.82
693.145	548.92
693.589	752.42
694.034	1216.12
694.478	1630.02
694.923	1791.62
695.367	2340.12
695.812	1251.92
696.256	517.42
696.701	390.92
697.145	353.62
697.59	337.52
698.034	330.12
698.478	335.62
698.922	325.62
699.367	329.22
699.811	349.62
700.255	365.72
700.699	402.82
701.143	437.52
701.588	491.62
702.032	531.52
702.476	530.12
702.92	518.32
703.364	524.92
703.808	690.22
704.252	1124.82
704.696	1559.42
705.14	1741.62
705.584	2201.82
706.027	1125.72
706.471	554.22
706.915	417.22
707.359	367.62
707.803	338.52
708.246	328.82
708.69	328.32
709.134	327.72
709.577	322.42
710.021	328.62
710.465	309.72
710.908	310.32
711.352	309.22
711.795	322.82
712.239	374.52
712.682	402.42
713.126	429.02
713.569	465.02
714.012	371.32
714.456	313.42
714.899	289.42
715.342	277.92
715.786	274.92
716.229	267.82
716.672	269.52
717.115	262.22
717.558	259.12
718.002	261.42
718.445	269.02
718.888	293.92
719.331	302.72
719.774	316.82
720.217	309.72
720.66	298.12
721.103	283.92
721.546	266.12
721.989	254.52
722.432	237.52
722.874	243.02
723.317	238.92
723.76	247.52
724.203	277.02
724.645	337.72
725.088	469.92
725.531	595.82
725.974	662.12
726.416	567.62
726.859	322.52
727.301	261.32
727.744	245.52
728.187	244.42
728.629	245.22
729.071	252.12
729.514	266.62
729.956	282.02
730.399	295.12
730.841	302.72
731.283	288.32
731.726	287.72
732.168	270.62
732.61	281.02
733.053	302.82
733.495	331.82
733.937	372.12
734.379	411.62
734.821	462.42
735.263	586.32
735.705	922.62
736.148	1739.62
736.59	2767.43
737.032	3153.12
737.474	2576.43
737.916	870.82
738.357	459.32
738.799	340.02
739.241	309.92
739.683	300.02
740.125	308.22
740.567	315.62
741.008	330.52
741.45	331.22
741.892	337.82
742.334	367.12
742.775	380.42
743.217	359.92
743.658	289.12
744.1	274.42
744.542	286.72
744.983	335.02
745.425	368.42
745.866	359.32
746.307	292.42
746.749	291.92
747.19	351.92
747.632	497.62
748.073	982.52
748.514	2043.02
748.956	2992.92
749.397	3810.72
749.838	3155.93
750.279	3060.92
750.72	1575.62
751.162	592.92
751.603	336.12
752.044	264.82
752.485	229.52
752.926	226.82
753.367	203.22
753.808	206.22
754.249	199.02
754.69	194.32
755.131	185.12
755.572	190.52
756.013	189.72
756.453	186.32
756.894	196.52
757.335	195.92
757.776	198.32
758.216	206.42
758.657	213.42
759.098	210.52
759.538	243.92
759.979	287.12
760.42	409.82
760.86	783.52
761.301	2066.12
761.741	4829.33
762.182	6634.73
762.622	4699.42
763.063	1392.92
763.503	565.52
763.943	334.12
764.384	282.02
764.824	249.52
765.264	238.62
765.705	223.62
766.145	191.42
766.585	186.12
767.025	181.42
767.465	165.12
767.906	186.32
768.346	200.52
768.786	208.82
769.226	226.52
769.666	335.22
770.106	686.02
770.546	1718.22
770.986	2771.93
771.426	2434.43
771.866	834.72
772.306	344.92
772.745	214.82
773.185	175.52
773.625	166.12
774.065	157.42
774.505	165.52
774.944	205.82
775.384	379.12
775.824	591.22
776.263	569.42
776.703	284.52
777.142	168.22
777.582	141.62
778.021	125.42
778.461	134.72
778.9	132.62
779.34	131.62
779.779	122.02
780.219	110.42
780.658	116.62
781.097	114.12
781.537	117.22
781.976	112.32
782.415	105.42
782.855	106.42
783.294	105.82
783.733	101.02
784.172	110.42
784.611	105.42
785.05	112.42
785.489	114.92
785.928	124.52
786.367	133.42
786.806	122.42
787.245	133.72
787.684	140.92
788.123	151.92
788.562	137.42
789.001	134.12
789.44	127.92
789.879	121.72
790.317	126.92
790.756	131.32
791.195	140.72
791.634	158.02
792.072	220.62
792.511	396.12
792.95	1116.82
793.388	2220.12
793.827	1959.92
794.265	699.82
794.704	295.02
795.142	193.32
795.581	153.82
796.019	139.12
796.458	136.82
796.896	128.82
797.334	141.72
797.773	166.42
798.211	238.52
798.649	490.32
799.087	1110.32
799.526	1701.62
799.964	2172.12
800.402	2078.12
800.84	803.02
801.278	324.72
801.716	195.92
802.154	165.72
802.592	155.02
803.03	152.42
803.468	145.22
803.906	147.62
804.344	159.62
804.782	143.12
805.22	138.22
805.658	137.12
806.096	157.22
806.533	162.62
806.971	187.82
807.409	236.22
807.847	348.22
808.284	755.12
808.722	2042.92
809.16	3469.12
809.597	3420.12
810.035	5817.62
810.472	5931.42
810.91	2212.92
811.347	850.32
811.785	432.72
812.222	270.72
812.66	203.02
813.097	177.92
813.535	151.32
813.972	138.32
814.409	127.02
814.846	117.12
815.284	117.02
815.721	104.12
816.158	107.62
816.595	113.12
817.032	160.12
817.47	183.62
817.907	134.82
818.344	104.92
818.781	107.12
819.218	106.32
819.655	123.42
820.092	197.22
820.529	227.12
820.966	181.42
821.403	136.92
821.839	101.12
822.276	97.42
822.713	132.12
823.15	144.02
823.587	126.02
824.023	159.92
824.46	337.12
824.897	966.62
825.333	1410.32
825.77	608.32
826.206	241.52
826.643	147.92
827.08	106.22
827.516	88.92
827.953	80.82
828.389	78.52
828.825	71.52
829.262	69.62
829.698	69.72
830.135	67.32
830.571	72.12
831.007	63.52
831.443	67.72
831.88	63.42
832.316	67.52
832.752	63.52
833.188	63.82
833.624	69.02
834.06	66.72
834.497	71.72
834.933	78.42
835.369	82.02
835.805	71.72
836.241	79.12
836.677	76.72
837.112	93.42
837.548	115.42
837.984	147.92
838.42	220.52
838.856	563.12
839.292	1644.82
839.727	2372.72
840.163	1136.12
840.599	1017.52
841.034	2196.72
841.47	2182.42
841.906	813.82
842.341	348.02
842.777	206.82
843.212	211.32
843.648	200.22
844.083	117.12
844.519	81.82
844.954	70.82
845.39	60.72
845.825	58.82
846.261	64.02
846.696	54.92
847.131	55.42
847.566	63.02
848.002	56.82
848.437	54.62
848.872	61.32
849.307	63.72
849.742	91.22
850.177	205.22
850.613	600.52
851.048	923.02
851.483	403.12
851.918	166.12
852.353	94.22
852.788	54.42
853.223	53.82
853.657	56.42
854.092	53.42
854.527	42.62
854.962	42.42
855.397	47.42
855.832	53.32
856.266	40.82
856.701	47.42
857.136	39.82
857.57	41.82
858.005	51.42
858.44	63.42
858.874	43.42
859.309	51.02
859.743	38.62
860.178	42.42
860.612	42.52
861.047	64.22
861.481	71.82
861.915	73.32
862.35	54.32
862.784	33.12
863.218	41.62
863.653	33.72
864.087	49.92
864.521	52.42
864.955	75.32
865.39	163.12
865.824	181.02
866.258	121.72
866.692	177.12
867.126	187.92
867.56	111.62
867.994	59.12
868.428	37.82
868.862	48.42
869.296	56.92
869.73	57.42
870.164	54.02
870.598	46.12
871.031	38.92
871.465	33.12
871.899	34.62
872.333	33.82
872.766	32.22
873.2	24.42
873.634	37.42
874.067	23.62
874.501	29.52
874.935	31.82
875.368	28.82
875.802	30.72
876.235	26.42
876.669	24.62
877.102	21.32
877.535	27.12
877.969	24.92
878.402	28.12
878.836	14.72
879.269	22.22
879.702	22.32
880.135	21.22
880.569	20.92
881.002	26.32
881.435	26.72
881.868	19.42
882.301	25.42
882.734	14.32
883.167	24.22
883.601	17.82
884.034	19.92
884.467	13.52
884.899	12.12
885.332	21.02
885.765	10.32
886.198	13.22
886.631	21.92
887.064	16.82
887.497	24.32
887.929	22.12
888.362	5.42
888.795	11.82
889.228	19.72
889.66	20.32
890.093	22.02
890.526	20.72
890.958	17.62
891.391	15.72
891.823	24.82
892.256	13.12
892.688	11.82
893.121	14.62
893.553	9.72
893.985	25.52
894.418	21.12
894.85	12.72
895.282	15.82
895.715	13.52
896.147	16.02
896.579	16.72
897.011	11.52
897.444	19.32
897.876	13.22
898.308	13.12
898.74	15.72
899.172	11.02
899.604	24.02
900.036	24.32
900.468	17.72
900.9	12.82
901.332	19.32
901.764	11.52
902.196	14.92
902.628	20.02
903.06	18.02
903.491	28.92
903.923	24.82
904.355	20.52
904.787	31.82
905.218	25.92
905.65	25.42
906.082	18.92
906.513	14.72
906.945	14.72
907.376	13.62
907.808	17.52
908.239	24.52
908.671	18.32
909.102	17.72
909.534	23.02
909.965	49.02
910.397	98.32
910.828	342.22
911.259	490.62
911.691	230.02
912.122	110.82
912.553	48.42
912.984	34.02
913.415	31.72
913.847	21.62
914.278	12.32
914.709	13.22
915.14	15.82
915.571	22.02
916.002	12.62
916.433	19.92
916.864	20.02
917.295	13.12
917.726	28.02
918.157	24.12
918.587	32.72
919.018	17.32
919.449	19.12
919.88	27.82
920.311	34.32
920.741	50.22
921.172	180.32
921.603	157.92
922.033	76.02
922.464	50.32
922.895	24.52
923.325	22.52
923.756	14.72
924.186	14.02
924.617	16.22
925.047	24.52
925.478	24.42
925.908	20.92
926.338	12.52
926.769	13.52
927.199	13.82
927.629	10.72
928.06	14.02
928.49	14.22
928.92	10.42
929.35	12.72
929.78	18.12
930.21	3.42
930.641	4.92
931.071	7.62
931.501	10.72
931.931	5.02
932.361	4.22
932.791	6.42
933.221	7.72
933.651	4.82
934.08	16.12
934.51	32.82
934.94	5.32
935.37	5.12
935.8	6.02
936.229	2.22
936.659	6.02
937.089	2.02
937.519	14.12
937.948	19.52
938.378	18.12
938.807	-0.88
939.237	4.32
939.666	3.32
940.096	-3.98
940.525	-1.48
940.955	1.92
941.384	1.12
941.814	-4.78
942.243	-3.18
942.672	0.12
943.102	-9.48
943.531	1.52
943.96	8.32
944.39	-2.08
944.819	-0.28
945.248	4.32
945.677	-1.48
946.106	3.32
946.535	3.02
946.964	0.42
947.393	3.12
947.822	5.22
948.251	-4.38
948.68	1.72
949.109	2.02
949.538	6.02
949.967	4.02
950.396	0.52
950.825	-1.98
951.254	3.12
951.682	-5.68
952.111	2.62
952.54	8.42
952.969	-1.28
953.397	-2.78
953.826	-1.18
954.254	-1.48
954.683	0.82
955.112	-2.58
955.54	0.32
955.969	-0.48
956.397	-4.68
956.826	-4.88
957.254	-0.38
957.682	-2.18
958.111	2.22
958.539	1.62
958.967	-1.78
959.396	6.52
959.824	3.12
960.252	1.52
960.68	-4.98
961.109	-8.28
961.537	-9.48
961.965	-4.98
962.393	2.82
962.821	-5.88
963.249	-2.58
963.677	8.92
964.105	5.32
964.533	40.12
964.961	36.72
965.389	21.12
965.817	16.42
966.245	-0.48
966.672	-3.98
967.1	-7.98
967.528	2.02
967.956	-0.38
968.383	6.62
968.811	-7.58
969.239	-1.48
969.666	-2.98
970.094	3.82
970.522	0.32
970.949	-4.68
971.377	-3.38
971.804	2.62
972.232	-1.08
972.659	-7.28
973.087	0.62
973.514	-2.08
973.941	-4.88
974.369	-0.28
974.796	-3.78
975.223	-3.58
975.651	-4.28
976.078	1.12
976.505	-0.98
976.932	-1.28
977.359	14.42
977.786	18.22
978.214	-2.18
978.641	-0.28
979.068	-0.68
979.495	1.92
979.922	-1.18
980.349	-3.28
980.776	4.42
981.202	-1.18
981.629	3.72
982.056	2.52
982.483	0.72
982.91	4.32
983.337	-5.18
983.763	7.72
984.19	-5.58
984.617	-0.28
985.043	-6.88
985.47	-0.38
985.897	-6.38
986.323	-7.18
986.75	-1.38
987.176	-1.38
987.603	-1.08
988.029	2.22
988.456	-7.28
988.882	4.02
989.308	-9.88
989.735	-10.08
990.161	-3.58
990.587	-3.58
991.014	0.82
991.44	3.42
991.866	-3.08
992.292	-1.08
992.719	-3.58
993.145	-4.58
993.571	-8.68
993.997	-2.08
994.423	-1.08
994.849	-4.88
995.275	-0.08
995.701	-2.48
996.127	-7.58
996.553	2.42
996.979	-6.48
997.405	-3.98
997.83	-4.68
998.256	-1.88
998.682	-12.08
999.108	-13.38
999.534	-2.98
999.959	-4.58
1000.385	-6.78
1000.811	1.82
1001.236	-9.68
1001.662	-7.28
1002.087	-11.78
1002.513	-2.48
1002.938	-0.88
1003.364	-2.28
1003.789	-3.78
1004.215	10.82
1004.64	-5.18
1005.066	6.32
1005.491	5.22
1005.916	-0.68
1006.342	-4.68
1006.767	-4.38
1007.192	0.72
1007.617	-2.68
1008.042	-5.18
1008.468	-7.28
1008.893	-5.98
1009.318	-5.78
1009.743	-1.38
1010.168	0.72
1010.593	-2.28
1011.018	-11.28
1011.443	-4.38
1011.868	-3.48
1012.293	-5.78
1012.718	-5.08
1013.143	-4.38
1013.567	-2.78
1013.992	0.52
1014.417	-12.38
1014.842	4.52
1015.267	-4.58
1015.691	-6.58
1016.116	3.72
1016.541	2.92
1016.965	3.62
1017.39	4.02
1017.814	1.12
1018.239	-5.98
1018.663	-9.38
1019.088	-8.18
1019.512	-4.18
1019.937	1.82
1020.361	-8.28
1020.785	-9.38
1021.21	-8.48
1021.634	-8.38
1022.058	-5.08
1022.483	-3.18
1022.907	-4.98
1023.331	-2.28
1023.755	-6.78
1024.179	1.92
1024.604	-1.68
1025.028	-5.58
1025.452	-6.28
1025.876	4.22
1026.3	-5.28
1026.724	-5.38
1027.148	-2.18
1027.572	-6.28
1027.996	-5.78
1028.42	-0.28
1028.843	-4.78
1029.267	-11.98
1029.691	-3.68
1030.115	-8.08
1030.539	-6.98
1030.962	-5.68
1031.386	-8.28
1031.81	2.12
1032.233	1.22
1032.657	-4.48
1033.08	-9.88
1033.504	-6.18
1033.927	-2.58
1034.351	-6.48
1034.774	-4.38
1035.198	-7.28
1035.621	-9.38
1036.045	-3.48
1036.468	0.12
1036.891	-13.58
1037.315	-7.48
1037.738	-9.18
1038.161	-4.08
1038.584	-9.48
1039.008	-12.38
1039.431	-2.38
1039.854	-6.68
1040.277	-4.28
1040.7	-10.58
1041.123	-0.18
1041.546	-12.18
1041.969	-4.28
1042.392	-11.28
1042.815	-4.08
1043.238	-3.58
1043.661	2.42
1044.084	-6.98
1044.507	-6.48
1044.93	-7.08
1045.352	-3.98
1045.775	1.32
1046.198	-1.28
1046.621	0.42
1047.043	-0.78
1047.466	9.82
1047.889	-4.38
1048.311	-7.28
1048.734	-3.68
1049.156	-0.78
1049.579	-2.18
1050.001	-4.28
1050.424	-4.88
1050.846	-4.38
1051.269	-8.58
1051.691	-8.08
1052.113	0.72
1052.536	1.82
1052.958	1.62
1053.38	-4.88
1053.802	-11.58
1054.225	-1.38
1054.647	-13.28
1055.069	-2.28
1055.491	-1.68
1055.913	-2.18
1056.335	-3.38
1056.757	1.12
1057.179	-5.28
1057.601	-12.98
1058.023	-0.58
1058.445	-6.48
1058.867	-6.48
1059.289	-9.98
1059.711	-1.08
1060.133	-3.58
1060.555	-8.98
1060.976	-5.78
1061.398	-6.68
1061.82	-8.38
1062.241	-7.28
1062.663	-7.08
1063.085	-9.28
1063.506	1.22
1063.928	-0.88
1064.35	2.02
1064.771	-11.48
1065.193	-3.38
1065.614	-11.38
1066.035	-2.28
1066.457	-1.78
1066.878	-0.88
1067.3	-1.78
1067.721	-5.48
1068.142	-7.28
1068.564	-7.08
1068.985	-12.98
1069.406	-3.18
1069.827	-6.78
1070.248	-1.38
1070.67	-9.58
1071.091	-3.08
1071.512	-4.58
1071.933	-6.08
1072.354	-9.38
1072.775	-5.18
1073.196	-4.78
1073.617	-2.18
1074.038	-10.48
1074.459	-6.98
1074.88	-8.28
1075.3	-6.58
1075.721	-7.18
1076.142	1.02
1076.563	-1.68
1076.983	-5.78
1077.404	-2.28
1077.825	-6.58
1078.246	-7.08
1078.666	-9.58
1079.087	-4.18
1079.507	-4.38
1079.928	2.42
1080.348	-1.28
1080.769	-3.88
1081.189	-3.28
1081.61	-5.78
1082.03	-4.78
1082.451	-5.48
1082.871	-9.08
1083.291	-12.68
1083.711	-11.38
1084.132	-5.88
1084.552	-3.88
1084.972	-4.58
1085.392	-9.38
1085.813	-13.48
1086.233	-5.28
1086.653	-6.78
1087.073	-4.98
1087.493	-13.58
1087.913	-7.28
1088.333	-2.98
1088.753	-7.98
1089.173	-1.88
1089.593	-8.68
1090.013	0.42
1090.433	-4.98
1090.852	-3.58
1091.272	-2.18
1091.692	-5.38
1092.112	-5.78
1092.531	-8.08
1092.951	-13.88
1093.371	-3.38
1093.79	0.52
1094.21	-6.58
1094.63	-5.68
1095.049	-3.48
1095.469	-1.78
1095.888	-3.68
1096.308	-1.28
1096.727	-0.38
1097.146	-7.08
1097.566	4.52
1097.985	-1.78
1098.405	-6.78
1098.824	-9.08
1099.243	-5.98
1099.662	-4.68
1100.082	-9.78
1100.501	-1.68
1100.92	-8.98
1101.339	-2.38
1101.758	-11.78
