Data from 20171114-ORNL-Ar_H_NY_Subt18_08-08-51-445.txt Node
Date: Tue Nov 14 08:08:51 EST 2017
User: Ender
Spectrometer: HR+D1039
Trigger mode: 0
Integration Time (sec): 2.730000E-2
Scans to average: 10
Electric dark correction enabled: true
Nonlinearity correction enabled: false
Boxcar width: 0
XAxis mode: Wavelengths
Number of Pixels in Spectrum: 2048
>>>>>Begin Spectral Data<<<<<
187.836	-8.89
188.309	-8.89
188.782	-8.89
189.255	-1.29
189.728	-2.29
190.201	7.11
190.674	0.31
191.147	3.91
191.619	-5.29
192.092	-0.69
192.565	2.71
193.038	-1.49
193.511	1.01
193.984	7.61
194.456	1.71
194.929	1.71
195.402	-7.09
195.874	1.01
196.347	1.61
196.82	-8.79
197.292	7.81
197.765	-2.69
198.237	-7.89
198.71	5.01
199.182	-2.69
199.655	-0.49
200.127	4.81
200.6	-3.59
201.072	-2.59
201.544	-2.29
202.017	-6.29
202.489	-0.59
202.961	-6.69
203.433	2.91
203.906	-5.99
204.378	-4.69
204.85	-7.99
205.322	-9.19
205.794	-1.69
206.266	1.01
206.739	-4.19
207.211	-3.89
207.683	-7.69
208.155	-8.19
208.627	-3.99
209.099	-2.09
209.57	-10.59
210.042	-7.09
210.514	-6.79
210.986	-3.19
211.458	-10.99
211.93	-4.39
212.402	-2.99
212.873	-6.59
213.345	-7.19
213.817	-14.09
214.288	-9.99
214.76	-8.59
215.232	-7.19
215.703	-8.79
216.175	-1.69
216.646	-5.79
217.118	-11.69
217.589	-6.99
218.061	0.91
218.532	-0.79
219.004	-0.19
219.475	-5.69
219.946	-1.99
220.418	-5.39
220.889	0.91
221.36	0.91
221.832	-6.09
222.303	-12.59
222.774	-7.59
223.245	-13.69
223.717	-7.29
224.188	-8.49
224.659	-6.39
225.13	-7.49
225.601	-0.99
226.072	-2.79
226.543	-3.89
227.014	-7.19
227.485	-2.39
227.956	-4.39
228.427	-0.39
228.898	5.01
229.369	1.71
229.839	-5.29
230.31	-6.39
230.781	-1.79
231.252	-5.49
231.722	-5.09
232.193	-4.59
232.664	-4.29
233.135	-5.59
233.605	-3.79
234.076	-9.89
234.546	2.01
235.017	3.01
235.487	-5.79
235.958	-11.19
236.428	-2.99
236.899	-0.99
237.369	-0.99
237.84	-8.89
238.31	2.31
238.78	-7.19
239.251	-3.79
239.721	-4.49
240.191	-7.29
240.662	-4.49
241.132	-2.69
241.602	-8.09
242.072	-2.79
242.542	3.21
243.013	-5.69
243.483	2.01
243.953	4.31
244.423	0.91
244.893	-7.69
245.363	-3.19
245.833	2.51
246.303	-1.79
246.773	1.81
247.243	1.51
247.712	-4.89
248.182	0.31
248.652	0.51
249.122	-12.09
249.592	-1.59
250.061	5.61
250.531	15.51
251.001	-2.29
251.471	7.11
251.94	4.71
252.41	3.31
252.879	-4.69
253.349	6.71
253.818	5.81
254.288	1.61
254.757	-6.69
255.227	-2.69
255.696	-1.29
256.166	-0.39
256.635	0.41
257.105	-1.79
257.574	-5.89
258.043	-1.69
258.513	-3.19
258.982	7.51
259.451	0.11
259.92	-0.69
260.389	0.21
260.859	5.51
261.328	3.51
261.797	6.31
262.266	-1.59
262.735	4.31
263.204	-2.19
263.673	-0.19
264.142	3.11
264.611	-10.39
265.08	-6.49
265.549	-3.99
266.018	-0.09
266.487	-13.59
266.955	-8.89
267.424	-3.39
267.893	-2.59
268.362	0.01
268.83	-9.19
269.299	8.71
269.768	1.81
270.236	-0.09
270.705	-6.49
271.174	-4.09
271.642	-3.29
272.111	4.21
272.579	1.51
273.048	8.91
273.516	4.41
273.985	5.31
274.453	8.31
274.922	13.81
275.39	6.11
275.858	-1.39
276.327	7.11
276.795	5.51
277.263	0.51
277.731	10.71
278.2	16.91
278.668	13.91
279.136	19.51
279.604	4.51
280.072	6.21
280.54	7.11
281.008	4.11
281.477	4.01
281.945	2.91
282.413	5.71
282.881	7.81
283.348	0.71
283.816	7.81
284.284	14.11
284.752	12.31
285.22	7.01
285.688	6.81
286.156	7.91
286.623	21.21
287.091	16.41
287.559	10.91
288.026	8.21
288.494	3.51
288.962	3.41
289.429	3.11
289.897	14.71
290.364	8.01
290.832	8.31
291.3	9.01
291.767	9.11
292.234	14.71
292.702	8.81
293.169	4.01
293.637	10.11
294.104	13.71
294.571	4.31
295.039	3.71
295.506	8.71
295.973	12.81
296.44	9.41
296.908	9.81
297.375	11.91
297.842	11.41
298.309	14.61
298.776	4.21
299.243	9.81
299.71	9.01
300.177	10.51
300.644	12.01
301.111	10.41
301.578	14.51
302.045	13.11
302.512	8.51
302.979	15.41
303.446	14.01
303.913	10.31
304.379	14.31
304.846	12.61
305.313	12.81
305.78	16.01
306.246	16.01
306.713	18.01
307.18	15.91
307.646	21.51
308.113	19.81
308.579	17.21
309.046	22.31
309.512	16.41
309.979	6.31
310.445	12.71
310.912	21.21
311.378	21.01
311.845	23.41
312.311	21.31
312.777	26.51
313.244	20.81
313.71	35.51
314.176	21.91
314.642	22.01
315.109	14.71
315.575	25.11
316.041	29.91
316.507	22.51
316.973	30.81
317.439	24.81
317.905	29.91
318.371	24.61
318.837	22.31
319.303	26.01
319.769	22.21
320.235	21.61
320.701	22.01
321.167	22.01
321.633	21.31
322.099	25.21
322.564	31.11
323.03	27.31
323.496	27.01
323.962	31.11
324.427	28.11
324.893	34.61
325.359	27.11
325.824	27.51
326.29	29.21
326.755	28.71
327.221	30.71
327.686	30.71
328.152	35.11
328.617	33.31
329.083	37.01
329.548	37.71
330.014	37.41
330.479	31.11
330.944	36.91
331.41	30.31
331.875	36.71
332.34	33.31
332.805	37.61
333.271	35.51
333.736	27.91
334.201	41.61
334.666	38.21
335.131	43.41
335.596	38.21
336.061	38.21
336.526	32.71
336.991	37.81
337.456	45.91
337.921	38.71
338.386	36.91
338.851	36.81
339.316	36.01
339.781	39.01
340.246	46.01
340.711	41.71
341.175	42.21
341.64	30.81
342.105	41.01
342.569	51.51
343.034	44.81
343.499	46.31
343.963	40.21
344.428	48.71
344.893	43.51
345.357	51.31
345.822	50.41
346.286	58.71
346.751	59.81
347.215	52.81
347.679	51.81
348.144	69.71
348.608	66.51
349.073	54.61
349.537	65.61
350.001	60.41
350.465	69.21
350.93	62.51
351.394	63.41
351.858	62.11
352.322	70.91
352.786	68.11
353.25	82.41
353.715	89.61
354.179	80.71
354.643	98.71
355.107	100.31
355.571	84.91
356.035	84.41
356.498	92.91
356.962	101.01
357.426	103.51
357.89	90.41
358.354	76.21
358.818	66.11
359.281	65.71
359.745	64.41
360.209	65.41
360.673	58.01
361.136	63.41
361.6	72.91
362.064	72.71
362.527	73.01
362.991	77.71
363.454	71.11
363.918	61.81
364.381	65.21
364.845	71.81
365.308	72.31
365.772	76.61
366.235	77.61
366.698	76.61
367.162	78.71
367.625	70.01
368.088	70.21
368.552	78.61
369.015	78.11
369.478	78.51
369.941	79.91
370.404	85.21
370.867	88.61
371.331	94.71
371.794	99.81
372.257	91.51
372.72	98.61
373.183	94.41
373.646	79.21
374.109	83.81
374.572	88.31
375.035	90.41
375.497	89.41
375.96	91.61
376.423	101.91
376.886	105.41
377.349	105.21
377.811	91.51
378.274	98.81
378.737	98.81
379.199	103.11
379.662	102.51
380.125	96.41
380.587	107.91
381.05	97.21
381.512	104.71
381.975	117.61
382.437	113.71
382.9	114.01
383.362	111.71
383.825	119.11
384.287	118.61
384.75	111.91
385.212	114.71
385.674	122.51
386.136	115.01
386.599	116.01
387.061	116.91
387.523	108.11
387.985	121.71
388.447	127.91
388.91	117.01
389.372	124.71
389.834	127.11
390.296	121.21
390.758	133.91
391.22	133.91
391.682	159.11
392.144	192.11
392.606	163.01
393.068	129.91
393.529	147.51
393.991	135.21
394.453	127.31
394.915	134.41
395.377	144.51
395.838	154.61
396.3	129.41
396.762	133.01
397.224	123.71
397.685	122.91
398.147	122.21
398.608	128.61
399.07	122.11
399.531	125.81
399.993	135.91
400.454	138.31
400.916	136.61
401.377	141.21
401.839	149.51
402.3	142.81
402.762	160.11
403.223	170.11
403.684	159.21
404.145	155.51
404.607	153.01
405.068	157.51
405.529	156.11
405.99	175.91
406.451	166.01
406.913	163.01
407.374	154.41
407.835	153.61
408.296	154.51
408.757	162.01
409.218	176.31
409.679	171.21
410.14	170.51
410.601	166.11
411.062	173.31
411.522	176.91
411.983	180.41
412.444	168.91
412.905	173.71
413.366	179.71
413.826	189.11
414.287	209.71
414.748	257.21
415.208	243.81
415.669	209.61
416.13	204.11
416.59	197.81
417.051	206.61
417.511	217.71
417.972	239.41
418.432	242.61
418.893	283.71
419.353	249.11
419.814	196.71
420.274	180.61
420.734	183.41
421.195	199.01
421.655	193.91
422.115	194.01
422.576	190.31
423.036	198.71
423.496	210.21
423.956	217.21
424.416	223.71
424.876	262.11
425.336	255.31
425.797	258.01
426.257	252.41
426.717	229.61
427.177	224.71
427.637	218.21
428.097	227.61
428.556	241.11
429.016	259.91
429.476	251.71
429.936	265.61
430.396	274.71
430.856	281.41
431.315	305.61
431.775	336.81
432.235	364.21
432.694	340.11
433.154	346.01
433.614	377.71
434.073	323.81
434.533	272.81
434.993	259.31
435.452	274.11
435.912	280.41
436.371	280.61
436.83	266.01
437.29	255.81
437.749	245.51
438.209	232.61
438.668	269.71
439.127	284.01
439.587	261.91
440.046	244.31
440.505	255.21
440.964	275.91
441.424	304.81
441.883	305.61
442.342	250.41
442.801	227.81
443.26	228.41
443.719	225.81
444.178	217.51
444.637	211.41
445.096	219.91
445.555	220.71
446.014	225.81
446.473	232.71
446.932	230.11
447.391	232.21
447.849	230.01
448.308	218.41
448.767	221.21
449.226	232.61
449.685	239.61
450.143	252.31
450.602	237.11
451.061	232.61
451.519	233.71
451.978	239.21
452.436	229.51
452.895	232.41
453.353	247.71
453.812	233.91
454.27	242.51
454.729	243.11
455.187	249.31
455.646	243.01
456.104	247.11
456.562	256.31
457.021	265.31
457.479	263.11
457.937	272.01
458.395	277.81
458.854	246.01
459.312	256.81
459.77	273.41
460.228	253.71
460.686	242.81
461.144	252.61
461.602	247.91
462.06	248.31
462.518	250.91
462.976	250.71
463.434	266.31
463.892	272.11
464.35	276.01
464.808	286.81
465.266	263.61
465.724	269.31
466.181	280.61
466.639	272.21
467.097	288.91
467.555	303.21
468.012	299.61
468.47	312.41
468.928	329.11
469.385	339.61
469.843	351.21
470.3	349.21
470.758	368.71
471.215	381.81
471.673	402.61
472.13	409.51
472.588	419.91
473.045	370.61
473.503	386.91
473.96	393.81
474.417	403.01
474.875	434.01
475.332	470.31
475.789	465.41
476.246	462.61
476.704	486.11
477.161	501.11
477.618	524.91
478.075	545.71
478.532	600.21
478.989	681.41
479.446	784.91
479.903	749.31
480.36	782.21
480.817	835.71
481.274	926.41
481.731	1017.21
482.188	1081.91
482.645	1216.31
483.102	1308.31
483.558	1413.91
484.015	1465.11
484.472	1432.11
484.929	1398.91
485.385	1364.71
485.842	1321.61
486.299	1273.11
486.755	1239.51
487.212	1050.21
487.668	889.41
488.125	831.41
488.582	764.31
489.038	729.61
489.494	696.51
489.951	674.81
490.407	665.31
490.864	642.71
491.32	640.81
491.776	622.31
492.233	650.51
492.689	612.51
493.145	607.71
493.602	600.81
494.058	628.61
494.514	612.41
494.97	641.41
495.426	642.81
495.882	615.21
496.338	606.41
496.794	611.61
497.251	611.51
497.707	617.01
498.163	627.01
498.618	633.11
499.074	630.51
499.53	668.51
499.986	664.01
500.442	637.61
500.898	621.41
501.354	620.01
501.809	622.81
502.265	623.11
502.721	644.31
503.177	645.51
503.632	650.71
504.088	638.61
504.543	688.61
504.999	688.41
505.455	656.31
505.91	636.81
506.366	635.91
506.821	637.81
507.277	634.21
507.732	634.91
508.187	630.51
508.643	647.01
509.098	639.91
509.553	657.81
510.009	672.81
510.464	686.51
510.919	697.21
511.375	697.51
511.83	715.71
512.285	722.71
512.74	760.91
513.195	776.91
513.65	777.41
514.105	764.01
514.56	772.21
515.015	784.61
515.47	804.41
515.925	793.61
516.38	783.81
516.835	796.51
517.29	770.01
517.745	773.21
518.2	768.81
518.655	755.91
519.109	754.01
519.564	749.81
520.019	745.21
520.474	733.21
520.928	728.71
521.383	714.91
521.838	717.51
522.292	724.91
522.747	711.61
523.201	714.51
523.656	703.41
524.11	705.01
524.565	703.51
525.019	702.71
525.474	712.61
525.928	708.61
526.382	701.81
526.837	700.91
527.291	705.21
527.745	697.81
528.2	703.21
528.654	696.11
529.108	690.41
529.562	697.01
530.016	694.91
530.47	688.31
530.925	700.51
531.379	700.01
531.833	713.41
532.287	708.21
532.741	696.51
533.195	705.51
533.649	710.11
534.103	712.11
534.556	706.11
535.01	713.51
535.464	705.21
535.918	719.61
536.372	720.31
536.826	717.41
537.279	709.31
537.733	719.81
538.187	716.51
538.64	713.91
539.094	727.91
539.548	742.61
540.001	727.91
540.455	733.01
540.908	740.21
541.362	748.71
541.815	750.21
542.269	762.91
542.722	756.91
543.175	769.01
543.629	783.61
544.082	785.71
544.536	785.21
544.989	793.11
545.442	803.01
545.895	803.11
546.349	797.21
546.802	801.51
547.255	804.11
547.708	814.91
548.161	827.51
548.614	821.11
549.067	847.21
549.52	834.01
549.973	824.21
550.426	818.91
550.879	806.51
551.332	807.61
551.785	816.61
552.238	820.61
552.691	830.11
553.144	849.61
553.596	863.71
554.049	877.11
554.502	911.71
554.955	915.11
555.407	917.71
555.86	911.81
556.313	909.41
556.765	888.31
557.218	895.51
557.67	883.11
558.123	878.91
558.576	881.41
559.028	877.31
559.48	894.71
559.933	888.21
560.385	842.11
560.838	826.61
561.29	799.31
561.742	804.91
562.195	775.21
562.647	783.31
563.099	789.61
563.551	787.81
564.004	791.71
564.456	785.11
564.908	772.31
565.36	753.51
565.812	743.91
566.264	731.41
566.716	737.11
567.168	713.41
567.62	726.71
568.072	715.01
568.524	711.41
568.976	704.71
569.428	694.91
569.88	688.31
570.332	678.81
570.784	695.01
571.235	701.31
571.687	711.81
572.139	713.31
572.59	725.31
573.042	729.01
573.494	724.01
573.945	724.21
574.397	699.91
574.849	703.31
575.3	704.71
575.752	697.51
576.203	694.51
576.655	698.91
577.106	682.71
577.557	676.81
578.009	685.71
578.46	676.61
578.912	673.01
579.363	668.11
579.814	676.01
580.265	673.81
580.717	676.21
581.168	677.81
581.619	693.31
582.07	692.01
582.521	690.31
582.972	684.71
583.423	689.71
583.875	693.31
584.326	701.71
584.777	732.21
585.227	769.61
585.678	797.71
586.129	839.31
586.58	878.31
587.031	928.31
587.482	979.81
587.933	1068.31
588.384	985.01
588.834	863.01
589.285	796.81
589.736	786.01
590.186	790.11
590.637	779.71
591.088	752.91
591.538	756.21
591.989	740.01
592.439	739.91
592.89	733.11
593.34	724.31
593.791	719.81
594.241	715.61
594.692	709.01
595.142	702.91
595.593	712.61
596.043	712.01
596.493	721.61
596.943	721.31
597.394	749.31
597.844	738.31
598.294	754.81
598.744	757.61
599.195	798.61
599.645	844.01
600.095	888.31
600.545	943.31
600.995	995.81
601.445	1054.51
601.895	1106.81
602.345	1158.51
602.795	1132.01
603.245	1085.31
603.695	1034.31
604.145	983.71
604.594	930.21
605.044	873.21
605.494	806.31
605.944	769.71
606.393	754.31
606.843	747.31
607.293	750.11
607.743	742.01
608.192	752.51
608.642	764.91
609.091	778.61
609.541	780.21
609.99	779.41
610.44	780.41
610.889	732.21
611.339	720.01
611.788	694.71
612.238	707.21
612.687	720.91
613.136	720.81
613.586	728.11
614.035	726.11
614.484	725.71
614.933	730.71
615.383	732.11
615.832	732.41
616.281	726.01
616.73	688.01
617.179	673.21
617.628	660.31
618.077	645.71
618.526	633.01
618.975	630.41
619.424	623.61
619.873	622.41
620.322	634.41
620.771	604.61
621.22	623.11
621.669	613.61
622.118	597.51
622.567	594.31
623.015	581.21
623.464	586.71
623.913	577.61
624.361	558.21
624.81	567.51
625.259	567.11
625.707	574.41
626.156	567.41
626.604	584.61
627.053	574.81
627.501	576.81
627.95	584.61
628.398	594.81
628.847	584.01
629.295	579.01
629.744	586.21
630.192	572.61
630.64	572.21
631.089	569.81
631.537	574.21
631.985	551.41
632.433	568.61
632.881	569.61
633.33	582.41
633.778	575.41
634.226	546.41
634.674	555.61
635.122	562.21
635.57	580.91
636.018	591.71
636.466	581.21
636.914	568.41
637.362	578.61
637.81	592.51
638.258	594.01
638.705	595.71
639.153	624.81
639.601	635.21
640.049	663.71
640.497	685.61
640.944	708.71
641.392	652.91
641.84	622.91
642.287	598.81
642.735	575.01
643.182	582.21
643.63	574.41
644.078	584.81
644.525	587.11
644.973	596.01
645.42	604.31
645.867	622.11
646.315	648.41
646.762	671.81
647.21	701.51
647.657	711.91
648.104	766.91
648.551	775.51
648.999	834.41
649.446	915.71
649.893	1002.71
650.34	1149.31
650.787	1363.81
651.234	1677.01
651.682	2195.21
652.129	2984.81
652.576	4269.91
653.023	6204.31
653.47	8422.61
653.917	10352.41
654.363	11907.51
654.81	13010.31
655.257	12357.81
655.704	8187.51
656.151	4891.81
656.598	3221.51
657.044	2300.31
657.491	1777.71
657.938	1437.31
658.385	1218.41
658.831	1050.41
659.278	952.01
659.724	837.41
660.171	788.31
660.618	713.51
661.064	683.51
661.511	680.41
661.957	663.91
662.404	648.11
662.85	655.51
663.296	631.91
663.743	562.01
664.189	549.71
664.635	545.21
665.082	535.11
665.528	537.41
665.974	523.31
666.42	511.51
666.867	520.11
667.313	505.41
667.759	475.91
668.205	475.01
668.651	470.21
669.097	463.31
669.543	468.71
669.989	455.81
670.435	458.41
670.881	449.31
671.327	462.01
671.773	480.61
672.219	504.91
672.665	563.41
673.11	607.11
673.556	659.91
674.002	680.61
674.448	675.81
674.893	566.61
675.339	494.51
675.785	456.41
676.23	438.41
676.676	403.21
677.122	397.81
677.567	388.61
678.013	388.21
678.458	370.11
678.904	367.91
679.349	365.41
679.794	362.31
680.24	354.61
680.685	362.91
681.131	359.71
681.576	361.71
682.021	361.01
682.466	365.81
682.912	352.31
683.357	366.21
683.802	398.81
684.247	435.31
684.692	474.11
685.137	516.91
685.583	551.41
686.028	580.31
686.473	539.71
686.918	470.71
687.363	439.71
687.807	404.31
688.252	381.81
688.697	366.11
689.142	346.91
689.587	349.21
690.032	345.81
690.477	353.51
690.921	360.91
691.366	403.81
691.811	414.61
692.255	446.01
692.7	470.61
693.145	528.01
693.589	745.51
694.034	1213.51
694.478	1621.01
694.923	1796.51
695.367	2318.91
695.812	1235.81
696.256	524.91
696.701	380.71
697.145	358.91
697.59	341.31
698.034	330.01
698.478	336.21
698.922	327.91
699.367	333.01
699.811	350.61
700.255	373.91
700.699	396.81
701.143	439.31
701.588	493.11
702.032	532.61
702.476	535.91
702.92	512.51
703.364	518.51
703.808	694.31
704.252	1110.01
704.696	1549.51
705.14	1722.71
705.584	2191.01
706.027	1114.61
706.471	545.91
706.915	408.91
707.359	369.71
707.803	331.61
708.246	318.91
708.69	320.81
709.134	328.21
709.577	322.21
710.021	327.01
710.465	319.71
710.908	313.11
711.352	315.21
711.795	321.21
712.239	373.41
712.682	402.71
713.126	421.41
713.569	476.31
714.012	379.11
714.456	319.21
714.899	295.61
715.342	287.11
715.786	272.11
716.229	261.41
716.672	267.31
717.115	254.71
717.558	259.91
718.002	254.61
718.445	275.31
718.888	305.81
719.331	308.91
719.774	314.71
720.217	312.21
720.66	301.01
721.103	273.61
721.546	266.11
721.989	256.81
722.432	242.61
722.874	248.01
723.317	243.01
723.76	247.31
724.203	271.51
724.645	336.61
725.088	470.01
725.531	595.51
725.974	660.81
726.416	567.91
726.859	315.61
727.301	257.01
727.744	252.51
728.187	246.11
728.629	249.81
729.071	245.91
729.514	265.41
729.956	278.91
730.399	292.51
730.841	292.51
731.283	286.31
731.726	273.21
732.168	275.31
732.61	285.11
733.053	291.91
733.495	330.91
733.937	367.01
734.379	419.71
734.821	461.11
735.263	590.71
735.705	911.01
736.148	1723.51
736.59	2727.91
737.032	3156.31
737.474	2565.11
737.916	844.31
738.357	452.01
738.799	340.91
739.241	310.41
739.683	296.01
740.125	308.51
740.567	307.91
741.008	329.91
741.45	335.01
741.892	332.91
742.334	374.61
742.775	370.21
743.217	359.41
743.658	285.11
744.1	274.61
744.542	273.81
744.983	330.21
745.425	363.81
745.866	363.61
746.307	297.21
746.749	280.21
747.19	355.61
747.632	486.31
748.073	964.61
748.514	2009.61
748.956	3015.31
749.397	3790.11
749.838	3119.51
750.279	3058.91
750.72	1556.51
751.162	577.31
751.603	335.21
752.044	272.81
752.485	226.61
752.926	223.61
753.367	208.81
753.808	201.51
754.249	199.51
754.69	190.71
755.131	189.61
755.572	185.31
756.013	191.51
756.453	188.21
756.894	192.11
757.335	205.61
757.776	205.71
758.216	208.21
758.657	206.41
759.098	218.31
759.538	231.61
759.979	281.71
760.42	401.11
760.86	777.21
761.301	2036.21
761.741	4757.71
762.182	6594.11
762.622	4654.81
763.063	1386.01
763.503	563.61
763.943	349.01
764.384	303.91
764.824	305.41
765.264	310.61
765.705	248.81
766.145	196.21
766.585	184.61
767.025	177.21
767.465	176.51
767.906	208.51
768.346	241.31
768.786	259.11
769.226	244.21
769.666	331.31
770.106	685.31
770.546	1708.81
770.986	2755.91
771.426	2422.61
771.866	829.31
772.306	338.81
772.745	209.91
773.185	176.11
773.625	172.81
774.065	168.01
774.505	178.51
774.944	247.41
775.384	474.31
775.824	765.01
776.263	734.21
776.703	346.11
777.142	182.01
777.582	144.21
778.021	132.61
778.461	134.21
778.9	133.31
779.34	129.11
779.779	117.91
780.219	114.01
780.658	110.41
781.097	106.91
781.537	112.41
781.976	106.41
782.415	106.01
782.855	108.81
783.294	102.91
783.733	111.41
784.172	110.51
784.611	109.31
785.05	120.21
785.489	114.81
785.928	121.11
786.367	125.21
786.806	125.21
787.245	134.91
787.684	142.31
788.123	156.91
788.562	140.61
789.001	124.41
789.44	127.71
789.879	125.21
790.317	121.91
790.756	128.31
791.195	136.11
791.634	154.51
792.072	215.91
792.511	399.81
792.95	1110.91
793.388	2231.61
793.827	1961.31
794.265	701.01
794.704	289.71
795.142	192.21
795.581	162.21
796.019	142.91
796.458	133.11
796.896	125.91
797.334	140.71
797.773	166.11
798.211	237.21
798.649	484.81
799.087	1091.61
799.526	1690.61
799.964	2127.71
800.402	2056.01
800.84	799.91
801.278	324.91
801.716	200.61
802.154	161.41
802.592	152.21
803.03	146.91
803.468	140.71
803.906	144.31
804.344	156.41
804.782	143.11
805.22	133.91
805.658	138.41
806.096	154.71
806.533	165.41
806.971	185.11
807.409	228.31
807.847	342.11
808.284	738.01
808.722	2028.81
809.16	3447.81
809.597	3403.51
810.035	5780.01
810.472	5898.01
810.91	2195.11
811.347	849.51
811.785	416.21
812.222	268.51
812.66	203.91
813.097	174.01
813.535	149.01
813.972	134.01
814.409	123.81
814.846	109.71
815.284	114.01
815.721	101.91
816.158	115.21
816.595	113.61
817.032	163.11
817.47	184.41
817.907	130.21
818.344	117.11
818.781	108.01
819.218	99.71
819.655	132.11
820.092	193.91
820.529	219.41
820.966	180.11
821.403	138.01
821.839	100.81
822.276	105.01
822.713	131.61
823.15	139.31
823.587	123.41
824.023	160.71
824.46	333.31
824.897	979.61
825.333	1401.91
825.77	602.81
826.206	245.01
826.643	148.81
827.08	106.71
827.516	86.01
827.953	81.01
828.389	85.21
828.825	76.61
829.262	72.91
829.698	68.81
830.135	67.71
830.571	63.31
831.007	60.51
831.443	68.51
831.88	59.71
832.316	62.31
832.752	71.21
833.188	66.11
833.624	69.41
834.06	65.01
834.497	68.71
834.933	76.91
835.369	76.31
835.805	70.81
836.241	82.51
836.677	88.11
837.112	90.51
837.548	105.31
837.984	135.41
838.42	220.11
838.856	545.31
839.292	1634.01
839.727	2357.61
840.163	1124.11
840.599	1005.51
841.034	2176.11
841.47	2180.61
841.906	818.11
842.341	341.41
842.777	215.01
843.212	239.11
843.648	215.51
844.083	122.31
844.519	93.51
844.954	76.41
845.39	62.11
845.825	60.51
846.261	55.21
846.696	53.71
847.131	55.41
847.566	66.21
848.002	47.01
848.437	62.11
848.872	68.11
849.307	64.91
849.742	94.01
850.177	193.21
850.613	594.01
851.048	907.51
851.483	389.51
851.918	165.81
852.353	93.71
852.788	60.31
853.223	56.31
853.657	53.71
854.092	46.01
854.527	39.41
854.962	46.01
855.397	42.71
855.832	49.91
856.266	45.11
856.701	42.11
857.136	36.01
857.57	40.51
858.005	52.11
858.44	61.61
858.874	48.31
859.309	60.11
859.743	46.81
860.178	55.31
860.612	44.61
861.047	54.91
861.481	72.21
861.915	69.81
862.35	54.01
862.784	30.51
863.218	34.01
863.653	30.41
864.087	45.01
864.521	55.11
864.955	73.21
865.39	160.91
865.824	179.11
866.258	124.21
866.692	179.71
867.126	192.01
867.56	109.41
867.994	57.31
868.428	36.81
868.862	51.11
869.296	55.71
869.73	58.71
870.164	57.81
870.598	46.61
871.031	44.11
871.465	36.61
871.899	33.01
872.333	25.31
872.766	28.41
873.2	24.71
873.634	27.51
874.067	25.31
874.501	28.61
874.935	32.61
875.368	35.81
875.802	34.41
876.235	25.41
876.669	30.81
877.102	26.31
877.535	21.71
877.969	25.91
878.402	20.11
878.836	21.91
879.269	29.41
879.702	27.31
880.135	23.41
880.569	23.21
881.002	22.71
881.435	20.61
881.868	14.41
882.301	23.11
882.734	20.21
883.167	21.91
883.601	18.11
884.034	22.81
884.467	13.91
884.899	20.31
885.332	13.11
885.765	13.81
886.198	13.71
886.631	19.11
887.064	18.21
887.497	17.71
887.929	24.31
888.362	16.81
888.795	13.31
889.228	20.71
889.66	21.11
890.093	20.51
890.526	8.51
890.958	11.31
891.391	17.81
891.823	22.71
892.256	15.41
892.688	11.31
893.121	15.51
893.553	12.21
893.985	25.31
894.418	18.91
894.85	13.91
895.282	15.21
895.715	14.31
896.147	17.51
896.579	15.91
897.011	10.21
897.444	12.81
897.876	16.31
898.308	16.61
898.74	17.61
899.172	10.61
899.604	23.11
900.036	20.01
900.468	15.01
900.9	10.61
901.332	16.11
901.764	11.01
902.196	18.51
902.628	14.81
903.06	15.91
903.491	16.71
903.923	20.01
904.355	18.01
904.787	22.71
905.218	21.51
905.65	20.81
906.082	9.41
906.513	16.11
906.945	12.81
907.376	16.71
907.808	20.41
908.239	18.91
908.671	20.51
909.102	19.01
909.534	27.51
909.965	51.41
910.397	97.71
910.828	327.61
911.259	482.51
911.691	224.41
912.122	112.71
912.553	51.71
912.984	34.01
913.415	30.21
913.847	26.61
914.278	15.21
914.709	12.41
915.14	23.31
915.571	15.11
916.002	17.21
916.433	21.61
916.864	12.51
917.295	11.21
917.726	20.21
918.157	15.51
918.587	32.11
919.018	21.61
919.449	22.31
919.88	26.21
920.311	38.91
920.741	54.51
921.172	174.01
921.603	161.31
922.033	77.31
922.464	45.81
922.895	20.61
923.325	22.91
923.756	9.51
924.186	10.51
924.617	16.91
925.047	31.01
925.478	32.31
925.908	30.71
926.338	19.41
926.769	12.21
927.199	14.51
927.629	6.71
928.06	22.21
928.49	13.21
928.92	14.21
929.35	13.41
929.78	14.81
930.21	8.91
930.641	7.81
931.071	12.31
931.501	3.31
931.931	10.41
932.361	16.51
932.791	10.01
933.221	8.31
933.651	6.61
934.08	17.81
934.51	25.41
934.94	9.11
935.37	7.81
935.8	10.11
936.229	6.61
936.659	6.21
937.089	1.51
937.519	13.81
937.948	23.01
938.378	22.71
938.807	9.51
939.237	0.21
939.666	7.61
940.096	-10.49
940.525	1.01
940.955	-2.29
941.384	1.71
941.814	-5.99
942.243	-1.89
942.672	3.61
943.102	-5.39
943.531	-2.29
943.96	3.31
944.39	1.81
944.819	2.41
945.248	1.91
945.677	2.61
946.106	4.21
946.535	6.01
946.964	-1.29
947.393	0.11
947.822	-4.79
948.251	-7.09
948.68	5.91
949.109	7.81
949.538	7.71
949.967	1.11
950.396	-2.69
950.825	-1.49
951.254	2.01
951.682	-1.49
952.111	5.41
952.54	6.61
952.969	-9.79
953.397	-6.79
953.826	-0.79
954.254	-3.89
954.683	-0.09
955.112	-4.89
955.54	-5.89
955.969	-3.19
956.397	-4.69
956.826	-2.19
957.254	5.81
957.682	-0.49
958.111	6.71
958.539	-4.29
958.967	-2.59
959.396	1.61
959.824	2.31
960.252	-0.79
960.68	-4.39
961.109	-1.89
961.537	-8.19
961.965	0.71
962.393	0.11
962.821	-3.69
963.249	-1.29
963.677	3.41
964.105	2.51
964.533	53.41
964.961	38.41
965.389	20.11
965.817	5.81
966.245	0.51
966.672	1.51
967.1	-7.09
967.528	-1.49
967.956	-1.19
968.383	2.01
968.811	-3.79
969.239	0.51
969.666	-1.39
970.094	5.51
970.522	0.71
970.949	-4.79
971.377	-3.29
971.804	-4.09
972.232	0.21
972.659	-4.79
973.087	-7.19
973.514	-3.49
973.941	-0.59
974.369	8.41
974.796	2.71
975.223	-2.39
975.651	-4.29
976.078	1.51
976.505	-3.29
976.932	5.21
977.359	13.61
977.786	12.81
978.214	-3.69
978.641	-3.79
979.068	0.11
979.495	-8.89
979.922	-4.39
980.349	2.11
980.776	4.51
981.202	-0.29
981.629	4.11
982.056	6.21
982.483	-5.19
982.91	1.81
983.337	-6.79
983.763	-4.29
984.19	-6.19
984.617	-3.09
985.043	-4.99
985.47	-3.29
985.897	-0.69
986.323	-12.09
986.75	4.01
987.176	-4.29
987.603	0.91
988.029	-0.89
988.456	-1.09
988.882	1.21
989.308	-9.49
989.735	-5.19
990.161	-0.79
990.587	-3.19
991.014	-4.89
991.44	4.01
991.866	-4.49
992.292	-8.59
992.719	2.41
993.145	4.11
993.571	-8.89
993.997	-6.09
994.423	0.91
994.849	-9.69
995.275	-1.69
995.701	-1.89
996.127	-7.59
996.553	-0.59
996.979	-6.39
997.405	-0.09
997.83	-7.59
998.256	-8.99
998.682	-5.49
999.108	-11.09
999.534	-0.79
999.959	-0.29
1000.385	-4.69
1000.811	-4.39
1001.236	-7.59
1001.662	-11.69
1002.087	-12.49
1002.513	-4.89
1002.938	1.21
1003.364	-4.29
1003.789	-2.89
1004.215	4.31
1004.64	-1.49
1005.066	4.91
1005.491	-2.19
1005.916	0.41
1006.342	-7.39
1006.767	-2.19
1007.192	8.01
1007.617	-3.99
1008.042	-4.69
1008.468	-4.39
1008.893	-6.59
1009.318	-4.39
1009.743	-6.89
1010.168	1.21
1010.593	-1.69
1011.018	-8.59
1011.443	0.51
1011.868	-1.89
1012.293	-2.89
1012.718	-11.49
1013.143	-3.59
1013.567	3.01
1013.992	-4.39
1014.417	-13.09
1014.842	-0.79
1015.267	-8.09
1015.691	-6.39
1016.116	9.11
1016.541	0.31
1016.965	9.21
1017.39	6.41
1017.814	0.41
1018.239	-2.89
1018.663	-7.19
1019.088	-6.29
1019.512	-3.89
1019.937	-0.59
1020.361	-3.79
1020.785	-14.89
1021.21	-1.49
1021.634	-3.69
1022.058	-6.89
1022.483	-0.09
1022.907	-7.89
1023.331	3.81
1023.755	-5.69
1024.179	-9.19
1024.604	-7.89
1025.028	-7.19
1025.452	-8.49
1025.876	-2.19
1026.3	-0.59
1026.724	-6.79
1027.148	-4.99
1027.572	-11.29
1027.996	-6.09
1028.42	-6.99
1028.843	-2.59
1029.267	-3.49
1029.691	-7.39
1030.115	-3.29
1030.539	-9.39
1030.962	-5.89
1031.386	-8.49
1031.81	-2.69
1032.233	1.01
1032.657	-4.99
1033.08	-7.29
1033.504	-7.49
1033.927	-2.49
1034.351	-1.09
1034.774	-9.59
1035.198	-7.19
1035.621	-6.59
1036.045	-6.89
1036.468	4.21
1036.891	-12.49
1037.315	-10.79
1037.738	-5.69
1038.161	-4.59
1038.584	-6.49
1039.008	-6.89
1039.431	-0.89
1039.854	-0.29
1040.277	-11.79
1040.7	-17.19
1041.123	0.31
1041.546	-9.69
1041.969	-13.79
1042.392	-12.39
1042.815	-1.79
1043.238	-5.09
1043.661	0.51
1044.084	-5.59
1044.507	-5.79
1044.93	-0.89
1045.352	-7.79
1045.775	1.01
1046.198	-2.59
1046.621	-4.99
1047.043	-5.79
1047.466	5.11
1047.889	-0.19
1048.311	-2.89
1048.734	-5.69
1049.156	-8.89
1049.579	-4.09
1050.001	-6.99
1050.424	1.71
1050.846	-5.99
1051.269	-7.59
1051.691	-7.19
1052.113	-10.39
1052.536	3.61
1052.958	-5.69
1053.38	-7.29
1053.802	-8.79
1054.225	2.11
1054.647	-10.19
1055.069	-8.29
1055.491	2.51
1055.913	-11.09
1056.335	-2.29
1056.757	-7.19
1057.179	-7.49
1057.601	-0.59
1058.023	-2.09
1058.445	-5.99
1058.867	-2.29
1059.289	-1.29
1059.711	-12.49
1060.133	0.11
1060.555	-8.39
1060.976	-8.29
1061.398	-6.69
1061.82	-7.49
1062.241	-12.69
1062.663	-6.39
1063.085	-4.59
1063.506	-6.39
1063.928	-0.59
1064.35	-1.29
1064.771	-14.49
1065.193	-4.59
1065.614	-11.89
1066.035	-1.59
1066.457	-10.39
1066.878	-2.39
1067.3	-9.79
1067.721	-3.89
1068.142	-7.19
1068.564	-3.09
1068.985	-2.29
1069.406	-11.29
1069.827	-5.29
1070.248	-1.19
1070.67	-4.59
1071.091	-9.99
1071.512	-6.99
1071.933	-4.79
1072.354	-11.19
1072.775	-9.69
1073.196	-10.59
1073.617	-3.49
1074.038	-6.39
1074.459	-8.19
1074.88	-12.09
1075.3	-0.19
1075.721	-6.89
1076.142	-0.29
1076.563	-2.89
1076.983	-8.69
1077.404	-9.49
1077.825	-12.49
1078.246	-4.99
1078.666	-14.99
1079.087	-8.89
1079.507	-3.89
1079.928	0.01
1080.348	-1.79
1080.769	-6.59
1081.189	-4.69
1081.61	-0.49
1082.03	-6.69
1082.451	-6.59
1082.871	-7.59
1083.291	-8.99
1083.711	-12.09
1084.132	-12.99
1084.552	-5.79
1084.972	-0.19
1085.392	-15.99
1085.813	-8.89
1086.233	-1.19
1086.653	-6.09
1087.073	-10.09
1087.493	-9.09
1087.913	-10.39
1088.333	-10.89
1088.753	-5.79
1089.173	2.71
1089.593	-3.19
1090.013	0.61
1090.433	-1.09
1090.852	-2.99
1091.272	-0.09
1091.692	-3.49
1092.112	-3.39
1092.531	-12.69
1092.951	-9.19
1093.371	-5.59
1093.79	1.41
1094.21	-0.49
1094.63	-10.49
1095.049	-4.89
1095.469	-0.39
1095.888	-5.49
1096.308	-5.09
1096.727	-0.99
1097.146	-3.19
1097.566	-1.09
1097.985	-6.99
1098.405	0.21
1098.824	-11.89
1099.243	-6.69
1099.662	-13.49
1100.082	-8.09
1100.501	-9.59
1100.92	-7.29
1101.339	-1.89
1101.758	-5.59
