Data from 20171114-ORNL-Ar_H_NY_Subt18_08-08-01-189.txt Node
Date: Tue Nov 14 08:08:01 EST 2017
User: Ender
Spectrometer: HR+D1039
Trigger mode: 0
Integration Time (sec): 2.730000E-2
Scans to average: 10
Electric dark correction enabled: true
Nonlinearity correction enabled: false
Boxcar width: 0
XAxis mode: Wavelengths
Number of Pixels in Spectrum: 2048
>>>>>Begin Spectral Data<<<<<
187.836	-1.64
188.309	-1.64
188.782	-1.64
189.255	0.86
189.728	-3.34
190.201	2.26
190.674	2.66
191.147	7.36
191.619	-7.64
192.092	3.66
192.565	1.76
193.038	-1.84
193.511	-1.74
193.984	-1.04
194.456	1.66
194.929	-3.04
195.402	0.96
195.874	-0.84
196.347	0.66
196.82	-9.24
197.292	1.56
197.765	-2.34
198.237	-8.34
198.71	5.86
199.182	-2.44
199.655	1.56
200.127	4.26
200.6	-7.34
201.072	-2.14
201.544	-1.94
202.017	-1.14
202.489	5.36
202.961	-0.84
203.433	-0.04
203.906	-2.84
204.378	-4.94
204.85	-6.94
205.322	-6.74
205.794	-1.94
206.266	-2.64
206.739	-5.54
207.211	-4.04
207.683	-7.94
208.155	-1.74
208.627	-7.54
209.099	-1.94
209.57	-14.84
210.042	-0.94
210.514	-9.44
210.986	-1.84
211.458	-7.14
211.93	-2.44
212.402	-1.14
212.873	-7.44
213.345	-6.24
213.817	-13.84
214.288	-2.34
214.76	-12.24
215.232	-4.34
215.703	-6.54
216.175	1.06
216.646	0.56
217.118	-4.74
217.589	-2.64
218.061	-5.34
218.532	-6.24
219.004	-1.04
219.475	3.36
219.946	-1.84
220.418	-3.34
220.889	2.56
221.36	-3.84
221.832	0.36
222.303	-10.74
222.774	0.46
223.245	-10.14
223.717	-3.94
224.188	-2.54
224.659	-8.04
225.13	-1.94
225.601	-5.14
226.072	2.06
226.543	0.06
227.014	3.46
227.485	-1.74
227.956	-0.14
228.427	-0.94
228.898	1.16
229.369	3.46
229.839	-4.14
230.31	-0.14
230.781	2.96
231.252	2.66
231.722	-3.64
232.193	-1.84
232.664	3.36
233.135	-0.74
233.605	7.66
234.076	-0.94
234.546	-0.14
235.017	0.56
235.487	-0.44
235.958	-5.34
236.428	-0.44
236.899	-1.34
237.369	7.76
237.84	-0.84
238.31	2.66
238.78	7.06
239.251	-2.84
239.721	5.76
240.191	-2.74
240.662	-4.44
241.132	3.56
241.602	1.06
242.072	3.36
242.542	9.46
243.013	0.36
243.483	3.36
243.953	1.96
244.423	-1.54
244.893	2.66
245.363	2.86
245.833	-0.74
246.303	-6.04
246.773	6.66
247.243	1.56
247.712	2.46
248.182	8.56
248.652	2.16
249.122	-3.44
249.592	5.46
250.061	17.36
250.531	32.16
251.001	11.46
251.471	20.86
251.94	19.46
252.41	4.26
252.879	-3.34
253.349	14.36
253.818	9.86
254.288	-0.74
254.757	7.46
255.227	1.06
255.696	10.56
256.166	11.66
256.635	12.66
257.105	5.66
257.574	6.46
258.043	6.96
258.513	9.36
258.982	16.46
259.451	10.56
259.92	9.36
260.389	14.56
260.859	18.96
261.328	7.06
261.797	16.16
262.266	3.56
262.735	7.76
263.204	7.36
263.673	2.86
264.142	5.36
264.611	-5.54
265.08	1.16
265.549	-3.24
266.018	12.46
266.487	1.66
266.955	-4.94
267.424	1.86
267.893	2.96
268.362	-0.34
268.83	0.26
269.299	9.46
269.768	-0.04
270.236	8.06
270.705	2.56
271.174	7.26
271.642	9.56
272.111	9.26
272.579	17.96
273.048	24.56
273.516	27.96
273.985	21.96
274.453	25.46
274.922	15.36
275.39	19.76
275.858	3.86
276.327	8.86
276.795	11.76
277.263	2.66
277.731	30.16
278.2	49.36
278.668	55.46
279.136	44.06
279.604	21.66
280.072	17.26
280.54	14.06
281.008	11.36
281.477	16.66
281.945	13.86
282.413	12.96
282.881	20.56
283.348	10.46
283.816	17.36
284.284	12.16
284.752	19.86
285.22	11.16
285.688	12.16
286.156	25.96
286.623	44.06
287.091	51.86
287.559	20.16
288.026	26.56
288.494	14.56
288.962	8.36
289.429	5.76
289.897	16.06
290.364	10.86
290.832	16.76
291.3	17.96
291.767	11.86
292.234	21.96
292.702	16.66
293.169	19.16
293.637	20.06
294.104	21.46
294.571	4.86
295.039	8.66
295.506	15.66
295.973	14.76
296.44	11.56
296.908	16.06
297.375	15.96
297.842	21.16
298.309	13.56
298.776	16.36
299.243	18.96
299.71	12.86
300.177	21.86
300.644	19.76
301.111	17.56
301.578	27.26
302.045	16.66
302.512	16.66
302.979	23.96
303.446	21.56
303.913	15.96
304.379	20.86
304.846	31.76
305.313	26.46
305.78	22.06
306.246	27.36
306.713	27.16
307.18	24.96
307.646	24.26
308.113	25.76
308.579	18.46
309.046	26.86
309.512	25.36
309.979	17.36
310.445	22.26
310.912	27.06
311.378	35.76
311.845	26.36
312.311	32.26
312.777	26.66
313.244	30.66
313.71	35.46
314.176	30.96
314.642	24.86
315.109	31.66
315.575	33.36
316.041	36.96
316.507	32.16
316.973	40.26
317.439	32.56
317.905	37.26
318.371	37.06
318.837	29.46
319.303	31.66
319.769	32.76
320.235	37.06
320.701	35.56
321.167	35.46
321.633	34.56
322.099	31.86
322.564	41.66
323.03	40.06
323.496	29.76
323.962	42.96
324.427	33.26
324.893	40.76
325.359	32.66
325.824	39.16
326.29	30.66
326.755	41.86
327.221	40.76
327.686	40.16
328.152	49.26
328.617	38.16
329.083	47.36
329.548	39.96
330.014	43.26
330.479	37.16
330.944	46.06
331.41	38.16
331.875	45.66
332.34	51.06
332.805	39.46
333.271	46.86
333.736	49.66
334.201	49.96
334.666	51.76
335.131	53.26
335.596	46.26
336.061	51.76
336.526	36.66
336.991	38.16
337.456	53.36
337.921	47.16
338.386	40.26
338.851	42.46
339.316	47.66
339.781	50.66
340.246	48.46
340.711	47.86
341.175	50.76
341.64	40.86
342.105	53.86
342.569	56.56
343.034	56.46
343.499	56.56
343.963	46.66
344.428	62.16
344.893	59.06
345.357	60.56
345.822	59.66
346.286	64.96
346.751	72.96
347.215	71.66
347.679	71.36
348.144	101.56
348.608	81.16
349.073	69.36
349.537	71.16
350.001	75.76
350.465	88.86
350.93	74.96
351.394	74.26
351.858	65.16
352.322	85.16
352.786	86.36
353.25	99.96
353.715	105.96
354.179	99.16
354.643	119.86
355.107	128.46
355.571	109.66
356.035	107.26
356.498	118.06
356.962	124.16
357.426	126.96
357.89	117.86
358.354	90.96
358.818	78.66
359.281	79.36
359.745	73.26
360.209	78.96
360.673	65.96
361.136	79.86
361.6	83.86
362.064	84.66
362.527	83.76
362.991	84.46
363.454	85.86
363.918	75.66
364.381	79.06
364.845	78.46
365.308	78.26
365.772	88.96
366.235	80.36
366.698	79.96
367.162	83.76
367.625	80.96
368.088	85.46
368.552	86.26
369.015	85.26
369.478	100.96
369.941	97.96
370.404	95.16
370.867	102.56
371.331	106.96
371.794	110.26
372.257	111.36
372.72	114.96
373.183	114.86
373.646	104.96
374.109	106.36
374.572	108.86
375.035	105.36
375.497	108.16
375.96	107.76
376.423	100.56
376.886	119.56
377.349	106.66
377.811	109.16
378.274	109.66
378.737	106.86
379.199	114.86
379.662	106.06
380.125	119.16
380.587	113.06
381.05	125.86
381.512	127.96
381.975	139.56
382.437	127.06
382.9	128.36
383.362	128.26
383.825	144.76
384.287	147.26
384.75	141.96
385.212	137.16
385.674	139.66
386.136	136.16
386.599	126.26
387.061	125.66
387.523	130.86
387.985	133.26
388.447	147.26
388.91	145.26
389.372	158.36
389.834	152.86
390.296	146.36
390.758	157.06
391.22	164.96
391.682	216.36
392.144	308.06
392.606	235.66
393.068	168.56
393.529	164.76
393.991	153.26
394.453	151.76
394.915	157.26
395.377	191.16
395.838	218.36
396.3	155.86
396.762	149.06
397.224	125.46
397.685	135.56
398.147	131.96
398.608	138.46
399.07	130.86
399.531	138.36
399.993	136.66
400.454	154.86
400.916	147.56
401.377	143.56
401.839	149.76
402.3	149.26
402.762	169.06
403.223	175.66
403.684	165.76
404.145	161.66
404.607	165.36
405.068	166.16
405.529	179.56
405.99	195.26
406.451	171.86
406.913	178.86
407.374	165.86
407.835	167.36
408.296	167.56
408.757	173.86
409.218	185.26
409.679	181.16
410.14	168.86
410.601	178.56
411.062	188.06
411.522	189.76
411.983	190.26
412.444	176.96
412.905	177.96
413.366	181.56
413.826	198.56
414.287	219.26
414.748	257.46
415.208	245.66
415.669	212.06
416.13	202.96
416.59	207.96
417.051	219.26
417.511	223.26
417.972	237.96
418.432	253.96
418.893	287.76
419.353	251.96
419.814	193.16
420.274	183.06
420.734	185.06
421.195	201.56
421.655	204.96
422.115	194.96
422.576	195.16
423.036	192.26
423.496	211.36
423.956	220.26
424.416	234.96
424.876	264.86
425.336	259.56
425.797	265.56
426.257	255.26
426.717	246.06
427.177	234.36
427.637	234.56
428.097	228.36
428.556	251.76
429.016	270.76
429.476	267.26
429.936	275.16
430.396	274.96
430.856	289.16
431.315	315.86
431.775	366.66
432.235	386.36
432.694	352.66
433.154	372.26
433.614	398.16
434.073	337.36
434.533	288.76
434.993	275.86
435.452	286.06
435.912	305.56
436.371	291.96
436.83	290.06
437.29	276.56
437.749	245.76
438.209	244.16
438.668	275.46
439.127	294.06
439.587	264.06
440.046	246.46
440.505	253.56
440.964	278.36
441.424	320.36
441.883	316.36
442.342	261.96
442.801	224.86
443.26	215.76
443.719	221.66
444.178	220.46
444.637	212.26
445.096	218.96
445.555	221.26
446.014	230.86
446.473	230.06
446.932	236.56
447.391	227.56
447.849	227.06
448.308	213.56
448.767	217.96
449.226	241.46
449.685	229.56
450.143	256.26
450.602	238.86
451.061	237.06
451.519	237.66
451.978	232.56
452.436	232.96
452.895	238.46
453.353	257.76
453.812	244.86
454.27	242.56
454.729	237.66
455.187	250.96
455.646	246.56
456.104	248.16
456.562	255.96
457.021	269.66
457.479	267.36
457.937	277.36
458.395	273.26
458.854	254.26
459.312	250.96
459.77	278.16
460.228	260.16
460.686	244.16
461.144	252.86
461.602	238.76
462.06	245.46
462.518	252.36
462.976	253.96
463.434	255.96
463.892	264.06
464.35	277.16
464.808	285.16
465.266	266.76
465.724	269.06
466.181	272.86
466.639	273.36
467.097	281.76
467.555	295.56
468.012	304.56
468.47	312.36
468.928	326.26
469.385	337.96
469.843	342.26
470.3	351.76
470.758	368.56
471.215	391.76
471.673	417.26
472.13	410.36
472.588	423.16
473.045	378.66
473.503	368.96
473.96	397.66
474.417	398.36
474.875	434.36
475.332	472.86
475.789	463.36
476.246	472.06
476.704	490.06
477.161	512.56
477.618	529.66
478.075	562.96
478.532	614.36
478.989	688.96
479.446	807.46
479.903	777.36
480.36	802.76
480.817	859.66
481.274	969.36
481.731	1064.96
482.188	1153.26
482.645	1291.26
483.102	1412.06
483.558	1527.96
484.015	1577.76
484.472	1537.86
484.929	1509.46
485.385	1461.46
485.842	1417.76
486.299	1353.26
486.755	1291.86
487.212	1097.06
487.668	928.86
488.125	848.56
488.582	774.66
489.038	736.76
489.494	708.96
489.951	682.16
490.407	663.56
490.864	655.56
491.32	641.56
491.776	637.76
492.233	651.16
492.689	619.86
493.145	610.36
493.602	601.16
494.058	610.76
494.514	617.06
494.97	638.16
495.426	656.46
495.882	617.46
496.338	612.16
496.794	623.66
497.251	618.66
497.707	637.56
498.163	638.46
498.618	640.56
499.074	637.56
499.53	684.96
499.986	667.56
500.442	652.26
500.898	633.36
501.354	634.06
501.809	637.46
502.265	641.66
502.721	666.66
503.177	677.86
503.632	660.26
504.088	678.76
504.543	710.36
504.999	714.66
505.455	662.06
505.91	638.06
506.366	628.96
506.821	630.26
507.277	623.76
507.732	624.56
508.187	627.06
508.643	639.66
509.098	637.66
509.553	660.16
510.009	664.66
510.464	666.26
510.919	683.36
511.375	701.06
511.83	713.96
512.285	719.86
512.74	753.96
513.195	790.56
513.65	768.26
514.105	766.76
514.56	770.16
515.015	791.56
515.47	806.96
515.925	784.26
516.38	775.66
516.835	784.06
517.29	784.86
517.745	772.86
518.2	765.56
518.655	751.46
519.109	745.66
519.564	743.36
520.019	725.26
520.474	727.46
520.928	727.36
521.383	717.16
521.838	704.46
522.292	706.86
522.747	706.16
523.201	705.36
523.656	700.26
524.11	699.96
524.565	694.46
525.019	691.56
525.474	698.96
525.928	701.56
526.382	694.76
526.837	700.96
527.291	691.96
527.745	698.76
528.2	698.06
528.654	686.06
529.108	687.76
529.562	690.66
530.016	681.76
530.47	692.06
530.925	692.56
531.379	683.86
531.833	715.16
532.287	700.46
532.741	693.06
533.195	706.66
533.649	710.76
534.103	721.46
534.556	701.66
535.01	708.66
535.464	705.06
535.918	715.36
536.372	715.56
536.826	707.36
537.279	702.66
537.733	710.76
538.187	711.86
538.64	701.46
539.094	718.96
539.548	728.16
540.001	720.96
540.455	730.66
540.908	731.86
541.362	741.26
541.815	733.06
542.269	762.16
542.722	757.16
543.175	779.06
543.629	769.96
544.082	785.26
544.536	790.96
544.989	775.36
545.442	792.66
545.895	788.16
546.349	796.46
546.802	777.46
547.255	806.66
547.708	799.96
548.161	812.76
548.614	823.46
549.067	826.76
549.52	824.06
549.973	811.66
550.426	811.76
550.879	788.96
551.332	803.26
551.785	805.66
552.238	800.46
552.691	810.66
553.144	835.36
553.596	842.86
554.049	861.96
554.502	884.06
554.955	912.26
555.407	898.76
555.86	894.76
556.313	884.56
556.765	886.26
557.218	885.26
557.67	886.46
558.123	874.86
558.576	872.06
559.028	879.66
559.48	881.56
559.933	869.86
560.385	837.56
560.838	809.06
561.29	788.16
561.742	784.96
562.195	760.06
562.647	762.46
563.099	769.76
563.551	778.26
564.004	789.16
564.456	780.96
564.908	766.76
565.36	738.76
565.812	725.36
566.264	725.66
566.716	733.46
567.168	711.26
567.62	729.16
568.072	714.16
568.524	704.86
568.976	689.76
569.428	667.36
569.88	672.46
570.332	674.76
570.784	688.76
571.235	677.66
571.687	698.96
572.139	703.96
572.59	716.36
573.042	710.36
573.494	709.86
573.945	704.66
574.397	670.56
574.849	685.86
575.3	687.06
575.752	683.36
576.203	678.06
576.655	684.26
577.106	674.66
577.557	663.66
578.009	670.66
578.46	660.46
578.912	660.56
579.363	665.56
579.814	669.56
580.265	667.56
580.717	670.96
581.168	675.26
581.619	676.06
582.07	688.36
582.521	679.66
582.972	673.86
583.423	679.86
583.875	689.86
584.326	704.46
584.777	752.46
585.227	830.66
585.678	913.86
586.129	1007.36
586.58	1078.06
587.031	1164.76
587.482	1301.26
587.933	1479.46
588.384	1285.16
588.834	967.36
589.285	813.06
589.736	781.36
590.186	776.46
590.637	770.06
591.088	754.56
591.538	745.16
591.989	742.86
592.439	731.76
592.89	720.66
593.34	717.06
593.791	714.26
594.241	707.66
594.692	716.76
595.142	698.96
595.593	715.66
596.043	707.46
596.493	720.76
596.943	715.46
597.394	713.16
597.844	716.86
598.294	734.26
598.744	755.36
599.195	792.86
599.645	831.96
600.095	866.76
600.545	923.86
600.995	976.86
601.445	1031.06
601.895	1101.56
602.345	1140.56
602.795	1117.06
603.245	1066.26
603.695	1014.46
604.145	962.16
604.594	911.76
605.044	868.56
605.494	802.86
605.944	757.56
606.393	745.96
606.843	727.86
607.293	733.76
607.743	743.36
608.192	756.46
608.642	765.16
609.091	782.16
609.541	770.76
609.99	771.56
610.44	771.26
610.889	728.16
611.339	707.76
611.788	687.46
612.238	718.46
612.687	715.66
613.136	722.06
613.586	732.36
614.035	728.86
614.484	757.96
614.933	766.46
615.383	759.06
615.832	752.26
616.281	733.26
616.73	694.26
617.179	682.46
617.628	655.46
618.077	638.06
618.526	627.86
618.975	623.36
619.424	620.26
619.873	616.46
620.322	623.56
620.771	616.16
621.22	613.96
621.669	598.96
622.118	596.56
622.567	592.76
623.015	584.96
623.464	576.76
623.913	564.56
624.361	555.36
624.81	556.56
625.259	559.06
625.707	556.06
626.156	562.86
626.604	572.96
627.053	563.46
627.501	566.86
627.95	576.66
628.398	582.86
628.847	575.26
629.295	571.46
629.744	577.76
630.192	573.16
630.64	569.26
631.089	568.26
631.537	595.56
631.985	596.26
632.433	613.96
632.881	623.66
633.33	674.96
633.778	663.06
634.226	583.96
634.674	585.96
635.122	587.56
635.57	598.76
636.018	638.66
636.466	589.56
636.914	553.26
637.362	569.36
637.81	581.86
638.258	579.66
638.705	585.56
639.153	611.56
639.601	617.26
640.049	650.36
640.497	675.46
640.944	691.56
641.392	643.96
641.84	619.06
642.287	591.96
642.735	577.86
643.182	575.76
643.63	581.86
644.078	583.06
644.525	598.16
644.973	602.26
645.42	606.26
645.867	633.06
646.315	643.46
646.762	664.26
647.21	699.36
647.657	714.66
648.104	752.56
648.551	783.26
648.999	843.46
649.446	928.66
649.893	1014.56
650.34	1179.96
650.787	1410.36
651.234	1752.66
651.682	2286.86
652.129	3157.96
652.576	4543.96
653.023	6700.56
653.47	9140.66
653.917	11341.76
654.363	12987.66
654.81	14307.46
655.257	13638.76
655.704	8895.16
656.151	5275.16
656.598	3399.86
657.044	2413.66
657.491	1856.06
657.938	1497.06
658.385	1253.66
658.831	1091.66
659.278	969.86
659.724	853.46
660.171	788.76
660.618	722.26
661.064	689.86
661.511	678.36
661.957	661.16
662.404	655.36
662.85	662.56
663.296	633.76
663.743	569.46
664.189	543.66
664.635	542.66
665.082	528.96
665.528	530.76
665.974	520.46
666.42	519.56
666.867	512.96
667.313	492.46
667.759	489.86
668.205	486.26
668.651	493.86
669.097	490.16
669.543	510.76
669.989	474.56
670.435	459.66
670.881	443.66
671.327	456.96
671.773	470.56
672.219	492.56
672.665	551.86
673.11	583.16
673.556	638.76
674.002	672.66
674.448	661.66
674.893	541.86
675.339	480.66
675.785	445.56
676.23	418.06
676.676	387.66
677.122	382.26
677.567	370.16
678.013	368.46
678.458	357.56
678.904	366.66
679.349	358.16
679.794	354.36
680.24	354.76
680.685	348.36
681.131	349.16
681.576	349.36
682.021	354.06
682.466	350.26
682.912	337.56
683.357	357.76
683.802	380.16
684.247	414.46
684.692	462.26
685.137	500.86
685.583	540.56
686.028	565.06
686.473	522.36
686.918	454.96
687.363	423.86
687.807	394.86
688.252	366.36
688.697	359.16
689.142	336.16
689.587	341.36
690.032	326.56
690.477	347.26
690.921	348.46
691.366	385.76
691.811	405.66
692.255	436.56
692.7	458.66
693.145	512.26
693.589	706.86
694.034	1145.26
694.478	1553.06
694.923	1734.26
695.367	2244.76
695.812	1193.26
696.256	505.46
696.701	372.66
697.145	351.56
697.59	331.66
698.034	324.56
698.478	327.56
698.922	326.26
699.367	336.16
699.811	338.86
700.255	356.26
700.699	398.66
701.143	430.96
701.588	475.26
702.032	517.66
702.476	514.66
702.92	497.06
703.364	498.66
703.808	649.46
704.252	1054.16
704.696	1478.66
705.14	1662.16
705.584	2118.16
706.027	1061.66
706.471	524.66
706.915	404.86
707.359	354.66
707.803	317.96
708.246	322.36
708.69	307.86
709.134	317.26
709.577	319.06
710.021	318.26
710.465	318.56
710.908	305.56
711.352	300.36
711.795	314.46
712.239	356.06
712.682	396.46
713.126	419.46
713.569	462.46
714.012	380.46
714.456	321.26
714.899	299.56
715.342	281.06
715.786	264.26
716.229	256.56
716.672	261.76
717.115	250.26
717.558	254.16
718.002	248.96
718.445	264.26
718.888	287.06
719.331	302.96
719.774	299.56
720.217	307.86
720.66	278.36
721.103	262.46
721.546	253.96
721.989	254.86
722.432	236.46
722.874	235.96
723.317	237.06
723.76	243.16
724.203	260.56
724.645	324.26
725.088	463.46
725.531	575.46
725.974	644.36
726.416	548.16
726.859	307.76
727.301	251.16
727.744	242.46
728.187	240.56
728.629	244.36
729.071	252.66
729.514	266.16
729.956	274.36
730.399	286.26
730.841	290.26
731.283	277.76
731.726	260.26
732.168	259.86
732.61	266.56
733.053	289.06
733.495	314.86
733.937	362.86
734.379	407.56
734.821	442.16
735.263	548.06
735.705	858.46
736.148	1619.76
736.59	2610.16
737.032	3025.36
737.474	2471.56
737.916	814.16
738.357	435.56
738.799	329.76
739.241	308.06
739.683	275.76
740.125	295.86
740.567	300.66
741.008	325.16
741.45	316.86
741.892	314.36
742.334	348.76
742.775	361.76
743.217	348.76
743.658	270.96
744.1	251.16
744.542	264.26
744.983	309.86
745.425	343.66
745.866	347.26
746.307	285.86
746.749	287.26
747.19	338.56
747.632	464.56
748.073	910.36
748.514	1901.06
748.956	2863.86
749.397	3601.86
749.838	2984.46
750.279	2950.46
750.72	1490.36
751.162	549.56
751.603	325.06
752.044	249.56
752.485	219.86
752.926	211.66
753.367	200.86
753.808	197.66
754.249	190.46
754.69	183.66
755.131	183.06
755.572	179.86
756.013	185.76
756.453	186.06
756.894	181.46
757.335	186.06
757.776	194.36
758.216	195.96
758.657	200.66
759.098	207.76
759.538	226.06
759.979	268.66
760.42	386.16
760.86	734.66
761.301	1892.46
761.741	4513.96
762.182	6351.26
762.622	4438.16
763.063	1312.26
763.503	535.56
763.943	350.36
764.384	352.76
764.824	407.26
765.264	435.66
765.705	301.16
766.145	209.46
766.585	198.06
767.025	180.06
767.465	189.96
767.906	246.36
768.346	319.26
768.786	341.96
769.226	264.76
769.666	328.66
770.106	647.86
770.546	1605.46
770.986	2628.16
771.426	2330.66
771.866	794.76
772.306	332.76
772.745	211.76
773.185	175.86
773.625	167.26
774.065	165.46
774.505	203.36
774.944	311.76
775.384	681.46
775.824	1202.06
776.263	1160.06
776.703	498.76
777.142	226.56
777.582	157.66
778.021	140.86
778.461	142.86
778.9	137.76
779.34	136.76
779.779	118.16
780.219	111.26
780.658	113.86
781.097	112.46
781.537	118.66
781.976	107.56
782.415	104.66
782.855	108.36
783.294	96.56
783.733	110.16
784.172	107.06
784.611	106.26
785.05	105.16
785.489	114.26
785.928	117.56
786.367	124.06
786.806	125.26
787.245	132.26
787.684	134.76
788.123	149.16
788.562	141.76
789.001	126.26
789.44	124.36
789.879	117.46
790.317	114.26
790.756	131.26
791.195	130.56
791.634	149.96
792.072	207.26
792.511	384.36
792.95	1050.86
793.388	2146.06
793.827	1901.86
794.265	678.26
794.704	280.66
795.142	185.76
795.581	148.66
796.019	137.46
796.458	134.66
796.896	131.66
797.334	139.66
797.773	159.16
798.211	221.56
798.649	458.46
799.087	1042.26
799.526	1613.66
799.964	2013.96
800.402	1972.66
800.84	755.46
801.278	309.86
801.716	187.66
802.154	156.36
802.592	146.96
803.03	137.96
803.468	137.66
803.906	145.06
804.344	152.26
804.782	134.86
805.22	137.66
805.658	127.66
806.096	151.86
806.533	160.56
806.971	170.06
807.409	222.56
807.847	322.76
808.284	691.46
808.722	1913.26
809.16	3285.66
809.597	3172.36
810.035	5437.96
810.472	5665.86
810.91	2062.96
811.347	801.16
811.785	406.46
812.222	251.56
812.66	194.96
813.097	162.26
813.535	135.26
813.972	129.56
814.409	115.26
814.846	108.66
815.284	107.46
815.721	99.86
816.158	111.86
816.595	117.36
817.032	179.96
817.47	193.36
817.907	163.56
818.344	151.76
818.781	113.56
819.218	102.76
819.655	122.76
820.092	196.36
820.529	212.76
820.966	183.66
821.403	131.66
821.839	107.16
822.276	97.66
822.713	115.46
823.15	131.86
823.587	118.86
824.023	148.96
824.46	303.76
824.897	919.36
825.333	1343.86
825.77	578.86
826.206	237.36
826.643	136.06
827.08	97.46
827.516	81.06
827.953	79.16
828.389	78.26
828.825	73.36
829.262	67.96
829.698	68.86
830.135	68.16
830.571	66.06
831.007	65.96
831.443	63.96
831.88	66.56
832.316	64.46
832.752	62.46
833.188	65.36
833.624	69.46
834.06	65.36
834.497	72.26
834.933	68.86
835.369	72.16
835.805	80.86
836.241	70.06
836.677	81.26
837.112	88.16
837.548	104.56
837.984	138.56
838.42	206.26
838.856	513.66
839.292	1540.26
839.727	2280.46
840.163	1065.86
840.599	963.06
841.034	2044.56
841.47	2081.56
841.906	769.76
842.341	344.46
842.777	231.86
843.212	311.56
843.648	305.86
844.083	154.06
844.519	102.66
844.954	72.46
845.39	57.36
845.825	61.16
846.261	67.86
846.696	55.76
847.131	52.56
847.566	59.06
848.002	58.16
848.437	58.86
848.872	58.16
849.307	58.56
849.742	90.26
850.177	182.66
850.613	569.36
851.048	872.16
851.483	378.56
851.918	155.16
852.353	85.46
852.788	64.66
853.223	48.66
853.657	55.46
854.092	52.06
854.527	47.56
854.962	43.56
855.397	47.26
855.832	50.76
856.266	45.06
856.701	36.26
857.136	34.76
857.57	44.36
858.005	51.56
858.44	53.96
858.874	42.76
859.309	53.26
859.743	42.46
860.178	55.26
860.612	44.76
861.047	54.56
861.481	69.36
861.915	67.76
862.35	53.76
862.784	30.86
863.218	43.66
863.653	33.36
864.087	50.26
864.521	56.56
864.955	72.16
865.39	158.36
865.824	178.66
866.258	116.96
866.692	161.76
867.126	175.56
867.56	102.76
867.994	56.66
868.428	35.66
868.862	51.06
869.296	54.26
869.73	58.06
870.164	53.16
870.598	52.06
871.031	35.56
871.465	34.76
871.899	33.96
872.333	26.46
872.766	31.46
873.2	27.36
873.634	37.46
874.067	27.46
874.501	26.96
874.935	37.16
875.368	30.66
875.802	28.26
876.235	25.46
876.669	25.56
877.102	20.46
877.535	27.06
877.969	27.16
878.402	30.26
878.836	18.16
879.269	21.96
879.702	25.86
880.135	18.46
880.569	25.06
881.002	26.26
881.435	22.86
881.868	12.56
882.301	25.46
882.734	17.56
883.167	18.06
883.601	16.16
884.034	21.86
884.467	16.26
884.899	21.96
885.332	19.56
885.765	14.86
886.198	14.46
886.631	17.66
887.064	13.56
887.497	19.66
887.929	25.06
888.362	17.36
888.795	12.66
889.228	21.06
889.66	16.26
890.093	16.66
890.526	15.56
890.958	13.36
891.391	17.36
891.823	21.96
892.256	16.76
892.688	12.26
893.121	20.56
893.553	14.26
893.985	22.86
894.418	21.36
894.85	14.26
895.282	19.66
895.715	17.56
896.147	24.56
896.579	15.76
897.011	23.36
897.444	17.86
897.876	16.36
898.308	23.36
898.74	16.26
899.172	10.56
899.604	22.16
900.036	28.06
900.468	17.16
900.9	20.96
901.332	17.06
901.764	8.56
902.196	18.76
902.628	21.26
903.06	15.96
903.491	30.86
903.923	27.76
904.355	22.36
904.787	22.56
905.218	21.46
905.65	20.36
906.082	17.36
906.513	17.36
906.945	18.26
907.376	9.86
907.808	25.56
908.239	19.86
908.671	24.36
909.102	19.36
909.534	32.26
909.965	55.36
910.397	93.26
910.828	323.16
911.259	470.26
911.691	216.96
912.122	104.86
912.553	53.66
912.984	32.36
913.415	30.76
913.847	28.26
914.278	17.46
914.709	13.26
915.14	13.06
915.571	19.16
916.002	16.86
916.433	22.56
916.864	16.06
917.295	14.26
917.726	22.56
918.157	21.06
918.587	30.86
919.018	24.96
919.449	24.56
919.88	21.06
920.311	30.46
920.741	45.56
921.172	171.36
921.603	145.46
922.033	70.16
922.464	44.66
922.895	20.76
923.325	25.66
923.756	19.76
924.186	16.76
924.617	24.96
925.047	47.86
925.478	47.56
925.908	45.86
926.338	26.66
926.769	17.06
927.199	17.76
927.629	8.46
928.06	15.46
928.49	13.16
928.92	12.16
929.35	15.56
929.78	11.96
930.21	6.96
930.641	9.46
931.071	10.86
931.501	3.26
931.931	10.86
932.361	12.66
932.791	6.76
933.221	1.56
933.651	4.56
934.08	15.96
934.51	27.76
934.94	14.76
935.37	10.06
935.8	11.16
936.229	-0.34
936.659	10.16
937.089	0.86
937.519	20.36
937.948	25.76
938.378	17.06
938.807	8.36
939.237	3.56
939.666	7.66
940.096	-3.84
940.525	2.16
940.955	1.66
941.384	10.06
941.814	-4.34
942.243	-1.64
942.672	5.56
943.102	2.16
943.531	3.26
943.96	9.16
944.39	3.06
944.819	0.56
945.248	4.36
945.677	0.86
946.106	6.76
946.535	5.36
946.964	1.96
947.393	-2.14
947.822	2.16
948.251	-3.24
948.68	4.96
949.109	6.96
949.538	-0.44
949.967	6.56
950.396	-0.24
950.825	3.46
951.254	4.76
951.682	-8.54
952.111	7.36
952.54	-0.14
952.969	-1.34
953.397	-6.84
953.826	9.76
954.254	-3.24
954.683	-0.84
955.112	-1.34
955.54	2.76
955.969	3.56
956.397	-3.04
956.826	0.56
957.254	1.86
957.682	-0.84
958.111	3.26
958.539	-1.24
958.967	6.26
959.396	-4.04
959.824	0.66
960.252	0.46
960.68	-2.04
961.109	1.56
961.537	-0.94
961.965	4.26
962.393	1.86
962.821	-3.84
963.249	1.46
963.677	5.76
964.105	1.66
964.533	38.56
964.961	36.06
965.389	24.86
965.817	7.86
966.245	1.16
966.672	1.46
967.1	-5.44
967.528	-0.34
967.956	0.76
968.383	0.46
968.811	-8.14
969.239	-4.54
969.666	-4.64
970.094	-2.44
970.522	-2.44
970.949	-0.14
971.377	-2.94
971.804	-3.24
972.232	-1.94
972.659	-0.94
973.087	-5.14
973.514	-2.64
973.941	-5.34
974.369	5.86
974.796	1.06
975.223	5.56
975.651	2.26
976.078	6.86
976.505	-0.34
976.932	2.46
977.359	12.46
977.786	10.16
978.214	-1.74
978.641	-4.14
979.068	-0.74
979.495	-4.04
979.922	2.46
980.349	-0.14
980.776	2.86
981.202	0.86
981.629	5.06
982.056	5.16
982.483	2.56
982.91	6.06
983.337	-9.14
983.763	1.76
984.19	-5.84
984.617	-4.34
985.043	-5.54
985.47	-4.24
985.897	-0.84
986.323	-4.64
986.75	6.26
987.176	0.96
987.603	-1.54
988.029	-0.84
988.456	-3.14
988.882	3.36
989.308	-3.34
989.735	1.66
990.161	-1.74
990.587	-6.64
991.014	-3.54
991.44	9.66
991.866	-4.94
992.292	-2.04
992.719	-6.34
993.145	2.76
993.571	-9.14
993.997	-6.84
994.423	-5.94
994.849	-3.44
995.275	2.76
995.701	-1.24
996.127	-2.44
996.553	-3.74
996.979	-7.04
997.405	-2.14
997.83	-9.04
998.256	-5.64
998.682	-14.44
999.108	-9.54
999.534	-6.84
999.959	-2.44
1000.385	-3.24
1000.811	2.16
1001.236	-7.14
1001.662	-6.84
1002.087	-4.84
1002.513	-1.74
1002.938	0.66
1003.364	-2.74
1003.789	5.66
1004.215	-0.84
1004.64	0.46
1005.066	5.26
1005.491	3.86
1005.916	-1.74
1006.342	-11.54
1006.767	-1.84
1007.192	-4.74
1007.617	-4.44
1008.042	-5.24
1008.468	-7.64
1008.893	-4.34
1009.318	0.06
1009.743	-3.64
1010.168	7.16
1010.593	-0.74
1011.018	-4.74
1011.443	-6.44
1011.868	-3.44
1012.293	-2.54
1012.718	-5.84
1013.143	-4.84
1013.567	0.26
1013.992	-3.54
1014.417	-13.54
1014.842	-1.34
1015.267	-6.84
1015.691	0.96
1016.116	2.86
1016.541	-4.14
1016.965	1.76
1017.39	1.96
1017.814	0.06
1018.239	-0.14
1018.663	-9.44
1019.088	-8.04
1019.512	-3.34
1019.937	2.16
1020.361	-7.54
1020.785	-16.54
1021.21	-2.94
1021.634	1.76
1022.058	1.86
1022.483	4.16
1022.907	-3.14
1023.331	-6.34
1023.755	-0.64
1024.179	3.56
1024.604	-5.84
1025.028	-7.34
1025.452	-2.74
1025.876	3.56
1026.3	0.46
1026.724	-14.14
1027.148	-5.84
1027.572	-13.34
1027.996	-0.84
1028.42	-0.14
1028.843	-3.94
1029.267	-3.24
1029.691	-4.74
1030.115	-12.74
1030.539	-10.94
1030.962	-6.24
1031.386	-5.64
1031.81	-6.64
1032.233	-2.54
1032.657	-6.04
1033.08	2.96
1033.504	-2.64
1033.927	-7.04
1034.351	-3.74
1034.774	-2.94
1035.198	0.86
1035.621	-5.64
1036.045	-8.44
1036.468	-2.24
1036.891	-10.54
1037.315	-0.84
1037.738	-11.94
1038.161	-1.14
1038.584	-13.74
1039.008	-0.94
1039.431	-5.44
1039.854	-3.44
1040.277	-12.04
1040.7	-12.04
1041.123	-0.74
1041.546	-14.84
1041.969	-5.74
1042.392	-11.24
1042.815	-2.24
1043.238	-1.64
1043.661	-1.74
1044.084	-3.14
1044.507	-3.54
1044.93	-5.84
1045.352	-2.04
1045.775	-0.94
1046.198	-6.64
1046.621	-2.04
1047.043	-4.34
1047.466	5.26
1047.889	0.46
1048.311	-6.74
1048.734	-3.64
1049.156	-4.04
1049.579	1.26
1050.001	-8.54
1050.424	0.76
1050.846	0.16
1051.269	-5.54
1051.691	-5.14
1052.113	-8.74
1052.536	-1.14
1052.958	-1.64
1053.38	-2.64
1053.802	-9.34
1054.225	6.06
1054.647	-10.24
1055.069	-7.14
1055.491	-2.74
1055.913	-8.14
1056.335	-4.44
1056.757	-8.14
1057.179	-10.84
1057.601	-7.04
1058.023	-7.44
1058.445	-14.94
1058.867	-4.14
1059.289	-3.54
1059.711	-3.94
1060.133	-7.14
1060.555	0.86
1060.976	-0.94
1061.398	-7.04
1061.82	-6.24
1062.241	-8.74
1062.663	-5.44
1063.085	-4.94
1063.506	-2.34
1063.928	-3.64
1064.35	-4.74
1064.771	-5.84
1065.193	-2.04
1065.614	-6.84
1066.035	-0.84
1066.457	-7.54
1066.878	-3.14
1067.3	-2.74
1067.721	-1.44
1068.142	-0.94
1068.564	-6.54
1068.985	-7.44
1069.406	-3.34
1069.827	-12.34
1070.248	-2.44
1070.67	-7.34
1071.091	-2.24
1071.512	-4.64
1071.933	-4.64
1072.354	-10.84
1072.775	-5.94
1073.196	-3.14
1073.617	-6.54
1074.038	-9.54
1074.459	-9.94
1074.88	-6.04
1075.3	-1.34
1075.721	-10.14
1076.142	2.46
1076.563	-7.64
1076.983	-8.24
1077.404	-10.04
1077.825	-10.04
1078.246	-8.74
1078.666	-9.14
1079.087	-0.54
1079.507	-2.24
1079.928	8.36
1080.348	-4.84
1080.769	-8.14
1081.189	-0.34
1081.61	-6.24
1082.03	-7.94
1082.451	-9.64
1082.871	-4.34
1083.291	-3.84
1083.711	-7.14
1084.132	-8.64
1084.552	-2.54
1084.972	-4.74
1085.392	-4.84
1085.813	-13.14
1086.233	-5.24
1086.653	-4.84
1087.073	-0.64
1087.493	-5.74
1087.913	-10.04
1088.333	-11.44
1088.753	-3.84
1089.173	4.26
1089.593	0.16
1090.013	2.36
1090.433	-4.94
1090.852	-7.94
1091.272	-5.44
1091.692	-3.24
1092.112	-5.34
1092.531	-10.54
1092.951	-16.34
1093.371	-6.84
1093.79	-4.24
1094.21	-6.74
1094.63	-5.34
1095.049	-2.24
1095.469	-3.04
1095.888	-2.04
1096.308	-0.24
1096.727	3.46
1097.146	-6.94
1097.566	-0.74
1097.985	-4.64
1098.405	-1.74
1098.824	-6.94
1099.243	-3.34
1099.662	-12.34
1100.082	-7.64
1100.501	-2.64
1100.92	-4.54
1101.339	0.26
1101.758	-2.64
