Data from 20171114-ORNL-Ar_H_NY_Subt18_08-07-35-804.txt Node
Date: Tue Nov 14 08:07:35 EST 2017
User: Ender
Spectrometer: HR+D1039
Trigger mode: 0
Integration Time (sec): 2.730000E-2
Scans to average: 10
Electric dark correction enabled: true
Nonlinearity correction enabled: false
Boxcar width: 0
XAxis mode: Wavelengths
Number of Pixels in Spectrum: 2048
>>>>>Begin Spectral Data<<<<<
187.836	-1.58
188.309	-1.58
188.782	-1.58
189.255	-0.68
189.728	-0.28
190.201	0.92
190.674	-0.98
191.147	2.52
191.619	-10.68
192.092	-2.38
192.565	2.02
193.038	1.72
193.511	3.42
193.984	2.82
194.456	-0.18
194.929	6.02
195.402	-3.28
195.874	0.62
196.347	-2.28
196.82	-6.78
197.292	2.62
197.765	-4.08
198.237	-2.38
198.71	-1.58
199.182	-7.38
199.655	-0.08
200.127	2.22
200.6	-3.58
201.072	-3.58
201.544	-5.18
202.017	-3.78
202.489	0.32
202.961	-10.48
203.433	-3.48
203.906	-8.88
204.378	-7.08
204.85	-2.28
205.322	-15.48
205.794	-4.28
206.266	-8.08
206.739	-15.18
207.211	1.22
207.683	-5.18
208.155	-5.28
208.627	-6.88
209.099	-3.58
209.57	-9.78
210.042	-6.88
210.514	-5.28
210.986	2.82
211.458	-13.48
211.93	-6.88
212.402	-0.68
212.873	-10.08
213.345	-12.78
213.817	-7.48
214.288	-4.18
214.76	-9.88
215.232	-4.48
215.703	-3.78
216.175	-4.38
216.646	-1.78
217.118	-11.88
217.589	-5.08
218.061	1.52
218.532	-1.98
219.004	-3.68
219.475	-3.88
219.946	-2.28
220.418	-2.18
220.889	-1.48
221.36	-1.38
221.832	4.02
222.303	-5.38
222.774	-0.98
223.245	-8.88
223.717	-4.48
224.188	-5.18
224.659	-10.88
225.13	-4.18
225.601	-2.88
226.072	4.22
226.543	-6.28
227.014	0.72
227.485	-5.48
227.956	-5.68
228.427	-2.78
228.898	-4.68
229.369	5.52
229.839	1.52
230.31	-8.48
230.781	3.22
231.252	-2.38
231.722	-4.38
232.193	-3.58
232.664	-1.28
233.135	-0.58
233.605	2.62
234.076	-10.28
234.546	-1.58
235.017	2.92
235.487	-6.68
235.958	-6.48
236.428	-1.08
236.899	7.12
237.369	0.82
237.84	-0.98
238.31	5.92
238.78	4.22
239.251	-2.18
239.721	2.92
240.191	-2.18
240.662	-1.48
241.132	2.22
241.602	-0.08
242.072	6.72
242.542	0.82
243.013	-4.88
243.483	3.62
243.953	-0.78
244.423	-6.08
244.893	0.12
245.363	3.12
245.833	-1.58
246.303	-7.08
246.773	4.82
247.243	-1.28
247.712	-0.08
248.182	6.92
248.652	2.92
249.122	-6.38
249.592	8.52
250.061	17.42
250.531	25.42
251.001	12.02
251.471	13.42
251.94	13.52
252.41	-0.18
252.879	-4.48
253.349	7.62
253.818	5.82
254.288	-1.28
254.757	-4.18
255.227	-2.88
255.696	1.82
256.166	7.82
256.635	7.32
257.105	2.32
257.574	5.72
258.043	6.32
258.513	10.72
258.982	10.72
259.451	6.32
259.92	10.02
260.389	10.72
260.859	20.62
261.328	3.22
261.797	14.02
262.266	2.82
262.735	6.12
263.204	1.72
263.673	-0.88
264.142	4.72
264.611	-8.78
265.08	0.02
265.549	-4.08
266.018	2.32
266.487	-7.88
266.955	1.22
267.424	-2.38
267.893	4.42
268.362	1.52
268.83	2.32
269.299	7.72
269.768	2.42
270.236	2.82
270.705	0.42
271.174	10.62
271.642	3.62
272.111	11.52
272.579	8.02
273.048	17.42
273.516	22.02
273.985	19.92
274.453	21.12
274.922	13.42
275.39	5.22
275.858	-2.58
276.327	13.02
276.795	17.92
277.263	8.32
277.731	28.12
278.2	44.52
278.668	49.02
279.136	31.02
279.604	10.92
280.072	7.92
280.54	10.12
281.008	6.22
281.477	13.02
281.945	8.22
282.413	7.32
282.881	14.82
283.348	2.42
283.816	15.42
284.284	3.92
284.752	12.02
285.22	3.52
285.688	10.92
286.156	13.72
286.623	39.82
287.091	43.02
287.559	21.82
288.026	13.62
288.494	4.62
288.962	3.02
289.429	3.72
289.897	12.22
290.364	10.92
290.832	12.22
291.3	9.92
291.767	5.52
292.234	17.32
292.702	5.52
293.169	9.52
293.637	18.22
294.104	18.32
294.571	5.02
295.039	13.52
295.506	3.42
295.973	7.42
296.44	9.72
296.908	13.72
297.375	14.02
297.842	12.62
298.309	15.12
298.776	10.42
299.243	9.62
299.71	8.82
300.177	13.62
300.644	16.62
301.111	17.42
301.578	12.72
302.045	5.22
302.512	15.92
302.979	15.42
303.446	13.82
303.913	12.62
304.379	9.92
304.846	25.72
305.313	18.82
305.78	20.12
306.246	16.62
306.713	17.72
307.18	21.42
307.646	23.42
308.113	24.12
308.579	15.22
309.046	18.52
309.512	24.82
309.979	12.32
310.445	20.42
310.912	24.32
311.378	24.52
311.845	24.72
312.311	25.82
312.777	25.12
313.244	21.52
313.71	25.02
314.176	21.22
314.642	27.62
315.109	23.02
315.575	26.82
316.041	29.72
316.507	27.22
316.973	30.02
317.439	22.92
317.905	30.02
318.371	29.52
318.837	22.92
319.303	26.22
319.769	26.92
320.235	24.62
320.701	29.52
321.167	24.32
321.633	26.02
322.099	34.92
322.564	33.52
323.03	38.22
323.496	34.42
323.962	31.12
324.427	32.52
324.893	41.82
325.359	33.72
325.824	33.22
326.29	27.42
326.755	26.22
327.221	33.52
327.686	31.22
328.152	41.22
328.617	36.32
329.083	36.22
329.548	39.22
330.014	36.22
330.479	31.32
330.944	35.32
331.41	34.32
331.875	41.22
332.34	33.42
332.805	33.12
333.271	41.02
333.736	35.32
334.201	44.22
334.666	41.22
335.131	38.32
335.596	41.02
336.061	45.32
336.526	35.52
336.991	42.22
337.456	47.42
337.921	40.72
338.386	39.92
338.851	35.72
339.316	40.72
339.781	41.12
340.246	45.22
340.711	39.62
341.175	42.42
341.64	41.12
342.105	47.92
342.569	49.52
343.034	51.12
343.499	51.02
343.963	42.52
344.428	57.92
344.893	48.62
345.357	45.22
345.822	51.02
346.286	54.92
346.751	58.12
347.215	55.52
347.679	63.72
348.144	83.42
348.608	70.32
349.073	60.72
349.537	64.12
350.001	64.22
350.465	74.32
350.93	64.72
351.394	69.42
351.858	67.02
352.322	73.12
352.786	66.12
353.25	85.52
353.715	90.32
354.179	83.22
354.643	104.52
355.107	104.02
355.571	85.12
356.035	90.02
356.498	93.52
356.962	107.82
357.426	105.62
357.89	97.92
358.354	83.12
358.818	68.92
359.281	67.32
359.745	64.22
360.209	71.22
360.673	66.82
361.136	66.92
361.6	70.62
362.064	66.42
362.527	73.62
362.991	81.52
363.454	69.02
363.918	60.82
364.381	65.22
364.845	69.22
365.308	76.02
365.772	76.52
366.235	80.92
366.698	67.32
367.162	73.22
367.625	77.62
368.088	75.72
368.552	81.72
369.015	78.12
369.478	86.82
369.941	90.22
370.404	87.22
370.867	100.02
371.331	98.32
371.794	97.92
372.257	94.42
372.72	101.52
373.183	96.52
373.646	93.92
374.109	90.92
374.572	93.42
375.035	101.62
375.497	95.42
375.96	97.02
376.423	86.22
376.886	100.12
377.349	95.72
377.811	96.72
378.274	84.62
378.737	94.62
379.199	97.22
379.662	104.52
380.125	105.82
380.587	104.22
381.05	109.32
381.512	118.72
381.975	123.42
382.437	119.82
382.9	117.62
383.362	123.42
383.825	125.32
384.287	132.22
384.75	128.62
385.212	130.82
385.674	120.42
386.136	124.32
386.599	109.72
387.061	117.02
387.523	118.02
387.985	118.72
388.447	130.82
388.91	135.62
389.372	141.32
389.834	137.22
390.296	126.82
390.758	137.72
391.22	152.82
391.682	196.42
392.144	271.32
392.606	215.22
393.068	154.52
393.529	159.72
393.991	139.12
394.453	133.72
394.915	136.82
395.377	172.82
395.838	202.92
396.3	148.12
396.762	127.62
397.224	126.62
397.685	115.22
398.147	121.72
398.608	123.02
399.07	115.02
399.531	127.92
399.993	126.12
400.454	143.32
400.916	136.52
401.377	133.82
401.839	135.12
402.3	142.12
402.762	154.22
403.223	169.22
403.684	164.72
404.145	146.82
404.607	148.92
405.068	152.12
405.529	152.62
405.99	173.42
406.451	159.52
406.913	154.82
407.374	157.42
407.835	155.12
408.296	155.92
408.757	171.32
409.218	163.12
409.679	170.92
410.14	161.72
410.601	173.02
411.062	173.62
411.522	179.02
411.983	181.52
412.444	165.42
412.905	171.82
413.366	173.92
413.826	185.82
414.287	203.22
414.748	244.52
415.208	231.82
415.669	199.92
416.13	196.92
416.59	190.22
417.051	204.62
417.511	206.62
417.972	228.42
418.432	228.02
418.893	272.92
419.353	237.72
419.814	183.32
420.274	171.72
420.734	164.42
421.195	190.12
421.655	189.92
422.115	181.72
422.576	183.42
423.036	187.72
423.496	191.92
423.956	202.22
424.416	217.72
424.876	250.22
425.336	238.32
425.797	246.32
426.257	237.32
426.717	226.62
427.177	218.62
427.637	211.72
428.097	212.92
428.556	231.92
429.016	256.42
429.476	246.62
429.936	266.92
430.396	268.02
430.856	269.12
431.315	304.12
431.775	338.12
432.235	360.62
432.694	337.12
433.154	344.22
433.614	371.02
434.073	322.42
434.533	273.72
434.993	255.42
435.452	268.32
435.912	280.02
436.371	277.02
436.83	271.72
437.29	248.82
437.749	237.02
438.209	230.62
438.668	258.82
439.127	275.52
439.587	245.62
440.046	228.62
440.505	252.02
440.964	263.12
441.424	298.62
441.883	294.32
442.342	245.72
442.801	217.82
443.26	215.62
443.719	210.42
444.178	211.12
444.637	200.82
445.096	210.82
445.555	207.52
446.014	216.82
446.473	212.32
446.932	219.72
447.391	215.82
447.849	217.22
448.308	207.52
448.767	207.72
449.226	225.62
449.685	222.52
450.143	230.52
450.602	225.32
451.061	220.32
451.519	224.92
451.978	225.02
452.436	220.72
452.895	226.72
453.353	239.22
453.812	234.62
454.27	231.12
454.729	230.62
455.187	232.82
455.646	237.12
456.104	240.52
456.562	244.92
457.021	255.02
457.479	245.02
457.937	255.92
458.395	255.92
458.854	236.72
459.312	253.12
459.77	262.02
460.228	244.82
460.686	229.52
461.144	232.22
461.602	241.42
462.06	236.52
462.518	243.32
462.976	243.12
463.434	249.52
463.892	247.82
464.35	262.02
464.808	276.02
465.266	252.02
465.724	257.52
466.181	257.92
466.639	261.72
467.097	279.42
467.555	288.42
468.012	286.32
468.47	298.52
468.928	314.12
469.385	328.02
469.843	329.32
470.3	335.22
470.758	344.22
471.215	372.22
471.673	397.02
472.13	388.92
472.588	393.02
473.045	361.92
473.503	357.22
473.96	381.22
474.417	391.92
474.875	415.02
475.332	462.72
475.789	438.22
476.246	448.92
476.704	467.72
477.161	491.42
477.618	498.62
478.075	544.12
478.532	597.32
478.989	658.02
479.446	763.32
479.903	746.52
480.36	776.22
480.817	843.72
481.274	918.32
481.731	1031.92
482.188	1123.92
482.645	1253.02
483.102	1359.62
483.558	1481.72
484.015	1540.92
484.472	1518.02
484.929	1475.12
485.385	1433.02
485.842	1381.72
486.299	1315.32
486.755	1253.92
487.212	1052.12
487.668	896.82
488.125	824.72
488.582	754.52
489.038	716.62
489.494	679.92
489.951	666.62
490.407	650.32
490.864	628.22
491.32	625.92
491.776	639.22
492.233	623.72
492.689	598.92
493.145	583.22
493.602	579.82
494.058	597.22
494.514	598.92
494.97	610.92
495.426	631.02
495.882	606.12
496.338	579.82
496.794	601.62
497.251	599.22
497.707	613.82
498.163	613.02
498.618	621.42
499.074	620.32
499.53	641.22
499.986	657.42
500.442	630.02
500.898	614.02
501.354	608.22
501.809	624.32
502.265	626.62
502.721	642.52
503.177	652.42
503.632	641.92
504.088	650.32
504.543	681.62
504.999	695.52
505.455	639.72
505.91	616.82
506.366	607.22
506.821	606.82
507.277	607.22
507.732	606.52
508.187	604.32
508.643	615.02
509.098	613.72
509.553	639.22
510.009	639.02
510.464	654.02
510.919	670.82
511.375	680.22
511.83	690.22
512.285	704.52
512.74	741.92
513.195	760.12
513.65	751.72
514.105	748.02
514.56	748.32
515.015	770.02
515.47	782.82
515.925	773.22
516.38	768.32
516.835	769.22
517.29	760.62
517.745	752.12
518.2	744.12
518.655	725.32
519.109	718.32
519.564	714.52
520.019	704.22
520.474	699.52
520.928	709.12
521.383	693.52
521.838	692.72
522.292	691.92
522.747	692.62
523.201	681.32
523.656	674.92
524.11	676.92
524.565	672.22
525.019	675.02
525.474	685.72
525.928	687.42
526.382	674.52
526.837	678.72
527.291	679.52
527.745	684.12
528.2	678.72
528.654	675.52
529.108	661.62
529.562	668.72
530.016	676.42
530.47	674.22
530.925	670.12
531.379	673.82
531.833	681.72
532.287	683.42
532.741	685.02
533.195	678.22
533.649	704.82
534.103	702.52
534.556	694.42
535.01	698.72
535.464	694.92
535.918	700.62
536.372	699.52
536.826	697.62
537.279	689.62
537.733	698.62
538.187	693.12
538.64	686.22
539.094	707.62
539.548	708.42
540.001	698.42
540.455	706.02
540.908	704.62
541.362	713.72
541.815	723.62
542.269	733.42
542.722	741.62
543.175	752.62
543.629	745.22
544.082	780.92
544.536	769.02
544.989	767.02
545.442	777.12
545.895	778.52
546.349	773.92
546.802	764.42
547.255	777.72
547.708	794.42
548.161	798.12
548.614	796.62
549.067	811.42
549.52	796.42
549.973	789.02
550.426	795.02
550.879	777.82
551.332	779.92
551.785	781.72
552.238	791.82
552.691	800.92
553.144	814.62
553.596	827.12
554.049	852.92
554.502	873.82
554.955	902.22
555.407	886.42
555.86	875.82
556.313	875.92
556.765	858.62
557.218	866.62
557.67	859.82
558.123	851.22
558.576	857.52
559.028	841.62
559.48	861.02
559.933	849.62
560.385	807.22
560.838	795.62
561.29	754.92
561.742	767.82
562.195	751.72
562.647	753.62
563.099	760.12
563.551	752.72
564.004	772.52
564.456	746.62
564.908	744.52
565.36	728.82
565.812	718.72
566.264	706.02
566.716	715.62
567.168	710.22
567.62	724.72
568.072	690.32
568.524	679.22
568.976	681.72
569.428	660.82
569.88	657.32
570.332	658.62
570.784	671.12
571.235	672.02
571.687	685.32
572.139	688.52
572.59	687.52
573.042	688.82
573.494	693.32
573.945	687.82
574.397	669.42
574.849	681.02
575.3	682.22
575.752	678.62
576.203	660.82
576.655	673.12
577.106	664.62
577.557	651.32
578.009	651.12
578.46	654.32
578.912	653.02
579.363	650.42
579.814	645.82
580.265	652.52
580.717	655.02
581.168	655.12
581.619	661.12
582.07	666.12
582.521	665.22
582.972	664.92
583.423	657.42
583.875	679.32
584.326	686.92
584.777	741.32
585.227	809.52
585.678	888.22
586.129	973.82
586.58	1048.82
587.031	1136.52
587.482	1278.52
587.933	1451.82
588.384	1260.62
588.834	955.62
589.285	798.82
589.736	770.62
590.186	764.82
590.637	749.92
591.088	736.12
591.538	729.52
591.989	718.62
592.439	719.02
592.89	706.12
593.34	700.12
593.791	699.92
594.241	683.72
594.692	700.12
595.142	685.32
595.593	696.42
596.043	699.22
596.493	702.22
596.943	699.62
597.394	707.42
597.844	702.02
598.294	727.82
598.744	741.22
599.195	759.22
599.645	804.52
600.095	846.62
600.545	911.32
600.995	949.62
601.445	1011.42
601.895	1061.42
602.345	1116.92
602.795	1095.52
603.245	1053.32
603.695	993.82
604.145	941.52
604.594	891.22
605.044	834.22
605.494	779.22
605.944	750.92
606.393	727.22
606.843	710.02
607.293	730.62
607.743	722.22
608.192	732.72
608.642	747.32
609.091	760.72
609.541	761.22
609.99	762.92
610.44	747.32
610.889	718.52
611.339	690.82
611.788	682.42
612.238	692.02
612.687	714.52
613.136	712.02
613.586	731.92
614.035	719.72
614.484	740.22
614.933	747.12
615.383	745.82
615.832	729.42
616.281	717.32
616.73	679.02
617.179	664.62
617.628	633.42
618.077	628.02
618.526	613.62
618.975	605.52
619.424	607.62
619.873	614.02
620.322	624.12
620.771	607.32
621.22	586.42
621.669	587.82
622.118	585.02
622.567	562.52
623.015	558.72
623.464	565.62
623.913	554.92
624.361	545.32
624.81	546.12
625.259	549.72
625.707	551.92
626.156	550.12
626.604	558.42
627.053	554.32
627.501	547.12
627.95	568.22
628.398	565.42
628.847	560.92
629.295	558.42
629.744	564.82
630.192	561.32
630.64	576.12
631.089	567.92
631.537	571.02
631.985	581.32
632.433	587.12
632.881	601.12
633.33	649.42
633.778	635.52
634.226	555.52
634.674	566.52
635.122	577.62
635.57	590.22
636.018	621.42
636.466	569.42
636.914	551.42
637.362	562.72
637.81	575.62
638.258	574.62
638.705	572.82
639.153	597.22
639.601	614.72
640.049	641.52
640.497	657.62
640.944	691.12
641.392	632.52
641.84	601.02
642.287	576.62
642.735	556.02
643.182	562.52
643.63	568.72
644.078	566.92
644.525	577.82
644.973	592.82
645.42	585.92
645.867	616.62
646.315	626.12
646.762	652.02
647.21	681.32
647.657	708.92
648.104	739.02
648.551	775.62
648.999	838.12
649.446	907.32
649.893	1001.02
650.34	1158.32
650.787	1394.12
651.234	1720.62
651.682	2256.92
652.129	3085.22
652.576	4447.62
653.023	6599.82
653.47	8971.42
653.917	11172.82
654.363	12851.22
654.81	14160.02
655.257	13458.32
655.704	8805.02
656.151	5208.72
656.598	3381.92
657.044	2387.52
657.491	1828.82
657.938	1466.12
658.385	1237.92
658.831	1075.82
659.278	958.82
659.724	840.92
660.171	781.32
660.618	724.82
661.064	681.52
661.511	663.62
661.957	642.22
662.404	637.02
662.85	645.92
663.296	614.12
663.743	559.92
664.189	532.52
664.635	533.52
665.082	515.92
665.528	524.52
665.974	514.52
666.42	498.62
666.867	500.22
667.313	483.32
667.759	473.92
668.205	473.62
668.651	474.82
669.097	478.52
669.543	491.02
669.989	465.32
670.435	445.92
670.881	439.92
671.327	457.42
671.773	461.82
672.219	483.02
672.665	541.42
673.11	579.82
673.556	617.72
674.002	659.12
674.448	645.52
674.893	542.12
675.339	473.32
675.785	425.22
676.23	411.62
676.676	386.52
677.122	375.12
677.567	368.32
678.013	364.32
678.458	351.92
678.904	352.52
679.349	345.12
679.794	349.62
680.24	347.02
680.685	340.52
681.131	346.82
681.576	344.22
682.021	347.82
682.466	339.52
682.912	336.52
683.357	350.32
683.802	378.82
684.247	398.32
684.692	448.52
685.137	482.02
685.583	530.22
686.028	550.92
686.473	509.92
686.918	445.52
687.363	409.62
687.807	387.42
688.252	365.02
688.697	344.32
689.142	329.92
689.587	326.62
690.032	324.42
690.477	338.02
690.921	348.92
691.366	378.72
691.811	390.92
692.255	427.32
692.7	457.52
693.145	497.32
693.589	704.32
694.034	1121.22
694.478	1525.02
694.923	1708.72
695.367	2224.72
695.812	1173.32
696.256	493.62
696.701	369.82
697.145	336.82
697.59	326.42
698.034	318.92
698.478	329.42
698.922	323.12
699.367	325.62
699.811	334.02
700.255	356.22
700.699	383.42
701.143	417.32
701.588	469.22
702.032	516.82
702.476	508.22
702.92	478.92
703.364	489.82
703.808	636.12
704.252	1036.22
704.696	1458.72
705.14	1654.52
705.584	2091.82
706.027	1049.32
706.471	517.52
706.915	389.72
707.359	341.82
707.803	322.62
708.246	311.12
708.69	308.72
709.134	308.02
709.577	305.42
710.021	314.02
710.465	297.62
710.908	296.52
711.352	302.62
711.795	307.22
712.239	348.62
712.682	381.42
713.126	410.62
713.569	455.32
714.012	369.62
714.456	319.62
714.899	297.92
715.342	267.82
715.786	262.42
716.229	252.22
716.672	255.32
717.115	249.32
717.558	249.42
718.002	253.42
718.445	250.12
718.888	286.32
719.331	285.12
719.774	300.02
720.217	302.12
720.66	287.82
721.103	263.92
721.546	249.52
721.989	250.02
722.432	226.12
722.874	236.12
723.317	229.72
723.76	229.62
724.203	253.52
724.645	317.12
725.088	441.42
725.531	568.42
725.974	632.72
726.416	538.22
726.859	304.62
727.301	244.82
727.744	236.02
728.187	226.62
728.629	235.32
729.071	242.32
729.514	261.12
729.956	269.72
730.399	273.52
730.841	289.32
731.283	270.32
731.726	260.72
732.168	261.52
732.61	267.92
733.053	286.62
733.495	313.82
733.937	347.92
734.379	401.82
734.821	435.92
735.263	540.32
735.705	842.42
736.148	1594.22
736.59	2546.22
737.032	2987.82
737.474	2429.92
737.916	797.02
738.357	428.92
738.799	331.42
739.241	299.02
739.683	276.12
740.125	285.02
740.567	295.42
741.008	312.22
741.45	315.62
741.892	320.12
742.334	339.12
742.775	353.12
743.217	331.62
743.658	269.82
744.1	253.22
744.542	259.92
744.983	302.92
745.425	334.62
745.866	334.12
746.307	281.52
746.749	287.22
747.19	319.02
747.632	457.22
748.073	898.72
748.514	1872.32
748.956	2824.42
749.397	3529.72
749.838	2935.22
750.279	2895.62
750.72	1473.22
751.162	541.12
751.603	316.92
752.044	255.92
752.485	212.22
752.926	208.02
753.367	195.72
753.808	184.62
754.249	185.92
754.69	181.22
755.131	184.32
755.572	184.82
756.013	174.02
756.453	183.72
756.894	182.62
757.335	189.82
757.776	189.62
758.216	185.72
758.657	192.52
759.098	200.72
759.538	222.12
759.979	262.82
760.42	373.82
760.86	715.92
761.301	1856.42
761.741	4417.22
762.182	6277.32
762.622	4399.32
763.063	1301.22
763.503	534.62
763.943	345.02
764.384	331.62
764.824	391.12
765.264	420.02
765.705	294.72
766.145	207.32
766.585	182.62
767.025	170.82
767.465	188.82
767.906	240.62
768.346	308.62
768.786	333.42
769.226	257.12
769.666	317.32
770.106	625.12
770.546	1567.32
770.986	2607.12
771.426	2314.52
771.866	778.62
772.306	321.92
772.745	205.22
773.185	174.52
773.625	165.42
774.065	160.72
774.505	201.22
774.944	305.82
775.384	678.22
775.824	1192.82
776.263	1157.82
776.703	499.42
777.142	216.82
777.582	156.62
778.021	137.42
778.461	141.52
778.9	136.12
779.34	141.32
779.779	117.92
780.219	106.62
780.658	109.42
781.097	111.62
781.537	115.52
781.976	109.22
782.415	105.02
782.855	99.42
783.294	103.02
783.733	104.52
784.172	112.42
784.611	101.62
785.05	104.22
785.489	114.92
785.928	113.82
786.367	122.32
786.806	122.02
787.245	131.72
787.684	133.92
788.123	144.22
788.562	132.42
789.001	124.32
789.44	118.92
789.879	115.72
790.317	121.72
790.756	134.22
791.195	127.12
791.634	151.02
792.072	201.52
792.511	371.12
792.95	1018.62
793.388	2109.12
793.827	1885.22
794.265	664.22
794.704	273.72
795.142	181.72
795.581	146.72
796.019	134.82
796.458	130.72
796.896	122.62
797.334	128.82
797.773	153.42
798.211	220.52
798.649	455.72
799.087	1016.52
799.526	1587.62
799.964	1998.42
800.402	1963.42
800.84	745.62
801.278	306.82
801.716	186.12
802.154	148.02
802.592	141.72
803.03	135.32
803.468	131.92
803.906	145.12
804.344	142.52
804.782	138.72
805.22	134.32
805.658	128.22
806.096	150.22
806.533	156.92
806.971	173.32
807.409	210.72
807.847	321.42
808.284	668.12
808.722	1878.02
809.16	3239.92
809.597	3125.52
810.035	5405.72
810.472	5627.12
810.91	2051.22
811.347	783.92
811.785	397.92
812.222	254.62
812.66	194.22
813.097	163.32
813.535	136.92
813.972	133.82
814.409	121.22
814.846	110.42
815.284	103.32
815.721	101.72
816.158	106.82
816.595	121.22
817.032	181.02
817.47	193.62
817.907	154.92
818.344	148.12
818.781	115.52
819.218	97.92
819.655	122.12
820.092	178.12
820.529	207.12
820.966	173.62
821.403	131.72
821.839	110.82
822.276	103.52
822.713	117.12
823.15	129.72
823.587	115.22
824.023	140.82
824.46	301.92
824.897	890.42
825.333	1319.62
825.77	564.22
826.206	220.82
826.643	131.92
827.08	98.02
827.516	81.02
827.953	72.92
828.389	81.02
828.825	69.22
829.262	67.62
829.698	60.52
830.135	65.32
830.571	67.82
831.007	62.32
831.443	58.72
831.88	62.12
832.316	57.52
832.752	62.02
833.188	65.72
833.624	62.62
834.06	62.12
834.497	66.72
834.933	71.52
835.369	73.32
835.805	67.92
836.241	73.82
836.677	78.12
837.112	90.22
837.548	103.32
837.984	133.32
838.42	200.22
838.856	498.82
839.292	1517.32
839.727	2258.52
840.163	1056.62
840.599	929.82
841.034	2012.22
841.47	2074.12
841.906	763.12
842.341	335.12
842.777	228.52
843.212	316.42
843.648	300.32
844.083	148.32
844.519	96.62
844.954	78.02
845.39	55.92
845.825	53.82
846.261	62.52
846.696	47.22
847.131	56.62
847.566	52.62
848.002	56.02
848.437	53.92
848.872	58.92
849.307	64.12
849.742	86.72
850.177	182.02
850.613	554.42
851.048	862.82
851.483	373.62
851.918	158.02
852.353	84.12
852.788	61.42
853.223	59.32
853.657	53.12
854.092	47.82
854.527	40.52
854.962	43.52
855.397	40.02
855.832	50.92
856.266	34.72
856.701	37.12
857.136	32.12
857.57	38.82
858.005	51.72
858.44	53.62
858.874	41.32
859.309	47.52
859.743	40.52
860.178	43.42
860.612	40.82
861.047	46.62
861.481	62.02
861.915	69.52
862.35	50.62
862.784	37.72
863.218	42.42
863.653	39.42
864.087	47.22
864.521	52.22
864.955	65.12
865.39	152.92
865.824	176.12
866.258	116.52
866.692	165.02
867.126	167.82
867.56	103.22
867.994	48.12
868.428	37.32
868.862	50.62
869.296	48.02
869.73	48.92
870.164	53.12
870.598	43.72
871.031	34.42
871.465	28.22
871.899	27.12
872.333	21.22
872.766	20.42
873.2	24.32
873.634	28.82
874.067	21.22
874.501	27.02
874.935	37.52
875.368	27.92
875.802	29.82
876.235	28.62
876.669	31.62
877.102	26.82
877.535	29.32
877.969	20.42
878.402	26.72
878.836	20.22
879.269	21.82
879.702	23.92
880.135	23.52
880.569	15.12
881.002	21.42
881.435	16.62
881.868	17.42
882.301	22.62
882.734	15.92
883.167	23.12
883.601	15.72
884.034	20.42
884.467	11.42
884.899	20.52
885.332	16.52
885.765	11.62
886.198	16.42
886.631	16.22
887.064	18.92
887.497	19.82
887.929	20.52
888.362	14.82
888.795	15.02
889.228	16.62
889.66	24.12
890.093	23.12
890.526	13.62
890.958	17.32
891.391	20.72
891.823	23.12
892.256	13.02
892.688	15.32
893.121	14.72
893.553	6.92
893.985	22.52
894.418	10.52
894.85	7.92
895.282	14.12
895.715	16.92
896.147	16.32
896.579	19.32
897.011	11.92
897.444	17.62
897.876	14.02
898.308	9.12
898.74	16.12
899.172	4.42
899.604	23.32
900.036	23.62
900.468	15.82
900.9	16.02
901.332	17.32
901.764	12.92
902.196	17.32
902.628	16.52
903.06	17.22
903.491	28.52
903.923	19.82
904.355	25.42
904.787	27.12
905.218	21.12
905.65	20.02
906.082	8.62
906.513	7.02
906.945	10.82
907.376	10.02
907.808	17.92
908.239	24.12
908.671	22.42
909.102	16.62
909.534	22.02
909.965	45.12
910.397	89.32
910.828	312.52
911.259	466.42
911.691	213.42
912.122	105.02
912.553	51.12
912.984	34.12
913.415	17.82
913.847	25.32
914.278	17.12
914.709	8.02
915.14	16.82
915.571	16.82
916.002	13.82
916.433	23.52
916.864	15.52
917.295	18.12
917.726	18.42
918.157	14.42
918.587	27.02
919.018	23.42
919.449	23.12
919.88	21.92
920.311	31.42
920.741	49.02
921.172	163.52
921.603	144.62
922.033	69.72
922.464	46.22
922.895	22.72
923.325	20.22
923.756	16.82
924.186	15.22
924.617	27.52
925.047	39.02
925.478	50.92
925.908	42.32
926.338	21.52
926.769	19.22
927.199	14.22
927.629	7.22
928.06	11.42
928.49	10.72
928.92	15.62
929.35	13.12
929.78	15.22
930.21	8.32
930.641	13.32
931.071	10.42
931.501	-0.78
931.931	9.62
932.361	10.92
932.791	0.82
933.221	9.12
933.651	3.52
934.08	17.52
934.51	29.32
934.94	5.92
935.37	8.42
935.8	10.62
936.229	5.92
936.659	8.92
937.089	5.82
937.519	18.02
937.948	21.12
938.378	24.12
938.807	3.22
939.237	6.22
939.666	5.62
940.096	1.32
940.525	2.32
940.955	8.62
941.384	4.22
941.814	-6.18
942.243	-1.38
942.672	-0.88
943.102	-5.88
943.531	4.42
943.96	8.62
944.39	-1.48
944.819	1.72
945.248	2.82
945.677	1.02
946.106	4.02
946.535	0.22
946.964	-0.08
947.393	0.22
947.822	-0.88
948.251	-6.28
948.68	6.42
949.109	2.62
949.538	0.92
949.967	-1.18
950.396	1.22
950.825	-5.48
951.254	-5.58
951.682	-3.28
952.111	2.72
952.54	3.62
952.969	-1.68
953.397	-9.68
953.826	6.12
954.254	-8.78
954.683	0.02
955.112	-7.68
955.54	-0.18
955.969	-2.08
956.397	1.82
956.826	-6.98
957.254	5.52
957.682	0.22
958.111	0.62
958.539	-3.28
958.967	0.02
959.396	5.22
959.824	2.92
960.252	-0.38
960.68	-4.78
961.109	-0.28
961.537	-8.48
961.965	-0.88
962.393	-3.78
962.821	-0.38
963.249	1.52
963.677	2.82
964.105	1.72
964.533	44.02
964.961	43.82
965.389	19.62
965.817	12.82
966.245	5.02
966.672	-0.98
967.1	-12.78
967.528	-0.38
967.956	1.62
968.383	2.42
968.811	-4.38
969.239	-3.28
969.666	-5.38
970.094	1.62
970.522	1.22
970.949	-2.78
971.377	-4.18
971.804	-4.08
972.232	-6.38
972.659	-4.08
973.087	-3.68
973.514	-4.58
973.941	-3.58
974.369	-5.68
974.796	-4.98
975.223	-4.68
975.651	4.52
976.078	3.12
976.505	0.02
976.932	1.02
977.359	13.62
977.786	12.82
978.214	-3.88
978.641	2.22
979.068	-6.28
979.495	-0.38
979.922	-6.38
980.349	-8.38
980.776	-2.58
981.202	2.52
981.629	6.92
982.056	3.62
982.483	-9.08
982.91	3.52
983.337	-9.38
983.763	3.62
984.19	-7.68
984.617	-6.08
985.043	-6.88
985.47	-1.98
985.897	-9.68
986.323	-10.28
986.75	1.82
987.176	-3.88
987.603	-1.58
988.029	-1.68
988.456	-1.18
988.882	-2.78
989.308	-9.58
989.735	-7.08
990.161	3.72
990.587	-3.08
991.014	0.12
991.44	0.82
991.866	2.92
992.292	-4.88
992.719	-8.48
993.145	1.22
993.571	-10.58
993.997	0.62
994.423	-0.98
994.849	-6.98
995.275	4.12
995.701	-5.08
996.127	2.72
996.553	4.92
996.979	-1.38
997.405	-2.28
997.83	-5.98
998.256	-1.68
998.682	-5.28
999.108	-13.68
999.534	-4.68
999.959	1.02
1000.385	-6.28
1000.811	4.02
1001.236	-10.78
1001.662	-10.28
1002.087	-11.68
1002.513	-2.88
1002.938	5.52
1003.364	-0.38
1003.789	-1.58
1004.215	4.32
1004.64	-5.68
1005.066	-2.08
1005.491	4.72
1005.916	-1.88
1006.342	-4.88
1006.767	-8.28
1007.192	2.12
1007.617	-9.68
1008.042	-6.78
1008.468	-8.98
1008.893	-0.68
1009.318	-3.78
1009.743	-5.28
1010.168	0.42
1010.593	-4.48
1011.018	-9.18
1011.443	-5.08
1011.868	-2.58
1012.293	-7.88
1012.718	-2.38
1013.143	-0.28
1013.567	-6.98
1013.992	-2.78
1014.417	-7.98
1014.842	0.32
1015.267	-5.38
1015.691	-5.48
1016.116	3.02
1016.541	-1.08
1016.965	1.42
1017.39	3.82
1017.814	-2.18
1018.239	-2.98
1018.663	-12.08
1019.088	-11.78
1019.512	-3.78
1019.937	0.92
1020.361	-9.88
1020.785	-11.38
1021.21	-3.98
1021.634	-0.58
1022.058	1.92
1022.483	-0.58
1022.907	-7.58
1023.331	-3.38
1023.755	-2.18
1024.179	-6.38
1024.604	-4.18
1025.028	-7.78
1025.452	-1.48
1025.876	-1.78
1026.3	10.92
1026.724	-10.48
1027.148	-0.08
1027.572	-7.68
1027.996	-7.08
1028.42	-4.08
1028.843	-0.88
1029.267	-3.38
1029.691	-0.68
1030.115	-6.48
1030.539	-12.38
1030.962	-6.08
1031.386	-12.18
1031.81	-3.08
1032.233	-1.48
1032.657	-1.68
1033.08	-3.58
1033.504	-6.98
1033.927	-3.18
1034.351	-6.88
1034.774	-8.18
1035.198	-0.58
1035.621	-11.48
1036.045	-6.28
1036.468	-2.48
1036.891	-7.48
1037.315	-10.48
1037.738	-11.08
1038.161	1.32
1038.584	-3.38
1039.008	-5.48
1039.431	-7.58
1039.854	-6.08
1040.277	-13.08
1040.7	-12.88
1041.123	-6.58
1041.546	-8.08
1041.969	-7.38
1042.392	-8.48
1042.815	-3.98
1043.238	1.02
1043.661	-1.38
1044.084	-14.28
1044.507	-4.68
1044.93	-10.88
1045.352	-3.18
1045.775	-3.58
1046.198	-5.28
1046.621	-4.68
1047.043	-0.28
1047.466	2.32
1047.889	-15.18
1048.311	-7.28
1048.734	-5.48
1049.156	-5.98
1049.579	-1.58
1050.001	-6.78
1050.424	-0.58
1050.846	-2.08
1051.269	-5.98
1051.691	-11.58
1052.113	-7.48
1052.536	-0.18
1052.958	-5.28
1053.38	-9.28
1053.802	-8.28
1054.225	-0.38
1054.647	-11.68
1055.069	-5.58
1055.491	0.92
1055.913	-12.68
1056.335	-4.18
1056.757	-1.78
1057.179	-6.28
1057.601	-4.48
1058.023	-5.78
1058.445	-8.28
1058.867	-6.68
1059.289	-2.08
1059.711	-7.38
1060.133	0.02
1060.555	-13.28
1060.976	-11.98
1061.398	-8.68
1061.82	-0.78
1062.241	-5.08
1062.663	-10.48
1063.085	-8.38
1063.506	-3.88
1063.928	-4.38
1064.35	0.82
1064.771	-12.08
1065.193	-3.88
1065.614	-7.48
1066.035	-1.18
1066.457	-7.18
1066.878	0.62
1067.3	-7.58
1067.721	-6.88
1068.142	-4.28
1068.564	-11.78
1068.985	-4.08
1069.406	-6.78
1069.827	-10.68
1070.248	-3.98
1070.67	-5.38
1071.091	-7.98
1071.512	-6.48
1071.933	-5.68
1072.354	-10.68
1072.775	-5.38
1073.196	-4.68
1073.617	-3.68
1074.038	-10.18
1074.459	-5.58
1074.88	-9.88
1075.3	-0.88
1075.721	-4.98
1076.142	-3.48
1076.563	-6.08
1076.983	-8.68
1077.404	-11.18
1077.825	-13.88
1078.246	-6.88
1078.666	-10.48
1079.087	-6.78
1079.507	-8.08
1079.928	-4.28
1080.348	0.72
1080.769	-11.78
1081.189	-2.68
1081.61	-3.78
1082.03	-6.98
1082.451	-9.58
1082.871	-11.48
1083.291	-5.38
1083.711	-9.98
1084.132	-8.18
1084.552	-6.78
1084.972	-8.08
1085.392	-9.18
1085.813	-13.18
1086.233	-13.48
1086.653	-11.98
1087.073	-6.08
1087.493	-7.58
1087.913	-3.28
1088.333	-5.38
1088.753	-3.78
1089.173	1.12
1089.593	-5.28
1090.013	-3.28
1090.433	-1.88
1090.852	-4.48
1091.272	-0.58
1091.692	-4.68
1092.112	-3.08
1092.531	-10.68
1092.951	-18.88
1093.371	-8.48
1093.79	-1.98
1094.21	-3.68
1094.63	-3.78
1095.049	-7.78
1095.469	-0.58
1095.888	-1.78
1096.308	3.72
1096.727	2.52
1097.146	-10.48
1097.566	-6.88
1097.985	-5.78
1098.405	-3.68
1098.824	-5.88
1099.243	-2.98
1099.662	-7.38
1100.082	-4.68
1100.501	1.22
1100.92	-5.58
1101.339	-5.38
1101.758	-5.18
