Data from 20171114-ORNL-Ar_H_NY_Subt18_08-07-34-165.txt Node
Date: Tue Nov 14 08:07:34 EST 2017
User: Ender
Spectrometer: HR+D1039
Trigger mode: 0
Integration Time (sec): 2.730000E-2
Scans to average: 10
Electric dark correction enabled: true
Nonlinearity correction enabled: false
Boxcar width: 0
XAxis mode: Wavelengths
Number of Pixels in Spectrum: 2048
>>>>>Begin Spectral Data<<<<<
187.836	-7.67
188.309	-7.67
188.782	-7.67
189.255	3.52
189.728	2.03
190.201	6.53
190.674	1.62
191.147	5.62
191.619	-6.38
192.092	4.53
192.565	0.52
193.038	-1.67
193.511	-1.47
193.984	-3.07
194.456	-2.37
194.929	-3.47
195.402	-1.17
195.874	2.93
196.347	0.83
196.82	-4.47
197.292	3.03
197.765	-1.77
198.237	-5.37
198.71	4.83
199.182	-3.37
199.655	3.73
200.127	-4.77
200.6	-1.67
201.072	1.62
201.544	-5.77
202.017	-11.97
202.489	-0.97
202.961	-7.97
203.433	-6.27
203.906	-6.77
204.378	-14.47
204.85	-5.88
205.322	-5.88
205.794	-3.98
206.266	-3.17
206.739	-3.37
207.211	-0.17
207.683	-11.47
208.155	-7.27
208.627	-10.97
209.099	-7.27
209.57	-7.07
210.042	-8.17
210.514	-3.07
210.986	-4.37
211.458	-6.47
211.93	-4.17
212.402	0.12
212.873	-11.27
213.345	-6.87
213.817	-11.38
214.288	-3.27
214.76	-8.57
215.232	-3.97
215.703	-3.47
216.175	-4.87
216.646	-4.97
217.118	-11.38
217.589	-6.47
218.061	-4.67
218.532	-7.37
219.004	-2.67
219.475	-4.57
219.946	-2.77
220.418	-3.97
220.889	0.83
221.36	3.03
221.832	0.43
222.303	-11.47
222.774	-5.67
223.245	-9.77
223.717	-7.38
224.188	-4.77
224.659	-11.88
225.13	-7.57
225.601	-8.57
226.072	-4.77
226.543	-5.57
227.014	-4.57
227.485	-3.57
227.956	-7.57
228.427	-3.77
228.898	-0.37
229.369	3.62
229.839	-8.27
230.31	-9.27
230.781	-0.67
231.252	-4.47
231.722	-5.48
232.193	-7.87
232.664	-4.57
233.135	-2.88
233.605	1.73
234.076	-8.17
234.546	-4.98
235.017	3.03
235.487	-0.97
235.958	0.23
236.428	-4.67
236.899	-3.37
237.369	-1.47
237.84	1.23
238.31	-0.27
238.78	-2.67
239.251	-3.17
239.721	1.13
240.191	-2.97
240.662	-2.37
241.132	-3.97
241.602	-6.67
242.072	1.93
242.542	2.53
243.013	-8.77
243.483	5.73
243.953	7.93
244.423	-4.37
244.893	-3.47
245.363	-4.07
245.833	1.73
246.303	2.03
246.773	3.43
247.243	2.93
247.712	-1.17
248.182	2.23
248.652	2.93
249.122	-7.48
249.592	8.83
250.061	15.53
250.531	22.73
251.001	2.53
251.471	17.33
251.94	17.73
252.41	2.13
252.879	0.13
253.349	9.33
253.818	8.43
254.288	-0.57
254.757	7.33
255.227	1.13
255.696	1.53
256.166	-4.47
256.635	3.83
257.105	6.83
257.574	5.23
258.043	4.93
258.513	3.33
258.982	9.53
259.451	8.33
259.92	11.73
260.389	7.63
260.859	11.23
261.328	10.93
261.797	7.63
262.266	8.03
262.735	12.63
263.204	0.83
263.673	-2.97
264.142	1.93
264.611	-4.27
265.08	-2.47
265.549	1.13
266.018	-1.27
266.487	-2.77
266.955	-7.67
267.424	-0.47
267.893	7.43
268.362	3.33
268.83	-0.87
269.299	6.03
269.768	0.23
270.236	4.93
270.705	-4.67
271.174	1.53
271.642	6.23
272.111	5.43
272.579	12.52
273.048	18.23
273.516	26.23
273.985	22.33
274.453	19.23
274.922	20.83
275.39	11.12
275.858	-3.27
276.327	7.63
276.795	17.93
277.263	6.23
277.731	20.02
278.2	42.12
278.668	46.13
279.136	40.63
279.604	14.13
280.072	8.63
280.54	8.93
281.008	6.73
281.477	8.43
281.945	9.33
282.413	10.12
282.881	12.93
283.348	0.13
283.816	11.62
284.284	8.53
284.752	17.52
285.22	10.33
285.688	10.73
286.156	13.03
286.623	38.33
287.091	37.33
287.559	22.53
288.026	9.13
288.494	13.33
288.962	1.73
289.429	4.23
289.897	10.93
290.364	8.93
290.832	13.13
291.3	10.43
291.767	11.83
292.234	15.23
292.702	3.93
293.169	13.63
293.637	20.33
294.104	16.73
294.571	2.93
295.039	6.62
295.506	12.33
295.973	14.23
296.44	11.23
296.908	11.53
297.375	8.13
297.842	16.33
298.309	11.93
298.776	8.23
299.243	12.83
299.71	4.83
300.177	18.83
300.644	17.63
301.111	23.33
301.578	19.73
302.045	7.73
302.512	19.33
302.979	23.23
303.446	12.03
303.913	16.63
304.379	9.13
304.846	18.63
305.313	18.83
305.78	14.33
306.246	22.73
306.713	19.02
307.18	23.13
307.646	22.33
308.113	20.12
308.579	12.93
309.046	17.13
309.512	20.93
309.979	11.52
310.445	22.53
310.912	20.33
311.378	31.33
311.845	23.73
312.311	24.13
312.777	22.33
313.244	25.93
313.71	30.63
314.176	23.83
314.642	18.13
315.109	24.53
315.575	25.83
316.041	35.93
316.507	28.52
316.973	27.43
317.439	27.23
317.905	26.23
318.371	29.83
318.837	30.93
319.303	30.53
319.769	21.93
320.235	26.03
320.701	29.12
321.167	31.33
321.633	27.73
322.099	30.23
322.564	41.53
323.03	29.83
323.496	26.63
323.962	32.53
324.427	25.93
324.893	35.52
325.359	33.12
325.824	25.03
326.29	27.23
326.755	31.62
327.221	35.02
327.686	26.93
328.152	36.63
328.617	38.83
329.083	38.73
329.548	41.33
330.014	38.73
330.479	32.52
330.944	38.62
331.41	32.73
331.875	34.23
332.34	41.63
332.805	33.43
333.271	39.73
333.736	30.73
334.201	42.73
334.666	44.73
335.131	48.83
335.596	37.73
336.061	39.53
336.526	31.62
336.991	29.73
337.456	47.73
337.921	37.33
338.386	36.03
338.851	36.52
339.316	36.93
339.781	33.63
340.246	45.43
340.711	37.23
341.175	44.53
341.64	28.93
342.105	38.73
342.569	40.23
343.034	52.73
343.499	43.83
343.963	39.23
344.428	51.43
344.893	50.52
345.357	41.73
345.822	48.02
346.286	51.43
346.751	55.33
347.215	49.63
347.679	60.13
348.144	76.23
348.608	66.33
349.073	61.53
349.537	56.33
350.001	60.53
350.465	69.53
350.93	65.33
351.394	66.53
351.858	56.33
352.322	71.53
352.786	70.33
353.25	85.93
353.715	86.23
354.179	82.83
354.643	98.73
355.107	101.93
355.571	79.93
356.035	85.33
356.498	91.33
356.962	98.02
357.426	104.52
357.89	98.03
358.354	75.23
358.818	63.43
359.281	66.63
359.745	66.93
360.209	70.23
360.673	62.93
361.136	70.33
361.6	72.52
362.064	71.73
362.527	68.83
362.991	73.13
363.454	70.33
363.918	67.53
364.381	66.62
364.845	66.93
365.308	70.33
365.772	70.83
366.235	73.03
366.698	75.23
367.162	72.52
367.625	74.62
368.088	69.53
368.552	73.43
369.015	67.93
369.478	83.03
369.941	83.03
370.404	76.12
370.867	93.12
371.331	91.43
371.794	100.83
372.257	96.43
372.72	98.83
373.183	102.63
373.646	89.63
374.109	88.53
374.572	99.83
375.035	95.73
375.497	94.02
375.96	96.43
376.423	89.93
376.886	97.43
377.349	86.53
377.811	85.93
378.274	88.23
378.737	90.73
379.199	93.03
379.662	97.83
380.125	100.03
380.587	99.33
381.05	109.93
381.512	112.33
381.975	123.33
382.437	114.73
382.9	109.03
383.362	113.93
383.825	127.23
384.287	130.23
384.75	130.83
385.212	121.02
385.674	122.33
386.136	127.33
386.599	113.12
387.061	115.63
387.523	116.73
387.985	116.12
388.447	128.12
388.91	121.53
389.372	143.93
389.834	144.33
390.296	127.73
390.758	138.03
391.22	157.33
391.682	193.03
392.144	284.23
392.606	219.93
393.068	150.93
393.529	151.02
393.991	128.33
394.453	135.53
394.915	141.02
395.377	178.43
395.838	202.83
396.3	144.03
396.762	125.73
397.224	122.62
397.685	116.43
398.147	119.13
398.608	115.33
399.07	109.13
399.531	120.53
399.993	125.73
400.454	134.53
400.916	130.23
401.377	123.83
401.839	137.12
402.3	136.23
402.762	146.43
403.223	161.43
403.684	157.93
404.145	145.33
404.607	150.13
405.068	148.73
405.529	152.23
405.99	171.83
406.451	158.73
406.913	155.23
407.374	144.33
407.835	144.73
408.296	148.43
408.757	162.63
409.218	168.73
409.679	157.33
410.14	159.13
410.601	156.73
411.062	167.13
411.522	182.63
411.983	172.12
412.444	158.53
412.905	165.73
413.366	164.33
413.826	174.63
414.287	194.53
414.748	239.73
415.208	220.02
415.669	186.02
416.13	196.02
416.59	188.62
417.051	202.02
417.511	201.73
417.972	219.63
418.432	220.12
418.893	259.83
419.353	229.93
419.814	183.93
420.274	172.23
420.734	175.12
421.195	181.12
421.655	177.83
422.115	174.93
422.576	177.52
423.036	189.93
423.496	186.53
423.956	200.33
424.416	214.32
424.876	244.93
425.336	241.63
425.797	241.63
426.257	239.33
426.717	225.03
427.177	216.93
427.637	205.33
428.097	216.52
428.556	224.12
429.016	245.23
429.476	244.33
429.936	250.03
430.396	254.03
430.856	269.02
431.315	288.32
431.775	324.02
432.235	355.62
432.694	325.93
433.154	330.93
433.614	363.13
434.073	305.63
434.533	263.93
434.993	249.73
435.452	265.53
435.912	270.93
436.371	266.43
436.83	261.03
437.29	254.23
437.749	232.93
438.209	226.53
438.668	240.92
439.127	262.53
439.587	247.43
440.046	228.03
440.505	247.03
440.964	256.32
441.424	297.63
441.883	290.93
442.342	247.63
442.801	217.12
443.26	205.03
443.719	210.93
444.178	208.23
444.637	199.73
445.096	205.83
445.555	213.83
446.014	214.33
446.473	219.93
446.932	217.93
447.391	208.73
447.849	209.13
448.308	201.12
448.767	209.33
449.226	223.93
449.685	214.83
450.143	231.12
450.602	224.93
451.061	215.83
451.519	218.43
451.978	216.62
452.436	219.23
452.895	219.23
453.353	237.63
453.812	225.83
454.27	227.12
454.729	221.13
455.187	231.83
455.646	228.83
456.104	232.53
456.562	252.73
457.021	246.73
457.479	247.53
457.937	254.83
458.395	245.93
458.854	240.53
459.312	240.12
459.77	259.33
460.228	236.82
460.686	223.83
461.144	231.92
461.602	231.52
462.06	228.93
462.518	240.83
462.976	238.13
463.434	239.83
463.892	246.12
464.35	261.63
464.808	271.73
465.266	246.23
465.724	253.33
466.181	252.93
466.639	244.53
467.097	272.62
467.555	284.23
468.012	288.53
468.47	295.33
468.928	309.73
469.385	327.43
469.843	322.23
470.3	328.23
470.758	340.43
471.215	363.23
471.673	388.23
472.13	382.83
472.588	394.43
473.045	347.83
473.503	356.53
473.96	369.42
474.417	379.83
474.875	414.93
475.332	449.43
475.789	432.23
476.246	447.32
476.704	464.43
477.161	483.23
477.618	503.03
478.075	533.23
478.532	581.12
478.989	655.23
479.446	757.13
479.903	739.73
480.36	776.53
480.817	828.13
481.274	919.42
481.731	1019.03
482.188	1106.62
482.645	1229.33
483.102	1331.83
483.558	1460.33
484.015	1517.03
484.472	1485.12
484.929	1445.33
485.385	1385.92
485.842	1359.12
486.299	1292.03
486.755	1227.23
487.212	1039.03
487.668	872.43
488.125	813.33
488.582	740.13
489.038	713.23
489.494	683.73
489.951	651.73
490.407	637.93
490.864	618.13
491.32	608.33
491.776	611.03
492.233	617.82
492.689	587.62
493.145	571.02
493.602	572.23
494.058	585.83
494.514	582.63
494.97	610.63
495.426	609.23
495.882	591.23
496.338	581.83
496.794	589.93
497.251	584.23
497.707	602.33
498.163	611.53
498.618	606.82
499.074	614.23
499.53	637.73
499.986	635.13
500.442	624.73
500.898	596.52
501.354	598.63
501.809	609.23
502.265	620.73
502.721	625.93
503.177	643.53
503.632	633.73
504.088	648.02
504.543	695.52
504.999	671.43
505.455	626.93
505.91	596.73
506.366	616.23
506.821	600.32
507.277	593.93
507.732	603.32
508.187	593.42
508.643	608.53
509.098	611.62
509.553	629.32
510.009	634.33
510.464	643.92
510.919	658.73
511.375	662.52
511.83	678.13
512.285	685.13
512.74	725.62
513.195	752.62
513.65	738.13
514.105	735.93
514.56	745.13
515.015	759.23
515.47	769.62
515.925	753.13
516.38	764.33
516.835	755.83
517.29	750.33
517.745	738.43
518.2	739.63
518.655	726.23
519.109	712.03
519.564	701.93
520.019	702.83
520.474	699.23
520.928	692.52
521.383	693.82
521.838	685.73
522.292	679.03
522.747	684.23
523.201	675.43
523.656	670.83
524.11	668.03
524.565	668.03
525.019	652.73
525.474	672.42
525.928	675.93
526.382	673.42
526.837	666.73
527.291	669.53
527.745	664.13
528.2	672.73
528.654	666.03
529.108	658.62
529.562	668.73
530.016	661.63
530.47	663.53
530.925	667.12
531.379	662.93
531.833	679.52
532.287	679.52
532.741	676.43
533.195	679.23
533.649	683.12
534.103	704.03
534.556	684.43
535.01	686.63
535.464	677.33
535.918	702.43
536.372	695.63
536.826	688.13
537.279	675.13
537.733	686.73
538.187	692.62
538.64	684.82
539.094	692.73
539.548	698.73
540.001	692.32
540.455	702.23
540.908	708.62
541.362	714.62
541.815	722.93
542.269	734.23
542.722	722.92
543.175	744.33
543.629	742.32
544.082	758.62
544.536	762.23
544.989	757.63
545.442	769.33
545.895	758.13
546.349	760.93
546.802	769.82
547.255	773.83
547.708	778.12
548.161	782.82
548.614	803.82
549.067	803.23
549.52	796.43
549.973	784.42
550.426	776.82
550.879	767.42
551.332	773.93
551.785	778.53
552.238	782.42
552.691	788.73
553.144	811.73
553.596	821.83
554.049	842.62
554.502	866.62
554.955	888.73
555.407	880.62
555.86	874.62
556.313	864.03
556.765	846.02
557.218	851.23
557.67	853.32
558.123	842.02
558.576	836.62
559.028	847.63
559.48	848.93
559.933	841.73
560.385	816.32
560.838	783.82
561.29	765.03
561.742	757.73
562.195	739.33
562.647	736.83
563.099	749.63
563.551	749.33
564.004	751.93
564.456	739.02
564.908	729.73
565.36	730.03
565.812	715.13
566.264	703.23
566.716	699.63
567.168	701.43
567.62	710.23
568.072	677.33
568.524	678.43
568.976	672.13
569.428	655.33
569.88	653.53
570.332	661.93
570.784	669.52
571.235	666.33
571.687	680.12
572.139	673.73
572.59	693.82
573.042	696.52
573.494	691.63
573.945	683.23
574.397	660.33
574.849	669.03
575.3	680.83
575.752	663.83
576.203	661.43
576.655	665.13
577.106	646.73
577.557	636.93
578.009	654.73
578.46	650.43
578.912	642.33
579.363	638.93
579.814	646.02
580.265	638.33
580.717	652.33
581.168	656.53
581.619	659.03
582.07	656.53
582.521	653.73
582.972	651.23
583.423	662.02
583.875	663.03
584.326	688.63
584.777	732.43
585.227	802.03
585.678	897.42
586.129	983.22
586.58	1054.13
587.031	1123.62
587.482	1276.83
587.933	1453.22
588.384	1267.03
588.834	942.93
589.285	782.33
589.736	762.62
590.186	750.52
590.637	743.83
591.088	725.13
591.538	722.23
591.989	707.83
592.439	712.02
592.89	699.13
593.34	687.53
593.791	694.23
594.241	676.02
594.692	692.53
595.142	687.53
595.593	676.83
596.043	688.83
596.493	687.33
596.943	698.03
597.394	705.33
597.844	696.33
598.294	710.63
598.744	730.42
599.195	760.62
599.645	795.43
600.095	831.83
600.545	898.63
600.995	939.93
601.445	997.73
601.895	1059.63
602.345	1106.82
602.795	1078.23
603.245	1044.72
603.695	986.22
604.145	934.63
604.594	884.43
605.044	829.62
605.494	777.43
605.944	735.23
606.393	717.13
606.843	710.33
607.293	712.33
607.743	709.53
608.192	721.93
608.642	729.62
609.091	744.33
609.541	743.62
609.99	742.13
610.44	756.73
610.889	707.63
611.339	676.93
611.788	668.33
612.238	690.13
612.687	706.02
613.136	699.43
613.586	724.33
614.035	731.83
614.484	739.42
614.933	740.03
615.383	737.53
615.832	723.53
616.281	713.33
616.73	675.83
617.179	648.63
617.628	646.02
618.077	619.83
618.526	607.43
618.975	605.33
619.424	594.73
619.873	594.23
620.322	601.03
620.771	593.03
621.22	594.63
621.669	574.33
622.118	576.33
622.567	567.43
623.015	558.92
623.464	561.53
623.913	548.23
624.361	543.32
624.81	532.83
625.259	548.33
625.707	546.43
626.156	550.33
626.604	550.13
627.053	541.02
627.501	555.82
627.95	559.23
628.398	564.23
628.847	556.73
629.295	561.23
629.744	556.63
630.192	562.93
630.64	557.52
631.089	562.23
631.537	567.83
631.985	569.33
632.433	588.83
632.881	594.43
633.33	654.93
633.778	634.53
634.226	563.63
634.674	565.03
635.122	574.23
635.57	575.93
636.018	615.03
636.466	559.53
636.914	550.93
637.362	556.93
637.81	565.23
638.258	569.53
638.705	569.53
639.153	594.83
639.601	602.12
640.049	635.52
640.497	658.83
640.944	673.33
641.392	629.42
641.84	594.33
642.287	569.33
642.735	556.63
643.182	560.03
643.63	571.62
644.078	568.43
644.525	582.32
644.973	580.12
645.42	592.93
645.867	609.33
646.315	622.63
646.762	649.73
647.21	676.63
647.657	699.32
648.104	737.33
648.551	759.23
648.999	822.53
649.446	908.33
649.893	984.93
650.34	1139.93
650.787	1363.33
651.234	1714.33
651.682	2234.72
652.129	3072.93
652.576	4437.72
653.023	6539.72
653.47	8936.43
653.917	11081.02
654.363	12783.03
654.81	14092.23
655.257	13366.43
655.704	8724.62
656.151	5147.92
656.598	3347.53
657.044	2361.12
657.491	1831.43
657.938	1456.62
658.385	1225.73
658.831	1057.63
659.278	944.73
659.724	843.73
660.171	778.02
660.618	709.62
661.064	675.83
661.511	648.53
661.957	631.73
662.404	634.92
662.85	644.23
663.296	613.62
663.743	551.63
664.189	533.52
664.635	524.92
665.082	507.23
665.528	520.33
665.974	509.33
666.42	496.83
666.867	497.12
667.313	478.23
667.759	466.63
668.205	470.23
668.651	474.33
669.097	475.43
669.543	499.73
669.989	460.53
670.435	443.03
670.881	433.63
671.327	429.83
671.773	456.93
672.219	476.63
672.665	531.43
673.11	568.13
673.556	616.03
674.002	655.83
674.448	635.82
674.893	534.53
675.339	465.33
675.785	430.12
676.23	410.93
676.676	382.12
677.122	367.13
677.567	363.23
678.013	355.83
678.458	347.93
678.904	346.13
679.349	342.03
679.794	342.23
680.24	341.02
680.685	334.73
681.131	347.33
681.576	337.82
682.021	345.83
682.466	336.13
682.912	338.13
683.357	346.73
683.802	365.93
684.247	407.32
684.692	451.63
685.137	486.23
685.583	519.12
686.028	546.93
686.473	502.63
686.918	438.52
687.363	404.52
687.807	376.13
688.252	358.23
688.697	350.52
689.142	321.62
689.587	323.23
690.032	312.23
690.477	333.02
690.921	334.02
691.366	375.33
691.811	399.63
692.255	423.93
692.7	446.12
693.145	494.93
693.589	696.93
694.034	1109.03
694.478	1504.83
694.923	1681.03
695.367	2201.43
695.812	1161.43
696.256	489.43
696.701	365.23
697.145	343.83
697.59	328.73
698.034	317.63
698.478	323.23
698.922	313.73
699.367	318.03
699.811	337.23
700.255	351.23
700.699	385.12
701.143	417.23
701.588	471.23
702.032	511.83
702.476	501.03
702.92	478.33
703.364	484.02
703.808	625.32
704.252	1033.73
704.696	1411.53
705.14	1628.43
705.584	2072.43
706.027	1025.42
706.471	513.02
706.915	390.73
707.359	343.73
707.803	312.73
708.246	306.43
708.69	306.23
709.134	299.33
709.577	301.53
710.021	308.52
710.465	302.52
710.908	287.12
711.352	300.43
711.795	303.52
712.239	338.62
712.682	377.43
713.126	404.93
713.569	455.53
714.012	362.23
714.456	316.13
714.899	293.03
715.342	266.23
715.786	251.53
716.229	261.52
716.672	250.83
717.115	242.03
717.558	246.33
718.002	251.02
718.445	253.53
718.888	285.63
719.331	291.13
719.774	301.83
720.217	300.73
720.66	275.63
721.103	261.33
721.546	247.13
721.989	245.23
722.432	229.12
722.874	229.73
723.317	229.62
723.76	229.03
724.203	254.32
724.645	308.43
725.088	439.43
725.531	565.93
725.974	627.02
726.416	538.13
726.859	296.52
727.301	236.83
727.744	230.03
728.187	220.03
728.629	231.82
729.071	238.93
729.514	254.53
729.956	260.93
730.399	275.33
730.841	288.02
731.283	263.33
731.726	261.83
732.168	256.03
732.61	263.93
733.053	276.23
733.495	305.63
733.937	338.73
734.379	386.82
734.821	429.93
735.263	527.93
735.705	829.03
736.148	1580.73
736.59	2528.43
737.032	2964.82
737.474	2425.23
737.916	795.62
738.357	419.03
738.799	316.12
739.241	297.53
739.683	288.82
740.125	286.12
740.567	290.33
741.008	311.13
741.45	308.83
741.892	305.73
742.334	339.63
742.775	346.52
743.217	330.82
743.658	261.33
744.1	242.83
744.542	253.33
744.983	298.33
745.425	336.23
745.866	333.03
746.307	281.12
746.749	278.83
747.19	326.23
747.632	450.13
748.073	884.83
748.514	1842.73
748.956	2802.93
749.397	3488.93
749.838	2902.03
750.279	2867.53
750.72	1455.13
751.162	539.23
751.603	315.02
752.044	240.13
752.485	210.12
752.926	205.73
753.367	193.33
753.808	184.93
754.249	191.63
754.69	182.23
755.131	179.73
755.572	170.03
756.013	175.62
756.453	188.83
756.894	188.43
757.335	191.23
757.776	188.23
758.216	187.52
758.657	193.53
759.098	198.43
759.538	222.62
759.979	263.93
760.42	368.73
760.86	709.73
761.301	1833.93
761.741	4383.82
762.182	6229.32
762.622	4387.72
763.063	1275.43
763.503	524.83
763.943	339.63
764.384	327.73
764.824	387.93
765.264	414.62
765.705	297.02
766.145	209.53
766.585	184.33
767.025	178.33
767.465	183.93
767.906	241.62
768.346	306.02
768.786	334.63
769.226	261.43
769.666	316.32
770.106	624.82
770.546	1537.73
770.986	2581.62
771.426	2292.03
771.866	774.73
772.306	322.73
772.745	203.83
773.185	164.83
773.625	163.63
774.065	168.23
774.505	197.83
774.944	308.73
775.384	675.73
775.824	1216.42
776.263	1157.62
776.703	494.02
777.142	217.73
777.582	157.52
778.021	141.93
778.461	136.83
778.9	133.53
779.34	133.93
779.779	109.43
780.219	108.33
780.658	110.93
781.097	111.63
781.537	115.63
781.976	99.52
782.415	103.52
782.855	105.23
783.294	99.03
783.733	102.73
784.172	106.53
784.611	105.62
785.05	103.43
785.489	108.23
785.928	111.83
786.367	120.03
786.806	114.52
787.245	126.12
787.684	127.53
788.123	145.03
788.562	130.33
789.001	126.83
789.44	121.13
789.879	117.93
790.317	114.93
790.756	126.83
791.195	124.63
791.634	142.83
792.072	198.83
792.511	360.83
792.95	1006.12
793.388	2107.12
793.827	1882.43
794.265	664.73
794.704	277.93
795.142	181.23
795.581	144.53
796.019	131.53
796.458	126.93
796.896	119.93
797.334	121.53
797.773	149.73
798.211	217.03
798.649	441.32
799.087	1006.23
799.526	1581.73
799.964	1980.43
800.402	1939.53
800.84	729.23
801.278	296.53
801.716	182.73
802.154	148.43
802.592	135.83
803.03	134.03
803.468	133.13
803.906	131.63
804.344	140.23
804.782	135.93
805.22	136.73
805.658	126.03
806.096	148.83
806.533	151.93
806.971	172.83
807.409	212.82
807.847	310.73
808.284	657.93
808.722	1852.13
809.16	3213.63
809.597	3069.23
810.035	5312.22
810.472	5556.02
810.91	2024.93
811.347	767.73
811.785	390.53
812.222	250.02
812.66	189.43
813.097	153.93
813.535	134.73
813.972	126.53
814.409	109.53
814.846	105.43
815.284	100.23
815.721	100.93
816.158	106.53
816.595	120.73
817.032	177.02
817.47	202.12
817.907	160.93
818.344	151.73
818.781	113.03
819.218	100.53
819.655	120.33
820.092	182.23
820.529	207.13
820.966	173.43
821.403	121.33
821.839	106.03
822.276	103.53
822.713	116.33
823.15	122.83
823.587	115.03
824.023	145.93
824.46	304.13
824.897	888.62
825.333	1313.23
825.77	561.23
826.206	228.02
826.643	134.23
827.08	93.53
827.516	82.43
827.953	74.03
828.389	81.23
828.825	66.73
829.262	61.53
829.698	61.93
830.135	61.73
830.571	54.62
831.007	65.93
831.443	63.43
831.88	65.93
832.316	63.03
832.752	64.43
833.188	60.63
833.624	54.63
834.06	61.53
834.497	63.62
834.933	72.93
835.369	75.43
835.805	69.73
836.241	77.62
836.677	73.53
837.112	90.62
837.548	102.93
837.984	129.23
838.42	200.93
838.856	488.83
839.292	1489.62
839.727	2224.03
840.163	1047.33
840.599	922.03
841.034	2001.43
841.47	2053.53
841.906	759.03
842.341	321.83
842.777	227.83
843.212	317.73
843.648	305.63
844.083	152.83
844.519	97.63
844.954	73.33
845.39	58.23
845.825	54.43
846.261	54.23
846.696	52.13
847.131	51.03
847.566	58.93
848.002	53.83
848.437	52.53
848.872	57.33
849.307	57.23
849.742	87.93
850.177	177.63
850.613	553.53
851.048	854.43
851.483	371.63
851.918	149.93
852.353	89.23
852.788	60.73
853.223	54.43
853.657	61.33
854.092	41.93
854.527	40.03
854.962	38.53
855.397	40.93
855.832	46.83
856.266	40.33
856.701	40.43
857.136	39.63
857.57	40.43
858.005	48.83
858.44	52.63
858.874	44.13
859.309	50.73
859.743	39.33
860.178	45.83
860.612	35.43
861.047	44.43
861.481	61.73
861.915	65.73
862.35	46.13
862.784	31.43
863.218	28.33
863.653	26.33
864.087	45.62
864.521	49.43
864.955	74.43
865.39	153.93
865.824	168.13
866.258	110.03
866.692	159.03
867.126	167.73
867.56	97.52
867.994	49.33
868.428	37.83
868.862	47.93
869.296	51.53
869.73	55.23
870.164	51.83
870.598	37.13
871.031	35.73
871.465	27.73
871.899	26.73
872.333	17.13
872.766	20.13
873.2	25.73
873.634	31.13
874.067	21.13
874.501	27.12
874.935	30.33
875.368	28.43
875.802	25.53
876.235	21.83
876.669	24.73
877.102	21.03
877.535	18.13
877.969	21.13
878.402	21.83
878.836	14.23
879.269	20.13
879.702	26.12
880.135	19.12
880.569	21.12
881.002	26.43
881.435	16.03
881.868	17.53
882.301	21.43
882.734	14.12
883.167	21.33
883.601	13.43
884.034	24.23
884.467	13.63
884.899	20.63
885.332	13.53
885.765	11.63
886.198	16.03
886.631	19.73
887.064	26.73
887.497	18.53
887.929	17.23
888.362	13.43
888.795	12.03
889.228	18.03
889.66	20.33
890.093	17.33
890.526	15.43
890.958	18.93
891.391	17.63
891.823	19.93
892.256	9.73
892.688	11.33
893.121	14.93
893.553	15.12
893.985	20.93
894.418	23.43
894.85	12.83
895.282	10.62
895.715	15.73
896.147	19.73
896.579	18.83
897.011	16.43
897.444	20.83
897.876	14.13
898.308	13.52
898.74	13.23
899.172	11.33
899.604	19.53
900.036	22.93
900.468	8.83
900.9	8.93
901.332	12.83
901.764	13.93
902.196	12.03
902.628	19.63
903.06	9.73
903.491	26.73
903.923	20.83
904.355	18.73
904.787	23.03
905.218	23.53
905.65	18.23
906.082	9.33
906.513	14.03
906.945	13.83
907.376	9.62
907.808	17.43
908.239	22.23
908.671	21.63
909.102	19.23
909.534	27.13
909.965	47.53
910.397	93.33
910.828	309.03
911.259	463.53
911.691	214.92
912.122	102.73
912.553	53.93
912.984	33.03
913.415	24.63
913.847	21.43
914.278	19.53
914.709	12.43
915.14	12.13
915.571	14.83
916.002	11.83
916.433	19.73
916.864	17.23
917.295	11.03
917.726	17.53
918.157	16.73
918.587	25.83
919.018	23.13
919.449	22.33
919.88	25.33
920.311	34.93
920.741	46.12
921.172	164.73
921.603	145.62
922.033	69.33
922.464	42.13
922.895	24.02
923.325	17.63
923.756	18.53
924.186	12.23
924.617	22.33
925.047	38.03
925.478	57.73
925.908	38.53
926.338	27.23
926.769	14.23
927.199	21.53
927.629	11.83
928.06	17.73
928.49	11.53
928.92	11.63
929.35	9.83
929.78	16.23
930.21	10.02
930.641	3.63
931.071	8.83
931.501	4.53
931.931	10.33
932.361	9.53
932.791	1.03
933.221	3.83
933.651	4.63
934.08	14.03
934.51	24.33
934.94	13.93
935.37	8.43
935.8	5.53
936.229	8.33
936.659	10.43
937.089	-3.37
937.519	13.53
937.948	21.12
938.378	12.83
938.807	4.52
939.237	7.43
939.666	9.53
940.096	-2.47
940.525	2.53
940.955	-0.37
941.384	3.43
941.814	-2.47
942.243	-0.97
942.672	1.83
943.102	-4.77
943.531	1.13
943.96	6.33
944.39	1.73
944.819	1.23
945.248	1.53
945.677	2.13
946.106	13.43
946.535	7.52
946.964	6.53
947.393	5.63
947.822	2.73
948.251	-4.88
948.68	1.93
949.109	8.52
949.538	7.23
949.967	-3.27
950.396	0.62
950.825	-0.48
951.254	-4.37
951.682	-5.38
952.111	2.03
952.54	6.63
952.969	-2.97
953.397	-7.38
953.826	1.23
954.254	0.43
954.683	5.23
955.112	-3.97
955.54	1.13
955.969	3.23
956.397	0.53
956.826	-6.37
957.254	3.13
957.682	3.23
958.111	3.53
958.539	-1.17
958.967	-2.97
959.396	-0.17
959.824	1.43
960.252	1.03
960.68	-2.57
961.109	-6.88
961.537	-4.77
961.965	-3.97
962.393	8.63
962.821	-2.47
963.249	-1.88
963.677	5.23
964.105	3.03
964.533	43.83
964.961	33.33
965.389	21.43
965.817	6.23
966.245	-2.47
966.672	-0.47
967.1	-11.07
967.528	-2.27
967.956	-7.37
968.383	-6.38
968.811	-8.37
969.239	-4.57
969.666	-6.47
970.094	6.93
970.522	-0.77
970.949	-2.07
971.377	-5.17
971.804	-5.57
972.232	0.93
972.659	-0.37
973.087	-4.98
973.514	-5.48
973.941	-4.47
974.369	1.33
974.796	-1.97
975.223	-4.07
975.651	4.53
976.078	4.13
976.505	-1.88
976.932	5.53
977.359	11.12
977.786	11.83
978.214	2.93
978.641	-7.17
979.068	-6.57
979.495	-4.07
979.922	-3.67
980.349	-1.77
980.776	2.33
981.202	2.62
981.629	5.03
982.056	4.12
982.483	-2.67
982.91	7.23
983.337	-6.87
983.763	-1.67
984.19	-3.27
984.617	-2.67
985.043	-9.57
985.47	4.83
985.897	-7.97
986.323	-6.47
986.75	-2.07
987.176	-3.27
987.603	-1.98
988.029	-0.17
988.456	-8.07
988.882	6.63
989.308	-1.98
989.735	-4.27
990.161	-0.67
990.587	-8.48
991.014	-1.37
991.44	6.23
991.866	-1.87
992.292	-7.47
992.719	-3.77
993.145	-0.67
993.571	-14.37
993.997	-7.47
994.423	-0.87
994.849	-1.57
995.275	-4.27
995.701	-2.27
996.127	-7.57
996.553	0.63
996.979	-0.47
997.405	-2.87
997.83	-6.27
998.256	-5.88
998.682	-1.57
999.108	-3.38
999.534	-0.88
999.959	1.83
1000.385	-4.77
1000.811	-2.67
1001.236	-7.38
1001.662	-4.67
1002.087	-10.77
1002.513	-4.57
1002.938	-2.87
1003.364	0.73
1003.789	-3.97
1004.215	1.43
1004.64	-3.47
1005.066	-0.17
1005.491	-2.67
1005.916	-6.57
1006.342	-2.37
1006.767	-9.77
1007.192	-4.97
1007.617	-8.38
1008.042	-4.77
1008.468	-2.88
1008.893	-7.67
1009.318	0.33
1009.743	-8.48
1010.168	-0.97
1010.593	-1.97
1011.018	-4.37
1011.443	-1.37
1011.868	-1.67
1012.293	-8.77
1012.718	-10.07
1013.143	-1.27
1013.567	-1.67
1013.992	-2.77
1014.417	-12.07
1014.842	1.02
1015.267	-7.67
1015.691	-0.87
1016.116	4.73
1016.541	-1.77
1016.965	1.33
1017.39	-0.47
1017.814	0.53
1018.239	-6.38
1018.663	-9.07
1019.088	-10.17
1019.512	-4.47
1019.937	-3.77
1020.361	-7.67
1020.785	-16.38
1021.21	-5.67
1021.634	-5.77
1022.058	-0.77
1022.483	5.63
1022.907	-5.38
1023.331	-6.47
1023.755	-1.57
1024.179	-2.67
1024.604	-7.87
1025.028	-3.77
1025.452	-3.47
1025.876	-3.67
1026.3	0.93
1026.724	-14.88
1027.148	-3.07
1027.572	-12.27
1027.996	-2.37
1028.42	-2.77
1028.843	-5.67
1029.267	-4.38
1029.691	-4.98
1030.115	-5.37
1030.539	-10.57
1030.962	-7.27
1031.386	-8.27
1031.81	1.53
1032.233	0.73
1032.657	2.33
1033.08	-2.67
1033.504	1.33
1033.927	-5.27
1034.351	-3.47
1034.774	-8.17
1035.198	-2.77
1035.621	-9.97
1036.045	-6.88
1036.468	-1.47
1036.891	-6.27
1037.315	-9.57
1037.738	-8.47
1038.161	-4.48
1038.584	-6.37
1039.008	-9.87
1039.431	-4.27
1039.854	-0.17
1040.277	-5.47
1040.7	-17.77
1041.123	-3.67
1041.546	-14.27
1041.969	-5.57
1042.392	-5.27
1042.815	-2.88
1043.238	0.12
1043.661	0.93
1044.084	-6.97
1044.507	1.23
1044.93	-7.57
1045.352	-2.27
1045.775	-8.48
1046.198	1.53
1046.621	-3.87
1047.043	0.83
1047.466	4.63
1047.889	-4.17
1048.311	-8.87
1048.734	-4.57
1049.156	-2.67
1049.579	-6.88
1050.001	-1.67
1050.424	-1.17
1050.846	-6.38
1051.269	-9.87
1051.691	-7.17
1052.113	-4.57
1052.536	-1.97
1052.958	-3.67
1053.38	-9.47
1053.802	-7.88
1054.225	0.23
1054.647	-4.27
1055.069	-5.27
1055.491	-1.77
1055.913	-7.67
1056.335	-11.17
1056.757	-7.37
1057.179	-9.17
1057.601	-5.67
1058.023	-5.07
1058.445	0.43
1058.867	-5.17
1059.289	-6.77
1059.711	-5.87
1060.133	-1.27
1060.555	-4.97
1060.976	-10.17
1061.398	-8.37
1061.82	-8.07
1062.241	-7.38
1062.663	-10.27
1063.085	-2.67
1063.506	-0.57
1063.928	-5.27
1064.35	1.33
1064.771	-12.57
1065.193	-9.07
1065.614	-12.47
1066.035	-6.57
1066.457	-4.47
1066.878	0.73
1067.3	-6.27
1067.721	-6.27
1068.142	-5.48
1068.564	0.53
1068.985	-0.57
1069.406	-8.07
1069.827	-4.17
1070.248	-6.37
1070.67	-11.17
1071.091	-6.37
1071.512	-4.17
1071.933	-3.57
1072.354	-8.47
1072.775	-0.27
1073.196	-4.67
1073.617	-4.57
1074.038	-5.77
1074.459	-5.27
1074.88	-7.37
1075.3	-0.17
1075.721	-8.27
1076.142	-0.27
1076.563	-3.67
1076.983	-12.57
1077.404	-7.17
1077.825	-14.67
1078.246	-4.17
1078.666	-10.57
1079.087	-7.87
1079.507	-9.27
1079.928	-3.88
1080.348	-5.97
1080.769	-9.67
1081.189	1.73
1081.61	-4.67
1082.03	-4.37
1082.451	-9.97
1082.871	-6.17
1083.291	-7.67
1083.711	-8.07
1084.132	-3.17
1084.552	-8.77
1084.972	-6.47
1085.392	-13.57
1085.813	-8.87
1086.233	-10.87
1086.653	-8.07
1087.073	-2.07
1087.493	-5.57
1087.913	-3.67
1088.333	-9.88
1088.753	-11.67
1089.173	-2.77
1089.593	-4.17
1090.013	0.93
1090.433	-0.38
1090.852	-6.77
1091.272	-2.38
1091.692	-2.27
1092.112	-7.97
1092.531	-10.17
1092.951	-13.67
1093.371	-3.67
1093.79	-0.27
1094.21	-7.07
1094.63	-6.67
1095.049	-7.47
1095.469	-3.87
1095.888	-5.88
1096.308	-2.27
1096.727	1.23
1097.146	-8.07
1097.566	3.93
1097.985	-1.97
1098.405	-3.17
1098.824	-7.47
1099.243	-9.37
1099.662	-15.47
1100.082	-8.57
1100.501	-5.57
1100.92	-7.88
1101.339	-9.07
1101.758	-7.57
