Data from 20171114-ORNL-Ar_H_NY_Subt18_08-05-14-947.txt Node
Date: Tue Nov 14 08:05:14 EST 2017
User: Ender
Spectrometer: HR+D1039
Trigger mode: 0
Integration Time (sec): 2.730000E-2
Scans to average: 10
Electric dark correction enabled: true
Nonlinearity correction enabled: false
Boxcar width: 0
XAxis mode: Wavelengths
Number of Pixels in Spectrum: 2048
>>>>>Begin Spectral Data<<<<<
187.836	-4.93
188.309	-4.93
188.782	-4.93
189.255	-1.43
189.728	-2.52
190.201	7.48
190.674	6.57
191.147	3.07
191.619	-5.43
192.092	4.67
192.565	4.37
193.038	5.97
193.511	-0.93
193.984	1.98
194.456	-5.42
194.929	-2.73
195.402	-7.93
195.874	-2.83
196.347	0.88
196.82	-7.33
197.292	2.57
197.765	-3.42
198.237	-3.33
198.71	6.17
199.182	-0.52
199.655	3.77
200.127	8.07
200.6	-4.12
201.072	-4.53
201.544	-3.52
202.017	4.07
202.489	10.27
202.961	-1.82
203.433	0.17
203.906	-2.32
204.378	-10.92
204.85	-7.03
205.322	-7.12
205.794	0.87
206.266	-1.43
206.739	-4.12
207.211	-0.23
207.683	-1.62
208.155	-7.83
208.627	-4.73
209.099	-0.33
209.57	-10.23
210.042	-6.03
210.514	-4.73
210.986	1.88
211.458	-5.23
211.93	4.57
212.402	0.67
212.873	0.57
213.345	-7.52
213.817	-7.43
214.288	-4.03
214.76	-14.53
215.232	-2.42
215.703	-0.02
216.175	-0.12
216.646	-2.12
217.118	-9.53
217.589	-6.52
218.061	2.87
218.532	1.18
219.004	-4.73
219.475	-7.23
219.946	-0.83
220.418	-4.23
220.889	1.57
221.36	0.58
221.832	-8.33
222.303	-5.42
222.774	-0.23
223.245	-4.62
223.717	-5.62
224.188	-2.62
224.659	-6.93
225.13	-4.23
225.601	-3.53
226.072	-2.62
226.543	-1.73
227.014	1.97
227.485	-1.62
227.956	-4.23
228.427	-1.23
228.898	1.88
229.369	5.27
229.839	2.98
230.31	-3.43
230.781	3.38
231.252	-7.73
231.722	-5.73
232.193	-0.52
232.664	-4.23
233.135	1.47
233.605	1.77
234.076	-2.93
234.546	0.17
235.017	5.67
235.487	1.27
235.958	-2.92
236.428	-5.33
236.899	4.27
237.369	6.08
237.84	-2.23
238.31	4.57
238.78	2.58
239.251	-2.12
239.721	2.67
240.191	-4.23
240.662	4.27
241.132	3.67
241.602	1.37
242.072	4.88
242.542	10.08
243.013	-3.12
243.483	9.38
243.953	9.58
244.423	2.38
244.893	4.07
245.363	5.37
245.833	0.07
246.303	-3.33
246.773	15.88
247.243	-4.53
247.712	7.57
248.182	8.47
248.652	10.57
249.122	-0.43
249.592	21.48
250.061	19.88
250.531	32.08
251.001	21.08
251.471	24.38
251.94	22.97
252.41	11.88
252.879	5.27
253.349	13.97
253.818	11.98
254.288	8.58
254.757	5.88
255.227	3.77
255.696	3.07
256.166	6.88
256.635	7.08
257.105	11.27
257.574	9.87
258.043	11.88
258.513	13.57
258.982	22.48
259.451	12.07
259.92	17.48
260.389	12.98
260.859	9.67
261.328	17.18
261.797	25.88
262.266	14.88
262.735	11.08
263.204	11.47
263.673	8.77
264.142	4.27
264.611	-1.62
265.08	-3.03
265.549	6.08
266.018	0.68
266.487	-1.83
266.955	0.67
267.424	6.77
267.893	12.68
268.362	4.08
268.83	6.17
269.299	10.98
269.768	6.47
270.236	10.58
270.705	6.07
271.174	3.48
271.642	5.97
272.111	9.98
272.579	17.07
273.048	28.97
273.516	30.27
273.985	30.67
274.453	28.48
274.922	25.27
275.39	13.47
275.858	4.48
276.327	10.57
276.795	19.38
277.263	11.27
277.731	28.87
278.2	57.07
278.668	67.38
279.136	61.27
279.604	28.48
280.072	25.48
280.54	11.88
281.008	6.97
281.477	10.07
281.945	14.07
282.413	19.07
282.881	20.48
283.348	13.48
283.816	14.38
284.284	17.57
284.752	25.37
285.22	18.38
285.688	23.07
286.156	28.98
286.623	57.67
287.091	61.58
287.559	37.57
288.026	22.08
288.494	19.88
288.962	9.38
289.429	9.17
289.897	21.08
290.364	16.07
290.832	23.48
291.3	16.98
291.767	24.18
292.234	16.77
292.702	9.27
293.169	17.98
293.637	28.58
294.104	30.07
294.571	11.47
295.039	13.67
295.506	19.67
295.973	25.07
296.44	12.88
296.908	20.58
297.375	22.88
297.842	22.48
298.309	19.67
298.776	16.38
299.243	26.77
299.71	17.27
300.177	24.38
300.644	22.38
301.111	22.18
301.578	27.38
302.045	22.17
302.512	28.17
302.979	29.38
303.446	25.57
303.913	23.18
304.379	23.57
304.846	34.68
305.313	33.88
305.78	21.97
306.246	28.48
306.713	33.57
307.18	23.38
307.646	36.47
308.113	30.27
308.579	34.07
309.046	28.48
309.512	32.58
309.979	23.17
310.445	33.17
310.912	35.07
311.378	33.38
311.845	31.88
312.311	28.17
312.777	36.27
313.244	31.77
313.71	40.77
314.176	33.98
314.642	38.38
315.109	36.07
315.575	37.88
316.041	43.67
316.507	37.17
316.973	42.77
317.439	31.07
317.905	39.48
318.371	37.88
318.837	34.27
319.303	35.97
319.769	43.48
320.235	35.17
320.701	35.67
321.167	42.47
321.633	34.98
322.099	40.47
322.564	44.88
323.03	47.88
323.496	50.08
323.962	52.08
324.427	48.67
324.893	48.17
325.359	43.87
325.824	40.57
326.29	41.17
326.755	43.97
327.221	44.97
327.686	43.48
328.152	46.58
328.617	44.98
329.083	51.07
329.548	56.67
330.014	51.98
330.479	43.57
330.944	50.97
331.41	47.88
331.875	53.38
332.34	46.17
332.805	46.17
333.271	47.27
333.736	50.57
334.201	58.48
334.666	62.77
335.131	61.57
335.596	58.07
336.061	53.57
336.526	53.57
336.991	54.77
337.456	56.77
337.921	51.27
338.386	43.67
338.851	45.07
339.316	52.67
339.781	54.27
340.246	56.98
340.711	52.27
341.175	51.38
341.64	51.48
342.105	55.38
342.569	57.77
343.034	62.87
343.499	55.48
343.963	59.38
344.428	61.77
344.893	66.97
345.357	67.88
345.822	65.37
346.286	72.67
346.751	77.77
347.215	72.38
347.679	80.27
348.144	104.17
348.608	86.27
349.073	76.88
349.537	78.67
350.001	81.77
350.465	95.08
350.93	82.38
351.394	83.48
351.858	70.38
352.322	89.48
352.786	92.18
353.25	101.38
353.715	116.48
354.179	106.77
354.643	128.88
355.107	137.88
355.571	113.38
356.035	108.27
356.498	120.17
356.962	128.47
357.426	137.07
357.89	122.48
358.354	92.17
358.818	92.07
359.281	85.18
359.745	81.48
360.209	79.27
360.673	77.38
361.136	79.38
361.6	83.17
362.064	87.18
362.527	89.87
362.991	99.88
363.454	80.17
363.918	82.48
364.381	85.38
364.845	86.47
365.308	87.47
365.772	89.07
366.235	87.07
366.698	88.88
367.162	86.27
367.625	89.38
368.088	88.38
368.552	88.38
369.015	93.17
369.478	101.88
369.941	103.38
370.404	96.87
370.867	109.67
371.331	113.07
371.794	120.57
372.257	117.27
372.72	122.77
373.183	110.67
373.646	103.27
374.109	108.27
374.572	107.57
375.035	106.47
375.497	111.77
375.96	109.77
376.423	112.27
376.886	118.88
377.349	112.88
377.811	104.67
378.274	105.77
378.737	100.88
379.199	117.27
379.662	114.57
380.125	121.48
380.587	124.08
381.05	121.48
381.512	134.17
381.975	137.38
382.437	137.08
382.9	130.47
383.362	137.38
383.825	141.77
384.287	147.57
384.75	142.88
385.212	135.17
385.674	136.37
386.136	136.38
386.599	126.88
387.061	131.58
387.523	135.77
387.985	134.67
388.447	144.38
388.91	144.38
389.372	159.88
389.834	157.17
390.296	142.38
390.758	153.38
391.22	177.67
391.682	214.27
392.144	292.47
392.606	232.07
393.068	171.48
393.529	170.07
393.991	159.08
394.453	148.07
394.915	159.37
395.377	196.97
395.838	215.27
396.3	157.47
396.762	143.38
397.224	135.38
397.685	131.47
398.147	126.18
398.608	132.27
399.07	131.48
399.531	136.08
399.993	137.58
400.454	151.47
400.916	150.67
401.377	145.77
401.839	152.97
402.3	154.57
402.762	171.77
403.223	178.88
403.684	176.77
404.145	167.27
404.607	159.67
405.068	164.67
405.529	171.98
405.99	189.98
406.451	178.87
406.913	172.17
407.374	163.38
407.835	155.88
408.296	166.27
408.757	179.38
409.218	190.27
409.679	184.98
410.14	181.18
410.601	180.27
411.062	183.08
411.522	193.77
411.983	187.17
412.444	174.67
412.905	175.48
413.366	176.57
413.826	194.18
414.287	218.97
414.748	263.67
415.208	244.87
415.669	216.67
416.13	206.48
416.59	203.98
417.051	216.98
417.511	225.27
417.972	227.57
418.432	249.08
418.893	283.97
419.353	246.98
419.814	201.17
420.274	183.47
420.734	180.77
421.195	198.07
421.655	192.48
422.115	190.07
422.576	197.67
423.036	199.77
423.496	205.77
423.956	216.27
424.416	229.77
424.876	267.18
425.336	257.57
425.797	267.48
426.257	255.57
426.717	241.07
427.177	226.28
427.637	228.37
428.097	234.57
428.556	242.58
429.016	259.97
429.476	264.37
429.936	278.68
430.396	280.38
430.856	290.17
431.315	317.98
431.775	359.27
432.235	379.17
432.694	350.98
433.154	362.17
433.614	391.07
434.073	344.07
434.533	274.37
434.993	268.47
435.452	285.38
435.912	293.48
436.371	290.98
436.83	286.07
437.29	274.48
437.749	256.58
438.209	248.17
438.668	277.67
439.127	283.97
439.587	272.57
440.046	245.58
440.505	267.98
440.964	279.87
441.424	326.37
441.883	307.57
442.342	252.48
442.801	222.38
443.26	217.38
443.719	219.78
444.178	215.08
444.637	210.48
445.096	209.57
445.555	223.58
446.014	223.77
446.473	226.97
446.932	229.07
447.391	222.97
447.849	226.37
448.308	218.58
448.767	219.07
449.226	240.48
449.685	233.88
450.143	243.67
450.602	240.27
451.061	222.97
451.519	234.57
451.978	225.27
452.436	229.58
452.895	240.38
453.353	256.98
453.812	245.57
454.27	233.27
454.729	239.68
455.187	231.77
455.646	243.98
456.104	250.97
456.562	266.87
457.021	265.47
457.479	261.88
457.937	274.57
458.395	260.87
458.854	244.17
459.312	256.28
459.77	275.88
460.228	250.17
460.686	236.88
461.144	238.27
461.602	248.98
462.06	246.77
462.518	247.57
462.976	254.77
463.434	254.28
463.892	263.88
464.35	272.07
464.808	292.67
465.266	266.97
465.724	264.38
466.181	266.78
466.639	271.77
467.097	293.47
467.555	297.28
468.012	301.88
468.47	311.08
468.928	328.77
469.385	339.27
469.843	347.58
470.3	356.68
470.758	360.78
471.215	388.58
471.673	405.27
472.13	397.27
472.588	410.38
473.045	373.88
473.503	368.77
473.96	389.97
474.417	405.58
474.875	432.07
475.332	467.97
475.789	451.98
476.246	465.77
476.704	492.68
477.161	513.78
477.618	519.88
478.075	558.88
478.532	616.38
478.989	688.08
479.446	793.68
479.903	770.38
480.36	824.58
480.817	868.77
481.274	974.68
481.731	1071.57
482.188	1172.67
482.645	1311.78
483.102	1407.38
483.558	1548.38
484.015	1623.98
484.472	1585.38
484.929	1541.38
485.385	1480.38
485.842	1437.28
486.299	1369.48
486.755	1296.38
487.212	1094.57
487.668	926.67
488.125	851.17
488.582	772.27
489.038	751.08
489.494	718.18
489.951	697.17
490.407	670.48
490.864	653.98
491.32	648.78
491.776	639.47
492.233	646.57
492.689	613.97
493.145	610.68
493.602	597.27
494.058	616.88
494.514	620.18
494.97	633.98
495.426	647.17
495.882	622.67
496.338	618.08
496.794	632.28
497.251	624.27
497.707	630.77
498.163	634.27
498.618	633.48
499.074	645.97
499.53	683.98
499.986	674.87
500.442	655.38
500.898	636.48
501.354	626.67
501.809	642.37
502.265	637.67
502.721	660.48
503.177	666.38
503.632	654.58
504.088	678.18
504.543	714.18
504.999	710.17
505.455	657.37
505.91	630.88
506.366	627.38
506.821	630.67
507.277	617.98
507.732	621.37
508.187	614.77
508.643	630.78
509.098	629.08
509.553	647.17
510.009	663.37
510.464	667.67
510.919	688.88
511.375	692.77
511.83	707.37
512.285	719.17
512.74	760.88
513.195	788.08
513.65	769.18
514.105	767.87
514.56	774.07
515.015	799.98
515.47	812.58
515.925	784.77
516.38	779.27
516.835	792.77
517.29	774.57
517.745	772.88
518.2	758.57
518.655	744.87
519.109	747.98
519.564	731.57
520.019	730.58
520.474	722.88
520.928	723.77
521.383	719.48
521.838	706.27
522.292	711.08
522.747	699.47
523.201	687.67
523.656	692.38
524.11	687.38
524.565	682.38
525.019	685.48
525.474	697.77
525.928	697.88
526.382	692.47
526.837	699.38
527.291	697.97
527.745	687.17
528.2	696.68
528.654	690.78
529.108	680.67
529.562	694.88
530.016	682.88
530.47	691.17
530.925	679.17
531.379	694.97
531.833	699.27
532.287	701.77
532.741	699.68
533.195	707.07
533.649	709.67
534.103	725.38
534.556	707.77
535.01	710.07
535.464	707.58
535.918	708.77
536.372	716.98
536.826	714.37
537.279	707.48
537.733	707.88
538.187	709.17
538.64	715.87
539.094	719.47
539.548	727.18
540.001	713.98
540.455	711.57
540.908	724.47
541.362	729.58
541.815	734.38
542.269	754.07
542.722	747.67
543.175	753.27
543.629	759.87
544.082	777.47
544.536	768.17
544.989	784.77
545.442	783.08
545.895	782.67
546.349	780.77
546.802	787.98
547.255	781.27
547.708	799.97
548.161	798.98
548.614	818.57
549.067	822.78
549.52	806.97
549.973	793.27
550.426	809.77
550.879	783.88
551.332	790.48
551.785	798.47
552.238	791.27
552.691	802.57
553.144	821.87
553.596	838.38
554.049	850.47
554.502	873.08
554.955	900.27
555.407	896.88
555.86	895.08
556.313	879.17
556.765	872.18
557.218	877.68
557.67	873.77
558.123	868.77
558.576	870.47
559.028	872.38
559.48	875.87
559.933	865.67
560.385	824.37
560.838	797.17
561.29	777.88
561.742	765.27
562.195	755.28
562.647	760.57
563.099	763.27
563.551	755.17
564.004	771.37
564.456	766.37
564.908	753.57
565.36	735.88
565.812	732.07
566.264	716.98
566.716	701.88
567.168	698.17
567.62	711.48
568.072	686.17
568.524	682.07
568.976	685.67
569.428	654.38
569.88	661.97
570.332	662.18
570.784	653.37
571.235	670.48
571.687	678.08
572.139	685.77
572.59	704.57
573.042	700.67
573.494	703.68
573.945	692.17
574.397	670.08
574.849	674.47
575.3	677.47
575.752	666.77
576.203	666.87
576.655	664.27
577.106	659.67
577.557	644.57
578.009	653.68
578.46	645.48
578.912	649.77
579.363	647.28
579.814	651.77
580.265	646.77
580.717	656.08
581.168	653.67
581.619	666.27
582.07	669.27
582.521	665.57
582.972	656.18
583.423	670.27
583.875	665.17
584.326	687.27
584.777	727.57
585.227	809.38
585.678	902.38
586.129	1006.97
586.58	1070.38
587.031	1157.47
587.482	1327.08
587.933	1516.18
588.384	1312.78
588.834	957.98
589.285	784.27
589.736	758.58
590.186	756.57
590.637	746.88
591.088	722.77
591.538	717.08
591.989	695.38
592.439	705.98
592.89	700.27
593.34	674.97
593.791	690.07
594.241	692.48
594.692	690.47
595.142	679.88
595.593	682.28
596.043	679.98
596.493	694.67
596.943	697.77
597.394	700.78
597.844	681.28
598.294	714.27
598.744	725.67
599.195	746.28
599.645	784.28
600.095	828.98
600.545	886.77
600.995	927.18
601.445	985.48
601.895	1059.27
602.345	1103.28
602.795	1070.78
603.245	1026.07
603.695	980.07
604.145	924.97
604.594	882.38
605.044	840.27
605.494	772.18
605.944	731.97
606.393	722.37
606.843	706.67
607.293	709.38
607.743	695.97
608.192	709.87
608.642	716.58
609.091	740.68
609.541	730.08
609.99	736.77
610.44	735.98
610.889	698.18
611.339	680.37
611.788	659.18
612.238	676.68
612.687	690.67
613.136	687.58
613.586	713.68
614.035	712.27
614.484	729.88
614.933	732.47
615.383	727.97
615.832	713.27
616.281	702.07
616.73	666.38
617.179	634.37
617.628	629.77
618.077	606.27
618.526	598.98
618.975	595.07
619.424	591.27
619.873	584.18
620.322	594.67
620.771	571.88
621.22	574.87
621.669	567.98
622.118	568.07
622.567	556.77
623.015	545.17
623.464	553.27
623.913	538.57
624.361	529.37
624.81	524.08
625.259	527.18
625.707	530.77
626.156	531.77
626.604	539.07
627.053	534.67
627.501	543.67
627.95	542.88
628.398	557.17
628.847	538.68
629.295	547.47
629.744	554.77
630.192	548.48
630.64	531.48
631.089	531.67
631.537	547.08
631.985	559.78
632.433	575.58
632.881	572.38
633.33	629.67
633.778	601.27
634.226	545.98
634.674	548.88
635.122	545.48
635.57	568.77
636.018	594.27
636.466	558.88
636.914	523.97
637.362	542.68
637.81	545.27
638.258	552.38
638.705	549.08
639.153	573.67
639.601	588.47
640.049	598.48
640.497	642.68
640.944	668.77
641.392	620.08
641.84	579.77
642.287	554.58
642.735	554.48
643.182	538.27
643.63	547.08
644.078	546.68
644.525	557.17
644.973	566.27
645.42	573.68
645.867	586.38
646.315	615.77
646.762	626.48
647.21	657.07
647.657	674.77
648.104	718.77
648.551	735.38
648.999	793.97
649.446	872.17
649.893	955.38
650.34	1090.88
650.787	1314.57
651.234	1632.08
651.682	2116.57
652.129	2908.78
652.576	4214.18
653.023	6201.48
653.47	8559.07
653.917	10743.87
654.363	12562.98
654.81	13956.17
655.257	13269.27
655.704	8654.47
656.151	5092.88
656.598	3304.18
657.044	2336.27
657.491	1788.88
657.938	1428.28
658.385	1185.88
658.831	1031.38
659.278	904.67
659.724	817.98
660.171	750.77
660.618	688.58
661.064	653.48
661.511	632.97
661.957	616.57
662.404	605.97
662.85	619.68
663.296	596.58
663.743	535.87
664.189	505.98
664.635	503.27
665.082	494.88
665.528	499.57
665.974	485.88
666.42	481.37
666.867	482.97
667.313	469.58
667.759	465.07
668.205	457.77
668.651	467.88
669.097	460.27
669.543	475.48
669.989	448.58
670.435	429.88
670.881	414.48
671.327	428.88
671.773	435.48
672.219	461.17
672.665	509.48
673.11	554.77
673.556	594.08
674.002	627.08
674.448	621.27
674.893	515.67
675.339	445.68
675.785	412.28
676.23	392.57
676.676	372.67
677.122	356.77
677.567	351.47
678.013	340.08
678.458	338.08
678.904	340.38
679.349	324.58
679.794	333.28
680.24	332.68
680.685	334.08
681.131	324.17
681.576	327.48
682.021	328.78
682.466	333.27
682.912	328.77
683.357	331.28
683.802	352.98
684.247	378.07
684.692	423.48
685.137	455.27
685.583	508.27
686.028	524.27
686.473	477.18
686.918	410.17
687.363	384.18
687.807	368.27
688.252	336.68
688.697	335.27
689.142	318.88
689.587	315.57
690.032	300.87
690.477	323.98
690.921	319.98
691.366	359.17
691.811	373.37
692.255	406.38
692.7	432.47
693.145	458.57
693.589	633.37
694.034	1031.78
694.478	1425.67
694.923	1618.68
695.367	2140.38
695.812	1117.47
696.256	466.67
696.701	344.37
697.145	318.38
697.59	315.37
698.034	296.57
698.478	306.88
698.922	303.07
699.367	302.38
699.811	322.67
700.255	336.98
700.699	365.67
701.143	398.07
701.588	448.57
702.032	482.17
702.476	481.98
702.92	451.57
703.364	461.87
703.808	577.67
704.252	935.47
704.696	1355.38
705.14	1561.18
705.584	2004.28
706.027	991.67
706.471	489.37
706.915	373.48
707.359	326.97
707.803	292.57
708.246	290.68
708.69	292.98
709.134	292.08
709.577	290.47
710.021	294.37
710.465	286.48
710.908	277.58
711.352	275.28
711.795	286.37
712.239	323.28
712.682	355.37
713.126	385.48
713.569	431.88
714.012	339.28
714.456	303.07
714.899	273.47
715.342	252.68
715.786	252.97
716.229	247.98
716.672	239.97
717.115	231.88
717.558	235.68
718.002	241.27
718.445	236.88
718.888	267.07
719.331	284.18
719.774	287.77
720.217	281.88
720.66	263.98
721.103	250.18
721.546	240.68
721.989	231.57
722.432	219.78
722.874	219.37
723.317	207.38
723.76	215.58
724.203	245.77
724.645	293.58
725.088	413.98
725.531	525.87
725.974	606.07
726.416	514.77
726.859	289.37
727.301	235.88
727.744	227.27
728.187	213.68
728.629	220.07
729.071	220.88
729.514	234.17
729.956	251.57
730.399	262.47
730.841	271.98
731.283	249.88
731.726	246.88
732.168	246.47
732.61	243.48
733.053	269.38
733.495	294.18
733.937	318.38
734.379	370.27
734.821	396.58
735.263	500.18
735.705	756.38
736.148	1420.18
736.59	2364.68
737.032	2863.88
737.474	2328.68
737.916	741.38
738.357	395.47
738.799	311.38
739.241	277.67
739.683	257.77
740.125	266.88
740.567	273.97
741.008	289.07
741.45	291.38
741.892	293.67
742.334	315.68
742.775	323.27
743.217	323.37
743.658	254.37
744.1	231.38
744.542	238.67
744.983	282.88
745.425	314.07
745.866	325.67
746.307	262.38
746.749	261.17
747.19	298.57
747.632	410.68
748.073	784.87
748.514	1695.17
748.956	2640.18
749.397	3289.38
749.838	2727.68
750.279	2771.18
750.72	1405.58
751.162	508.97
751.603	294.68
752.044	233.07
752.485	204.08
752.926	197.68
753.367	184.07
753.808	181.07
754.249	179.98
754.69	179.77
755.131	168.98
755.572	163.98
756.013	167.17
756.453	168.17
756.894	169.58
757.335	173.68
757.776	183.48
758.216	182.67
758.657	179.98
759.098	190.78
759.538	207.08
759.979	246.48
760.42	338.97
760.86	624.08
761.301	1624.97
761.741	4015.28
762.182	6075.98
762.622	4264.78
763.063	1218.78
763.503	499.57
763.943	320.87
764.384	317.57
764.824	392.18
765.264	429.58
765.705	300.07
766.145	196.67
766.585	180.38
767.025	168.17
767.465	180.17
767.906	238.58
768.346	301.18
768.786	330.27
769.226	249.78
769.666	299.07
770.106	555.77
770.546	1391.28
770.986	2463.18
771.426	2220.38
771.866	733.57
772.306	302.17
772.745	200.97
773.185	160.27
773.625	160.48
774.065	155.17
774.505	183.77
774.944	277.68
775.384	618.18
775.824	1168.88
776.263	1155.88
776.703	482.77
777.142	203.67
777.582	145.57
778.021	133.48
778.461	133.38
778.9	129.77
779.34	126.38
779.779	104.08
780.219	105.68
780.658	102.48
781.097	101.48
781.537	107.27
781.976	96.47
782.415	95.67
782.855	95.67
783.294	99.98
783.733	97.57
784.172	101.27
784.611	99.38
785.05	97.38
785.489	106.08
785.928	112.98
786.367	114.57
786.806	112.57
787.245	125.07
787.684	124.47
788.123	141.88
788.562	125.38
789.001	113.18
789.44	119.48
789.879	106.27
790.317	108.07
790.756	117.58
791.195	120.18
791.634	135.38
792.072	183.68
792.511	325.77
792.95	893.37
793.388	1984.78
793.827	1833.08
794.265	628.97
794.704	254.08
795.142	177.58
795.581	148.27
796.019	130.27
796.458	122.17
796.896	107.27
797.334	122.27
797.773	139.57
798.211	201.97
798.649	400.87
799.087	931.88
799.526	1464.48
799.964	1854.08
800.402	1894.18
800.84	708.77
801.278	283.17
801.716	170.17
802.154	140.77
802.592	139.38
803.03	134.48
803.468	124.88
803.906	132.17
804.344	138.77
804.782	125.98
805.22	120.87
805.658	118.88
806.096	138.68
806.533	142.07
806.971	163.97
807.409	203.07
807.847	284.87
808.284	597.18
808.722	1674.48
809.16	3049.18
809.597	2813.98
810.035	4961.48
810.472	5466.07
810.91	1951.58
811.347	734.07
811.785	365.27
812.222	235.67
812.66	184.48
813.097	150.57
813.535	135.97
813.972	121.58
814.409	107.98
814.846	103.88
815.284	103.57
815.721	95.07
816.158	95.27
816.595	109.48
817.032	170.97
817.47	185.67
817.907	157.77
818.344	143.47
818.781	110.98
819.218	93.58
819.655	108.27
820.092	173.97
820.529	201.77
820.966	168.58
821.403	119.07
821.839	99.67
822.276	96.88
822.713	112.97
823.15	129.08
823.587	108.67
824.023	134.07
824.46	263.38
824.897	812.38
825.333	1262.58
825.77	540.17
826.206	212.98
826.643	124.07
827.08	88.38
827.516	80.18
827.953	73.88
828.389	74.17
828.825	68.07
829.262	68.57
829.698	53.77
830.135	62.77
830.571	57.97
831.007	58.98
831.443	59.07
831.88	61.77
832.316	61.57
832.752	63.17
833.188	58.88
833.624	61.88
834.06	58.48
834.497	65.07
834.933	66.18
835.369	66.67
835.805	62.67
836.241	68.17
836.677	74.88
837.112	79.37
837.548	94.27
837.984	117.77
838.42	183.38
838.856	444.88
839.292	1373.38
839.727	2164.57
840.163	1000.78
840.599	828.28
841.034	1847.28
841.47	2029.97
841.906	723.77
842.341	305.47
842.777	214.98
843.212	302.07
843.648	297.07
844.083	139.87
844.519	87.77
844.954	67.08
845.39	59.77
845.825	49.07
846.261	55.98
846.696	46.07
847.131	49.17
847.566	52.97
848.002	54.48
848.437	46.58
848.872	58.48
849.307	62.38
849.742	77.58
850.177	168.18
850.613	502.18
851.048	822.57
851.483	344.77
851.918	137.77
852.353	81.57
852.788	57.38
853.223	55.47
853.657	54.37
854.092	46.27
854.527	37.27
854.962	37.17
855.397	41.17
855.832	48.07
856.266	40.48
856.701	36.38
857.136	33.17
857.57	38.68
858.005	40.88
858.44	56.77
858.874	42.18
859.309	52.38
859.743	38.17
860.178	41.17
860.612	39.38
861.047	49.57
861.481	61.07
861.915	70.58
862.35	52.27
862.784	30.37
863.218	34.98
863.653	35.27
864.087	43.07
864.521	46.17
864.955	64.77
865.39	145.07
865.824	151.58
866.258	97.38
866.692	151.67
867.126	162.07
867.56	95.77
867.994	44.57
868.428	34.98
868.862	41.38
869.296	50.08
869.73	57.17
870.164	46.67
870.598	48.08
871.031	29.57
871.465	28.88
871.899	31.48
872.333	27.48
872.766	26.67
873.2	17.77
873.634	30.48
874.067	24.88
874.501	30.17
874.935	31.47
875.368	31.87
875.802	28.88
876.235	25.67
876.669	22.38
877.102	23.08
877.535	23.77
877.969	12.58
878.402	28.17
878.836	24.88
879.269	27.48
879.702	22.97
880.135	15.97
880.569	22.17
881.002	28.27
881.435	23.57
881.868	14.98
882.301	22.77
882.734	16.88
883.167	25.77
883.601	19.98
884.034	24.67
884.467	10.58
884.899	23.88
885.332	16.27
885.765	14.27
886.198	14.47
886.631	19.77
887.064	21.48
887.497	21.47
887.929	23.47
888.362	14.38
888.795	9.38
889.228	15.38
889.66	18.17
890.093	19.37
890.526	17.37
890.958	13.48
891.391	13.68
891.823	25.58
892.256	15.77
892.688	13.57
893.121	13.08
893.553	12.77
893.985	23.37
894.418	19.07
894.85	12.38
895.282	13.17
895.715	19.77
896.147	20.98
896.579	17.07
897.011	17.98
897.444	17.67
897.876	16.27
898.308	14.37
898.74	13.38
899.172	16.27
899.604	26.08
900.036	22.87
900.468	19.77
900.9	16.67
901.332	13.77
901.764	15.27
902.196	18.48
902.628	12.77
903.06	16.87
903.491	27.48
903.923	19.98
904.355	23.77
904.787	25.67
905.218	22.18
905.65	28.27
906.082	14.38
906.513	9.88
906.945	11.17
907.376	12.37
907.808	21.07
908.239	27.08
908.671	13.38
909.102	21.08
909.534	19.88
909.965	42.38
910.397	80.17
910.828	287.97
911.259	445.57
911.691	200.08
912.122	99.38
912.553	44.88
912.984	30.68
913.415	23.38
913.847	21.27
914.278	14.98
914.709	11.27
915.14	24.38
915.571	19.07
916.002	9.98
916.433	15.77
916.864	11.07
917.295	8.38
917.726	18.07
918.157	14.67
918.587	31.57
919.018	20.58
919.449	14.27
919.88	19.07
920.311	25.08
920.741	52.97
921.172	154.38
921.603	143.97
922.033	66.77
922.464	41.18
922.895	23.77
923.325	15.88
923.756	11.38
924.186	13.48
924.617	22.38
925.047	44.67
925.478	50.48
925.908	38.57
926.338	17.08
926.769	19.38
927.199	17.58
927.629	8.38
928.06	10.88
928.49	15.38
928.92	15.38
929.35	11.27
929.78	10.88
930.21	9.67
930.641	7.27
931.071	6.48
931.501	4.77
931.931	9.58
932.361	14.27
932.791	1.48
933.221	5.38
933.651	8.48
934.08	18.97
934.51	32.38
934.94	10.67
935.37	10.48
935.8	11.17
936.229	8.77
936.659	11.07
937.089	1.67
937.519	18.88
937.948	21.97
938.378	17.77
938.807	10.17
939.237	1.18
939.666	12.98
940.096	-3.23
940.525	5.38
940.955	2.68
941.384	1.48
941.814	-0.62
942.243	-1.83
942.672	2.98
943.102	-2.32
943.531	-3.42
943.96	7.67
944.39	0.27
944.819	-4.03
945.248	0.98
945.677	3.38
946.106	2.98
946.535	3.77
946.964	3.67
947.393	3.17
947.822	2.48
948.251	-7.03
948.68	4.88
949.109	0.67
949.538	7.77
949.967	-6.62
950.396	-1.03
950.825	1.17
951.254	-0.52
951.682	-2.03
952.111	6.98
952.54	2.77
952.969	-3.62
953.397	-4.43
953.826	7.47
954.254	-3.73
954.683	1.27
955.112	-0.42
955.54	1.08
955.969	-3.92
956.397	-3.33
956.826	-0.73
957.254	1.58
957.682	6.57
958.111	7.77
958.539	3.98
958.967	-5.42
959.396	-1.53
959.824	2.08
960.252	1.67
960.68	-5.03
961.109	-3.63
961.537	-1.42
961.965	-2.43
962.393	5.08
962.821	-1.42
963.249	2.77
963.677	0.27
964.105	4.47
964.533	39.18
964.961	47.07
965.389	17.77
965.817	4.07
966.245	5.88
966.672	0.88
967.1	-6.23
967.528	3.17
967.956	-0.12
968.383	-2.23
968.811	-3.42
969.239	0.17
969.666	-1.23
970.094	-3.12
970.522	-0.02
970.949	7.67
971.377	-5.12
971.804	0.88
972.232	-3.02
972.659	-1.23
973.087	-1.63
973.514	-1.63
973.941	-5.73
974.369	3.77
974.796	-1.23
975.223	1.57
975.651	3.18
976.078	-2.52
976.505	-1.62
976.932	1.67
977.359	8.77
977.786	15.88
978.214	-0.83
978.641	-0.33
979.068	-0.23
979.495	-7.43
979.922	-0.43
980.349	-1.83
980.776	4.27
981.202	0.97
981.629	2.17
982.056	6.77
982.483	-6.33
982.91	4.98
983.337	-5.62
983.763	2.37
984.19	-3.73
984.617	-5.12
985.043	1.57
985.47	-4.73
985.897	-2.02
986.323	-4.03
986.75	7.38
987.176	0.38
987.603	5.17
988.029	0.77
988.456	2.47
988.882	-0.23
989.308	-1.93
989.735	-1.33
990.161	0.27
990.587	-3.83
991.014	-0.43
991.44	3.17
991.866	1.58
992.292	-9.82
992.719	-4.53
993.145	1.08
993.571	-10.52
993.997	-2.73
994.423	2.48
994.849	-4.13
995.275	5.38
995.701	-0.33
996.127	-7.73
996.553	4.98
996.979	-5.52
997.405	-0.32
997.83	-5.23
998.256	-7.33
998.682	-8.02
999.108	-9.33
999.534	-2.43
999.959	0.38
1000.385	-2.02
1000.811	-0.43
1001.236	-5.23
1001.662	-5.62
1002.087	-11.42
1002.513	2.37
1002.938	-2.42
1003.364	-1.02
1003.789	-2.42
1004.215	2.38
1004.64	-0.53
1005.066	-0.62
1005.491	-3.23
1005.916	-3.23
1006.342	-2.62
1006.767	-7.83
1007.192	4.17
1007.617	-6.73
1008.042	-6.42
1008.468	-9.12
1008.893	-8.02
1009.318	0.98
1009.743	-2.33
1010.168	-1.53
1010.593	1.77
1011.018	-10.02
1011.443	-3.83
1011.868	2.68
1012.293	-8.32
1012.718	-8.52
1013.143	3.87
1013.567	-4.62
1013.992	-0.93
1014.417	-8.23
1014.842	0.97
1015.267	-5.43
1015.691	-1.73
1016.116	6.38
1016.541	-1.62
1016.965	3.07
1017.39	-0.33
1017.814	-2.73
1018.239	-2.23
1018.663	-2.62
1019.088	-9.83
1019.512	-5.03
1019.937	3.27
1020.361	1.98
1020.785	-5.83
1021.21	-2.12
1021.634	-0.23
1022.058	-6.23
1022.483	7.88
1022.907	-5.62
1023.331	-3.62
1023.755	-3.83
1024.179	-1.73
1024.604	-6.83
1025.028	-8.93
1025.452	-6.83
1025.876	-6.83
1026.3	-4.03
1026.724	-5.33
1027.148	0.38
1027.572	-9.83
1027.996	-0.52
1028.42	-3.13
1028.843	-2.83
1029.267	-6.33
1029.691	0.77
1030.115	-10.12
1030.539	-9.33
1030.962	-1.43
1031.386	-8.42
1031.81	1.68
1032.233	0.17
1032.657	-3.02
1033.08	-1.02
1033.504	-3.73
1033.927	-4.12
1034.351	-3.62
1034.774	-3.12
1035.198	-1.23
1035.621	-10.02
1036.045	-6.93
1036.468	6.57
1036.891	-3.62
1037.315	-14.03
1037.738	-6.73
1038.161	2.87
1038.584	-5.23
1039.008	-7.62
1039.431	2.57
1039.854	0.07
1040.277	-4.33
1040.7	-11.42
1041.123	-2.33
1041.546	-4.12
1041.969	-2.92
1042.392	0.07
1042.815	-0.63
1043.238	3.27
1043.661	3.38
1044.084	-5.33
1044.507	-8.83
1044.93	1.27
1045.352	-2.93
1045.775	-1.63
1046.198	3.38
1046.621	-5.62
1047.043	-0.23
1047.466	9.17
1047.889	0.27
1048.311	-2.62
1048.734	-0.02
1049.156	-0.12
1049.579	-0.03
1050.001	-3.12
1050.424	-4.93
1050.846	-4.43
1051.269	-6.52
1051.691	-11.62
1052.113	-6.03
1052.536	-3.52
1052.958	-3.12
1053.38	-3.62
1053.802	-6.43
1054.225	0.67
1054.647	-5.73
1055.069	-7.33
1055.491	1.77
1055.913	-10.43
1056.335	-2.43
1056.757	-6.42
1057.179	-8.03
1057.601	-2.83
1058.023	-3.62
1058.445	0.97
1058.867	-6.62
1059.289	-5.23
1059.711	-6.42
1060.133	-5.03
1060.555	-6.12
1060.976	-7.73
1061.398	-9.12
1061.82	-7.73
1062.241	-4.73
1062.663	-12.53
1063.085	-5.83
1063.506	-2.23
1063.928	-1.83
1064.35	-5.12
1064.771	-11.93
1065.193	-0.13
1065.614	-6.73
1066.035	-0.92
1066.457	-3.93
1066.878	3.38
1067.3	-3.83
1067.721	-4.43
1068.142	-3.43
1068.564	-5.83
1068.985	-0.83
1069.406	-7.52
1069.827	-5.73
1070.248	-1.23
1070.67	-6.93
1071.091	-3.62
1071.512	2.07
1071.933	-7.23
1072.354	-12.52
1072.775	-6.12
1073.196	-11.52
1073.617	-1.73
1074.038	-5.12
1074.459	-3.92
1074.88	-6.12
1075.3	7.98
1075.721	-1.93
1076.142	-0.42
1076.563	-5.83
1076.983	-9.83
1077.404	-4.32
1077.825	-7.42
1078.246	0.57
1078.666	-11.93
1079.087	-5.12
1079.507	-7.23
1079.928	3.07
1080.348	-5.52
1080.769	-3.33
1081.189	-0.12
1081.61	-0.62
1082.03	2.77
1082.451	-6.62
1082.871	-2.62
1083.291	-7.63
1083.711	-1.73
1084.132	-4.33
1084.552	-1.62
1084.972	-2.42
1085.392	-8.83
1085.813	-13.43
1086.233	-11.93
1086.653	-5.42
1087.073	-1.73
1087.493	-8.93
1087.913	-7.93
1088.333	-8.93
1088.753	1.77
1089.173	4.77
1089.593	-3.82
1090.013	3.47
1090.433	-1.12
1090.852	-0.23
1091.272	-6.53
1091.692	-1.12
1092.112	-1.33
1092.531	-6.43
1092.951	-18.33
1093.371	-5.43
1093.79	0.08
1094.21	-1.12
1094.63	-8.42
1095.049	-0.42
1095.469	-2.43
1095.888	-3.83
1096.308	1.17
1096.727	2.48
1097.146	-6.33
1097.566	-1.52
1097.985	-5.73
1098.405	-8.82
1098.824	-12.52
1099.243	-6.23
1099.662	-8.03
1100.082	-7.73
1100.501	-0.23
1100.92	-5.93
1101.339	-6.33
1101.758	-3.62
