Data from 20171114-ORNL-Ar_H_NY_Subt18_08-08-26-849.txt Node
Date: Tue Nov 14 08:08:26 EST 2017
User: Ender
Spectrometer: HR+D1039
Trigger mode: 0
Integration Time (sec): 2.730000E-2
Scans to average: 10
Electric dark correction enabled: true
Nonlinearity correction enabled: false
Boxcar width: 0
XAxis mode: Wavelengths
Number of Pixels in Spectrum: 2048
>>>>>Begin Spectral Data<<<<<
187.836	-3.62
188.309	-3.62
188.782	-3.62
189.255	-4.32
189.728	-2.32
190.201	6.58
190.674	1.48
191.147	4.68
191.619	-5.82
192.092	2.28
192.565	5.78
193.038	0.78
193.511	-2.82
193.984	1.88
194.456	0.08
194.929	3.38
195.402	-7.62
195.874	-0.42
196.347	-7.82
196.82	-3.62
197.292	5.18
197.765	1.68
198.237	-3.72
198.71	-0.22
199.182	-0.52
199.655	1.08
200.127	5.08
200.6	-8.92
201.072	-1.22
201.544	-3.72
202.017	-2.62
202.489	-2.22
202.961	-4.32
203.433	-4.02
203.906	-4.22
204.378	-3.62
204.85	1.28
205.322	-8.02
205.794	-0.42
206.266	-4.82
206.739	-4.62
207.211	4.08
207.683	-2.32
208.155	-7.92
208.627	0.08
209.099	-0.72
209.57	-7.72
210.042	-5.52
210.514	-0.62
210.986	-1.22
211.458	-8.32
211.93	-4.42
212.402	8.08
212.873	-6.82
213.345	-16.52
213.817	-14.32
214.288	-6.72
214.76	-9.32
215.232	-1.02
215.703	-4.12
216.175	-6.42
216.646	-10.02
217.118	-8.72
217.589	-4.72
218.061	-0.52
218.532	-6.22
219.004	-3.12
219.475	-1.82
219.946	-5.32
220.418	-2.82
220.889	4.08
221.36	-2.92
221.832	-9.42
222.303	-8.32
222.774	-2.12
223.245	-12.72
223.717	-2.92
224.188	-4.32
224.659	-11.42
225.13	-1.72
225.601	-3.52
226.072	-3.72
226.543	-0.82
227.014	-1.52
227.485	-10.52
227.956	-8.52
228.427	1.88
228.898	-1.22
229.369	4.18
229.839	-4.92
230.31	-10.82
230.781	4.58
231.252	-3.92
231.722	-2.92
232.193	-7.92
232.664	-4.72
233.135	-7.32
233.605	-3.12
234.076	-4.42
234.546	1.38
235.017	7.08
235.487	0.88
235.958	-4.52
236.428	-8.62
236.899	0.88
237.369	-1.22
237.84	-3.32
238.31	3.98
238.78	5.38
239.251	-2.42
239.721	2.48
240.191	-2.02
240.662	-2.32
241.132	-3.92
241.602	-4.82
242.072	-4.32
242.542	3.28
243.013	-5.62
243.483	-1.52
243.953	-1.32
244.423	-2.42
244.893	-3.02
245.363	-4.42
245.833	1.88
246.303	1.98
246.773	4.08
247.243	-4.62
247.712	1.48
248.182	6.88
248.652	4.78
249.122	-6.32
249.592	4.68
250.061	10.68
250.531	15.48
251.001	-0.02
251.471	1.48
251.94	8.38
252.41	3.38
252.879	-6.02
253.349	6.08
253.818	10.38
254.288	0.58
254.757	2.28
255.227	-4.22
255.696	6.08
256.166	-1.72
256.635	3.18
257.105	7.58
257.574	-1.82
258.043	0.48
258.513	-3.42
258.982	6.08
259.451	0.98
259.92	11.08
260.389	-1.92
260.859	12.08
261.328	6.28
261.797	5.58
262.266	3.08
262.735	7.18
263.204	7.18
263.673	3.38
264.142	2.88
264.611	-1.12
265.08	1.88
265.549	-3.02
266.018	1.98
266.487	-9.42
266.955	-2.92
267.424	5.08
267.893	7.28
268.362	-1.22
268.83	10.88
269.299	3.88
269.768	9.28
270.236	-0.92
270.705	3.88
271.174	9.78
271.642	3.08
272.111	5.48
272.579	4.38
273.048	3.48
273.516	9.18
273.985	11.88
274.453	8.48
274.922	13.08
275.39	13.48
275.858	-0.22
276.327	13.98
276.795	12.98
277.263	6.48
277.731	17.58
278.2	24.58
278.668	22.48
279.136	20.58
279.604	10.18
280.072	18.18
280.54	9.28
281.008	7.78
281.477	13.38
281.945	7.38
282.413	14.58
282.881	13.88
283.348	7.48
283.816	12.58
284.284	10.38
284.752	24.98
285.22	7.98
285.688	16.68
286.156	10.98
286.623	24.58
287.091	14.58
287.559	16.28
288.026	13.58
288.494	10.28
288.962	5.48
289.429	6.28
289.897	15.28
290.364	14.08
290.832	21.28
291.3	15.18
291.767	14.88
292.234	22.78
292.702	11.38
293.169	17.78
293.637	21.98
294.104	22.58
294.571	10.98
295.039	14.08
295.506	11.78
295.973	19.58
296.44	7.98
296.908	18.68
297.375	18.38
297.842	20.78
298.309	20.48
298.776	9.48
299.243	16.58
299.71	11.78
300.177	19.48
300.644	24.08
301.111	20.08
301.578	22.58
302.045	14.18
302.512	27.08
302.979	29.18
303.446	25.08
303.913	23.68
304.379	19.08
304.846	28.88
305.313	24.48
305.78	21.88
306.246	26.58
306.713	26.88
307.18	21.58
307.646	26.38
308.113	27.88
308.579	23.78
309.046	28.28
309.512	28.18
309.979	17.08
310.445	29.68
310.912	25.18
311.378	27.88
311.845	31.28
312.311	30.28
312.777	36.88
313.244	32.88
313.71	36.48
314.176	31.28
314.642	19.88
315.109	29.28
315.575	38.18
316.041	34.08
316.507	29.78
316.973	34.68
317.439	31.68
317.905	35.98
318.371	33.28
318.837	36.08
319.303	34.08
319.769	37.08
320.235	36.48
320.701	38.58
321.167	41.28
321.633	32.88
322.099	36.48
322.564	41.58
323.03	37.88
323.496	38.08
323.962	39.58
324.427	37.68
324.893	43.68
325.359	42.68
325.824	36.78
326.29	40.88
326.755	37.58
327.221	45.88
327.686	41.18
328.152	46.08
328.617	44.28
329.083	45.78
329.548	52.98
330.014	50.28
330.479	44.48
330.944	47.88
331.41	41.98
331.875	47.68
332.34	44.18
332.805	48.28
333.271	44.48
333.736	38.38
334.201	49.68
334.666	56.48
335.131	50.38
335.596	49.38
336.061	52.68
336.526	48.08
336.991	46.38
337.456	55.28
337.921	47.38
338.386	39.48
338.851	48.28
339.316	48.98
339.781	42.38
340.246	51.68
340.711	46.88
341.175	53.28
341.64	48.18
342.105	58.38
342.569	55.48
343.034	57.18
343.499	54.18
343.963	49.98
344.428	60.58
344.893	58.88
345.357	63.38
345.822	63.78
346.286	65.68
346.751	75.28
347.215	70.78
347.679	78.28
348.144	99.78
348.608	90.18
349.073	69.88
349.537	75.88
350.001	80.48
350.465	88.18
350.93	83.58
351.394	88.78
351.858	78.58
352.322	92.48
352.786	89.58
353.25	98.78
353.715	109.08
354.179	97.88
354.643	126.08
355.107	125.28
355.571	112.18
356.035	105.98
356.498	119.38
356.962	125.38
357.426	134.18
357.89	122.08
358.354	96.88
358.818	92.38
359.281	77.38
359.745	74.48
360.209	83.48
360.673	71.78
361.136	77.08
361.6	80.58
362.064	81.78
362.527	82.48
362.991	97.18
363.454	84.18
363.918	78.68
364.381	78.68
364.845	84.48
365.308	89.08
365.772	93.88
366.235	83.48
366.698	88.28
367.162	85.78
367.625	87.18
368.088	92.88
368.552	89.98
369.015	93.38
369.478	98.18
369.941	101.58
370.404	97.28
370.867	104.08
371.331	109.68
371.794	117.18
372.257	110.58
372.72	113.68
373.183	108.18
373.646	93.18
374.109	103.68
374.572	104.08
375.035	104.68
375.497	113.88
375.96	109.68
376.423	104.38
376.886	115.48
377.349	113.98
377.811	105.48
378.274	104.58
378.737	108.58
379.199	107.88
379.662	114.48
380.125	115.78
380.587	116.98
381.05	110.38
381.512	120.08
381.975	127.68
382.437	126.28
382.9	124.98
383.362	126.58
383.825	141.48
384.287	132.78
384.75	126.28
385.212	127.48
385.674	141.28
386.136	140.68
386.599	123.28
387.061	135.98
387.523	126.78
387.985	128.48
388.447	141.28
388.91	134.78
389.372	140.88
389.834	145.58
390.296	134.98
390.758	140.28
391.22	151.18
391.682	167.88
392.144	186.28
392.606	161.48
393.068	151.68
393.529	162.18
393.991	156.68
394.453	134.48
394.915	142.98
395.377	151.18
395.838	156.28
396.3	144.18
396.762	146.38
397.224	148.18
397.685	142.88
398.147	142.58
398.608	138.08
399.07	139.78
399.531	146.88
399.993	153.58
400.454	165.18
400.916	156.28
401.377	153.98
401.839	161.38
402.3	158.48
402.762	176.58
403.223	183.08
403.684	178.78
404.145	170.08
404.607	170.48
405.068	173.08
405.529	186.58
405.99	195.08
406.451	189.58
406.913	184.08
407.374	175.38
407.835	171.68
408.296	178.28
408.757	182.48
409.218	194.38
409.679	184.48
410.14	187.58
410.601	186.08
411.062	189.08
411.522	191.78
411.983	185.48
412.444	188.48
412.905	190.68
413.366	193.88
413.826	208.98
414.287	236.28
414.748	275.88
415.208	265.58
415.669	232.88
416.13	217.98
416.59	221.38
417.051	227.78
417.511	228.58
417.972	258.68
418.432	263.58
418.893	314.78
419.353	269.08
419.814	215.28
420.274	202.08
420.734	201.48
421.195	208.08
421.655	208.78
422.115	203.48
422.576	204.08
423.036	214.88
423.496	225.28
423.956	238.48
424.416	256.68
424.876	281.28
425.336	281.28
425.797	277.58
426.257	276.88
426.717	255.18
427.177	246.08
427.637	242.08
428.097	253.18
428.556	264.18
429.016	287.58
429.476	278.68
429.936	286.08
430.396	295.48
430.856	307.48
431.315	329.48
431.775	367.68
432.235	401.78
432.694	369.28
433.154	384.18
433.614	413.48
434.073	349.38
434.533	294.78
434.993	286.08
435.452	297.28
435.912	316.68
436.371	300.48
436.83	305.28
437.29	288.98
437.749	267.88
438.209	270.08
438.668	296.98
439.127	311.58
439.587	283.78
440.046	269.68
440.505	283.68
440.964	305.78
441.424	348.18
441.883	336.08
442.342	279.48
442.801	238.38
443.26	239.68
443.719	238.08
444.178	238.68
444.637	231.38
445.096	242.18
445.555	240.28
446.014	242.88
446.473	245.78
446.932	258.68
447.391	249.38
447.849	251.58
448.308	229.98
448.767	249.68
449.226	259.18
449.685	259.88
450.143	271.68
450.602	262.78
451.061	249.68
451.519	251.58
451.978	255.48
452.436	251.18
452.895	262.98
453.353	269.88
453.812	258.78
454.27	266.98
454.729	258.58
455.187	261.28
455.646	268.98
456.104	269.28
456.562	278.88
457.021	289.48
457.479	284.08
457.937	295.98
458.395	286.68
458.854	265.38
459.312	279.08
459.77	301.98
460.228	275.88
460.686	266.28
461.144	270.38
461.602	267.78
462.06	269.38
462.518	279.38
462.976	277.48
463.434	280.68
463.892	278.08
464.35	299.18
464.808	317.98
465.266	289.98
465.724	289.98
466.181	295.78
466.639	288.58
467.097	317.18
467.555	325.68
468.012	325.38
468.47	334.18
468.928	355.48
469.385	371.38
469.843	376.68
470.3	380.68
470.758	391.38
471.215	415.68
471.673	433.78
472.13	435.88
472.588	451.68
473.045	403.08
473.503	409.98
473.96	419.18
474.417	426.98
474.875	470.18
475.332	506.08
475.789	500.58
476.246	508.48
476.704	522.88
477.161	544.08
477.618	561.68
478.075	591.38
478.532	657.78
478.989	726.88
479.446	842.78
479.903	807.88
480.36	828.38
480.817	882.58
481.274	974.18
481.731	1076.18
482.188	1159.38
482.645	1280.28
483.102	1379.98
483.558	1509.68
484.015	1547.48
484.472	1516.48
484.929	1450.28
485.385	1420.38
485.842	1396.48
486.299	1348.58
486.755	1309.48
487.212	1113.88
487.668	952.38
488.125	878.68
488.582	809.08
489.038	772.58
489.494	751.08
489.951	724.28
490.407	705.48
490.864	677.08
491.32	680.98
491.776	690.88
492.233	691.58
492.689	661.98
493.145	647.38
493.602	635.68
494.058	653.18
494.514	648.88
494.97	679.38
495.426	689.68
495.882	666.68
496.338	649.08
496.794	658.98
497.251	652.18
497.707	677.88
498.163	665.38
498.618	678.48
499.074	686.58
499.53	716.68
499.986	717.68
500.442	687.58
500.898	674.48
501.354	655.98
501.809	665.78
502.265	669.48
502.721	676.68
503.177	685.68
503.632	686.38
504.088	695.38
504.543	717.58
504.999	735.68
505.455	695.48
505.91	681.48
506.366	681.38
506.821	667.38
507.277	670.18
507.732	680.18
508.187	672.48
508.643	683.68
509.098	686.18
509.553	695.28
510.009	711.68
510.464	717.28
510.919	746.28
511.375	747.88
511.83	755.08
512.285	765.98
512.74	807.58
513.195	825.78
513.65	822.38
514.105	809.48
514.56	818.08
515.015	840.18
515.47	851.78
515.925	830.08
516.38	839.38
516.835	845.18
517.29	826.68
517.745	823.88
518.2	814.58
518.655	797.58
519.109	790.58
519.564	797.08
520.019	797.28
520.474	771.98
520.928	769.68
521.383	778.38
521.838	753.68
522.292	752.88
522.747	756.18
523.201	752.18
523.656	739.38
524.11	742.68
524.565	747.08
525.019	738.08
525.474	735.88
525.928	744.18
526.382	745.88
526.837	738.48
527.291	752.78
527.745	746.48
528.2	747.58
528.654	739.78
529.108	733.28
529.562	738.18
530.016	744.38
530.47	730.88
530.925	736.78
531.379	741.08
531.833	748.18
532.287	746.18
532.741	750.48
533.195	745.28
533.649	752.78
534.103	762.48
534.556	756.18
535.01	752.88
535.464	751.38
535.918	765.88
536.372	765.38
536.826	772.88
537.279	761.68
537.733	761.88
538.187	757.68
538.64	761.58
539.094	771.18
539.548	775.68
540.001	780.08
540.455	774.78
540.908	778.68
541.362	777.58
541.815	803.08
542.269	803.88
542.722	802.48
543.175	820.28
543.629	816.68
544.082	835.38
544.536	843.68
544.989	836.68
545.442	857.08
545.895	845.18
546.349	841.08
546.802	846.38
547.255	848.48
547.708	860.38
548.161	874.48
548.614	863.38
549.067	883.48
549.52	865.88
549.973	871.78
550.426	853.58
550.879	862.88
551.332	862.68
551.785	853.88
552.238	858.48
552.691	883.38
553.144	895.68
553.596	900.68
554.049	932.88
554.502	954.38
554.955	972.08
555.407	966.38
555.86	955.58
556.313	954.58
556.765	939.28
557.218	942.18
557.67	938.88
558.123	937.28
558.576	934.58
559.028	942.68
559.48	939.18
559.933	923.28
560.385	894.58
560.838	871.88
561.29	850.08
561.742	840.98
562.195	824.18
562.647	823.88
563.099	835.68
563.551	828.98
564.004	842.08
564.456	823.08
564.908	817.68
565.36	793.98
565.812	782.78
566.264	781.28
566.716	770.28
567.168	738.28
567.62	754.08
568.072	745.28
568.524	738.28
568.976	730.38
569.428	730.18
569.88	724.68
570.332	738.58
570.784	731.38
571.235	733.58
571.687	746.98
572.139	754.88
572.59	758.68
573.042	762.18
573.494	763.38
573.945	753.28
574.397	744.18
574.849	743.08
575.3	744.18
575.752	733.38
576.203	724.08
576.655	730.48
577.106	717.18
577.557	714.38
578.009	719.58
578.46	711.28
578.912	712.68
579.363	716.18
579.814	714.68
580.265	712.78
580.717	713.78
581.168	716.98
581.619	723.88
582.07	727.08
582.521	719.18
582.972	711.18
583.423	719.68
583.875	723.78
584.326	731.48
584.777	749.68
585.227	780.88
585.678	805.98
586.129	833.78
586.58	873.48
587.031	900.38
587.482	950.78
587.933	1008.98
588.384	958.18
588.834	862.38
589.285	822.38
589.736	827.88
590.186	815.48
590.637	814.08
591.088	793.38
591.538	782.98
591.989	774.28
592.439	776.48
592.89	760.48
593.34	751.48
593.791	745.48
594.241	747.88
594.692	749.48
595.142	745.18
595.593	745.98
596.043	752.68
596.493	748.38
596.943	745.08
597.394	779.58
597.844	757.18
598.294	788.98
598.744	812.18
599.195	826.48
599.645	878.38
600.095	922.58
600.545	986.78
600.995	1036.68
601.445	1104.38
601.895	1173.38
602.345	1206.78
602.795	1184.28
603.245	1144.68
603.695	1084.08
604.145	1018.88
604.594	974.68
605.044	921.18
605.494	854.88
605.944	802.28
606.393	800.08
606.843	780.28
607.293	780.08
607.743	777.38
608.192	783.68
608.642	802.18
609.091	802.58
609.541	811.38
609.99	807.18
610.44	809.98
610.889	756.88
611.339	745.98
611.788	732.18
612.238	727.38
612.687	742.98
613.136	739.78
613.586	760.78
614.035	755.88
614.484	762.88
614.933	759.08
615.383	760.48
615.832	749.98
616.281	753.48
616.73	718.88
617.179	703.48
617.628	688.48
618.077	664.78
618.526	658.28
618.975	675.98
619.424	649.38
619.873	649.58
620.322	654.88
620.771	644.78
621.22	637.78
621.669	634.78
622.118	626.88
622.567	623.58
623.015	610.08
623.464	612.78
623.913	599.38
624.361	587.18
624.81	584.08
625.259	604.68
625.707	593.08
626.156	597.18
626.604	600.08
627.053	600.28
627.501	608.08
627.95	606.88
628.398	619.48
628.847	605.68
629.295	605.68
629.744	610.58
630.192	602.78
630.64	602.98
631.089	588.28
631.537	581.08
631.985	574.78
632.433	581.88
632.881	566.68
633.33	584.68
633.778	572.68
634.226	561.88
634.674	581.38
635.122	577.68
635.57	596.58
636.018	619.78
636.466	607.28
636.914	597.18
637.362	617.28
637.81	617.28
638.258	624.28
638.705	617.38
639.153	657.18
639.601	648.98
640.049	684.18
640.497	718.18
640.944	742.88
641.392	685.78
641.84	653.58
642.287	629.18
642.735	602.28
643.182	609.88
643.63	596.38
644.078	605.88
644.525	610.18
644.973	619.28
645.42	641.98
645.867	662.78
646.315	677.28
646.762	696.28
647.21	716.88
647.657	745.98
648.104	785.98
648.551	803.28
648.999	867.78
649.446	944.18
649.893	1029.18
650.34	1184.28
650.787	1397.08
651.234	1743.38
651.682	2242.98
652.129	3048.28
652.576	4327.18
653.023	6331.18
653.47	8511.98
653.917	10505.28
654.363	12019.08
654.81	13218.98
655.257	12559.78
655.704	8327.28
656.151	5022.88
656.598	3286.58
657.044	2349.58
657.491	1822.78
657.938	1492.58
658.385	1247.38
658.831	1091.38
659.278	981.68
659.724	877.38
660.171	814.68
660.618	738.88
661.064	725.38
661.511	702.78
661.957	690.38
662.404	673.38
662.85	682.48
663.296	658.68
663.743	589.98
664.189	571.68
664.635	566.18
665.082	561.78
665.528	565.38
665.974	555.98
666.42	541.48
666.867	539.08
667.313	518.78
667.759	493.98
668.205	486.58
668.651	486.48
669.097	483.38
669.543	478.88
669.989	466.38
670.435	472.38
670.881	469.78
671.327	486.58
671.773	502.98
672.219	531.48
672.665	594.08
673.11	627.08
673.556	661.58
674.002	696.78
674.448	697.78
674.893	588.28
675.339	506.88
675.785	471.08
676.23	454.58
676.676	426.38
677.122	413.78
677.567	401.28
678.013	397.58
678.458	386.28
678.904	391.68
679.349	370.38
679.794	379.38
680.24	383.88
680.685	375.58
681.131	376.08
681.576	369.18
682.021	378.48
682.466	370.58
682.912	376.28
683.357	380.88
683.802	412.68
684.247	441.48
684.692	485.48
685.137	535.38
685.583	580.18
686.028	606.08
686.473	559.48
686.918	480.78
687.363	451.98
687.807	418.58
688.252	389.38
688.697	383.48
689.142	365.98
689.587	358.88
690.032	356.98
690.477	363.58
690.921	379.38
691.366	408.58
691.811	429.98
692.255	467.88
692.7	494.78
693.145	554.58
693.589	772.38
694.034	1246.08
694.478	1690.38
694.923	1866.28
695.367	2405.58
695.812	1280.98
696.256	544.98
696.701	400.08
697.145	372.48
697.59	352.08
698.034	350.88
698.478	350.78
698.922	345.48
699.367	346.48
699.811	357.68
700.255	377.58
700.699	419.78
701.143	451.08
701.588	508.48
702.032	553.28
702.476	546.18
702.92	529.48
703.364	542.28
703.808	703.58
704.252	1154.58
704.696	1575.98
705.14	1789.78
705.584	2263.68
706.027	1152.08
706.471	569.08
706.915	424.48
707.359	382.58
707.803	345.98
708.246	332.48
708.69	336.88
709.134	335.48
709.577	331.68
710.021	339.18
710.465	330.88
710.908	322.08
711.352	324.38
711.795	330.28
712.239	382.78
712.682	422.08
713.126	448.18
713.569	485.08
714.012	381.28
714.456	327.68
714.899	311.48
715.342	294.78
715.786	278.08
716.229	276.48
716.672	274.18
717.115	268.98
717.558	268.58
718.002	274.38
718.445	292.38
718.888	301.58
719.331	313.48
719.774	323.78
720.217	324.28
720.66	304.38
721.103	282.18
721.546	270.88
721.989	268.28
722.432	248.18
722.874	250.08
723.317	242.48
723.76	253.08
724.203	273.08
724.645	346.38
725.088	485.48
725.531	617.38
725.974	683.78
726.416	580.48
726.859	328.48
727.301	256.88
727.744	250.08
728.187	245.68
728.629	255.18
729.071	263.78
729.514	275.98
729.956	296.78
730.399	303.88
730.841	313.48
731.283	301.78
731.726	286.68
732.168	284.28
732.61	287.28
733.053	306.78
733.495	347.08
733.937	380.58
734.379	427.18
734.821	475.98
735.263	593.88
735.705	932.98
736.148	1757.78
736.59	2813.58
737.032	3258.78
737.474	2653.48
737.916	878.68
738.357	461.48
738.799	351.18
739.241	316.68
739.683	301.98
740.125	317.88
740.567	324.68
741.008	341.78
741.45	340.88
741.892	344.18
742.334	380.68
742.775	390.08
743.217	365.58
743.658	283.38
744.1	274.78
744.542	287.48
744.983	344.88
745.425	376.18
745.866	368.38
746.307	311.88
746.749	302.38
747.19	353.18
747.632	502.28
748.073	986.68
748.514	2052.68
748.956	3068.38
749.397	3872.58
749.838	3209.98
750.279	3147.08
750.72	1612.88
751.162	594.58
751.603	346.88
752.044	279.38
752.485	234.58
752.926	229.08
753.367	217.38
753.808	210.58
754.249	202.58
754.69	203.88
755.131	195.68
755.572	192.98
756.013	192.18
756.453	198.88
756.894	200.48
757.335	199.88
757.776	213.78
758.216	215.88
758.657	219.88
759.098	211.98
759.538	243.98
759.979	287.98
760.42	416.18
760.86	795.88
761.301	2069.08
761.741	4877.78
762.182	6772.58
762.622	4832.48
763.063	1416.98
763.503	589.08
763.943	357.28
764.384	307.48
764.824	306.88
765.264	308.98
765.705	248.18
766.145	200.58
766.585	191.98
767.025	185.28
767.465	188.58
767.906	206.88
768.346	243.58
768.786	252.28
769.226	242.38
769.666	344.38
770.106	687.78
770.546	1736.18
770.986	2817.68
771.426	2511.28
771.866	860.78
772.306	356.68
772.745	219.18
773.185	183.58
773.625	176.38
774.065	162.98
774.505	175.08
774.944	238.08
775.384	422.88
775.824	701.08
776.263	673.48
776.703	325.68
777.142	176.18
777.582	149.68
778.021	132.08
778.461	134.28
778.9	131.68
779.34	132.48
779.779	120.28
780.219	116.38
780.658	109.08
781.097	117.38
781.537	126.28
781.976	112.28
782.415	113.38
782.855	104.68
783.294	111.38
783.733	106.58
784.172	118.98
784.611	110.08
785.05	114.68
785.489	115.98
785.928	126.68
786.367	134.18
786.806	124.08
787.245	137.18
787.684	148.08
788.123	153.48
788.562	136.38
789.001	138.28
789.44	126.68
789.879	125.98
790.317	129.88
790.756	138.28
791.195	141.58
791.634	156.18
792.072	222.48
792.511	408.28
792.95	1123.48
793.388	2278.68
793.827	2018.58
794.265	720.18
794.704	304.68
795.142	195.98
795.581	160.68
796.019	144.98
796.458	136.38
796.896	131.08
797.334	139.28
797.773	170.38
798.211	238.38
798.649	500.78
799.087	1113.18
799.526	1739.48
799.964	2192.58
800.402	2133.18
800.84	807.88
801.278	327.78
801.716	199.18
802.154	164.28
802.592	163.68
803.03	149.98
803.468	144.08
803.906	153.18
804.344	159.08
804.782	159.38
805.22	148.18
805.658	145.88
806.096	161.68
806.533	168.88
806.971	193.28
807.409	234.98
807.847	355.98
808.284	751.08
808.722	2059.18
809.16	3522.18
809.597	3460.58
810.035	5886.28
810.472	6076.68
810.91	2233.88
811.347	859.58
811.785	437.58
812.222	274.58
812.66	213.18
813.097	173.08
813.535	154.88
813.972	139.88
814.409	131.28
814.846	118.58
815.284	118.98
815.721	109.08
816.158	116.48
816.595	117.88
817.032	170.78
817.47	191.48
817.907	144.28
818.344	109.18
818.781	107.78
819.218	101.78
819.655	132.28
820.092	203.28
820.529	232.18
820.966	185.88
821.403	133.28
821.839	108.58
822.276	110.28
822.713	132.38
823.15	142.58
823.587	129.28
824.023	158.88
824.46	341.38
824.897	992.38
825.333	1442.08
825.77	618.98
826.206	246.98
826.643	141.68
827.08	107.98
827.516	95.18
827.953	90.78
828.389	87.68
828.825	68.98
829.262	73.28
829.698	67.98
830.135	67.98
830.571	68.38
831.007	66.38
831.443	71.28
831.88	66.28
832.316	58.98
832.752	68.38
833.188	75.58
833.624	66.98
834.06	66.98
834.497	73.78
834.933	77.08
835.369	75.08
835.805	70.78
836.241	80.38
836.677	86.98
837.112	98.98
837.548	113.88
837.984	144.28
838.42	226.98
838.856	553.78
839.292	1652.08
839.727	2436.58
840.163	1155.48
840.599	1034.08
841.034	2201.18
841.47	2227.88
841.906	817.28
842.341	356.98
842.777	217.78
843.212	237.58
843.648	213.88
844.083	128.08
844.519	91.58
844.954	78.88
845.39	63.38
845.825	57.38
846.261	61.58
846.696	53.28
847.131	62.18
847.566	61.08
848.002	54.88
848.437	53.88
848.872	63.98
849.307	72.98
849.742	93.48
850.177	204.88
850.613	603.68
851.048	923.08
851.483	406.78
851.918	164.58
852.353	97.58
852.788	65.98
853.223	55.58
853.657	60.08
854.092	53.78
854.527	46.58
854.962	49.78
855.397	53.48
855.832	49.28
856.266	45.08
856.701	42.58
857.136	35.88
857.57	43.08
858.005	50.48
858.44	56.68
858.874	45.88
859.309	54.78
859.743	44.38
860.178	55.18
860.612	43.88
861.047	52.98
861.481	71.98
861.915	73.68
862.35	50.38
862.784	36.08
863.218	44.68
863.653	39.88
864.087	53.38
864.521	57.28
864.955	74.58
865.39	165.88
865.824	188.48
866.258	128.18
866.692	176.98
867.126	188.68
867.56	112.78
867.994	55.78
868.428	44.68
868.862	50.78
869.296	63.58
869.73	60.78
870.164	55.88
870.598	52.28
871.031	33.68
871.465	36.88
871.899	35.28
872.333	28.48
872.766	30.68
873.2	24.18
873.634	33.38
874.067	25.98
874.501	32.98
874.935	35.68
875.368	33.38
875.802	28.48
876.235	31.58
876.669	27.88
877.102	22.88
877.535	25.48
877.969	21.58
878.402	27.68
878.836	24.98
879.269	28.38
879.702	21.48
880.135	21.18
880.569	26.58
881.002	25.28
881.435	21.78
881.868	20.18
882.301	24.38
882.734	19.88
883.167	27.68
883.601	18.38
884.034	18.28
884.467	12.68
884.899	25.18
885.332	22.28
885.765	13.78
886.198	23.38
886.631	19.48
887.064	24.58
887.497	22.58
887.929	31.18
888.362	17.88
888.795	9.48
889.228	21.48
889.66	22.98
890.093	16.18
890.526	11.38
890.958	21.38
891.391	18.98
891.823	21.58
892.256	13.88
892.688	12.38
893.121	15.98
893.553	17.78
893.985	26.98
894.418	19.88
894.85	13.68
895.282	16.98
895.715	15.58
896.147	19.88
896.579	16.68
897.011	13.18
897.444	17.38
897.876	16.18
898.308	19.18
898.74	21.88
899.172	16.08
899.604	24.08
900.036	17.88
900.468	20.98
900.9	19.68
901.332	17.28
901.764	16.08
902.196	21.88
902.628	17.48
903.06	15.78
903.491	33.08
903.923	28.48
904.355	24.88
904.787	23.68
905.218	24.38
905.65	23.98
906.082	11.68
906.513	14.58
906.945	21.78
907.376	15.88
907.808	22.28
908.239	19.48
908.671	21.88
909.102	18.58
909.534	30.98
909.965	51.98
910.397	104.08
910.828	330.18
911.259	507.58
911.691	237.28
912.122	115.78
912.553	58.48
912.984	38.28
913.415	28.68
913.847	23.08
914.278	14.68
914.709	20.28
915.14	22.18
915.571	15.38
916.002	16.98
916.433	24.08
916.864	19.98
917.295	9.68
917.726	16.38
918.157	19.08
918.587	31.18
919.018	27.08
919.449	26.28
919.88	27.48
920.311	33.48
920.741	53.38
921.172	175.38
921.603	155.08
922.033	83.38
922.464	48.88
922.895	27.88
923.325	20.68
923.756	15.28
924.186	12.18
924.617	18.28
925.047	27.08
925.478	30.88
925.908	25.68
926.338	16.18
926.769	15.38
927.199	19.88
927.629	11.28
928.06	12.98
928.49	12.38
928.92	11.18
929.35	14.28
929.78	17.58
930.21	10.88
930.641	9.18
931.071	10.68
931.501	6.58
931.931	8.58
932.361	9.38
932.791	7.48
933.221	2.88
933.651	4.38
934.08	14.88
934.51	29.98
934.94	12.58
935.37	8.78
935.8	12.98
936.229	13.18
936.659	16.58
937.089	4.48
937.519	19.18
937.948	29.18
938.378	17.08
938.807	3.78
939.237	8.08
939.666	1.78
940.096	-3.92
940.525	4.68
940.955	4.58
941.384	7.78
941.814	-1.92
942.243	-0.02
942.672	1.88
943.102	-1.42
943.531	-3.92
943.96	8.58
944.39	-3.12
944.819	1.58
945.248	5.28
945.677	0.78
946.106	9.28
946.535	3.18
946.964	4.98
947.393	2.28
947.822	2.18
948.251	-3.92
948.68	3.38
949.109	0.48
949.538	5.78
949.967	1.38
950.396	-0.52
950.825	0.68
951.254	-0.62
951.682	-6.42
952.111	4.58
952.54	3.08
952.969	-2.52
953.397	-7.02
953.826	3.08
954.254	-3.22
954.683	-1.42
955.112	-4.32
955.54	-3.82
955.969	3.48
956.397	-4.52
956.826	-0.12
957.254	0.08
957.682	-1.62
958.111	3.38
958.539	-1.12
958.967	2.18
959.396	2.88
959.824	1.68
960.252	1.78
960.68	-7.42
961.109	-2.12
961.537	-2.22
961.965	-2.42
962.393	2.28
962.821	-1.52
963.249	1.38
963.677	3.58
964.105	5.28
964.533	49.08
964.961	44.68
965.389	24.58
965.817	7.88
966.245	0.68
966.672	1.18
967.1	-4.42
967.528	1.08
967.956	-3.02
968.383	0.08
968.811	-2.42
969.239	-0.12
969.666	0.78
970.094	0.28
970.522	-1.62
970.949	-3.42
971.377	-7.52
971.804	-6.82
972.232	-5.62
972.659	-4.42
973.087	1.48
973.514	-5.52
973.941	-5.52
974.369	1.48
974.796	-1.52
975.223	-0.72
975.651	1.68
976.078	-0.02
976.505	-6.52
976.932	5.68
977.359	18.78
977.786	18.38
978.214	1.78
978.641	-1.32
979.068	-0.12
979.495	-7.32
979.922	1.28
980.349	0.58
980.776	3.78
981.202	-1.02
981.629	9.58
982.056	6.28
982.483	0.48
982.91	2.98
983.337	-6.62
983.763	2.98
984.19	-3.52
984.617	-1.52
985.043	-3.22
985.47	1.68
985.897	-5.02
986.323	-5.12
986.75	7.08
987.176	2.78
987.603	6.78
988.029	-4.72
988.456	-3.82
988.882	1.58
989.308	-6.42
989.735	-7.32
990.161	2.08
990.587	-1.62
991.014	1.98
991.44	0.48
991.866	-0.32
992.292	-7.92
992.719	-8.62
993.145	7.78
993.571	-6.22
993.997	-2.72
994.423	1.38
994.849	-5.42
995.275	3.48
995.701	4.98
996.127	1.28
996.553	-0.52
996.979	-2.22
997.405	-1.32
997.83	-6.82
998.256	-6.92
998.682	-3.52
999.108	-5.62
999.534	0.38
999.959	-1.22
1000.385	-4.12
1000.811	-0.42
1001.236	-10.42
1001.662	-11.02
1002.087	-5.32
1002.513	-1.52
1002.938	-1.32
1003.364	-0.92
1003.789	3.08
1004.215	4.38
1004.64	0.98
1005.066	-2.02
1005.491	1.18
1005.916	0.38
1006.342	0.78
1006.767	-10.02
1007.192	2.88
1007.617	-4.72
1008.042	-6.02
1008.468	-2.12
1008.893	0.98
1009.318	0.38
1009.743	0.58
1010.168	0.78
1010.593	3.28
1011.018	-7.12
1011.443	-5.62
1011.868	2.68
1012.293	-5.52
1012.718	-6.42
1013.143	0.58
1013.567	-0.62
1013.992	-4.02
1014.417	-13.52
1014.842	2.08
1015.267	-2.32
1015.691	1.28
1016.116	1.88
1016.541	-5.42
1016.965	3.28
1017.39	-0.22
1017.814	-1.32
1018.239	0.68
1018.663	-10.72
1019.088	-7.52
1019.512	-2.42
1019.937	-4.42
1020.361	-5.42
1020.785	-10.62
1021.21	-1.92
1021.634	-2.32
1022.058	-1.02
1022.483	1.58
1022.907	-2.42
1023.331	-5.52
1023.755	3.88
1024.179	-0.62
1024.604	-9.02
1025.028	-6.82
1025.452	-3.02
1025.876	-5.02
1026.3	0.08
1026.724	-8.52
1027.148	-2.62
1027.572	-8.22
1027.996	-1.92
1028.42	-4.42
1028.843	-3.72
1029.267	-8.12
1029.691	-2.42
1030.115	-9.12
1030.539	-9.12
1030.962	-8.32
1031.386	-8.22
1031.81	-0.32
1032.233	0.18
1032.657	0.68
1033.08	-1.82
1033.504	-2.92
1033.927	-4.82
1034.351	0.28
1034.774	-10.42
1035.198	0.88
1035.621	-2.82
1036.045	-6.02
1036.468	-0.02
1036.891	-15.72
1037.315	-14.12
1037.738	-13.22
1038.161	-3.62
1038.584	-3.72
1039.008	-5.62
1039.431	-6.82
1039.854	-8.92
1040.277	-8.62
1040.7	-7.72
1041.123	2.38
1041.546	-9.72
1041.969	-3.42
1042.392	-7.72
1042.815	0.18
1043.238	-4.32
1043.661	7.48
1044.084	-9.22
1044.507	-10.22
1044.93	-9.22
1045.352	-9.92
1045.775	0.68
1046.198	-0.62
1046.621	-9.92
1047.043	-3.02
1047.466	3.78
1047.889	-8.02
1048.311	-6.62
1048.734	-4.92
1049.156	-2.92
1049.579	-2.82
1050.001	-2.32
1050.424	0.98
1050.846	-3.92
1051.269	-4.82
1051.691	-4.12
1052.113	-5.82
1052.536	-4.82
1052.958	-4.62
1053.38	-1.62
1053.802	-10.62
1054.225	2.88
1054.647	-7.12
1055.069	-5.82
1055.491	5.48
1055.913	-7.82
1056.335	-3.92
1056.757	-3.82
1057.179	-7.22
1057.601	-5.52
1058.023	-2.82
1058.445	-9.12
1058.867	-0.72
1059.289	-2.62
1059.711	-6.62
1060.133	-5.32
1060.555	-3.82
1060.976	-8.82
1061.398	-7.32
1061.82	-7.82
1062.241	-5.72
1062.663	-7.92
1063.085	-3.12
1063.506	3.98
1063.928	-7.32
1064.35	3.18
1064.771	-10.02
1065.193	-3.62
1065.614	-12.22
1066.035	2.18
1066.457	-5.62
1066.878	1.68
1067.3	0.78
1067.721	-6.72
1068.142	-7.12
1068.564	-4.42
1068.985	-8.22
1069.406	-1.82
1069.827	-5.72
1070.248	0.88
1070.67	-5.72
1071.091	-0.82
1071.512	-5.52
1071.933	-6.82
1072.354	-6.62
1072.775	-8.02
1073.196	-12.42
1073.617	-9.62
1074.038	-4.12
1074.459	-2.12
1074.88	-10.92
1075.3	-1.52
1075.721	-7.72
1076.142	0.28
1076.563	-2.92
1076.983	-15.82
1077.404	-6.52
1077.825	-11.02
1078.246	-6.92
1078.666	-5.92
1079.087	-1.02
1079.507	-6.42
1079.928	0.08
1080.348	-0.02
1080.769	-1.02
1081.189	-1.22
1081.61	-8.42
1082.03	-13.42
1082.451	-5.92
1082.871	-4.32
1083.291	-7.82
1083.711	-7.12
1084.132	-10.02
1084.552	-11.12
1084.972	-2.62
1085.392	-6.92
1085.813	-5.22
1086.233	-11.52
1086.653	-5.02
1087.073	-5.22
1087.493	-7.72
1087.913	-4.22
1088.333	-7.42
1088.753	-0.72
1089.173	-1.22
1089.593	-3.42
1090.013	3.58
1090.433	1.88
1090.852	0.08
1091.272	-4.02
1091.692	2.78
1092.112	-4.22
1092.531	-10.82
1092.951	-9.02
1093.371	-6.02
1093.79	-1.22
1094.21	-4.32
1094.63	-8.62
1095.049	-6.82
1095.469	1.48
1095.888	-4.92
1096.308	2.38
1096.727	-0.32
1097.146	-6.52
1097.566	-1.02
1097.985	-8.62
1098.405	-3.12
1098.824	-5.82
1099.243	-6.52
1099.662	-3.92
1100.082	0.58
1100.501	-4.02
1100.92	-4.72
1101.339	-2.72
1101.758	-5.62
