Data from 20171114-ORNL-Ar_H_NY_Subt18_08-08-27-668.txt Node
Date: Tue Nov 14 08:08:27 EST 2017
User: Ender
Spectrometer: HR+D1039
Trigger mode: 0
Integration Time (sec): 2.730000E-2
Scans to average: 10
Electric dark correction enabled: true
Nonlinearity correction enabled: false
Boxcar width: 0
XAxis mode: Wavelengths
Number of Pixels in Spectrum: 2048
>>>>>Begin Spectral Data<<<<<
187.836	-1.47
188.309	-1.47
188.782	-1.47
189.255	-6.07
189.728	-2.47
190.201	6.43
190.674	1.03
191.147	5.03
191.619	-8.77
192.092	1.33
192.565	4.83
193.038	4.23
193.511	0.33
193.984	4.73
194.456	-3.87
194.929	-1.77
195.402	-5.17
195.874	1.63
196.347	0.43
196.82	-12.17
197.292	2.83
197.765	2.03
198.237	-3.97
198.71	0.73
199.182	1.03
199.655	5.93
200.127	1.53
200.6	-2.57
201.072	-4.37
201.544	-1.17
202.017	-10.47
202.489	0.63
202.961	-3.67
203.433	-3.97
203.906	-5.97
204.378	-11.17
204.85	-6.77
205.322	-5.47
205.794	-3.57
206.266	-9.67
206.739	-6.67
207.211	2.13
207.683	-7.97
208.155	-3.47
208.627	-8.37
209.099	-5.47
209.57	-6.97
210.042	-9.27
210.514	-2.77
210.986	-6.07
211.458	-7.57
211.93	-6.07
212.402	6.23
212.873	-1.77
213.345	-9.37
213.817	-11.57
214.288	-6.57
214.76	-9.57
215.232	-1.67
215.703	-8.77
216.175	-8.37
216.646	-4.77
217.118	-9.67
217.589	-4.27
218.061	-1.07
218.532	-1.97
219.004	-2.07
219.475	-0.77
219.946	-1.67
220.418	-8.17
220.889	-0.27
221.36	0.73
221.832	-5.77
222.303	-10.97
222.774	-0.47
223.245	-10.57
223.717	-8.77
224.188	-9.07
224.659	-8.07
225.13	-5.77
225.601	-2.97
226.072	-3.37
226.543	-1.67
227.014	-2.07
227.485	-6.87
227.956	-5.77
228.427	-4.37
228.898	-2.77
229.369	4.53
229.839	1.03
230.31	-9.57
230.781	2.13
231.252	-2.07
231.722	-3.87
232.193	-5.07
232.664	-3.07
233.135	2.33
233.605	-2.47
234.076	-6.07
234.546	0.63
235.017	2.23
235.487	1.33
235.958	-2.97
236.428	-4.67
236.899	-2.37
237.369	-1.47
237.84	-11.17
238.31	-0.57
238.78	-6.57
239.251	-7.57
239.721	-3.57
240.191	-3.27
240.662	2.53
241.132	-7.07
241.602	-4.87
242.072	-3.27
242.542	8.23
243.013	-2.07
243.483	1.53
243.953	-0.77
244.423	-2.87
244.893	-12.67
245.363	-4.07
245.833	5.73
246.303	-6.47
246.773	4.43
247.243	2.73
247.712	-0.97
248.182	1.53
248.652	-1.27
249.122	-4.37
249.592	-2.97
250.061	6.93
250.531	9.63
251.001	-3.47
251.471	6.23
251.94	8.43
252.41	-1.67
252.879	-6.67
253.349	8.13
253.818	8.53
254.288	3.03
254.757	-5.47
255.227	-0.57
255.696	-0.37
256.166	1.63
256.635	2.03
257.105	3.43
257.574	0.13
258.043	5.03
258.513	0.73
258.982	2.33
259.451	0.13
259.92	-1.47
260.389	4.03
260.859	7.23
261.328	3.63
261.797	8.33
262.266	-2.37
262.735	11.23
263.204	7.73
263.673	1.83
264.142	9.33
264.611	-2.27
265.08	-0.17
265.549	-0.87
266.018	3.83
266.487	-8.57
266.955	-7.17
267.424	-1.47
267.893	-0.17
268.362	3.13
268.83	3.33
269.299	4.73
269.768	0.63
270.236	5.03
270.705	2.03
271.174	3.13
271.642	-0.07
272.111	2.43
272.579	7.33
273.048	5.83
273.516	5.53
273.985	6.03
274.453	8.63
274.922	13.93
275.39	8.53
275.858	-3.67
276.327	8.43
276.795	11.23
277.263	5.93
277.731	18.73
278.2	19.33
278.668	14.33
279.136	13.33
279.604	4.73
280.072	7.73
280.54	8.93
281.008	9.43
281.477	11.33
281.945	9.83
282.413	11.73
282.881	12.03
283.348	4.13
283.816	15.43
284.284	8.73
284.752	19.73
285.22	6.73
285.688	14.23
286.156	12.83
286.623	23.03
287.091	10.93
287.559	17.93
288.026	3.93
288.494	10.83
288.962	7.73
289.429	9.93
289.897	18.53
290.364	11.93
290.832	17.93
291.3	12.53
291.767	15.53
292.234	16.63
292.702	14.13
293.169	21.33
293.637	17.53
294.104	17.73
294.571	8.83
295.039	15.83
295.506	9.93
295.973	14.83
296.44	16.93
296.908	20.43
297.375	16.03
297.842	13.23
298.309	15.83
298.776	7.33
299.243	18.73
299.71	22.03
300.177	22.33
300.644	20.03
301.111	18.83
301.578	24.03
302.045	13.13
302.512	15.43
302.979	22.33
303.446	20.53
303.913	21.83
304.379	18.63
304.846	29.23
305.313	16.43
305.78	21.23
306.246	18.63
306.713	25.33
307.18	22.03
307.646	22.23
308.113	25.03
308.579	20.13
309.046	23.33
309.512	25.53
309.979	14.43
310.445	21.63
310.912	23.43
311.378	29.53
311.845	27.33
312.311	26.93
312.777	31.83
313.244	30.23
313.71	35.83
314.176	30.53
314.642	26.03
315.109	31.13
315.575	27.13
316.041	33.23
316.507	25.53
316.973	29.63
317.439	33.63
317.905	30.93
318.371	31.23
318.837	30.33
319.303	33.83
319.769	35.03
320.235	32.13
320.701	28.33
321.167	38.33
321.633	30.53
322.099	32.83
322.564	35.83
323.03	38.93
323.496	35.33
323.962	36.43
324.427	38.93
324.893	36.83
325.359	32.33
325.824	39.53
326.29	39.03
326.755	43.13
327.221	42.13
327.686	39.13
328.152	45.03
328.617	43.83
329.083	49.33
329.548	52.43
330.014	45.53
330.479	41.93
330.944	44.93
331.41	39.93
331.875	47.63
332.34	43.13
332.805	45.73
333.271	39.13
333.736	37.13
334.201	46.53
334.666	43.93
335.131	44.43
335.596	46.53
336.061	44.83
336.526	39.43
336.991	46.53
337.456	52.53
337.921	51.33
338.386	49.33
338.851	42.53
339.316	50.23
339.781	43.63
340.246	49.93
340.711	42.13
341.175	45.93
341.64	45.63
342.105	54.03
342.569	55.93
343.034	57.13
343.499	61.23
343.963	55.23
344.428	59.53
344.893	58.03
345.357	60.83
345.822	60.33
346.286	72.53
346.751	72.53
347.215	70.53
347.679	77.93
348.144	101.23
348.608	86.73
349.073	69.93
349.537	73.43
350.001	72.53
350.465	92.33
350.93	79.43
351.394	83.33
351.858	75.73
352.322	87.73
352.786	83.43
353.25	98.13
353.715	116.13
354.179	100.83
354.643	122.83
355.107	118.63
355.571	103.73
356.035	100.03
356.498	117.03
356.962	115.03
357.426	122.53
357.89	113.83
358.354	94.53
358.818	85.83
359.281	82.53
359.745	73.63
360.209	78.63
360.673	77.33
361.136	82.63
361.6	87.03
362.064	85.33
362.527	84.33
362.991	91.13
363.454	84.53
363.918	82.23
364.381	83.53
364.845	79.43
365.308	84.83
365.772	88.23
366.235	91.63
366.698	80.73
367.162	85.63
367.625	81.73
368.088	92.63
368.552	94.63
369.015	81.83
369.478	86.83
369.941	96.93
370.404	97.13
370.867	103.23
371.331	106.23
371.794	117.83
372.257	95.73
372.72	108.93
373.183	104.03
373.646	99.93
374.109	95.63
374.572	102.03
375.035	105.13
375.497	103.53
375.96	109.63
376.423	106.73
376.886	119.43
377.349	107.63
377.811	104.23
378.274	98.83
378.737	104.73
379.199	108.33
379.662	107.33
380.125	113.53
380.587	111.53
381.05	115.33
381.512	116.03
381.975	125.13
382.437	125.13
382.9	124.23
383.362	128.83
383.825	130.73
384.287	122.63
384.75	119.83
385.212	132.73
385.674	141.43
386.136	135.23
386.599	124.63
387.061	124.73
387.523	127.33
387.985	129.23
388.447	139.63
388.91	134.23
389.372	137.43
389.834	138.53
390.296	135.23
390.758	142.13
391.22	149.63
391.682	163.93
392.144	179.23
392.606	157.83
393.068	145.73
393.529	153.23
393.991	144.93
394.453	138.03
394.915	136.53
395.377	152.63
395.838	151.53
396.3	149.03
396.762	152.53
397.224	146.03
397.685	131.93
398.147	139.33
398.608	139.43
399.07	135.03
399.531	143.53
399.993	148.23
400.454	159.93
400.916	150.43
401.377	152.33
401.839	158.03
402.3	157.33
402.762	173.23
403.223	184.73
403.684	176.93
404.145	167.53
404.607	174.83
405.068	172.83
405.529	182.63
405.99	201.23
406.451	185.73
406.913	180.83
407.374	173.63
407.835	169.23
408.296	168.13
408.757	182.13
409.218	189.33
409.679	183.43
410.14	184.13
410.601	182.43
411.062	187.43
411.522	191.73
411.983	182.93
412.444	175.93
412.905	193.43
413.366	193.63
413.826	206.83
414.287	228.33
414.748	282.73
415.208	265.13
415.669	230.23
416.13	220.63
416.59	212.23
417.051	227.73
417.511	235.43
417.972	252.93
418.432	257.23
418.893	313.73
419.353	273.33
419.814	211.43
420.274	195.93
420.734	190.93
421.195	204.43
421.655	204.43
422.115	202.63
422.576	201.93
423.036	209.43
423.496	219.53
423.956	230.03
424.416	246.23
424.876	282.13
425.336	283.63
425.797	272.93
426.257	271.53
426.717	253.43
427.177	239.33
427.637	233.43
428.097	239.73
428.556	263.53
429.016	272.93
429.476	273.33
429.936	285.73
430.396	287.63
430.856	305.23
431.315	323.93
431.775	358.73
432.235	384.33
432.694	363.63
433.154	376.43
433.614	402.93
434.073	348.63
434.533	300.63
434.993	289.53
435.452	297.33
435.912	304.63
436.371	300.53
436.83	299.03
437.29	282.73
437.749	265.83
438.209	259.13
438.668	283.93
439.127	306.43
439.587	283.13
440.046	264.13
440.505	275.73
440.964	296.33
441.424	337.63
441.883	327.13
442.342	275.53
442.801	243.33
443.26	232.93
443.719	236.33
444.178	231.33
444.637	233.73
445.096	230.33
445.555	238.13
446.014	240.63
446.473	236.73
446.932	253.73
447.391	246.53
447.849	237.63
448.308	235.83
448.767	237.83
449.226	250.13
449.685	251.93
450.143	266.53
450.602	249.03
451.061	241.83
451.519	252.23
451.978	252.43
452.436	245.43
452.895	255.13
453.353	273.33
453.812	261.73
454.27	257.93
454.729	264.23
455.187	262.93
455.646	261.43
456.104	262.73
456.562	280.03
457.021	286.83
457.479	266.03
457.937	288.53
458.395	274.33
458.854	265.73
459.312	272.23
459.77	297.13
460.228	278.23
460.686	261.23
461.144	268.23
461.602	259.23
462.06	254.73
462.518	271.23
462.976	285.73
463.434	277.13
463.892	281.93
464.35	295.13
464.808	316.43
465.266	282.83
465.724	289.93
466.181	295.63
466.639	294.33
467.097	312.73
467.555	324.43
468.012	317.43
468.47	331.23
468.928	355.13
469.385	371.83
469.843	374.23
470.3	376.43
470.758	391.73
471.215	410.03
471.673	441.03
472.13	436.53
472.588	448.13
473.045	399.43
473.503	398.33
473.96	414.53
474.417	431.43
474.875	459.43
475.332	508.23
475.789	492.33
476.246	495.23
476.704	519.33
477.161	542.93
477.618	558.13
478.075	589.13
478.532	644.03
478.989	717.13
479.446	835.93
479.903	790.53
480.36	826.23
480.817	873.13
481.274	970.43
481.731	1045.83
482.188	1144.13
482.645	1262.93
483.102	1357.23
483.558	1482.63
484.015	1513.83
484.472	1497.23
484.929	1458.03
485.385	1413.63
485.842	1387.43
486.299	1334.33
486.755	1289.33
487.212	1092.23
487.668	927.33
488.125	861.33
488.582	799.53
489.038	770.53
489.494	732.73
489.951	718.13
490.407	698.03
490.864	674.43
491.32	674.43
491.776	668.63
492.233	677.53
492.689	646.83
493.145	640.43
493.602	633.73
494.058	641.63
494.514	643.23
494.97	666.13
495.426	689.33
495.882	661.63
496.338	645.63
496.794	658.83
497.251	651.03
497.707	665.73
498.163	665.33
498.618	672.73
499.074	676.13
499.53	711.43
499.986	701.23
500.442	683.63
500.898	657.23
501.354	646.93
501.809	667.83
502.265	665.23
502.721	661.33
503.177	675.33
503.632	683.43
504.088	683.83
504.543	711.83
504.999	722.73
505.455	692.33
505.91	673.13
506.366	670.53
506.821	671.43
507.277	668.03
507.732	673.93
508.187	660.13
508.643	674.33
509.098	680.93
509.553	697.53
510.009	702.53
510.464	720.63
510.919	730.63
511.375	741.13
511.83	755.53
512.285	760.13
512.74	797.93
513.195	821.73
513.65	811.73
514.105	809.23
514.56	813.03
515.015	828.43
515.47	834.43
515.925	814.73
516.38	828.63
516.835	829.83
517.29	822.73
517.745	815.83
518.2	809.13
518.655	797.23
519.109	777.43
519.564	789.73
520.019	771.73
520.474	763.63
520.928	777.83
521.383	753.43
521.838	756.53
522.292	751.83
522.747	749.93
523.201	739.53
523.656	737.83
524.11	733.43
524.565	735.83
525.019	731.03
525.474	748.73
525.928	737.93
526.382	735.13
526.837	744.43
527.291	747.33
527.745	732.03
528.2	730.93
528.654	737.73
529.108	732.63
529.562	732.63
530.016	724.93
530.47	725.63
530.925	733.03
531.379	734.23
531.833	738.93
532.287	739.63
532.741	740.63
533.195	743.63
533.649	747.63
534.103	760.33
534.556	736.83
535.01	750.73
535.464	744.83
535.918	752.83
536.372	758.53
536.826	757.33
537.279	737.63
537.733	746.33
538.187	753.43
538.64	760.23
539.094	761.43
539.548	761.33
540.001	763.73
540.455	772.73
540.908	777.83
541.362	776.83
541.815	793.73
542.269	802.13
542.722	807.73
543.175	810.13
543.629	813.33
544.082	831.23
544.536	839.43
544.989	843.43
545.442	852.23
545.895	845.43
546.349	847.23
546.802	842.63
547.255	841.73
547.708	858.63
548.161	867.93
548.614	876.73
549.067	877.53
549.52	876.03
549.973	862.33
550.426	854.43
550.879	849.93
551.332	852.63
551.785	850.03
552.238	861.93
552.691	871.33
553.144	896.03
553.596	903.23
554.049	916.03
554.502	943.33
554.955	968.33
555.407	958.93
555.86	952.43
556.313	951.73
556.765	929.63
557.218	930.23
557.67	943.63
558.123	936.23
558.576	926.53
559.028	927.33
559.48	940.13
559.933	933.63
560.385	891.93
560.838	869.13
561.29	829.43
561.742	832.13
562.195	819.13
562.647	815.63
563.099	825.23
563.551	818.93
564.004	832.43
564.456	820.43
564.908	813.93
565.36	782.73
565.812	779.23
566.264	762.93
566.716	766.53
567.168	746.43
567.62	744.53
568.072	732.83
568.524	741.93
568.976	726.73
569.428	722.93
569.88	719.13
570.332	734.93
570.784	728.53
571.235	738.13
571.687	737.33
572.139	746.83
572.59	758.63
573.042	767.43
573.494	749.23
573.945	751.83
574.397	739.13
574.849	744.33
575.3	737.03
575.752	727.03
576.203	711.93
576.655	726.23
577.106	715.83
577.557	712.73
578.009	712.23
578.46	713.73
578.912	703.03
579.363	709.53
579.814	719.33
580.265	702.53
580.717	705.23
581.168	709.83
581.619	723.33
582.07	720.63
582.521	720.93
582.972	710.03
583.423	718.53
583.875	715.63
584.326	725.93
584.777	744.03
585.227	776.73
585.678	808.93
586.129	831.83
586.58	849.93
587.031	889.13
587.482	919.73
587.933	970.73
588.384	939.63
588.834	845.83
589.285	815.63
589.736	823.63
590.186	807.13
590.637	816.33
591.088	791.93
591.538	773.13
591.989	769.83
592.439	767.83
592.89	752.23
593.34	750.63
593.791	742.73
594.241	741.23
594.692	737.03
595.142	737.43
595.593	732.73
596.043	742.83
596.493	751.13
596.943	754.53
597.394	766.13
597.844	758.23
598.294	778.83
598.744	805.03
599.195	829.33
599.645	868.33
600.095	904.33
600.545	972.93
600.995	1024.53
601.445	1087.73
601.895	1148.23
602.345	1197.23
602.795	1173.13
603.245	1118.33
603.695	1067.83
604.145	1020.23
604.594	959.23
605.044	908.33
605.494	845.53
605.944	799.63
606.393	787.43
606.843	768.83
607.293	768.33
607.743	768.93
608.192	789.03
608.642	793.13
609.091	800.43
609.541	800.73
609.99	808.93
610.44	808.23
610.889	758.03
611.339	733.93
611.788	731.43
612.238	740.63
612.687	742.33
613.136	732.73
613.586	741.03
614.035	728.53
614.484	754.83
614.933	752.33
615.383	755.53
615.832	750.43
616.281	740.13
616.73	709.13
617.179	694.33
617.628	676.93
618.077	670.03
618.526	661.23
618.975	657.73
619.424	643.13
619.873	645.23
620.322	658.63
620.771	639.03
621.22	643.53
621.669	627.23
622.118	621.43
622.567	610.93
623.015	602.93
623.464	606.53
623.913	593.73
624.361	579.83
624.81	581.03
625.259	579.83
625.707	593.13
626.156	595.83
626.604	594.63
627.053	589.63
627.501	600.73
627.95	611.23
628.398	616.83
628.847	605.03
629.295	601.63
629.744	602.73
630.192	596.23
630.64	590.63
631.089	582.43
631.537	589.33
631.985	575.13
632.433	578.13
632.881	557.13
633.33	582.63
633.778	569.33
634.226	567.13
634.674	568.43
635.122	566.43
635.57	582.53
636.018	593.73
636.466	594.33
636.914	578.03
637.362	607.53
637.81	604.83
638.258	610.53
638.705	613.73
639.153	651.03
639.601	658.23
640.049	684.03
640.497	707.33
640.944	726.03
641.392	689.53
641.84	651.03
642.287	619.93
642.735	605.53
643.182	604.63
643.63	596.73
644.078	602.63
644.525	613.43
644.973	615.33
645.42	635.53
645.867	655.23
646.315	663.63
646.762	693.83
647.21	719.23
647.657	741.23
648.104	780.83
648.551	804.73
648.999	858.93
649.446	938.93
649.893	1025.63
650.34	1175.23
650.787	1398.03
651.234	1721.63
651.682	2237.13
652.129	3029.83
652.576	4326.33
653.023	6258.23
653.47	8436.33
653.917	10412.13
654.363	11942.43
654.81	13075.23
655.257	12402.23
655.704	8256.23
656.151	4971.43
656.598	3270.23
657.044	2335.23
657.491	1822.43
657.938	1466.63
658.385	1245.73
658.831	1088.83
659.278	982.63
659.724	871.53
660.171	798.03
660.618	737.23
661.064	708.43
661.511	691.73
661.957	683.43
662.404	667.13
662.85	682.93
663.296	654.63
663.743	584.33
664.189	565.93
664.635	557.03
665.082	561.23
665.528	556.13
665.974	547.33
666.42	540.43
666.867	544.73
667.313	514.73
667.759	496.63
668.205	486.53
668.651	490.43
669.097	478.43
669.543	485.53
669.989	476.33
670.435	472.13
670.881	470.03
671.327	471.23
671.773	501.73
672.219	533.03
672.665	588.73
673.11	626.13
673.556	674.43
674.002	712.53
674.448	692.23
674.893	595.83
675.339	516.43
675.785	471.83
676.23	449.63
676.676	422.83
677.122	407.33
677.567	404.03
678.013	396.23
678.458	385.23
678.904	388.53
679.349	366.93
679.794	374.43
680.24	377.73
680.685	371.03
681.131	374.53
681.576	368.23
682.021	374.83
682.466	378.23
682.912	375.63
683.357	378.13
683.802	408.13
684.247	445.23
684.692	485.93
685.137	529.53
685.583	572.93
686.028	595.33
686.473	553.03
686.918	474.73
687.363	447.93
687.807	411.43
688.252	400.23
688.697	382.83
689.142	359.23
689.587	364.03
690.032	352.73
690.477	371.63
690.921	378.53
691.366	408.43
691.811	435.73
692.255	466.03
692.7	485.83
693.145	542.73
693.589	770.13
694.034	1239.63
694.478	1653.73
694.923	1844.33
695.367	2394.03
695.812	1274.83
696.256	544.93
696.701	389.23
697.145	375.63
697.59	353.43
698.034	340.13
698.478	342.93
698.922	343.43
699.367	347.43
699.811	355.93
700.255	380.33
700.699	410.43
701.143	444.73
701.588	499.33
702.032	545.13
702.476	537.23
702.92	524.43
703.364	534.63
703.808	703.43
704.252	1144.13
704.696	1572.13
705.14	1777.43
705.584	2258.63
706.027	1140.93
706.471	564.13
706.915	430.73
707.359	375.73
707.803	343.53
708.246	330.53
708.69	337.03
709.134	332.03
709.577	323.53
710.021	335.43
710.465	325.13
710.908	315.33
711.352	326.73
711.795	327.63
712.239	385.13
712.682	417.03
713.126	445.33
713.569	479.43
714.012	384.03
714.456	334.13
714.899	310.83
715.342	295.23
715.786	282.63
716.229	277.83
716.672	270.33
717.115	260.93
717.558	267.93
718.002	260.03
718.445	278.13
718.888	302.43
719.331	309.93
719.774	323.33
720.217	321.03
720.66	300.23
721.103	285.73
721.546	281.13
721.989	265.93
722.432	252.13
722.874	261.93
723.317	247.23
723.76	250.93
724.203	273.53
724.645	338.83
725.088	481.33
725.531	613.23
725.974	679.53
726.416	574.33
726.859	329.73
727.301	262.13
727.744	245.83
728.187	244.83
728.629	254.93
729.071	257.93
729.514	280.93
729.956	289.63
730.399	305.13
730.841	310.43
731.283	290.83
731.726	285.33
732.168	280.63
732.61	296.03
733.053	304.43
733.495	342.93
733.937	381.23
734.379	422.83
734.821	472.33
735.263	592.83
735.705	921.93
736.148	1755.33
736.59	2808.63
737.032	3241.83
737.474	2649.93
737.916	881.33
738.357	465.03
738.799	351.43
739.241	327.33
739.683	306.33
740.125	313.83
740.567	323.13
741.008	339.53
741.45	334.73
741.892	348.43
742.334	381.73
742.775	391.63
743.217	368.63
743.658	295.63
744.1	269.03
744.542	284.63
744.983	336.73
745.425	375.83
745.866	369.23
746.307	296.63
746.749	296.83
747.19	351.83
747.632	496.13
748.073	982.73
748.514	2051.93
748.956	3059.03
749.397	3864.43
749.838	3187.13
750.279	3141.73
750.72	1605.83
751.162	595.43
751.603	351.43
752.044	274.03
752.485	227.73
752.926	233.33
753.367	216.93
753.808	208.63
754.249	207.63
754.69	203.73
755.131	198.43
755.572	193.83
756.013	191.33
756.453	189.93
756.894	203.83
757.335	202.43
757.776	210.53
758.216	219.43
758.657	205.73
759.098	224.73
759.538	241.83
759.979	287.43
760.42	417.13
760.86	793.53
761.301	2064.53
761.741	4841.73
762.182	6761.73
762.622	4796.73
763.063	1414.93
763.503	579.33
763.943	358.43
764.384	303.03
764.824	286.73
765.264	281.63
765.705	241.43
766.145	201.33
766.585	180.33
767.025	191.03
767.465	178.03
767.906	196.83
768.346	230.93
768.786	248.23
769.226	235.43
769.666	339.63
770.106	688.53
770.546	1719.03
770.986	2801.53
771.426	2494.63
771.866	841.53
772.306	349.23
772.745	216.63
773.185	178.53
773.625	171.43
774.065	157.43
774.505	174.83
774.944	233.93
775.384	417.63
775.824	677.83
776.263	647.73
776.703	316.23
777.142	171.53
777.582	147.83
778.021	131.63
778.461	130.13
778.9	139.03
779.34	134.23
779.779	124.73
780.219	114.13
780.658	117.33
781.097	118.13
781.537	123.53
781.976	114.93
782.415	110.93
782.855	104.53
783.294	107.03
783.733	107.23
784.172	112.83
784.611	113.73
785.05	115.73
785.489	118.53
785.928	125.93
786.367	127.63
786.806	126.93
787.245	133.73
787.684	143.93
788.123	151.63
788.562	145.23
789.001	130.33
789.44	134.43
789.879	123.93
790.317	123.33
790.756	133.03
791.195	136.63
791.634	158.43
792.072	217.73
792.511	407.43
792.95	1117.03
793.388	2272.43
793.827	2014.93
794.265	715.43
794.704	310.63
795.142	197.53
795.581	164.13
796.019	141.43
796.458	139.03
796.896	126.93
797.334	141.03
797.773	170.93
798.211	239.33
798.649	487.33
799.087	1100.63
799.526	1724.23
799.964	2167.03
800.402	2104.63
800.84	813.13
801.278	326.43
801.716	197.83
802.154	159.13
802.592	154.53
803.03	148.53
803.468	144.03
803.906	160.83
804.344	161.53
804.782	148.93
805.22	146.53
805.658	140.73
806.096	155.33
806.533	169.93
806.971	185.73
807.409	237.53
807.847	351.83
808.284	746.43
808.722	2044.13
809.16	3515.93
809.597	3459.23
810.035	5855.73
810.472	6038.23
810.91	2237.23
811.347	860.53
811.785	436.73
812.222	280.93
812.66	210.73
813.097	170.73
813.535	150.73
813.972	134.93
814.409	128.83
814.846	111.83
815.284	111.33
815.721	108.73
816.158	114.93
816.595	121.33
817.032	167.83
817.47	186.13
817.907	132.73
818.344	114.13
818.781	109.53
819.218	101.13
819.655	138.23
820.092	205.93
820.529	221.53
820.966	179.83
821.403	140.23
821.839	104.23
822.276	104.83
822.713	132.93
823.15	148.23
823.587	127.63
824.023	159.73
824.46	339.83
824.897	977.33
825.333	1426.73
825.77	616.53
826.206	249.23
826.643	139.03
827.08	105.43
827.516	91.23
827.953	85.53
828.389	82.33
828.825	71.33
829.262	69.33
829.698	67.13
830.135	66.73
830.571	68.13
831.007	74.23
831.443	70.53
831.88	63.23
832.316	63.53
832.752	69.53
833.188	66.33
833.624	63.53
834.06	68.03
834.497	76.33
834.933	75.33
835.369	76.23
835.805	69.93
836.241	80.53
836.677	84.53
837.112	93.93
837.548	112.13
837.984	148.73
838.42	217.63
838.856	563.63
839.292	1652.83
839.727	2422.13
840.163	1138.43
840.599	1028.43
841.034	2181.93
841.47	2217.23
841.906	832.23
842.341	355.33
842.777	213.53
843.212	224.43
843.648	198.13
844.083	117.23
844.519	93.63
844.954	75.73
845.39	59.03
845.825	60.43
846.261	63.93
846.696	65.93
847.131	55.73
847.566	61.63
848.002	57.43
848.437	59.53
848.872	62.73
849.307	64.73
849.742	89.43
850.177	208.83
850.613	611.03
851.048	929.43
851.483	403.43
851.918	162.23
852.353	94.03
852.788	59.33
853.223	55.73
853.657	52.93
854.092	39.13
854.527	40.23
854.962	39.83
855.397	51.63
855.832	53.23
856.266	44.53
856.701	43.33
857.136	36.23
857.57	43.63
858.005	55.43
858.44	58.93
858.874	43.63
859.309	54.63
859.743	41.53
860.178	47.73
860.612	46.53
861.047	57.13
861.481	69.83
861.915	77.83
862.35	53.63
862.784	33.73
863.218	41.83
863.653	43.73
864.087	47.23
864.521	50.23
864.955	70.53
865.39	162.03
865.824	192.33
866.258	133.33
866.692	176.83
867.126	197.53
867.56	109.03
867.994	61.63
868.428	36.23
868.862	54.23
869.296	55.03
869.73	61.33
870.164	60.23
870.598	51.23
871.031	44.43
871.465	27.73
871.899	37.23
872.333	25.03
872.766	31.53
873.2	20.23
873.634	25.33
874.067	26.83
874.501	29.23
874.935	36.53
875.368	24.23
875.802	28.53
876.235	27.63
876.669	24.03
877.102	25.33
877.535	25.33
877.969	23.13
878.402	21.13
878.836	23.03
879.269	22.03
879.702	25.13
880.135	20.43
880.569	22.03
881.002	24.33
881.435	19.63
881.868	18.73
882.301	21.63
882.734	18.33
883.167	22.93
883.601	18.53
884.034	20.13
884.467	14.63
884.899	19.93
885.332	17.23
885.765	15.23
886.198	16.73
886.631	18.03
887.064	18.63
887.497	17.63
887.929	22.13
888.362	17.13
888.795	14.33
889.228	13.63
889.66	23.73
890.093	15.93
890.526	17.03
890.958	14.43
891.391	19.23
891.823	19.93
892.256	19.23
892.688	10.33
893.121	17.43
893.553	11.73
893.985	25.33
894.418	16.63
894.85	12.63
895.282	17.03
895.715	16.53
896.147	15.03
896.579	17.63
897.011	11.13
897.444	18.73
897.876	10.13
898.308	14.43
898.74	14.03
899.172	10.03
899.604	16.83
900.036	17.43
900.468	9.83
900.9	17.23
901.332	14.93
901.764	13.13
902.196	17.63
902.628	18.83
903.06	14.53
903.491	24.43
903.923	21.13
904.355	21.33
904.787	23.83
905.218	24.63
905.65	27.53
906.082	11.43
906.513	12.03
906.945	17.93
907.376	14.03
907.808	17.73
908.239	20.63
908.671	23.33
909.102	21.03
909.534	25.03
909.965	53.33
910.397	98.33
910.828	331.33
911.259	499.83
911.691	234.83
912.122	112.53
912.553	54.83
912.984	39.73
913.415	28.93
913.847	18.43
914.278	15.03
914.709	7.73
915.14	16.23
915.571	18.23
916.002	7.33
916.433	15.23
916.864	19.13
917.295	17.73
917.726	20.63
918.157	13.63
918.587	27.23
919.018	22.13
919.449	26.93
919.88	26.03
920.311	31.73
920.741	53.53
921.172	186.83
921.603	158.13
922.033	78.13
922.464	50.33
922.895	27.93
923.325	18.33
923.756	17.73
924.186	10.63
924.617	21.03
925.047	18.03
925.478	26.93
925.908	22.63
926.338	15.93
926.769	13.53
927.199	22.63
927.629	6.53
928.06	16.43
928.49	8.63
928.92	14.23
929.35	7.23
929.78	3.23
930.21	4.43
930.641	7.03
931.071	9.03
931.501	3.13
931.931	3.93
932.361	3.03
932.791	2.13
933.221	5.33
933.651	2.13
934.08	13.53
934.51	30.33
934.94	11.93
935.37	6.93
935.8	9.03
936.229	5.73
936.659	10.23
937.089	2.63
937.519	16.13
937.948	22.43
938.378	14.53
938.807	9.13
939.237	2.13
939.666	6.23
940.096	-5.77
940.525	1.43
940.955	1.83
941.384	4.43
941.814	-4.47
942.243	-4.67
942.672	5.93
943.102	-6.57
943.531	1.33
943.96	4.03
944.39	0.23
944.819	2.13
945.248	-2.77
945.677	2.03
946.106	3.13
946.535	7.33
946.964	2.03
947.393	-1.97
947.822	2.23
948.251	-4.97
948.68	4.03
949.109	6.03
949.538	2.13
949.967	-3.97
950.396	-1.97
950.825	2.03
951.254	0.33
951.682	-6.37
952.111	6.73
952.54	9.33
952.969	-1.87
953.397	-4.07
953.826	0.53
954.254	-9.27
954.683	-0.47
955.112	-5.87
955.54	-2.67
955.969	4.33
956.397	1.93
956.826	-2.07
957.254	0.93
957.682	-2.07
958.111	5.73
958.539	1.93
958.967	3.33
959.396	-2.47
959.824	-2.47
960.252	3.13
960.68	-8.67
961.109	-1.07
961.537	-4.07
961.965	-2.77
962.393	-3.27
962.821	-5.77
963.249	-3.27
963.677	1.13
964.105	-1.27
964.533	46.13
964.961	38.83
965.389	19.83
965.817	9.83
966.245	1.13
966.672	-1.17
967.1	-8.87
967.528	-1.37
967.956	-6.37
968.383	2.43
968.811	-2.27
969.239	1.53
969.666	-2.17
970.094	-2.17
970.522	4.03
970.949	-4.37
971.377	-6.47
971.804	-2.87
972.232	-4.07
972.659	-10.27
973.087	-5.97
973.514	-4.17
973.941	-7.87
974.369	1.93
974.796	-2.87
975.223	-5.57
975.651	0.03
976.078	-6.07
976.505	-6.37
976.932	3.23
977.359	9.23
977.786	16.03
978.214	3.03
978.641	-3.97
979.068	-3.87
979.495	-6.67
979.922	-4.87
980.349	-1.47
980.776	-1.07
981.202	-3.47
981.629	1.53
982.056	1.53
982.483	-6.37
982.91	6.93
983.337	-3.37
983.763	5.03
984.19	-8.97
984.617	-7.07
985.043	-4.17
985.47	0.43
985.897	1.13
986.323	-6.77
986.75	4.43
987.176	-5.97
987.603	-4.87
988.029	-4.57
988.456	-3.37
988.882	-1.27
989.308	-11.47
989.735	-7.07
990.161	-4.57
990.587	-2.87
991.014	-1.37
991.44	0.63
991.866	-1.47
992.292	-2.47
992.719	-3.27
993.145	5.33
993.571	-9.67
993.997	-4.17
994.423	-1.77
994.849	-6.77
995.275	0.93
995.701	-0.57
996.127	-2.67
996.553	5.83
996.979	-1.07
997.405	-2.97
997.83	-8.17
998.256	-7.07
998.682	-6.17
999.108	-7.27
999.534	-1.77
999.959	-7.47
1000.385	2.53
1000.811	-3.67
1001.236	-10.27
1001.662	-2.07
1002.087	-7.57
1002.513	-1.17
1002.938	-4.87
1003.364	4.43
1003.789	-2.67
1004.215	-2.27
1004.64	-3.97
1005.066	-4.37
1005.491	-0.47
1005.916	-5.47
1006.342	-3.47
1006.767	-7.27
1007.192	9.03
1007.617	-7.67
1008.042	-6.17
1008.468	-6.47
1008.893	-7.97
1009.318	-4.97
1009.743	-1.87
1010.168	0.43
1010.593	2.83
1011.018	-4.47
1011.443	-5.77
1011.868	-0.87
1012.293	-4.77
1012.718	-8.07
1013.143	-4.77
1013.567	-0.87
1013.992	-3.57
1014.417	-11.67
1014.842	-4.97
1015.267	-6.37
1015.691	-8.87
1016.116	2.23
1016.541	-1.57
1016.965	2.73
1017.39	-1.27
1017.814	-1.77
1018.239	4.43
1018.663	-5.77
1019.088	-9.37
1019.512	-4.17
1019.937	1.43
1020.361	-4.77
1020.785	-3.37
1021.21	-4.77
1021.634	-8.07
1022.058	2.53
1022.483	-1.17
1022.907	-5.47
1023.331	-7.87
1023.755	-5.27
1024.179	-1.57
1024.604	-8.67
1025.028	-7.37
1025.452	-0.57
1025.876	-1.07
1026.3	-4.67
1026.724	-10.37
1027.148	-3.27
1027.572	-9.97
1027.996	-5.97
1028.42	-7.37
1028.843	-8.07
1029.267	-9.07
1029.691	-1.07
1030.115	-11.27
1030.539	-7.17
1030.962	-11.57
1031.386	-10.77
1031.81	-2.07
1032.233	-2.37
1032.657	-4.77
1033.08	-3.87
1033.504	-5.97
1033.927	-7.87
1034.351	-4.37
1034.774	-9.27
1035.198	-5.87
1035.621	-5.67
1036.045	-5.17
1036.468	-2.27
1036.891	-17.17
1037.315	-4.47
1037.738	-11.07
1038.161	-4.27
1038.584	-10.57
1039.008	-5.47
1039.431	-2.37
1039.854	-4.67
1040.277	-12.47
1040.7	-10.07
1041.123	-2.97
1041.546	-5.37
1041.969	-9.27
1042.392	-7.27
1042.815	-4.87
1043.238	-1.77
1043.661	2.03
1044.084	-1.57
1044.507	-8.07
1044.93	-8.67
1045.352	-10.27
1045.775	-6.97
1046.198	-0.57
1046.621	-10.57
1047.043	-5.17
1047.466	5.83
1047.889	-4.27
1048.311	-7.87
1048.734	-6.17
1049.156	-1.47
1049.579	-2.47
1050.001	-9.67
1050.424	-0.47
1050.846	-6.27
1051.269	-7.87
1051.691	-13.67
1052.113	-9.67
1052.536	3.13
1052.958	-6.67
1053.38	-0.47
1053.802	-11.17
1054.225	-1.67
1054.647	-7.77
1055.069	-4.17
1055.491	0.23
1055.913	-11.77
1056.335	-3.57
1056.757	-7.77
1057.179	-14.17
1057.601	-4.87
1058.023	-2.27
1058.445	-9.27
1058.867	-7.57
1059.289	-4.17
1059.711	-8.37
1060.133	-6.87
1060.555	-7.07
1060.976	-7.17
1061.398	-5.17
1061.82	-3.07
1062.241	-7.47
1062.663	-6.27
1063.085	-3.47
1063.506	-0.97
1063.928	-3.17
1064.35	-1.27
1064.771	-8.97
1065.193	-1.37
1065.614	-8.17
1066.035	-7.27
1066.457	-4.67
1066.878	-2.47
1067.3	-7.37
1067.721	-5.17
1068.142	-8.37
1068.564	-2.57
1068.985	-10.07
1069.406	-7.37
1069.827	-8.17
1070.248	-4.87
1070.67	-5.67
1071.091	-9.87
1071.512	-6.47
1071.933	-9.87
1072.354	-6.37
1072.775	-9.27
1073.196	-8.57
1073.617	-9.57
1074.038	-9.77
1074.459	-9.17
1074.88	-14.37
1075.3	-0.67
1075.721	-3.57
1076.142	3.33
1076.563	-5.17
1076.983	-7.97
1077.404	-6.87
1077.825	-15.77
1078.246	-8.17
1078.666	-14.87
1079.087	-8.07
1079.507	-11.67
1079.928	-2.77
1080.348	-1.37
1080.769	-4.77
1081.189	-6.37
1081.61	-10.97
1082.03	-6.37
1082.451	-9.37
1082.871	-3.67
1083.291	-7.37
1083.711	-6.27
1084.132	-3.27
1084.552	-6.37
1084.972	-5.87
1085.392	-9.27
1085.813	-8.87
1086.233	-11.97
1086.653	-13.57
1087.073	-1.27
1087.493	-4.27
1087.913	-12.87
1088.333	-10.67
1088.753	-4.37
1089.173	1.53
1089.593	-7.27
1090.013	-0.97
1090.433	-2.37
1090.852	-0.87
1091.272	0.13
1091.692	-1.67
1092.112	-3.57
1092.531	-8.67
1092.951	-17.57
1093.371	-9.47
1093.79	3.33
1094.21	-8.47
1094.63	-4.67
1095.049	-5.87
1095.469	-6.77
1095.888	-6.27
1096.308	0.03
1096.727	-3.77
1097.146	-2.87
1097.566	-0.87
1097.985	-6.87
1098.405	-7.77
1098.824	-4.67
1099.243	-10.27
1099.662	-10.27
1100.082	-6.37
1100.501	-1.37
1100.92	-11.47
1101.339	-5.37
1101.758	-7.37
