Data from 20171114-ORNL-Ar_H_NY_Subt18_08-09-00-484.txt Node
Date: Tue Nov 14 08:09:00 EST 2017
User: Ender
Spectrometer: HR+D1039
Trigger mode: 0
Integration Time (sec): 2.730000E-2
Scans to average: 10
Electric dark correction enabled: true
Nonlinearity correction enabled: false
Boxcar width: 0
XAxis mode: Wavelengths
Number of Pixels in Spectrum: 2048
>>>>>Begin Spectral Data<<<<<
187.836	-2.83
188.309	-2.83
188.782	-2.83
189.255	2.47
189.728	-2.33
190.201	4.57
190.674	-1.13
191.147	4.17
191.619	-6.63
192.092	-2.13
192.565	5.77
193.038	0.07
193.511	-0.43
193.984	3.07
194.456	-2.63
194.929	0.17
195.402	0.67
195.874	-2.83
196.347	-3.03
196.82	-3.93
197.292	0.97
197.765	0.87
198.237	-7.93
198.71	2.37
199.182	-4.93
199.655	-2.43
200.127	-2.23
200.6	-6.83
201.072	-3.83
201.544	-10.23
202.017	-0.53
202.489	0.17
202.961	-2.13
203.433	-4.23
203.906	-6.43
204.378	-3.03
204.85	-7.43
205.322	-17.03
205.794	-10.63
206.266	-2.43
206.739	-5.13
207.211	5.37
207.683	-11.73
208.155	-6.83
208.627	-7.83
209.099	-8.43
209.57	-13.33
210.042	-4.03
210.514	-3.93
210.986	-5.83
211.458	-8.33
211.93	-2.83
212.402	1.17
212.873	-8.63
213.345	-11.93
213.817	-12.93
214.288	-8.83
214.76	-9.13
215.232	-2.83
215.703	-2.93
216.175	-4.73
216.646	-5.13
217.118	-2.73
217.589	-7.33
218.061	1.07
218.532	-8.53
219.004	-6.93
219.475	0.27
219.946	-6.33
220.418	-3.73
220.889	1.27
221.36	0.17
221.832	-6.63
222.303	-7.53
222.774	-1.33
223.245	-8.43
223.717	-8.13
224.188	-4.53
224.659	-10.13
225.13	-8.43
225.601	-3.83
226.072	-4.53
226.543	-4.83
227.014	-5.33
227.485	-3.53
227.956	2.17
228.427	-2.43
228.898	-3.33
229.369	0.87
229.839	-9.93
230.31	-5.13
230.781	-3.33
231.252	-7.33
231.722	-12.63
232.193	-9.63
232.664	-6.73
233.135	-1.53
233.605	-2.63
234.076	-2.43
234.546	0.27
235.017	0.77
235.487	-2.13
235.958	-1.93
236.428	-9.03
236.899	-2.83
237.369	0.37
237.84	-13.93
238.31	1.67
238.78	-10.83
239.251	-5.93
239.721	-3.33
240.191	-6.53
240.662	-6.03
241.132	-6.93
241.602	-10.13
242.072	-2.03
242.542	-2.33
243.013	-2.53
243.483	-5.93
243.953	1.57
244.423	-5.73
244.893	-2.93
245.363	1.57
245.833	-3.03
246.303	-7.23
246.773	3.17
247.243	-1.03
247.712	-3.13
248.182	6.57
248.652	-2.43
249.122	-7.73
249.592	-1.03
250.061	-1.33
250.531	9.97
251.001	-3.43
251.471	4.97
251.94	3.47
252.41	-3.63
252.879	-8.53
253.349	10.57
253.818	2.57
254.288	1.17
254.757	-3.43
255.227	-3.23
255.696	-4.93
256.166	-0.53
256.635	7.97
257.105	4.77
257.574	-1.23
258.043	-0.13
258.513	-3.73
258.982	-1.23
259.451	-3.63
259.92	-2.63
260.389	-0.83
260.859	3.97
261.328	-0.13
261.797	7.47
262.266	1.77
262.735	8.37
263.204	0.67
263.673	-5.83
264.142	5.37
264.611	-5.93
265.08	-1.93
265.549	-1.33
266.018	-1.23
266.487	-1.63
266.955	-10.93
267.424	-1.43
267.893	1.87
268.362	-3.13
268.83	-3.23
269.299	1.97
269.768	1.27
270.236	2.07
270.705	-10.23
271.174	-1.53
271.642	0.87
272.111	2.37
272.579	-2.53
273.048	3.67
273.516	-3.93
273.985	-0.23
274.453	5.67
274.922	7.37
275.39	1.17
275.858	-1.23
276.327	6.17
276.795	6.27
277.263	2.17
277.731	4.97
278.2	1.67
278.668	5.87
279.136	8.97
279.604	0.07
280.072	11.07
280.54	6.27
281.008	6.77
281.477	9.87
281.945	1.47
282.413	8.67
282.881	7.97
283.348	-4.23
283.816	8.37
284.284	13.47
284.752	11.47
285.22	13.47
285.688	2.37
286.156	5.07
286.623	8.77
287.091	4.37
287.559	7.77
288.026	7.77
288.494	11.37
288.962	8.97
289.429	4.17
289.897	16.47
290.364	8.37
290.832	9.17
291.3	7.27
291.767	13.77
292.234	13.97
292.702	6.57
293.169	13.07
293.637	14.87
294.104	13.17
294.571	-1.63
295.039	4.87
295.506	6.07
295.973	12.57
296.44	6.17
296.908	2.57
297.375	6.37
297.842	5.67
298.309	7.87
298.776	5.27
299.243	17.87
299.71	7.37
300.177	14.57
300.644	11.67
301.111	6.17
301.578	11.17
302.045	10.07
302.512	16.27
302.979	13.97
303.446	14.47
303.913	12.77
304.379	11.17
304.846	16.37
305.313	18.27
305.78	14.67
306.246	18.37
306.713	14.07
307.18	13.17
307.646	14.67
308.113	17.77
308.579	11.67
309.046	15.07
309.512	18.67
309.979	8.57
310.445	15.07
310.912	20.47
311.378	21.17
311.845	19.17
312.311	23.07
312.777	22.97
313.244	19.67
313.71	29.47
314.176	20.07
314.642	17.27
315.109	15.87
315.575	20.37
316.041	27.57
316.507	14.67
316.973	18.87
317.439	20.17
317.905	26.47
318.371	29.17
318.837	21.87
319.303	23.87
319.769	26.77
320.235	23.27
320.701	20.37
321.167	29.17
321.633	20.67
322.099	28.27
322.564	30.47
323.03	25.17
323.496	26.77
323.962	31.67
324.427	21.37
324.893	30.67
325.359	30.27
325.824	28.87
326.29	26.77
326.755	27.07
327.221	29.17
327.686	29.17
328.152	31.97
328.617	31.17
329.083	40.57
329.548	35.77
330.014	40.37
330.479	35.07
330.944	35.17
331.41	30.47
331.875	33.87
332.34	34.57
332.805	31.17
333.271	36.07
333.736	30.67
334.201	36.97
334.666	41.87
335.131	41.57
335.596	38.87
336.061	37.87
336.526	33.67
336.991	37.07
337.456	41.47
337.921	29.67
338.386	30.47
338.851	38.77
339.316	44.07
339.781	35.07
340.246	42.87
340.711	37.97
341.175	41.47
341.64	33.27
342.105	43.07
342.569	40.57
343.034	45.77
343.499	42.57
343.963	43.17
344.428	47.47
344.893	47.47
345.357	55.07
345.822	49.47
346.286	52.27
346.751	58.17
347.215	53.07
347.679	57.77
348.144	74.77
348.608	69.57
349.073	53.37
349.537	59.87
350.001	62.67
350.465	72.17
350.93	67.67
351.394	66.27
351.858	58.87
352.322	70.77
352.786	69.47
353.25	72.47
353.715	90.37
354.179	76.37
354.643	103.17
355.107	94.97
355.571	86.47
356.035	86.87
356.498	95.37
356.962	94.77
357.426	98.67
357.89	91.77
358.354	74.67
358.818	69.97
359.281	65.57
359.745	59.77
360.209	69.87
360.673	65.07
361.136	70.07
361.6	68.57
362.064	74.17
362.527	71.37
362.991	76.67
363.454	71.27
363.918	65.47
364.381	64.07
364.845	74.27
365.308	75.07
365.772	76.47
366.235	76.17
366.698	67.27
367.162	73.47
367.625	74.57
368.088	73.17
368.552	75.77
369.015	78.87
369.478	83.37
369.941	86.17
370.404	78.67
370.867	87.77
371.331	88.97
371.794	90.57
372.257	83.57
372.72	85.27
373.183	81.67
373.646	81.47
374.109	82.47
374.572	90.07
375.035	81.67
375.497	86.97
375.96	88.37
376.423	95.57
376.886	97.97
377.349	99.97
377.811	90.67
378.274	92.47
378.737	94.57
379.199	99.57
379.662	94.57
380.125	102.07
380.587	98.97
381.05	94.67
381.512	101.07
381.975	112.67
382.437	100.37
382.9	103.27
383.362	114.97
383.825	114.77
384.287	108.87
384.75	109.57
385.212	118.47
385.674	121.77
386.136	118.57
386.599	105.07
387.061	106.37
387.523	105.97
387.985	114.17
388.447	118.27
388.91	114.67
389.372	114.97
389.834	112.57
390.296	115.97
390.758	113.17
391.22	120.97
391.682	128.87
392.144	133.57
392.606	127.07
393.068	128.17
393.529	138.47
393.991	125.97
394.453	120.17
394.915	120.37
395.377	127.07
395.838	122.67
396.3	126.77
396.762	126.27
397.224	127.47
397.685	120.97
398.147	120.87
398.608	120.27
399.07	127.57
399.531	131.47
399.993	132.37
400.454	144.17
400.916	134.47
401.377	136.47
401.839	141.57
402.3	141.07
402.762	152.97
403.223	161.27
403.684	158.27
404.145	151.97
404.607	153.67
405.068	150.87
405.529	156.17
405.99	172.67
406.451	164.57
406.913	159.37
407.374	160.47
407.835	156.97
408.296	154.87
408.757	154.17
409.218	167.07
409.679	170.47
410.14	168.07
410.601	164.97
411.062	165.37
411.522	167.97
411.983	169.07
412.444	167.97
412.905	174.67
413.366	177.57
413.826	187.87
414.287	203.97
414.748	250.17
415.208	239.37
415.669	223.07
416.13	205.57
416.59	208.97
417.051	211.87
417.511	217.07
417.972	234.77
418.432	236.27
418.893	286.57
419.353	246.67
419.814	190.97
420.274	178.67
420.734	178.77
421.195	195.27
421.655	181.27
422.115	198.07
422.576	192.77
423.036	191.57
423.496	202.97
423.956	208.17
424.416	227.87
424.876	259.37
425.336	250.97
425.797	250.77
426.257	251.57
426.717	230.77
427.177	228.47
427.637	212.47
428.097	224.17
428.556	238.07
429.016	260.67
429.476	256.07
429.936	255.77
430.396	267.37
430.856	278.37
431.315	297.37
431.775	336.47
432.235	370.07
432.694	329.77
433.154	342.97
433.614	364.77
434.073	317.77
434.533	269.97
434.993	254.37
435.452	269.67
435.912	282.47
436.371	272.07
436.83	274.77
437.29	255.97
437.749	237.27
438.209	232.17
438.668	266.47
439.127	280.17
439.587	257.47
440.046	242.87
440.505	255.37
440.964	269.67
441.424	310.77
441.883	295.87
442.342	255.97
442.801	230.47
443.26	220.07
443.719	222.87
444.178	220.67
444.637	215.57
445.096	221.77
445.555	224.27
446.014	229.47
446.473	226.87
446.932	233.17
447.391	228.17
447.849	235.77
448.308	222.77
448.767	223.67
449.226	239.97
449.685	239.17
450.143	249.77
450.602	239.07
451.061	234.57
451.519	234.37
451.978	231.67
452.436	238.97
452.895	242.97
453.353	247.87
453.812	245.17
454.27	242.27
454.729	242.97
455.187	244.27
455.646	244.77
456.104	249.27
456.562	262.77
457.021	275.37
457.479	261.07
457.937	270.97
458.395	266.17
458.854	248.27
459.312	258.87
459.77	270.87
460.228	259.97
460.686	246.97
461.144	256.17
461.602	250.97
462.06	249.97
462.518	259.97
462.976	260.47
463.434	267.77
463.892	262.97
464.35	277.97
464.808	287.67
465.266	272.37
465.724	271.37
466.181	278.57
466.639	269.67
467.097	292.37
467.555	301.27
468.012	308.67
468.47	313.87
468.928	325.37
469.385	337.67
469.843	347.27
470.3	355.67
470.758	364.07
471.215	388.27
471.673	407.37
472.13	410.77
472.588	426.37
473.045	376.07
473.503	378.97
473.96	393.97
474.417	410.27
474.875	436.07
475.332	484.07
475.789	469.37
476.246	463.67
476.704	485.77
477.161	504.97
477.618	519.07
478.075	550.67
478.532	620.77
478.989	682.37
479.446	775.17
479.903	743.97
480.36	775.77
480.817	823.07
481.274	925.07
481.731	1013.87
482.188	1078.37
482.645	1196.47
483.102	1284.97
483.558	1400.17
484.015	1426.47
484.472	1416.97
484.929	1372.67
485.385	1322.37
485.842	1303.87
486.299	1248.37
486.755	1214.87
487.212	1038.27
487.668	889.47
488.125	832.97
488.582	756.77
489.038	734.27
489.494	711.77
489.951	680.57
490.407	662.17
490.864	635.17
491.32	633.67
491.776	634.47
492.233	646.57
492.689	614.87
493.145	611.37
493.602	598.37
494.058	616.57
494.514	621.07
494.97	633.17
495.426	651.27
495.882	623.27
496.338	615.77
496.794	624.47
497.251	616.47
497.707	635.47
498.163	635.37
498.618	646.87
499.074	641.27
499.53	675.07
499.986	673.17
500.442	641.77
500.898	618.87
501.354	625.67
501.809	624.67
502.265	626.37
502.721	645.57
503.177	645.67
503.632	646.97
504.088	659.97
504.543	674.37
504.999	688.47
505.455	663.27
505.91	642.37
506.366	637.17
506.821	643.57
507.277	638.37
507.732	639.67
508.187	639.47
508.643	658.57
509.098	661.07
509.553	678.87
510.009	683.97
510.464	684.67
510.919	704.97
511.375	715.87
511.83	717.77
512.285	739.17
512.74	774.87
513.195	793.77
513.65	783.67
514.105	778.77
514.56	774.37
515.015	803.17
515.47	804.87
515.925	790.57
516.38	794.87
516.835	805.27
517.29	794.27
517.745	798.77
518.2	778.67
518.655	769.47
519.109	763.97
519.564	754.67
520.019	746.47
520.474	732.37
520.928	745.57
521.383	736.77
521.838	719.17
522.292	725.77
522.747	735.47
523.201	716.37
523.656	707.07
524.11	709.77
524.565	714.87
525.019	703.07
525.474	711.97
525.928	714.57
526.382	715.57
526.837	715.27
527.291	719.27
527.745	710.77
528.2	713.57
528.654	705.37
529.108	703.07
529.562	710.87
530.016	710.37
530.47	703.17
530.925	712.87
531.379	712.87
531.833	709.97
532.287	715.17
532.741	715.97
533.195	714.97
533.649	712.07
534.103	731.87
534.556	722.47
535.01	723.27
535.464	713.57
535.918	730.87
536.372	724.27
536.826	732.97
537.279	720.67
537.733	732.37
538.187	722.57
538.64	731.77
539.094	736.67
539.548	753.47
540.001	743.97
540.455	741.67
540.908	751.57
541.362	761.67
541.815	771.07
542.269	773.87
542.722	778.47
543.175	793.67
543.629	779.77
544.082	810.07
544.536	803.07
544.989	797.67
545.442	818.97
545.895	817.17
546.349	814.47
546.802	810.27
547.255	818.07
547.708	830.87
548.161	844.87
548.614	846.37
549.067	857.87
549.52	844.97
549.973	839.67
550.426	828.67
550.879	818.47
551.332	834.77
551.785	827.47
552.238	828.97
552.691	852.77
553.144	860.17
553.596	879.57
554.049	895.77
554.502	922.87
554.955	944.17
555.407	934.27
555.86	929.27
556.313	924.47
556.765	900.07
557.218	896.87
557.67	913.77
558.123	909.67
558.576	901.47
559.028	911.87
559.48	922.87
559.933	905.17
560.385	878.97
560.838	837.17
561.29	821.87
561.742	805.77
562.195	792.57
562.647	794.27
563.099	803.97
563.551	802.67
564.004	811.57
564.456	809.87
564.908	793.37
565.36	765.17
565.812	744.87
566.264	731.97
566.716	740.27
567.168	725.77
567.62	732.87
568.072	707.67
568.524	720.97
568.976	712.57
569.428	704.47
569.88	701.07
570.332	699.77
570.784	714.97
571.235	707.57
571.687	720.57
572.139	722.97
572.59	737.07
573.042	745.77
573.494	735.47
573.945	732.17
574.397	714.47
574.849	716.27
575.3	715.97
575.752	690.17
576.203	700.37
576.655	705.27
577.106	695.57
577.557	696.77
578.009	693.97
578.46	698.77
578.912	692.87
579.363	688.77
579.814	687.97
580.265	683.57
580.717	688.87
581.168	700.27
581.619	694.17
582.07	701.47
582.521	706.67
582.972	702.37
583.423	695.37
583.875	693.17
584.326	703.77
584.777	728.57
585.227	734.87
585.678	750.07
586.129	772.17
586.58	798.67
587.031	804.67
587.482	853.47
587.933	873.97
588.384	847.97
588.834	810.37
589.285	787.87
589.736	803.77
590.186	794.57
590.637	800.67
591.088	778.87
591.538	766.97
591.989	761.57
592.439	763.27
592.89	743.87
593.34	739.47
593.791	729.17
594.241	721.17
594.692	723.97
595.142	729.77
595.593	716.17
596.043	734.37
596.493	733.17
596.943	726.67
597.394	741.77
597.844	757.27
598.294	758.97
598.744	794.77
599.195	811.37
599.645	853.57
600.095	907.77
600.545	954.37
600.995	1010.57
601.445	1069.97
601.895	1128.27
602.345	1178.77
602.795	1157.77
603.245	1108.97
603.695	1052.77
604.145	995.87
604.594	948.07
605.044	897.57
605.494	839.27
605.944	784.07
606.393	768.27
606.843	755.57
607.293	758.57
607.743	761.07
608.192	763.97
608.642	780.27
609.091	781.97
609.541	794.97
609.99	794.57
610.44	791.97
610.889	746.07
611.339	720.07
611.788	703.47
612.238	715.97
612.687	734.97
613.136	716.57
613.586	728.67
614.035	724.87
614.484	726.07
614.933	728.67
615.383	735.07
615.832	726.27
616.281	731.87
616.73	697.77
617.179	683.37
617.628	666.97
618.077	654.57
618.526	645.17
618.975	642.47
619.424	641.07
619.873	645.87
620.322	643.67
620.771	627.47
621.22	626.97
621.669	618.57
622.118	608.97
622.567	606.47
623.015	593.27
623.464	590.27
623.913	591.57
624.361	577.27
624.81	573.77
625.259	577.97
625.707	578.97
626.156	579.77
626.604	586.57
627.053	591.17
627.501	581.47
627.95	597.57
628.398	598.47
628.847	587.97
629.295	597.27
629.744	599.07
630.192	589.27
630.64	585.97
631.089	562.77
631.537	560.67
631.985	549.57
632.433	556.87
632.881	542.97
633.33	552.17
633.778	542.07
634.226	548.27
634.674	562.07
635.122	553.27
635.57	572.77
636.018	586.67
636.466	587.77
636.914	582.57
637.362	591.97
637.81	598.57
638.258	611.67
638.705	610.07
639.153	637.97
639.601	645.27
640.049	676.57
640.497	695.97
640.944	718.07
641.392	662.67
641.84	645.57
642.287	611.57
642.735	595.17
643.182	588.27
643.63	577.57
644.078	580.77
644.525	598.17
644.973	606.47
645.42	620.47
645.867	640.17
646.315	659.07
646.762	677.17
647.21	706.37
647.657	731.67
648.104	759.37
648.551	792.57
648.999	847.27
649.446	914.87
649.893	1006.27
650.34	1146.17
650.787	1373.17
651.234	1678.87
651.682	2186.67
652.129	2950.17
652.576	4217.97
653.023	6115.27
653.47	8250.47
653.917	10174.77
654.363	11650.07
654.81	12780.97
655.257	12104.97
655.704	8040.37
656.151	4816.37
656.598	3184.97
657.044	2297.77
657.491	1787.37
657.938	1447.97
658.385	1220.07
658.831	1064.27
659.278	954.37
659.724	846.27
660.171	792.27
660.618	731.17
661.064	702.87
661.511	681.87
661.957	667.87
662.404	646.37
662.85	668.67
663.296	653.87
663.743	576.27
664.189	556.37
664.635	556.07
665.082	545.17
665.528	540.77
665.974	544.77
666.42	525.87
666.867	522.27
667.313	500.47
667.759	484.27
668.205	467.87
668.651	471.27
669.097	454.47
669.543	458.37
669.989	460.27
670.435	467.07
670.881	475.67
671.327	467.17
671.773	490.17
672.219	526.07
672.665	571.47
673.11	610.97
673.556	672.87
674.002	703.47
674.448	692.47
674.893	574.27
675.339	498.77
675.785	463.87
676.23	433.37
676.676	411.27
677.122	402.07
677.567	401.47
678.013	393.57
678.458	382.17
678.904	384.17
679.349	365.67
679.794	372.67
680.24	366.27
680.685	370.17
681.131	362.57
681.576	363.17
682.021	377.47
682.466	366.57
682.912	376.77
683.357	372.17
683.802	405.77
684.247	438.17
684.692	486.27
685.137	531.77
685.583	563.87
686.028	587.67
686.473	547.47
686.918	476.07
687.363	442.87
687.807	405.07
688.252	377.57
688.697	376.07
689.142	362.57
689.587	349.07
690.032	356.07
690.477	371.37
690.921	363.37
691.366	401.67
691.811	428.77
692.255	454.67
692.7	496.97
693.145	530.87
693.589	776.67
694.034	1237.77
694.478	1668.07
694.923	1837.57
695.367	2376.97
695.812	1267.97
696.256	528.37
696.701	392.37
697.145	370.07
697.59	354.77
698.034	340.07
698.478	342.77
698.922	338.27
699.367	344.67
699.811	354.07
700.255	379.27
700.699	404.87
701.143	454.67
701.588	499.17
702.032	541.17
702.476	540.57
702.92	529.47
703.364	530.47
703.808	703.77
704.252	1148.57
704.696	1588.17
705.14	1770.97
705.584	2247.17
706.027	1142.07
706.471	559.97
706.915	421.57
707.359	375.27
707.803	345.17
708.246	326.87
708.69	327.57
709.134	336.87
709.577	325.77
710.021	338.17
710.465	324.97
710.908	310.67
711.352	317.57
711.795	328.07
712.239	376.47
712.682	408.67
713.126	436.97
713.569	481.37
714.012	364.17
714.456	321.07
714.899	305.67
715.342	295.17
715.786	272.17
716.229	270.87
716.672	270.67
717.115	267.47
717.558	261.37
718.002	265.37
718.445	280.97
718.888	298.87
719.331	306.87
719.774	322.27
720.217	321.17
720.66	304.57
721.103	278.37
721.546	271.97
721.989	264.97
722.432	244.87
722.874	249.37
723.317	243.17
723.76	247.57
724.203	279.67
724.645	339.17
725.088	480.47
725.531	613.17
725.974	678.07
726.416	582.97
726.859	328.77
727.301	269.77
727.744	248.57
728.187	251.87
728.629	252.27
729.071	262.47
729.514	275.47
729.956	291.67
730.399	309.47
730.841	307.87
731.283	292.07
731.726	278.77
732.168	276.67
732.61	288.07
733.053	313.77
733.495	334.47
733.937	375.27
734.379	430.17
734.821	472.17
735.263	604.87
735.705	930.37
736.148	1758.27
736.59	2802.37
737.032	3231.47
737.474	2651.87
737.916	869.57
738.357	460.37
738.799	352.77
739.241	323.97
739.683	307.57
740.125	317.77
740.567	319.17
741.008	333.27
741.45	342.97
741.892	342.97
742.334	369.37
742.775	385.57
743.217	373.97
743.658	285.67
744.1	283.67
744.542	289.57
744.983	340.77
745.425	367.57
745.866	368.57
746.307	296.47
746.749	299.07
747.19	361.17
747.632	506.37
748.073	996.07
748.514	2080.07
748.956	3094.37
749.397	3866.17
749.838	3210.07
750.279	3118.97
750.72	1606.57
751.162	589.57
751.603	342.97
752.044	277.67
752.485	235.27
752.926	224.67
753.367	217.67
753.808	200.67
754.249	197.57
754.69	191.77
755.131	195.77
755.572	195.87
756.013	193.57
756.453	201.77
756.894	201.87
757.335	201.57
757.776	204.27
758.216	209.57
758.657	209.17
759.098	217.47
759.538	241.87
759.979	289.57
760.42	411.67
760.86	798.57
761.301	2097.77
761.741	4907.97
762.182	6780.47
762.622	4780.37
763.063	1414.77
763.503	587.07
763.943	355.27
764.384	290.17
764.824	263.87
765.264	249.17
765.705	221.77
766.145	197.87
766.585	188.97
767.025	174.17
767.465	172.57
767.906	185.97
768.346	206.57
768.786	224.77
769.226	233.97
769.666	339.07
770.106	696.57
770.546	1745.57
770.986	2803.07
771.426	2495.17
771.866	851.57
772.306	352.87
772.745	219.87
773.185	181.27
773.625	171.07
774.065	161.77
774.505	173.17
774.944	218.37
775.384	389.57
775.824	607.17
776.263	586.27
776.703	290.87
777.142	168.57
777.582	139.47
778.021	135.17
778.461	127.67
778.9	128.77
779.34	128.97
779.779	120.57
780.219	116.37
780.658	112.87
781.097	110.57
781.537	117.97
781.976	113.47
782.415	110.67
782.855	108.37
783.294	107.87
783.733	112.47
784.172	111.47
784.611	109.67
785.05	116.17
785.489	117.57
785.928	131.07
786.367	128.97
786.806	123.67
787.245	137.87
787.684	140.97
788.123	156.07
788.562	145.27
789.001	128.77
789.44	129.97
789.879	123.67
790.317	122.07
790.756	142.77
791.195	135.47
791.634	147.77
792.072	222.77
792.511	409.87
792.95	1137.07
793.388	2267.97
793.827	2002.57
794.265	718.37
794.704	297.67
795.142	194.37
795.581	160.87
796.019	143.77
796.458	137.97
796.896	135.27
797.334	151.77
797.773	165.67
798.211	233.27
798.649	497.87
799.087	1116.47
799.526	1735.67
799.964	2185.47
800.402	2099.67
800.84	806.57
801.278	331.67
801.716	200.07
802.154	161.77
802.592	155.17
803.03	147.27
803.468	145.57
803.906	158.77
804.344	161.87
804.782	150.87
805.22	143.37
805.658	143.87
806.096	159.97
806.533	165.57
806.971	186.47
807.409	236.27
807.847	357.47
808.284	752.37
808.722	2092.37
809.16	3530.77
809.597	3476.57
810.035	5915.77
810.472	6056.47
810.91	2247.17
811.347	867.27
811.785	439.07
812.222	274.57
812.66	209.77
813.097	179.57
813.535	155.17
813.972	141.37
814.409	128.47
814.846	113.17
815.284	120.37
815.721	113.67
816.158	117.77
816.595	118.07
817.032	164.77
817.47	183.67
817.907	135.47
818.344	115.67
818.781	101.37
819.218	106.37
819.655	131.77
820.092	204.37
820.529	230.97
820.966	183.67
821.403	136.77
821.839	110.17
822.276	106.47
822.713	126.67
823.15	149.67
823.587	127.67
824.023	163.57
824.46	340.57
824.897	990.37
825.333	1425.87
825.77	606.97
826.206	247.17
826.643	143.27
827.08	110.87
827.516	88.47
827.953	81.47
828.389	86.97
828.825	73.97
829.262	68.67
829.698	65.77
830.135	67.27
830.571	60.87
831.007	70.67
831.443	64.27
831.88	65.47
832.316	63.87
832.752	64.87
833.188	66.57
833.624	65.87
834.06	72.27
834.497	68.77
834.933	75.47
835.369	76.67
835.805	77.17
836.241	76.67
836.677	86.07
837.112	98.27
837.548	116.77
837.984	146.47
838.42	224.37
838.856	575.17
839.292	1683.07
839.727	2426.57
840.163	1156.37
840.599	1035.97
841.034	2217.77
841.47	2233.17
841.906	821.17
842.341	351.37
842.777	211.27
843.212	207.67
843.648	196.17
844.083	115.57
844.519	86.47
844.954	75.27
845.39	61.87
845.825	65.17
846.261	55.67
846.696	52.07
847.131	53.87
847.566	61.67
848.002	50.67
848.437	59.97
848.872	66.17
849.307	57.07
849.742	86.87
850.177	201.67
850.613	615.37
851.048	923.57
851.483	404.97
851.918	157.87
852.353	86.47
852.788	59.07
853.223	55.57
853.657	56.87
854.092	50.37
854.527	39.47
854.962	45.17
855.397	47.27
855.832	46.37
856.266	40.77
856.701	43.27
857.136	38.07
857.57	47.57
858.005	44.57
858.44	59.67
858.874	44.47
859.309	58.07
859.743	42.77
860.178	52.87
860.612	38.47
861.047	55.97
861.481	72.87
861.915	75.87
862.35	52.67
862.784	35.77
863.218	39.77
863.653	29.07
864.087	45.17
864.521	56.27
864.955	75.87
865.39	163.57
865.824	185.67
866.258	128.07
866.692	181.27
867.126	188.47
867.56	107.87
867.994	62.97
868.428	35.87
868.862	54.07
869.296	52.57
869.73	58.27
870.164	58.17
870.598	52.87
871.031	44.87
871.465	35.07
871.899	36.07
872.333	25.47
872.766	25.57
873.2	23.47
873.634	31.37
874.067	29.37
874.501	22.17
874.935	35.47
875.368	34.47
875.802	27.87
876.235	29.17
876.669	28.17
877.102	20.87
877.535	26.17
877.969	25.27
878.402	22.57
878.836	20.47
879.269	24.47
879.702	28.47
880.135	24.07
880.569	20.67
881.002	28.07
881.435	27.37
881.868	16.47
882.301	29.17
882.734	18.07
883.167	24.87
883.601	22.77
884.034	22.67
884.467	13.47
884.899	20.57
885.332	13.97
885.765	12.27
886.198	10.87
886.631	22.67
887.064	20.27
887.497	18.77
887.929	20.37
888.362	23.67
888.795	9.77
889.228	18.17
889.66	20.57
890.093	17.37
890.526	15.77
890.958	13.07
891.391	20.57
891.823	29.97
892.256	25.17
892.688	9.87
893.121	16.57
893.553	13.87
893.985	18.47
894.418	25.57
894.85	14.97
895.282	22.57
895.715	17.67
896.147	18.67
896.579	18.07
897.011	18.87
897.444	15.37
897.876	8.67
898.308	15.87
898.74	16.87
899.172	10.37
899.604	22.77
900.036	20.07
900.468	9.37
900.9	11.37
901.332	16.07
901.764	13.67
902.196	16.37
902.628	21.67
903.06	16.77
903.491	26.87
903.923	22.97
904.355	22.17
904.787	27.87
905.218	22.47
905.65	22.17
906.082	13.87
906.513	15.37
906.945	14.37
907.376	14.37
907.808	21.57
908.239	22.57
908.671	20.67
909.102	19.37
909.534	31.87
909.965	53.87
910.397	95.67
910.828	347.87
911.259	496.47
911.691	230.37
912.122	119.97
912.553	52.57
912.984	36.57
913.415	20.77
913.847	29.67
914.278	17.87
914.709	15.37
915.14	16.67
915.571	20.07
916.002	12.67
916.433	15.47
916.864	20.37
917.295	13.17
917.726	22.27
918.157	16.57
918.587	28.87
919.018	21.07
919.449	24.47
919.88	27.47
920.311	31.07
920.741	50.37
921.172	173.67
921.603	152.07
922.033	70.37
922.464	50.97
922.895	20.67
923.325	19.77
923.756	12.87
924.186	12.47
924.617	16.37
925.047	18.87
925.478	20.87
925.908	22.37
926.338	7.87
926.769	10.97
927.199	14.27
927.629	3.97
928.06	18.27
928.49	12.67
928.92	11.17
929.35	11.67
929.78	12.37
930.21	3.57
930.641	4.97
931.071	8.27
931.501	4.37
931.931	9.77
932.361	10.17
932.791	5.47
933.221	10.07
933.651	5.77
934.08	24.47
934.51	30.17
934.94	12.17
935.37	11.47
935.8	7.87
936.229	5.27
936.659	7.77
937.089	7.17
937.519	17.07
937.948	30.17
938.378	14.67
938.807	10.57
939.237	-2.73
939.666	5.07
940.096	-3.83
940.525	3.97
940.955	3.77
941.384	4.07
941.814	-3.33
942.243	-2.73
942.672	-1.13
943.102	-6.33
943.531	-0.23
943.96	-0.33
944.39	1.87
944.819	-2.73
945.248	4.77
945.677	0.37
946.106	2.47
946.535	7.77
946.964	2.67
947.393	4.17
947.822	6.07
948.251	-6.03
948.68	3.37
949.109	6.67
949.538	7.07
949.967	-1.93
950.396	-3.03
950.825	-1.23
951.254	-0.13
951.682	-5.13
952.111	3.07
952.54	3.87
952.969	-0.43
953.397	-2.03
953.826	3.27
954.254	-6.43
954.683	-1.63
955.112	-1.03
955.54	-0.93
955.969	-0.13
956.397	1.57
956.826	-4.83
957.254	-1.63
957.682	0.37
958.111	4.07
958.539	-1.83
958.967	4.97
959.396	-0.33
959.824	-0.13
960.252	2.17
960.68	-9.03
961.109	-3.73
961.537	-3.53
961.965	-0.93
962.393	-1.13
962.821	-3.13
963.249	-3.23
963.677	1.27
964.105	4.07
964.533	46.37
964.961	46.37
965.389	17.67
965.817	7.17
966.245	-0.43
966.672	-2.63
967.1	-9.63
967.528	3.37
967.956	-8.93
968.383	-0.73
968.811	-2.63
969.239	-5.83
969.666	-4.03
970.094	-2.93
970.522	4.47
970.949	-1.13
971.377	-2.43
971.804	-2.93
972.232	-1.03
972.659	-2.13
973.087	-4.13
973.514	-2.63
973.941	-6.23
974.369	2.67
974.796	-1.53
975.223	-6.53
975.651	-4.03
976.078	0.77
976.505	-3.83
976.932	-3.13
977.359	14.87
977.786	17.57
978.214	1.37
978.641	-1.23
979.068	-3.93
979.495	-7.13
979.922	-0.63
980.349	0.07
980.776	-4.63
981.202	-7.23
981.629	-2.93
982.056	2.27
982.483	-1.23
982.91	1.07
983.337	-3.93
983.763	4.17
984.19	-5.73
984.617	-3.63
985.043	-8.23
985.47	-3.83
985.897	-1.73
986.323	-12.03
986.75	0.17
987.176	-2.93
987.603	-1.33
988.029	1.27
988.456	-8.53
988.882	-0.43
989.308	-8.73
989.735	-0.13
990.161	2.47
990.587	-2.73
991.014	-1.33
991.44	3.27
991.866	-4.93
992.292	-6.73
992.719	-4.63
993.145	-3.33
993.571	-12.13
993.997	-6.83
994.423	-5.53
994.849	-4.13
995.275	0.17
995.701	-3.13
996.127	-5.23
996.553	3.57
996.979	-6.53
997.405	0.47
997.83	-7.63
998.256	-3.43
998.682	-4.13
999.108	-1.83
999.534	0.37
999.959	0.57
1000.385	-3.13
1000.811	-5.43
1001.236	-7.43
1001.662	-5.83
1002.087	-6.23
1002.513	-2.73
1002.938	-0.33
1003.364	-1.93
1003.789	-3.33
1004.215	3.07
1004.64	-3.33
1005.066	-4.73
1005.491	2.67
1005.916	-2.53
1006.342	-4.53
1006.767	-9.03
1007.192	9.27
1007.617	1.77
1008.042	-4.43
1008.468	-7.13
1008.893	-2.63
1009.318	-1.73
1009.743	-5.53
1010.168	3.77
1010.593	0.17
1011.018	-6.53
1011.443	-7.03
1011.868	-0.43
1012.293	-6.33
1012.718	-6.73
1013.143	-3.43
1013.567	-2.03
1013.992	-2.23
1014.417	-16.63
1014.842	0.17
1015.267	-1.23
1015.691	-3.93
1016.116	-0.93
1016.541	1.87
1016.965	-2.83
1017.39	2.57
1017.814	-0.73
1018.239	-2.33
1018.663	-8.13
1019.088	-11.13
1019.512	-4.83
1019.937	-3.53
1020.361	-4.13
1020.785	-8.63
1021.21	-5.83
1021.634	-3.13
1022.058	-3.73
1022.483	4.17
1022.907	-5.63
1023.331	-4.13
1023.755	-2.63
1024.179	-2.03
1024.604	-4.83
1025.028	-2.13
1025.452	-5.43
1025.876	-6.53
1026.3	0.67
1026.724	-12.83
1027.148	-3.83
1027.572	-4.73
1027.996	0.07
1028.42	-0.73
1028.843	-3.43
1029.267	-8.73
1029.691	-0.53
1030.115	-7.53
1030.539	-9.83
1030.962	-3.63
1031.386	-10.53
1031.81	0.27
1032.233	-5.53
1032.657	0.07
1033.08	2.17
1033.504	-6.13
1033.927	-4.53
1034.351	-2.93
1034.774	-0.63
1035.198	-1.33
1035.621	-7.23
1036.045	-9.73
1036.468	1.17
1036.891	-9.93
1037.315	-9.73
1037.738	-10.93
1038.161	-2.23
1038.584	-8.73
1039.008	-6.43
1039.431	-0.13
1039.854	-2.73
1040.277	-10.73
1040.7	-10.13
1041.123	-3.63
1041.546	-11.13
1041.969	-4.63
1042.392	-7.73
1042.815	-3.43
1043.238	1.37
1043.661	-1.83
1044.084	-10.63
1044.507	-2.83
1044.93	-3.83
1045.352	-7.03
1045.775	-7.53
1046.198	-2.23
1046.621	-1.03
1047.043	1.27
1047.466	-0.13
1047.889	0.67
1048.311	-6.13
1048.734	-5.13
1049.156	-2.03
1049.579	-5.53
1050.001	-4.03
1050.424	-4.83
1050.846	-2.43
1051.269	-2.03
1051.691	-7.03
1052.113	-7.33
1052.536	-7.53
1052.958	-6.13
1053.38	-5.03
1053.802	-15.73
1054.225	-2.73
1054.647	-7.73
1055.069	-1.33
1055.491	3.47
1055.913	-8.13
1056.335	1.77
1056.757	-6.33
1057.179	-4.53
1057.601	-2.83
1058.023	-5.73
1058.445	-2.23
1058.867	-8.43
1059.289	-8.53
1059.711	0.07
1060.133	-4.63
1060.555	-8.13
1060.976	-5.83
1061.398	-5.33
1061.82	-12.83
1062.241	-1.93
1062.663	-8.63
1063.085	-5.93
1063.506	0.87
1063.928	-1.73
1064.35	1.47
1064.771	-13.03
1065.193	-1.43
1065.614	-16.23
1066.035	-1.73
1066.457	-4.23
1066.878	-0.43
1067.3	-3.33
1067.721	-0.93
1068.142	-8.93
1068.564	-3.93
1068.985	-1.93
1069.406	-5.43
1069.827	-1.93
1070.248	4.37
1070.67	-3.43
1071.091	-6.23
1071.512	-8.43
1071.933	-8.93
1072.354	-4.63
1072.775	-9.63
1073.196	-3.53
1073.617	-6.73
1074.038	-4.93
1074.459	-3.93
1074.88	-5.63
1075.3	1.77
1075.721	-7.83
1076.142	1.37
1076.563	-0.23
1076.983	-9.73
1077.404	-5.93
1077.825	-11.73
1078.246	-0.63
1078.666	-9.23
1079.087	-1.93
1079.507	-13.53
1079.928	-2.83
1080.348	-0.23
1080.769	-9.83
1081.189	1.07
1081.61	-10.03
1082.03	-6.93
1082.451	-6.23
1082.871	-3.83
1083.291	-5.33
1083.711	-13.33
1084.132	-4.23
1084.552	-4.23
1084.972	-5.13
1085.392	-12.83
1085.813	-4.53
1086.233	-10.03
1086.653	-5.83
1087.073	-13.23
1087.493	-8.93
1087.913	-5.73
1088.333	-12.13
1088.753	-3.93
1089.173	0.47
1089.593	-7.03
1090.013	-0.83
1090.433	1.17
1090.852	-6.53
1091.272	-1.43
1091.692	-0.43
1092.112	-3.83
1092.531	-9.73
1092.951	-15.63
1093.371	-8.63
1093.79	-0.13
1094.21	-7.73
1094.63	-6.73
1095.049	-2.13
1095.469	-0.53
1095.888	-3.63
1096.308	-1.43
1096.727	1.57
1097.146	-4.33
1097.566	-5.63
1097.985	-12.43
1098.405	-6.33
1098.824	-6.63
1099.243	-8.23
1099.662	-9.93
1100.082	-14.33
1100.501	-1.23
1100.92	-9.13
1101.339	-5.33
1101.758	-3.53
