Data from 20171114-ORNL-Ar_H_NY_Subt18_08-09-27-509.txt Node
Date: Tue Nov 14 08:09:27 EST 2017
User: Ender
Spectrometer: HR+D1039
Trigger mode: 0
Integration Time (sec): 2.730000E-2
Scans to average: 10
Electric dark correction enabled: true
Nonlinearity correction enabled: false
Boxcar width: 0
XAxis mode: Wavelengths
Number of Pixels in Spectrum: 2048
>>>>>Begin Spectral Data<<<<<
187.836	0.49
188.309	0.49
188.782	0.49
189.255	0.59
189.728	-3.61
190.201	6.19
190.674	-4.61
191.147	-2.81
191.619	-5.31
192.092	2.19
192.565	5.69
193.038	1.89
193.511	4.49
193.984	3.79
194.456	-2.81
194.929	-1.21
195.402	-4.01
195.874	-0.91
196.347	-0.81
196.82	-9.31
197.292	8.49
197.765	1.29
198.237	-8.21
198.71	0.49
199.182	1.49
199.655	3.09
200.127	3.89
200.6	-1.61
201.072	-0.31
201.544	-11.51
202.017	3.09
202.489	-2.91
202.961	-2.41
203.433	-1.91
203.906	-8.61
204.378	-7.31
204.85	-4.71
205.322	-8.71
205.794	-2.51
206.266	-5.61
206.739	-10.41
207.211	3.19
207.683	-7.61
208.155	-5.51
208.627	-2.91
209.099	-3.01
209.57	-7.61
210.042	-7.01
210.514	-0.21
210.986	0.29
211.458	-10.11
211.93	-7.01
212.402	3.49
212.873	-4.11
213.345	-8.01
213.817	-14.21
214.288	-5.31
214.76	-12.61
215.232	-1.91
215.703	-2.81
216.175	-7.41
216.646	-6.41
217.118	-5.41
217.589	-4.81
218.061	-0.51
218.532	-5.91
219.004	-0.51
219.475	-5.61
219.946	-2.91
220.418	-4.31
220.889	4.79
221.36	-1.21
221.832	-5.31
222.303	-6.51
222.774	-5.81
223.245	-11.31
223.717	-0.81
224.188	-2.81
224.659	-4.61
225.13	-5.61
225.601	1.79
226.072	1.19
226.543	-2.01
227.014	-2.71
227.485	-7.91
227.956	-6.71
228.427	-0.61
228.898	-0.21
229.369	-0.91
229.839	-2.71
230.31	-7.71
230.781	-3.21
231.252	-7.01
231.722	-13.21
232.193	0.49
232.664	0.59
233.135	-1.31
233.605	1.39
234.076	-4.91
234.546	-2.31
235.017	7.29
235.487	0.19
235.958	2.19
236.428	-1.61
236.899	-0.61
237.369	-5.31
237.84	-8.71
238.31	4.49
238.78	-5.91
239.251	-8.21
239.721	-1.71
240.191	-3.31
240.662	-2.41
241.132	1.09
241.602	-7.21
242.072	-1.21
242.542	5.59
243.013	-3.01
243.483	-0.61
243.953	1.69
244.423	4.19
244.893	-6.91
245.363	-4.01
245.833	-3.71
246.303	-8.61
246.773	-0.21
247.243	-1.21
247.712	-0.21
248.182	0.79
248.652	-1.91
249.122	-8.91
249.592	-0.41
250.061	4.99
250.531	5.19
251.001	-6.11
251.471	-0.61
251.94	6.69
252.41	-3.31
252.879	-9.21
253.349	6.69
253.818	6.69
254.288	-5.91
254.757	-3.81
255.227	-4.01
255.696	-5.61
256.166	5.39
256.635	-1.81
257.105	-0.61
257.574	-0.51
258.043	-0.41
258.513	-3.61
258.982	0.19
259.451	-7.51
259.92	-4.41
260.389	-2.81
260.859	5.69
261.328	-2.01
261.797	6.29
262.266	-2.31
262.735	2.69
263.204	-3.01
263.673	-1.51
264.142	-0.81
264.611	-11.41
265.08	-2.31
265.549	-7.41
266.018	5.29
266.487	-6.61
266.955	-8.61
267.424	-4.71
267.893	3.49
268.362	-5.01
268.83	-0.81
269.299	5.69
269.768	0.79
270.236	-2.41
270.705	-5.31
271.174	-0.71
271.642	-2.21
272.111	0.59
272.579	-1.61
273.048	-0.71
273.516	1.29
273.985	1.49
274.453	5.19
274.922	7.79
275.39	2.29
275.858	-1.01
276.327	4.29
276.795	9.19
277.263	-3.51
277.731	5.89
278.2	3.79
278.668	4.09
279.136	3.99
279.604	0.89
280.072	5.79
280.54	6.39
281.008	1.59
281.477	3.29
281.945	9.69
282.413	8.49
282.881	10.99
283.348	-1.11
283.816	6.69
284.284	3.39
284.752	10.49
285.22	4.59
285.688	1.19
286.156	-0.11
286.623	16.19
287.091	4.99
287.559	5.19
288.026	3.69
288.494	9.69
288.962	-1.31
289.429	7.79
289.897	13.89
290.364	1.09
290.832	10.69
291.3	5.09
291.767	8.09
292.234	7.99
292.702	9.59
293.169	10.19
293.637	14.69
294.104	11.99
294.571	-2.11
295.039	5.59
295.506	4.39
295.973	7.79
296.44	8.49
296.908	12.99
297.375	10.09
297.842	3.69
298.309	10.69
298.776	2.69
299.243	7.09
299.71	0.69
300.177	11.19
300.644	12.49
301.111	7.89
301.578	15.89
302.045	12.49
302.512	14.19
302.979	14.69
303.446	9.99
303.913	10.79
304.379	13.39
304.846	12.49
305.313	10.89
305.78	18.49
306.246	16.99
306.713	21.59
307.18	11.99
307.646	14.39
308.113	24.89
308.579	10.29
309.046	17.09
309.512	20.09
309.979	13.29
310.445	16.09
310.912	20.29
311.378	14.79
311.845	17.99
312.311	20.89
312.777	18.39
313.244	22.29
313.71	29.79
314.176	15.19
314.642	18.59
315.109	25.19
315.575	24.49
316.041	24.39
316.507	13.59
316.973	23.59
317.439	24.89
317.905	27.29
318.371	21.79
318.837	22.19
319.303	23.39
319.769	22.79
320.235	22.09
320.701	27.59
321.167	28.69
321.633	21.49
322.099	27.29
322.564	26.69
323.03	26.49
323.496	21.69
323.962	30.19
324.427	23.79
324.893	32.69
325.359	26.99
325.824	22.39
326.29	24.89
326.755	23.79
327.221	28.89
327.686	22.29
328.152	32.19
328.617	29.19
329.083	32.59
329.548	38.69
330.014	37.49
330.479	31.99
330.944	23.39
331.41	25.89
331.875	37.39
332.34	33.39
332.805	25.89
333.271	30.19
333.736	27.19
334.201	38.89
334.666	33.89
335.131	35.09
335.596	34.89
336.061	36.39
336.526	29.69
336.991	30.39
337.456	42.09
337.921	39.29
338.386	32.79
338.851	39.29
339.316	33.29
339.781	38.19
340.246	39.69
340.711	32.69
341.175	37.19
341.64	30.29
342.105	40.69
342.569	35.69
343.034	46.59
343.499	39.79
343.963	42.29
344.428	47.59
344.893	49.69
345.357	45.29
345.822	45.09
346.286	51.59
346.751	47.69
347.215	52.79
347.679	50.99
348.144	65.59
348.608	70.79
349.073	50.19
349.537	61.39
350.001	47.89
350.465	77.09
350.93	62.29
351.394	66.19
351.858	56.69
352.322	57.29
352.786	62.89
353.25	70.09
353.715	82.39
354.179	70.99
354.643	90.69
355.107	91.69
355.571	81.89
356.035	74.09
356.498	85.39
356.962	82.79
357.426	94.39
357.89	83.99
358.354	70.49
358.818	62.89
359.281	58.79
359.745	60.49
360.209	60.19
360.673	57.49
361.136	62.09
361.6	70.49
362.064	64.99
362.527	65.79
362.991	74.89
363.454	66.49
363.918	58.69
364.381	62.89
364.845	65.79
365.308	70.89
365.772	67.69
366.235	73.39
366.698	64.19
367.162	69.79
367.625	70.59
368.088	71.79
368.552	74.69
369.015	70.39
369.478	80.59
369.941	76.89
370.404	67.89
370.867	80.19
371.331	80.79
371.794	85.79
372.257	80.89
372.72	84.89
373.183	80.99
373.646	81.89
374.109	73.89
374.572	84.79
375.035	88.99
375.497	88.39
375.96	89.69
376.423	96.49
376.886	93.99
377.349	92.29
377.811	94.29
378.274	94.79
378.737	93.49
379.199	97.19
379.662	98.49
380.125	89.79
380.587	90.49
381.05	89.09
381.512	104.59
381.975	105.59
382.437	103.59
382.9	103.89
383.362	101.59
383.825	114.89
384.287	110.79
384.75	105.29
385.212	108.49
385.674	116.09
386.136	120.39
386.599	109.09
387.061	109.09
387.523	102.99
387.985	109.39
388.447	115.19
388.91	109.39
389.372	119.89
389.834	109.69
390.296	108.69
390.758	117.59
391.22	122.99
391.682	130.69
392.144	133.79
392.606	129.79
393.068	127.69
393.529	137.89
393.991	126.39
394.453	122.99
394.915	118.79
395.377	118.49
395.838	124.69
396.3	127.59
396.762	125.29
397.224	127.59
397.685	125.99
398.147	129.59
398.608	124.99
399.07	119.79
399.531	124.29
399.993	131.79
400.454	141.79
400.916	137.59
401.377	139.69
401.839	139.29
402.3	136.29
402.762	154.49
403.223	162.29
403.684	160.09
404.145	149.69
404.607	150.89
405.068	147.69
405.529	155.59
405.99	169.19
406.451	158.39
406.913	162.39
407.374	152.09
407.835	152.69
408.296	153.99
408.757	156.39
409.218	168.29
409.679	162.69
410.14	161.49
410.601	159.39
411.062	170.49
411.522	168.49
411.983	157.99
412.444	161.69
412.905	172.29
413.366	172.49
413.826	188.69
414.287	209.39
414.748	247.19
415.208	235.69
415.669	200.29
416.13	198.09
416.59	190.99
417.051	203.99
417.511	211.99
417.972	232.69
418.432	238.99
418.893	280.89
419.353	241.79
419.814	187.09
420.274	177.09
420.734	170.29
421.195	186.39
421.655	181.99
422.115	187.39
422.576	184.19
423.036	197.29
423.496	204.79
423.956	201.19
424.416	225.09
424.876	260.59
425.336	253.89
425.797	256.69
426.257	238.99
426.717	225.19
427.177	220.59
427.637	210.49
428.097	226.49
428.556	235.29
429.016	263.59
429.476	244.69
429.936	259.29
430.396	267.19
430.856	269.79
431.315	297.19
431.775	323.79
432.235	362.49
432.694	329.79
433.154	329.29
433.614	366.49
434.073	313.09
434.533	263.89
434.993	251.89
435.452	259.89
435.912	276.89
436.371	267.79
436.83	259.79
437.29	251.79
437.749	237.69
438.209	235.69
438.668	258.79
439.127	273.39
439.587	251.89
440.046	234.99
440.505	244.59
440.964	256.29
441.424	301.29
441.883	288.49
442.342	248.79
442.801	225.29
443.26	222.89
443.719	223.09
444.178	211.59
444.637	201.99
445.096	222.89
445.555	221.89
446.014	221.79
446.473	225.09
446.932	227.79
447.391	219.99
447.849	231.09
448.308	212.99
448.767	227.79
449.226	240.69
449.685	236.29
450.143	246.59
450.602	235.69
451.061	224.29
451.519	230.19
451.978	227.29
452.436	230.99
452.895	234.89
453.353	249.39
453.812	235.69
454.27	240.59
454.729	238.59
455.187	238.99
455.646	244.19
456.104	241.79
456.562	256.99
457.021	259.99
457.479	254.79
457.937	264.99
458.395	270.29
458.854	249.39
459.312	251.99
459.77	268.89
460.228	249.59
460.686	239.89
461.144	250.69
461.602	241.19
462.06	246.99
462.518	259.79
462.976	258.09
463.434	263.39
463.892	268.89
464.35	280.89
464.808	283.19
465.266	270.39
465.724	267.09
466.181	276.79
466.639	273.99
467.097	290.89
467.555	300.49
468.012	298.29
468.47	304.19
468.928	330.89
469.385	338.39
469.843	349.79
470.3	343.89
470.758	351.49
471.215	375.59
471.673	396.39
472.13	399.39
472.588	411.59
473.045	373.19
473.503	380.49
473.96	389.89
474.417	400.79
474.875	428.29
475.332	467.29
475.789	451.79
476.246	465.89
476.704	492.89
477.161	498.69
477.618	513.79
478.075	554.99
478.532	596.79
478.989	666.79
479.446	769.19
479.903	741.79
480.36	767.89
480.817	805.69
481.274	901.29
481.731	987.29
482.188	1047.39
482.645	1173.59
483.102	1263.79
483.558	1381.89
484.015	1412.49
484.472	1380.99
484.929	1351.29
485.385	1313.39
485.842	1284.29
486.299	1240.49
486.755	1188.09
487.212	1023.99
487.668	868.29
488.125	798.49
488.582	743.59
489.038	718.99
489.494	693.59
489.951	656.59
490.407	649.29
490.864	634.59
491.32	627.89
491.776	629.49
492.233	645.89
492.689	606.39
493.145	603.69
493.602	599.69
494.058	600.69
494.514	608.29
494.97	626.79
495.426	638.79
495.882	607.49
496.338	605.59
496.794	617.59
497.251	599.49
497.707	619.39
498.163	623.99
498.618	628.89
499.074	623.89
499.53	655.79
499.986	657.99
500.442	643.69
500.898	612.59
501.354	606.19
501.809	616.29
502.265	617.39
502.721	626.39
503.177	638.49
503.632	647.09
504.088	645.29
504.543	665.39
504.999	686.69
505.455	659.69
505.91	631.49
506.366	643.09
506.821	636.59
507.277	628.29
507.732	629.49
508.187	641.89
508.643	642.19
509.098	644.79
509.553	654.69
510.009	671.99
510.464	674.79
510.919	689.69
511.375	694.99
511.83	709.39
512.285	719.29
512.74	758.49
513.195	782.19
513.65	763.49
514.105	763.29
514.56	762.59
515.015	781.59
515.47	796.69
515.925	778.89
516.38	775.29
516.835	781.79
517.29	775.39
517.745	777.59
518.2	773.69
518.655	747.39
519.109	735.79
519.564	744.69
520.019	732.99
520.474	727.09
520.928	719.59
521.383	718.59
521.838	715.39
522.292	727.89
522.747	718.49
523.201	708.69
523.656	710.89
524.11	698.59
524.565	692.19
525.019	697.79
525.474	690.49
525.928	709.99
526.382	694.09
526.837	697.69
527.291	708.99
527.745	696.09
528.2	694.89
528.654	689.19
529.108	696.69
529.562	695.09
530.016	687.49
530.47	686.29
530.925	687.99
531.379	698.89
531.833	696.59
532.287	697.69
532.741	703.39
533.195	696.79
533.649	707.69
534.103	715.59
534.556	698.79
535.01	710.39
535.464	706.99
535.918	718.49
536.372	718.69
536.826	713.49
537.279	700.79
537.733	716.49
538.187	710.39
538.64	716.89
539.094	721.39
539.548	730.79
540.001	724.89
540.455	728.09
540.908	732.09
541.362	735.99
541.815	761.69
542.269	771.49
542.722	778.49
543.175	787.99
543.629	775.89
544.082	798.69
544.536	790.19
544.989	785.29
545.442	804.59
545.895	803.69
546.349	797.59
546.802	796.29
547.255	801.09
547.708	812.89
548.161	819.79
548.614	822.19
549.067	851.99
549.52	828.79
549.973	821.79
550.426	822.99
550.879	794.99
551.332	811.89
551.785	824.49
552.238	831.79
552.691	828.89
553.144	847.49
553.596	857.19
554.049	876.19
554.502	913.59
554.955	926.09
555.407	926.59
555.86	901.29
556.313	903.59
556.765	893.39
557.218	892.49
557.67	888.99
558.123	880.19
558.576	878.09
559.028	891.89
559.48	890.79
559.933	886.99
560.385	853.19
560.838	826.99
561.29	800.39
561.742	803.79
562.195	784.89
562.647	781.09
563.099	789.09
563.551	775.79
564.004	794.99
564.456	782.49
564.908	778.89
565.36	749.69
565.812	738.89
566.264	730.59
566.716	720.29
567.168	708.69
567.62	713.99
568.072	706.39
568.524	709.29
568.976	694.59
569.428	686.09
569.88	683.49
570.332	697.79
570.784	704.99
571.235	696.69
571.687	710.29
572.139	715.19
572.59	731.29
573.042	732.49
573.494	716.29
573.945	717.09
574.397	697.99
574.849	697.39
575.3	703.49
575.752	694.39
576.203	689.09
576.655	699.39
577.106	688.99
577.557	678.29
578.009	671.59
578.46	678.09
578.912	671.39
579.363	693.49
579.814	672.59
580.265	667.89
580.717	685.29
581.168	677.59
581.619	685.49
582.07	691.69
582.521	681.39
582.972	685.69
583.423	688.29
583.875	681.49
584.326	697.19
584.777	708.89
585.227	716.39
585.678	722.99
586.129	744.69
586.58	770.79
587.031	783.49
587.482	814.29
587.933	814.39
588.384	811.89
588.834	789.49
589.285	785.79
589.736	788.79
590.186	786.39
590.637	777.29
591.088	760.79
591.538	756.59
591.989	750.99
592.439	741.49
592.89	729.79
593.34	712.39
593.791	710.29
594.241	713.99
594.692	716.49
595.142	696.99
595.593	698.79
596.043	708.69
596.493	718.79
596.943	716.89
597.394	734.29
597.844	738.09
598.294	748.89
598.744	773.69
599.195	799.89
599.645	833.59
600.095	880.99
600.545	943.79
600.995	1005.79
601.445	1048.89
601.895	1114.39
602.345	1161.09
602.795	1136.79
603.245	1098.79
603.695	1033.49
604.145	978.59
604.594	930.09
605.044	889.89
605.494	822.49
605.944	775.69
606.393	757.29
606.843	747.19
607.293	743.49
607.743	746.39
608.192	757.89
608.642	761.69
609.091	772.49
609.541	779.59
609.99	773.89
610.44	770.49
610.889	730.49
611.339	715.39
611.788	697.99
612.238	707.69
612.687	713.79
613.136	707.99
613.586	713.99
614.035	709.89
614.484	718.89
614.933	726.69
615.383	723.59
615.832	717.79
616.281	722.29
616.73	684.59
617.179	671.49
617.628	655.49
618.077	643.19
618.526	639.79
618.975	632.99
619.424	627.29
619.873	622.59
620.322	621.19
620.771	616.69
621.22	613.09
621.669	611.39
622.118	599.89
622.567	594.19
623.015	579.39
623.464	578.59
623.913	571.19
624.361	570.39
624.81	558.19
625.259	560.09
625.707	569.79
626.156	567.89
626.604	583.19
627.053	586.19
627.501	574.49
627.95	585.59
628.398	590.29
628.847	574.59
629.295	588.39
629.744	591.09
630.192	577.99
630.64	574.89
631.089	561.69
631.537	551.29
631.985	536.69
632.433	546.39
632.881	538.09
633.33	542.39
633.778	526.59
634.226	531.69
634.674	550.59
635.122	544.99
635.57	566.89
636.018	572.59
636.466	571.19
636.914	566.99
637.362	586.09
637.81	588.69
638.258	598.39
638.705	601.19
639.153	626.89
639.601	634.79
640.049	652.49
640.497	690.79
640.944	700.19
641.392	655.79
641.84	632.39
642.287	602.39
642.735	571.59
643.182	582.59
643.63	574.09
644.078	568.59
644.525	585.89
644.973	584.39
645.42	600.09
645.867	630.29
646.315	642.29
646.762	663.09
647.21	692.99
647.657	704.89
648.104	744.69
648.551	774.79
648.999	818.39
649.446	901.49
649.893	987.99
650.34	1127.79
650.787	1343.89
651.234	1643.39
651.682	2138.69
652.129	2904.79
652.576	4124.29
653.023	6016.19
653.47	8080.39
653.917	9969.69
654.363	11393.79
654.81	12502.79
655.257	11815.69
655.704	7840.19
656.151	4709.19
656.598	3098.09
657.044	2239.39
657.491	1741.69
657.938	1415.39
658.385	1186.69
658.831	1045.29
659.278	928.89
659.724	828.69
660.171	783.69
660.618	719.59
661.064	686.59
661.511	664.39
661.957	658.89
662.404	640.69
662.85	650.29
663.296	628.69
663.743	567.59
664.189	544.09
664.635	542.49
665.082	533.99
665.528	541.39
665.974	515.49
666.42	522.89
666.867	511.49
667.313	493.39
667.759	473.69
668.205	460.69
668.651	457.09
669.097	466.19
669.543	448.39
669.989	446.19
670.435	459.89
670.881	457.89
671.327	466.19
671.773	486.69
672.219	511.29
672.665	567.69
673.11	611.59
673.556	659.59
674.002	687.49
674.448	677.69
674.893	571.09
675.339	497.19
675.785	459.59
676.23	442.09
676.676	412.79
677.122	392.39
677.567	390.99
678.013	377.29
678.458	365.89
678.904	370.79
679.349	360.59
679.794	356.19
680.24	368.99
680.685	364.99
681.131	358.69
681.576	357.29
682.021	369.99
682.466	363.19
682.912	359.89
683.357	366.79
683.802	398.29
684.247	433.09
684.692	479.89
685.137	518.49
685.583	556.79
686.028	581.39
686.473	533.99
686.918	470.19
687.363	439.69
687.807	403.09
688.252	379.39
688.697	371.69
689.142	353.29
689.587	345.49
690.032	338.89
690.477	367.29
690.921	365.59
691.366	402.49
691.811	419.49
692.255	444.09
692.7	485.19
693.145	533.09
693.589	760.09
694.034	1228.89
694.478	1645.99
694.923	1800.59
695.367	2344.89
695.812	1255.09
696.256	527.49
696.701	390.39
697.145	360.49
697.59	345.39
698.034	327.69
698.478	341.19
698.922	341.09
699.367	339.09
699.811	352.19
700.255	370.69
700.699	390.59
701.143	437.79
701.588	496.29
702.032	538.99
702.476	534.59
702.92	520.89
703.364	529.39
703.808	696.59
704.252	1146.29
704.696	1560.49
705.14	1744.29
705.584	2207.69
706.027	1113.19
706.471	541.19
706.915	418.09
707.359	373.29
707.803	336.79
708.246	323.89
708.69	327.29
709.134	320.99
709.577	318.39
710.021	329.09
710.465	313.39
710.908	308.79
711.352	310.79
711.795	323.89
712.239	376.39
712.682	414.99
713.126	426.79
713.569	476.49
714.012	371.19
714.456	312.39
714.899	304.79
715.342	283.29
715.786	270.89
716.229	268.19
716.672	262.29
717.115	261.59
717.558	264.59
718.002	267.99
718.445	271.39
718.888	300.39
719.331	308.29
719.774	321.49
720.217	310.99
720.66	293.89
721.103	283.99
721.546	260.79
721.989	254.19
722.432	244.29
722.874	253.99
723.317	240.19
723.76	252.19
724.203	267.99
724.645	340.79
725.088	460.99
725.531	599.19
725.974	663.49
726.416	561.89
726.859	318.29
727.301	255.59
727.744	249.89
728.187	242.79
728.629	255.39
729.071	257.59
729.514	275.79
729.956	287.19
730.399	301.89
730.841	302.49
731.283	284.49
731.726	282.09
732.168	269.59
732.61	276.09
733.053	305.89
733.495	334.89
733.937	374.89
734.379	423.49
734.821	472.49
735.263	585.79
735.705	928.69
736.148	1765.29
736.59	2792.79
737.032	3178.99
737.474	2596.19
737.916	859.29
738.357	458.39
738.799	345.49
739.241	318.49
739.683	292.59
740.125	309.79
740.567	310.89
741.008	327.39
741.45	322.29
741.892	331.99
742.334	376.59
742.775	384.59
743.217	362.89
743.658	285.69
744.1	274.09
744.542	285.19
744.983	331.79
745.425	357.69
745.866	355.59
746.307	286.89
746.749	293.49
747.19	354.99
747.632	504.29
748.073	989.89
748.514	2050.79
748.956	3020.19
749.397	3842.89
749.838	3157.49
750.279	3071.19
750.72	1566.89
751.162	588.29
751.603	344.59
752.044	272.99
752.485	232.89
752.926	219.39
753.367	211.69
753.808	204.39
754.249	202.79
754.69	190.39
755.131	185.99
755.572	195.59
756.013	184.29
756.453	186.79
756.894	202.89
757.335	204.49
757.776	201.19
758.216	205.29
758.657	209.49
759.098	215.29
759.538	238.99
759.979	285.19
760.42	413.69
760.86	791.29
761.301	2090.39
761.741	4901.49
762.182	6659.29
762.622	4689.39
763.063	1397.29
763.503	576.19
763.943	340.09
764.384	274.79
764.824	243.89
765.264	228.19
765.705	211.49
766.145	196.69
766.585	181.99
767.025	177.49
767.465	169.49
767.906	181.69
768.346	201.39
768.786	200.99
769.226	232.09
769.666	335.79
770.106	700.49
770.546	1733.39
770.986	2745.59
771.426	2426.49
771.866	835.99
772.306	340.09
772.745	212.29
773.185	178.49
773.625	172.49
774.065	159.09
774.505	169.09
774.944	219.89
775.384	381.59
775.824	585.79
776.263	561.69
776.703	281.39
777.142	169.49
777.582	136.49
778.021	126.39
778.461	129.29
778.9	124.49
779.34	127.89
779.779	114.49
780.219	108.49
780.658	114.09
781.097	113.59
781.537	117.39
781.976	111.49
782.415	109.39
782.855	107.19
783.294	112.79
783.733	103.69
784.172	111.49
784.611	112.59
785.05	108.89
785.489	115.49
785.928	122.59
786.367	122.79
786.806	128.09
787.245	137.49
787.684	141.39
788.123	154.29
788.562	135.49
789.001	138.29
789.44	120.69
789.879	129.09
790.317	125.59
790.756	136.79
791.195	133.19
791.634	154.89
792.072	216.29
792.511	408.69
792.95	1131.99
793.388	2250.29
793.827	1963.49
794.265	708.99
794.704	295.89
795.142	189.59
795.581	161.19
796.019	138.69
796.458	136.39
796.896	131.99
797.334	143.69
797.773	166.89
798.211	244.19
798.649	492.39
799.087	1111.59
799.526	1716.59
799.964	2155.99
800.402	2079.59
800.84	800.39
801.278	324.99
801.716	201.79
802.154	168.09
802.592	149.29
803.03	144.19
803.468	142.49
803.906	154.59
804.344	158.89
804.782	150.79
805.22	142.99
805.658	135.59
806.096	148.49
806.533	166.59
806.971	182.09
807.409	236.89
807.847	349.29
808.284	752.09
808.722	2076.69
809.16	3485.89
809.597	3485.39
810.035	5857.79
810.472	5935.99
810.91	2200.09
811.347	870.79
811.785	432.19
812.222	279.39
812.66	212.59
813.097	171.39
813.535	147.09
813.972	136.79
814.409	125.49
814.846	121.19
815.284	110.29
815.721	107.59
816.158	104.89
816.595	117.09
817.032	160.69
817.47	181.49
817.907	128.19
818.344	106.79
818.781	109.19
819.218	97.49
819.655	131.89
820.092	197.49
820.529	217.79
820.966	175.29
821.403	134.99
821.839	99.49
822.276	104.09
822.713	131.09
823.15	147.79
823.587	126.99
824.023	158.49
824.46	350.09
824.897	982.19
825.333	1400.79
825.77	605.89
826.206	252.09
826.643	142.99
827.08	109.59
827.516	85.69
827.953	85.69
828.389	86.99
828.825	72.69
829.262	70.99
829.698	69.79
830.135	69.49
830.571	67.89
831.007	70.19
831.443	72.29
831.88	63.29
832.316	62.79
832.752	64.49
833.188	74.69
833.624	68.39
834.06	70.89
834.497	76.79
834.933	71.39
835.369	80.99
835.805	75.49
836.241	82.19
836.677	88.69
837.112	99.39
837.548	119.19
837.984	144.59
838.42	216.29
838.856	559.09
839.292	1643.19
839.727	2393.09
840.163	1136.99
840.599	1044.19
841.034	2194.79
841.47	2195.09
841.906	814.99
842.341	352.69
842.777	209.89
843.212	209.79
843.648	185.59
844.083	111.49
844.519	88.99
844.954	82.19
845.39	59.59
845.825	61.89
846.261	60.49
846.696	58.89
847.131	51.39
847.566	62.69
848.002	54.69
848.437	56.29
848.872	66.29
849.307	59.49
849.742	93.09
850.177	207.09
850.613	608.39
851.048	926.89
851.483	398.99
851.918	168.89
852.353	95.49
852.788	60.29
853.223	51.89
853.657	51.39
854.092	44.79
854.527	39.09
854.962	48.39
855.397	52.19
855.832	47.49
856.266	48.79
856.701	46.89
857.136	37.39
857.57	44.79
858.005	56.09
858.44	63.09
858.874	45.89
859.309	57.29
859.743	40.79
860.178	44.99
860.612	42.59
861.047	54.29
861.481	77.29
861.915	78.99
862.35	56.49
862.784	36.99
863.218	38.39
863.653	29.89
864.087	44.39
864.521	54.69
864.955	75.49
865.39	163.39
865.824	179.79
866.258	129.09
866.692	178.49
867.126	185.79
867.56	112.99
867.994	60.49
868.428	42.49
868.862	47.19
869.296	55.09
869.73	63.79
870.164	59.19
870.598	42.79
871.031	45.79
871.465	34.29
871.899	32.79
872.333	24.49
872.766	31.99
873.2	26.99
873.634	32.59
874.067	27.99
874.501	27.69
874.935	39.49
875.368	36.89
875.802	29.99
876.235	28.99
876.669	24.19
877.102	25.69
877.535	23.39
877.969	21.09
878.402	25.89
878.836	16.69
879.269	21.29
879.702	19.29
880.135	22.19
880.569	28.69
881.002	23.99
881.435	23.89
881.868	21.69
882.301	27.49
882.734	15.89
883.167	25.59
883.601	22.19
884.034	22.39
884.467	8.29
884.899	18.69
885.332	22.59
885.765	18.59
886.198	17.39
886.631	24.89
887.064	16.99
887.497	26.89
887.929	30.99
888.362	15.19
888.795	11.69
889.228	23.89
889.66	18.29
890.093	16.39
890.526	19.29
890.958	14.89
891.391	22.09
891.823	20.69
892.256	17.49
892.688	16.89
893.121	11.79
893.553	17.59
893.985	25.39
894.418	14.39
894.85	13.09
895.282	13.89
895.715	20.49
896.147	20.99
896.579	22.09
897.011	14.09
897.444	16.79
897.876	16.09
898.308	20.39
898.74	14.69
899.172	17.39
899.604	23.59
900.036	18.19
900.468	16.59
900.9	15.19
901.332	16.19
901.764	12.79
902.196	17.99
902.628	20.99
903.06	14.39
903.491	28.79
903.923	28.29
904.355	19.99
904.787	23.09
905.218	23.39
905.65	20.89
906.082	16.29
906.513	8.79
906.945	18.79
907.376	18.19
907.808	23.29
908.239	27.09
908.671	17.09
909.102	20.39
909.534	24.49
909.965	49.89
910.397	103.09
910.828	344.99
911.259	493.59
911.691	226.29
912.122	114.89
912.553	54.79
912.984	37.99
913.415	24.49
913.847	21.79
914.278	14.29
914.709	13.79
915.14	19.49
915.571	14.09
916.002	16.89
916.433	21.49
916.864	18.69
917.295	9.99
917.726	19.59
918.157	14.19
918.587	32.59
919.018	21.29
919.449	24.19
919.88	27.49
920.311	29.19
920.741	54.39
921.172	175.59
921.603	158.49
922.033	76.29
922.464	52.79
922.895	26.19
923.325	23.89
923.756	13.29
924.186	10.59
924.617	23.49
925.047	24.49
925.478	23.59
925.908	22.39
926.338	9.49
926.769	13.69
927.199	18.89
927.629	8.59
928.06	20.69
928.49	18.39
928.92	12.69
929.35	13.49
929.78	8.59
930.21	9.99
930.641	1.29
931.071	4.79
931.501	0.79
931.931	8.19
932.361	9.29
932.791	2.19
933.221	1.79
933.651	6.69
934.08	10.49
934.51	34.19
934.94	10.09
935.37	13.59
935.8	10.69
936.229	5.89
936.659	6.69
937.089	4.99
937.519	14.99
937.948	32.29
938.378	21.89
938.807	4.39
939.237	5.59
939.666	5.49
940.096	-1.01
940.525	0.29
940.955	3.99
941.384	3.59
941.814	-4.91
942.243	-5.41
942.672	6.79
943.102	-1.71
943.531	0.09
943.96	4.69
944.39	-5.51
944.819	0.79
945.248	-1.41
945.677	-2.51
946.106	6.69
946.535	5.29
946.964	7.29
947.393	1.89
947.822	-0.61
948.251	-1.91
948.68	4.59
949.109	3.89
949.538	6.59
949.967	-1.11
950.396	4.49
950.825	-0.01
951.254	-2.61
951.682	-6.61
952.111	4.59
952.54	-0.91
952.969	-4.31
953.397	-6.11
953.826	-3.81
954.254	-6.81
954.683	0.89
955.112	0.39
955.54	4.79
955.969	3.79
956.397	2.49
956.826	2.19
957.254	4.29
957.682	2.89
958.111	8.29
958.539	-0.81
958.967	1.79
959.396	-2.61
959.824	0.99
960.252	3.69
960.68	-7.21
961.109	-6.01
961.537	0.79
961.965	1.29
962.393	1.79
962.821	0.39
963.249	0.59
963.677	1.89
964.105	5.79
964.533	46.69
964.961	37.69
965.389	22.79
965.817	8.19
966.245	8.79
966.672	-5.21
967.1	-5.01
967.528	-0.61
967.956	1.09
968.383	0.19
968.811	1.39
969.239	1.79
969.666	-6.81
970.094	1.09
970.522	8.19
970.949	-5.81
971.377	-4.51
971.804	-3.81
972.232	-4.31
972.659	-5.91
973.087	-5.81
973.514	-1.91
973.941	-2.41
974.369	9.79
974.796	2.09
975.223	-1.41
975.651	-5.31
976.078	-0.81
976.505	-1.41
976.932	2.79
977.359	15.69
977.786	19.19
978.214	0.99
978.641	-4.51
979.068	-3.01
979.495	-6.61
979.922	-3.21
980.349	-6.81
980.776	5.39
981.202	-2.01
981.629	3.79
982.056	1.09
982.483	1.09
982.91	3.29
983.337	-2.91
983.763	3.19
984.19	-3.91
984.617	-6.11
985.043	-10.81
985.47	3.49
985.897	-5.71
986.323	-6.21
986.75	0.19
987.176	-3.21
987.603	-4.41
988.029	6.19
988.456	1.99
988.882	1.89
989.308	-6.41
989.735	-12.41
990.161	1.19
990.587	-3.51
991.014	-0.91
991.44	7.59
991.866	-2.91
992.292	-0.41
992.719	-2.61
993.145	4.09
993.571	-9.61
993.997	-3.21
994.423	-1.01
994.849	-10.01
995.275	-2.81
995.701	0.79
996.127	-5.01
996.553	1.59
996.979	-0.81
997.405	2.59
997.83	-2.41
998.256	-9.61
998.682	-7.21
999.108	-7.01
999.534	-1.51
999.959	-1.71
1000.385	-8.81
1000.811	-0.21
1001.236	-10.01
1001.662	-0.11
1002.087	-11.11
1002.513	0.39
1002.938	0.19
1003.364	0.09
1003.789	0.79
1004.215	-0.41
1004.64	2.79
1005.066	4.09
1005.491	3.79
1005.916	-3.91
1006.342	-1.51
1006.767	-8.61
1007.192	4.99
1007.617	-5.71
1008.042	-5.91
1008.468	-10.41
1008.893	-4.91
1009.318	-5.71
1009.743	-1.01
1010.168	3.09
1010.593	-2.91
1011.018	-9.41
1011.443	-6.91
1011.868	3.99
1012.293	-3.31
1012.718	-4.21
1013.143	0.69
1013.567	0.39
1013.992	-3.21
1014.417	-9.11
1014.842	0.19
1015.267	-4.61
1015.691	-3.01
1016.116	5.69
1016.541	-2.41
1016.965	2.39
1017.39	5.09
1017.814	1.59
1018.239	-9.91
1018.663	-2.81
1019.088	-10.71
1019.512	-6.91
1019.937	-5.31
1020.361	-3.11
1020.785	-12.61
1021.21	-6.41
1021.634	-1.41
1022.058	-1.01
1022.483	6.19
1022.907	-3.41
1023.331	-6.21
1023.755	-6.31
1024.179	-3.11
1024.604	-9.41
1025.028	-7.01
1025.452	-10.31
1025.876	-3.11
1026.3	-2.51
1026.724	-16.31
1027.148	-4.11
1027.572	-6.41
1027.996	-8.71
1028.42	-0.91
1028.843	-6.31
1029.267	-8.31
1029.691	-7.61
1030.115	-10.01
1030.539	-9.31
1030.962	-9.01
1031.386	-7.71
1031.81	2.29
1032.233	-3.61
1032.657	-4.61
1033.08	0.29
1033.504	-0.71
1033.927	1.99
1034.351	4.99
1034.774	-5.41
1035.198	-8.91
1035.621	-6.61
1036.045	-7.31
1036.468	-0.11
1036.891	-5.41
1037.315	-13.71
1037.738	-8.61
1038.161	-2.91
1038.584	-5.51
1039.008	-7.81
1039.431	1.19
1039.854	-0.71
1040.277	-8.41
1040.7	-7.91
1041.123	-3.01
1041.546	-6.81
1041.969	-7.91
1042.392	-1.01
1042.815	-3.61
1043.238	2.69
1043.661	-1.41
1044.084	-11.51
1044.507	-0.61
1044.93	-6.51
1045.352	-7.61
1045.775	-7.11
1046.198	-6.31
1046.621	-2.01
1047.043	-1.41
1047.466	1.19
1047.889	-4.81
1048.311	-4.51
1048.734	-4.31
1049.156	0.89
1049.579	-2.51
1050.001	-2.31
1050.424	2.29
1050.846	-7.31
1051.269	0.99
1051.691	-8.91
1052.113	-7.01
1052.536	3.19
1052.958	-5.61
1053.38	-5.21
1053.802	-10.71
1054.225	-0.11
1054.647	-6.31
1055.069	-0.11
1055.491	0.59
1055.913	-11.71
1056.335	-4.71
1056.757	-11.01
1057.179	-8.71
1057.601	-7.21
1058.023	-1.11
1058.445	-4.11
1058.867	-2.91
1059.289	-3.41
1059.711	-5.61
1060.133	-2.51
1060.555	0.29
1060.976	-10.91
1061.398	-7.71
1061.82	-9.71
1062.241	-3.61
1062.663	-8.21
1063.085	-8.71
1063.506	-0.41
1063.928	-11.61
1064.35	-1.21
1064.771	-14.91
1065.193	-3.31
1065.614	-11.31
1066.035	-1.11
1066.457	-4.91
1066.878	-1.21
1067.3	-4.11
1067.721	-7.21
1068.142	-2.51
1068.564	-5.31
1068.985	-3.91
1069.406	-2.91
1069.827	-9.21
1070.248	2.29
1070.67	-5.11
1071.091	-12.81
1071.512	-7.31
1071.933	-4.21
1072.354	-6.71
1072.775	-4.61
1073.196	-10.21
1073.617	0.59
1074.038	-9.61
1074.459	-6.21
1074.88	-8.11
1075.3	-0.21
1075.721	-9.11
1076.142	1.49
1076.563	-4.31
1076.983	-13.81
1077.404	-6.61
1077.825	-2.31
1078.246	-10.41
1078.666	-9.01
1079.087	-7.71
1079.507	-6.81
1079.928	-1.21
1080.348	-7.01
1080.769	-5.91
1081.189	-3.11
1081.61	-8.91
1082.03	-4.61
1082.451	-6.91
1082.871	-9.31
1083.291	-6.91
1083.711	-9.61
1084.132	-7.01
1084.552	-5.91
1084.972	-0.01
1085.392	-9.21
1085.813	-10.81
1086.233	-5.91
1086.653	-5.71
1087.073	-2.61
1087.493	-11.81
1087.913	-9.81
1088.333	-10.01
1088.753	-5.11
1089.173	-2.31
1089.593	-4.31
1090.013	-1.11
1090.433	1.19
1090.852	-1.81
1091.272	-2.01
1091.692	0.89
1092.112	-2.41
1092.531	-4.01
1092.951	-14.61
1093.371	-4.01
1093.79	-2.21
1094.21	-0.31
1094.63	-6.01
1095.049	-3.41
1095.469	4.09
1095.888	-5.01
1096.308	-0.11
1096.727	3.79
1097.146	-2.11
1097.566	-5.41
1097.985	-6.31
1098.405	-3.31
1098.824	-6.11
1099.243	-12.71
1099.662	-9.01
1100.082	-5.61
1100.501	-1.91
1100.92	-6.01
1101.339	0.49
1101.758	-5.91
