Data from 20171114-ORNL-Ar_H_NY_Subt18_08-04-43-282.txt Node
Date: Tue Nov 14 08:04:43 EST 2017
User: Ender
Spectrometer: HR+D1039
Trigger mode: 0
Integration Time (sec): 2.730000E-2
Scans to average: 10
Electric dark correction enabled: true
Nonlinearity correction enabled: false
Boxcar width: 0
XAxis mode: Wavelengths
Number of Pixels in Spectrum: 2048
>>>>>Begin Spectral Data<<<<<
187.836	-5.58
188.309	-5.58
188.782	-5.58
189.255	-1.08
189.728	-0.48
190.201	4.62
190.674	6.02
191.147	5.42
191.619	-5.38
192.092	4.42
192.565	5.42
193.038	-0.78
193.511	1.12
193.984	-5.48
194.456	-5.58
194.929	-0.18
195.402	0.52
195.874	-3.08
196.347	-0.18
196.82	-6.68
197.292	5.52
197.765	-0.58
198.237	-7.48
198.71	5.72
199.182	-1.08
199.655	6.82
200.127	8.32
200.6	0.92
201.072	5.62
201.544	-5.68
202.017	-1.08
202.489	3.92
202.961	-1.08
203.433	-2.78
203.906	-4.28
204.378	-0.48
204.85	-7.18
205.322	-7.78
205.794	-5.68
206.266	4.12
206.739	-11.78
207.211	-2.78
207.683	-6.58
208.155	2.62
208.627	-6.78
209.099	-5.08
209.57	-10.08
210.042	-9.08
210.514	-3.18
210.986	-1.48
211.458	-9.18
211.93	-1.18
212.402	-0.58
212.873	-5.48
213.345	-4.28
213.817	-10.58
214.288	-2.88
214.76	-4.38
215.232	-4.08
215.703	-4.78
216.175	0.12
216.646	-3.08
217.118	-1.28
217.589	-1.88
218.061	-2.18
218.532	2.72
219.004	-4.68
219.475	-1.38
219.946	0.22
220.418	-5.28
220.889	3.62
221.36	2.62
221.832	-6.58
222.303	-6.98
222.774	3.32
223.245	-8.48
223.717	-5.48
224.188	-0.88
224.659	-9.58
225.13	-4.68
225.601	1.12
226.072	3.52
226.543	4.12
227.014	1.62
227.485	-3.08
227.956	-4.28
228.427	-2.58
228.898	1.32
229.369	3.02
229.839	-1.98
230.31	-4.68
230.781	6.42
231.252	-0.98
231.722	0.02
232.193	-4.58
232.664	5.72
233.135	3.12
233.605	4.52
234.076	-4.88
234.546	7.32
235.017	6.32
235.487	1.62
235.958	-1.28
236.428	-1.48
236.899	2.92
237.369	5.22
237.84	4.12
238.31	5.52
238.78	6.72
239.251	-0.48
239.721	5.62
240.191	5.12
240.662	-2.48
241.132	3.82
241.602	-0.38
242.072	-2.78
242.542	3.62
243.013	3.72
243.483	7.32
243.953	1.42
244.423	4.12
244.893	-1.88
245.363	5.22
245.833	10.02
246.303	-3.58
246.773	6.82
247.243	4.82
247.712	6.02
248.182	8.12
248.652	12.52
249.122	4.42
249.592	14.22
250.061	26.62
250.531	36.02
251.001	21.32
251.471	31.22
251.94	26.42
252.41	16.62
252.879	1.32
253.349	15.82
253.818	14.32
254.288	3.62
254.757	10.32
255.227	4.12
255.696	9.02
256.166	8.22
256.635	6.92
257.105	8.82
257.574	9.72
258.043	13.82
258.513	15.72
258.982	15.82
259.451	7.32
259.92	16.92
260.389	11.12
260.859	21.82
261.328	18.22
261.797	23.72
262.266	15.42
262.735	18.72
263.204	12.52
263.673	1.02
264.142	8.42
264.611	2.82
265.08	11.02
265.549	7.22
266.018	11.92
266.487	0.22
266.955	1.92
267.424	10.12
267.893	10.82
268.362	6.82
268.83	5.62
269.299	17.32
269.768	10.12
270.236	9.82
270.705	9.12
271.174	10.52
271.642	7.02
272.111	12.62
272.579	18.32
273.048	23.22
273.516	31.72
273.985	38.32
274.453	32.72
274.922	20.62
275.39	13.92
275.858	11.62
276.327	13.42
276.795	25.82
277.263	15.32
277.731	39.22
278.2	51.52
278.668	62.22
279.136	54.22
279.604	22.42
280.072	22.22
280.54	19.92
281.008	9.12
281.477	17.92
281.945	16.12
282.413	18.72
282.881	21.92
283.348	12.32
283.816	19.42
284.284	13.52
284.752	24.62
285.22	18.72
285.688	17.02
286.156	24.22
286.623	52.12
287.091	57.82
287.559	27.92
288.026	26.22
288.494	20.22
288.962	4.12
289.429	13.72
289.897	21.82
290.364	13.32
290.832	24.42
291.3	21.52
291.767	20.92
292.234	23.02
292.702	17.92
293.169	22.72
293.637	28.52
294.104	21.22
294.571	13.32
295.039	12.92
295.506	15.92
295.973	21.32
296.44	20.82
296.908	18.92
297.375	20.32
297.842	24.22
298.309	17.02
298.776	17.42
299.243	17.92
299.71	19.52
300.177	21.82
300.644	21.42
301.111	26.62
301.578	27.62
302.045	22.32
302.512	22.32
302.979	29.42
303.446	31.32
303.913	31.62
304.379	24.22
304.846	35.22
305.313	36.92
305.78	26.72
306.246	31.72
306.713	31.72
307.18	27.42
307.646	37.62
308.113	37.72
308.579	25.52
309.046	25.82
309.512	31.12
309.979	25.82
310.445	33.82
310.912	33.82
311.378	35.82
311.845	26.22
312.311	32.22
312.777	37.32
313.244	37.62
313.71	38.02
314.176	31.12
314.642	41.62
315.109	34.72
315.575	38.52
316.041	43.72
316.507	32.42
316.973	44.52
317.439	35.52
317.905	39.92
318.371	39.52
318.837	37.32
319.303	36.22
319.769	38.92
320.235	39.22
320.701	34.62
321.167	35.52
321.633	40.32
322.099	41.72
322.564	54.52
323.03	45.42
323.496	41.42
323.962	45.32
324.427	39.62
324.893	46.42
325.359	42.22
325.824	42.62
326.29	35.42
326.755	42.32
327.221	42.62
327.686	43.32
328.152	51.12
328.617	44.02
329.083	54.02
329.548	62.32
330.014	55.42
330.479	45.02
330.944	46.62
331.41	52.62
331.875	47.92
332.34	48.92
332.805	43.62
333.271	51.82
333.736	48.42
334.201	56.02
334.666	56.12
335.131	60.12
335.596	55.02
336.061	48.32
336.526	46.82
336.991	48.02
337.456	59.12
337.921	52.02
338.386	45.22
338.851	48.72
339.316	53.52
339.781	51.92
340.246	53.42
340.711	51.32
341.175	53.12
341.64	50.82
342.105	54.02
342.569	61.62
343.034	64.52
343.499	55.22
343.963	59.22
344.428	66.02
344.893	58.82
345.357	63.82
345.822	64.12
346.286	74.02
346.751	77.32
347.215	70.82
347.679	79.22
348.144	104.82
348.608	84.72
349.073	78.92
349.537	80.22
350.001	82.52
350.465	94.22
350.93	83.52
351.394	86.82
351.858	77.02
352.322	86.02
352.786	86.42
353.25	101.62
353.715	105.52
354.179	104.82
354.643	124.02
355.107	124.52
355.571	106.82
356.035	108.62
356.498	115.72
356.962	126.92
357.426	131.92
357.89	116.02
358.354	87.92
358.818	80.72
359.281	79.32
359.745	78.12
360.209	76.72
360.673	78.92
361.136	82.92
361.6	82.62
362.064	89.42
362.527	85.62
362.991	91.72
363.454	91.82
363.918	77.52
364.381	77.52
364.845	83.92
365.308	81.32
365.772	86.22
366.235	84.82
366.698	88.72
367.162	86.92
367.625	90.02
368.088	95.32
368.552	90.02
369.015	90.62
369.478	99.22
369.941	101.52
370.404	87.72
370.867	111.82
371.331	106.12
371.794	118.62
372.257	110.52
372.72	119.62
373.183	109.42
373.646	97.12
374.109	100.52
374.572	108.72
375.035	108.62
375.497	106.32
375.96	107.02
376.423	111.92
376.886	116.22
377.349	112.12
377.811	102.92
378.274	109.62
378.737	107.12
379.199	115.32
379.662	113.52
380.125	115.52
380.587	117.22
381.05	127.72
381.512	125.62
381.975	132.72
382.437	128.82
382.9	122.22
383.362	127.82
383.825	138.92
384.287	149.62
384.75	136.42
385.212	138.82
385.674	133.92
386.136	139.92
386.599	128.32
387.061	126.92
387.523	123.32
387.985	140.92
388.447	144.52
388.91	139.62
389.372	153.42
389.834	151.92
390.296	144.82
390.758	152.82
391.22	159.52
391.682	202.52
392.144	282.62
392.606	227.52
393.068	165.22
393.529	165.12
393.991	152.32
394.453	142.72
394.915	152.32
395.377	189.42
395.838	206.52
396.3	149.22
396.762	144.42
397.224	132.62
397.685	131.42
398.147	133.12
398.608	130.22
399.07	125.02
399.531	138.82
399.993	138.82
400.454	146.92
400.916	140.42
401.377	136.32
401.839	148.02
402.3	145.82
402.762	162.32
403.223	172.42
403.684	170.32
404.145	161.22
404.607	152.12
405.068	161.22
405.529	168.52
405.99	190.52
406.451	176.92
406.913	177.62
407.374	167.72
407.835	165.42
408.296	164.62
408.757	169.32
409.218	176.72
409.679	171.72
410.14	169.32
410.601	176.82
411.062	181.72
411.522	192.42
411.983	193.12
412.444	167.82
412.905	173.52
413.366	183.92
413.826	183.82
414.287	206.62
414.748	259.52
415.208	239.32
415.669	210.62
416.13	202.62
416.59	191.42
417.051	204.02
417.511	208.32
417.972	231.92
418.432	232.62
418.893	281.62
419.353	247.22
419.814	191.12
420.274	170.42
420.734	175.32
421.195	195.12
421.655	187.42
422.115	185.52
422.576	182.62
423.036	185.22
423.496	201.02
423.956	201.12
424.416	221.32
424.876	255.42
425.336	253.42
425.797	259.82
426.257	249.72
426.717	230.52
427.177	226.92
427.637	213.62
428.097	225.42
428.556	238.52
429.016	266.22
429.476	253.42
429.936	267.22
430.396	260.52
430.856	277.42
431.315	306.42
431.775	339.92
432.235	362.42
432.694	343.72
433.154	345.12
433.614	375.02
434.073	322.22
434.533	279.42
434.993	259.02
435.452	271.02
435.912	283.32
436.371	273.62
436.83	271.12
437.29	263.52
437.749	244.02
438.209	241.72
438.668	263.72
439.127	274.92
439.587	254.22
440.046	229.73
440.505	252.22
440.964	260.62
441.424	307.02
441.883	295.32
442.342	251.92
442.801	212.02
443.26	211.92
443.719	215.12
444.178	210.12
444.637	201.83
445.096	210.72
445.555	221.92
446.014	214.62
446.473	221.73
446.932	219.32
447.391	213.12
447.849	214.52
448.308	210.92
448.767	216.12
449.226	227.32
449.685	230.22
450.143	241.52
450.602	232.02
451.061	215.72
451.519	234.62
451.978	235.32
452.436	223.12
452.895	228.33
453.353	243.72
453.812	232.52
454.27	232.02
454.729	237.52
455.187	230.32
455.646	236.22
456.104	238.82
456.562	250.22
457.021	256.02
457.479	257.32
457.937	262.22
458.395	253.32
458.854	242.23
459.312	243.42
459.77	264.62
460.228	245.72
460.686	227.92
461.144	234.82
461.602	232.72
462.06	230.72
462.518	248.22
462.976	240.32
463.434	254.82
463.892	247.52
464.35	270.02
464.808	279.12
465.266	250.82
465.724	259.72
466.181	259.82
466.639	267.12
467.097	281.82
467.555	294.52
468.012	302.32
468.47	300.82
468.928	307.52
469.385	321.52
469.843	331.62
470.3	332.62
470.758	348.32
471.215	363.72
471.673	389.22
472.13	389.52
472.588	402.52
473.045	355.42
473.503	361.42
473.96	379.82
474.417	397.62
474.875	422.72
475.332	450.92
475.789	443.22
476.246	441.22
476.704	467.02
477.161	488.23
477.618	497.22
478.075	536.72
478.532	595.02
478.989	671.62
479.446	764.83
479.903	746.42
480.36	778.62
480.817	828.12
481.274	936.12
481.731	1028.82
482.188	1121.32
482.645	1255.32
483.102	1350.93
483.558	1479.03
484.015	1543.72
484.472	1516.72
484.929	1466.82
485.385	1428.42
485.842	1389.02
486.299	1318.12
486.755	1246.02
487.212	1056.62
487.668	886.12
488.125	819.82
488.582	751.02
489.038	728.12
489.494	690.82
489.951	661.23
490.407	646.33
490.864	621.92
491.32	624.23
491.776	619.92
492.233	624.12
492.689	581.52
493.145	588.02
493.602	579.92
494.058	589.92
494.514	599.12
494.97	629.22
495.426	621.32
495.882	596.32
496.338	597.12
496.794	604.12
497.251	606.72
497.707	618.62
498.163	621.32
498.618	614.72
499.074	623.42
499.53	646.62
499.986	644.72
500.442	631.12
500.898	606.42
501.354	603.62
501.809	613.42
502.265	619.82
502.721	631.02
503.177	648.12
503.632	636.82
504.088	641.22
504.543	676.92
504.999	680.23
505.455	620.82
505.91	605.92
506.366	609.92
506.821	597.52
507.277	596.02
507.732	597.02
508.187	598.32
508.643	606.73
509.098	604.12
509.553	636.02
510.009	638.82
510.464	642.42
510.919	666.12
511.375	664.62
511.83	678.12
512.285	698.12
512.74	730.02
513.195	760.82
513.65	742.62
514.105	737.52
514.56	745.32
515.015	756.42
515.47	775.62
515.925	761.62
516.38	757.32
516.835	755.62
517.29	758.42
517.745	741.22
518.2	737.82
518.655	730.42
519.109	715.52
519.564	711.32
520.019	698.62
520.474	695.72
520.928	703.82
521.383	687.72
521.838	689.02
522.292	682.73
522.747	676.92
523.201	669.42
523.656	663.82
524.11	657.52
524.565	659.02
525.019	656.72
525.474	666.82
525.928	674.33
526.382	666.52
526.837	659.02
527.291	665.12
527.745	669.72
528.2	669.52
528.654	660.52
529.108	661.32
529.562	656.92
530.016	652.62
530.47	655.22
530.925	662.02
531.379	662.32
531.833	679.32
532.287	665.22
532.741	674.52
533.195	667.52
533.649	683.82
534.103	697.52
534.556	674.02
535.01	684.72
535.464	678.62
535.918	686.22
536.372	679.62
536.826	694.12
537.279	678.82
537.733	686.52
538.187	684.42
538.64	678.82
539.094	690.12
539.548	688.02
540.001	689.42
540.455	679.82
540.908	697.92
541.362	696.52
541.815	708.82
542.269	725.12
542.722	720.82
543.175	741.02
543.629	732.52
544.082	743.12
544.536	752.23
544.989	743.83
545.442	743.92
545.895	743.42
546.349	748.83
546.802	747.62
547.255	758.52
547.708	757.32
548.161	772.12
548.614	776.42
549.067	786.32
549.52	774.52
549.973	772.62
550.426	768.42
550.879	749.72
551.332	758.32
551.785	762.32
552.238	756.62
552.691	772.02
553.144	789.82
553.596	800.62
554.049	808.72
554.502	838.92
554.955	858.12
555.407	864.42
555.86	849.52
556.313	841.32
556.765	844.72
557.218	833.52
557.67	827.62
558.123	822.22
558.576	822.82
559.028	838.42
559.48	827.12
559.933	821.62
560.385	790.42
560.838	749.82
561.29	732.02
561.742	733.42
562.195	713.42
562.647	717.72
563.099	726.92
563.551	723.02
564.004	737.52
564.456	726.32
564.908	719.22
565.36	705.72
565.812	688.32
566.264	680.62
566.716	678.02
567.168	673.52
567.62	675.02
568.072	666.32
568.524	655.02
568.976	636.52
569.428	629.82
569.88	630.22
570.332	627.92
570.784	629.02
571.235	639.52
571.687	644.62
572.139	645.92
572.59	658.82
573.042	667.52
573.494	676.62
573.945	658.12
574.397	642.02
574.849	643.02
575.3	639.73
575.752	641.92
576.203	634.02
576.655	647.12
577.106	624.12
577.557	625.22
578.009	618.83
578.46	616.12
578.912	613.22
579.363	613.82
579.814	625.02
580.265	619.32
580.717	620.62
581.168	617.62
581.619	627.22
582.07	637.12
582.521	629.12
582.972	630.12
583.423	629.12
583.875	627.42
584.326	642.52
584.777	689.12
585.227	753.62
585.678	844.42
586.129	918.32
586.58	986.02
587.031	1072.72
587.482	1234.42
587.933	1393.92
588.384	1209.62
588.834	907.02
589.285	743.12
589.736	732.52
590.186	723.72
590.637	715.02
591.088	681.92
591.538	693.02
591.989	671.02
592.439	672.62
592.89	668.42
593.34	652.62
593.791	648.72
594.241	663.82
594.692	659.42
595.142	649.62
595.593	645.23
596.043	647.62
596.493	660.82
596.943	650.52
597.394	666.23
597.844	646.73
598.294	668.42
598.744	686.82
599.195	711.12
599.645	750.42
600.095	780.72
600.545	829.32
600.995	878.62
601.445	935.42
601.895	987.42
602.345	1050.72
602.795	1017.22
603.245	965.22
603.695	916.52
604.145	879.42
604.594	836.52
605.044	788.52
605.494	740.12
605.944	695.92
606.393	673.92
606.843	667.62
607.293	668.12
607.743	666.23
608.192	677.62
608.642	696.52
609.091	701.83
609.541	695.92
609.99	690.12
610.44	692.02
610.889	652.22
611.339	638.52
611.788	627.22
612.238	634.22
612.687	645.32
613.136	651.12
613.586	675.12
614.035	669.12
614.484	678.02
614.933	688.12
615.383	685.52
615.832	675.62
616.281	664.02
616.73	619.23
617.179	599.42
617.628	590.42
618.077	576.92
618.526	560.52
618.975	555.72
619.424	553.42
619.873	563.33
620.322	563.72
620.771	538.12
621.22	544.42
621.669	539.72
622.118	539.92
622.567	526.02
623.015	511.32
623.464	506.82
623.913	506.12
624.361	500.02
624.81	498.62
625.259	508.22
625.707	500.02
626.156	499.82
626.604	507.92
627.053	504.02
627.501	502.02
627.95	511.92
628.398	515.32
628.847	506.22
629.295	512.32
629.744	511.22
630.192	509.42
630.64	504.82
631.089	510.92
631.537	516.02
631.985	521.02
632.433	532.82
632.881	542.72
633.33	583.82
633.778	568.32
634.226	503.52
634.674	506.42
635.122	518.52
635.57	529.32
636.018	550.12
636.466	517.02
636.914	498.52
637.362	512.52
637.81	519.62
638.258	522.83
638.705	510.92
639.153	543.02
639.601	549.82
640.049	580.12
640.497	604.92
640.944	625.52
641.392	575.12
641.84	545.82
642.287	527.42
642.735	506.62
643.182	506.52
643.63	516.32
644.078	512.33
644.525	527.22
644.973	533.72
645.42	537.62
645.867	550.12
646.315	571.83
646.762	592.52
647.21	617.12
647.657	632.52
648.104	665.12
648.551	680.52
648.999	731.62
649.446	803.32
649.893	897.02
650.34	1017.62
650.787	1222.32
651.234	1508.62
651.682	1965.52
652.129	2683.42
652.576	3851.23
653.023	5709.43
653.47	7847.92
653.917	9927.42
654.363	11577.03
654.81	12989.83
655.257	12327.83
655.704	8014.22
656.151	4735.62
656.598	3061.12
657.044	2165.62
657.491	1670.12
657.938	1327.72
658.385	1104.83
658.831	962.72
659.278	858.12
659.724	763.72
660.171	708.12
660.618	641.82
661.064	615.42
661.511	581.02
661.957	587.12
662.404	562.32
662.85	574.22
663.296	548.32
663.743	499.12
664.189	483.52
664.635	471.22
665.082	464.72
665.528	461.02
665.974	448.92
666.42	451.72
666.867	444.42
667.313	427.32
667.759	420.32
668.205	418.22
668.651	429.22
669.097	427.22
669.543	448.62
669.989	418.72
670.435	401.22
670.881	399.52
671.327	398.32
671.773	402.82
672.219	436.92
672.665	476.92
673.11	501.12
673.556	556.72
674.002	598.62
674.448	581.92
674.893	488.02
675.339	430.62
675.785	388.23
676.23	366.42
676.676	345.52
677.122	337.92
677.567	318.32
678.013	323.72
678.458	307.12
678.904	314.22
679.349	294.82
679.794	303.92
680.24	305.72
680.685	304.52
681.131	307.32
681.576	305.22
682.021	310.02
682.466	304.32
682.912	305.32
683.357	306.42
683.802	334.42
684.247	360.42
684.692	400.12
685.137	436.02
685.583	472.52
686.028	502.92
686.473	464.32
686.918	397.92
687.363	368.42
687.807	350.62
688.252	321.82
688.697	306.92
689.142	292.22
689.587	288.22
690.032	283.82
690.477	300.32
690.921	306.62
691.366	334.62
691.811	359.02
692.255	377.32
692.7	410.12
693.145	434.02
693.589	592.42
694.034	962.92
694.478	1325.73
694.923	1540.32
695.367	2036.12
695.812	1062.72
696.256	442.02
696.701	331.12
697.145	303.12
697.59	294.12
698.034	282.92
698.478	284.72
698.922	283.92
699.367	281.12
699.811	294.22
700.255	308.42
700.699	329.02
701.143	369.42
701.588	424.12
702.032	455.62
702.476	445.02
702.92	427.22
703.364	422.22
703.808	545.42
704.252	872.62
704.696	1253.52
705.14	1473.22
705.584	1884.72
706.027	936.12
706.471	457.92
706.915	348.92
707.359	299.52
707.803	279.92
708.246	272.42
708.69	269.32
709.134	271.62
709.577	268.12
710.021	276.62
710.465	268.02
710.908	263.42
711.352	257.52
711.795	271.02
712.239	301.12
712.682	333.72
713.126	368.62
713.569	415.22
714.012	333.23
714.456	282.72
714.899	265.62
715.342	233.92
715.786	230.92
716.229	221.12
716.672	227.22
717.115	215.23
717.558	219.02
718.002	219.82
718.445	223.42
718.888	247.52
719.331	253.52
719.774	275.62
720.217	265.12
720.66	247.62
721.103	226.72
721.546	227.72
721.989	214.02
722.432	205.52
722.874	210.92
723.317	189.52
723.76	196.02
724.203	229.82
724.645	277.32
725.088	377.42
725.531	493.72
725.974	567.52
726.416	475.12
726.859	270.92
727.301	212.73
727.744	209.02
728.187	198.83
728.629	204.52
729.071	207.42
729.514	224.22
729.956	231.02
730.399	246.02
730.841	247.02
731.283	241.02
731.726	235.83
732.168	227.42
732.61	228.42
733.053	251.83
733.495	268.42
733.937	296.62
734.379	346.12
734.821	372.32
735.263	458.12
735.705	710.42
736.148	1322.93
736.59	2238.32
737.032	2704.82
737.474	2201.52
737.916	704.42
738.357	367.42
738.799	281.72
739.241	255.62
739.683	246.02
740.125	256.12
740.567	254.12
741.008	276.32
741.45	266.92
741.892	263.92
742.334	305.72
742.775	317.32
743.217	303.72
743.658	233.72
744.1	220.22
744.542	228.82
744.983	271.62
745.425	299.22
745.866	304.82
746.307	251.82
746.749	240.42
747.19	282.22
747.632	379.52
748.073	727.52
748.514	1567.12
748.956	2471.12
749.397	3096.22
749.838	2557.82
750.279	2615.12
750.72	1317.12
751.162	472.23
751.603	280.32
752.044	222.92
752.485	186.62
752.926	191.92
753.367	171.62
753.808	166.82
754.249	162.32
754.69	161.82
755.131	157.22
755.572	157.52
756.013	154.12
756.453	152.22
756.894	161.82
757.335	165.02
757.776	166.62
758.216	164.92
758.657	170.32
759.098	170.02
759.538	196.32
759.979	230.22
760.42	314.82
760.86	583.12
761.301	1509.22
761.741	3760.02
762.182	5760.52
762.622	4042.93
763.063	1152.82
763.503	477.52
763.943	297.72
764.384	295.72
764.824	359.12
765.264	392.02
765.705	264.42
766.145	182.52
766.585	155.42
767.025	154.62
767.465	154.52
767.906	212.52
768.346	279.62
768.786	300.02
769.226	229.12
769.666	273.32
770.106	506.22
770.546	1313.82
770.986	2326.02
771.426	2111.23
771.866	695.52
772.306	289.73
772.745	180.02
773.185	150.42
773.625	152.12
774.065	141.22
774.505	164.62
774.944	259.42
775.384	569.52
775.824	1060.42
776.263	1055.42
776.703	438.02
777.142	186.52
777.582	130.72
778.021	124.02
778.461	120.92
778.9	120.92
779.34	120.42
779.779	99.52
780.219	100.02
780.658	97.42
781.097	99.82
781.537	102.32
781.976	97.02
782.415	95.22
782.855	94.02
783.294	91.42
783.733	92.52
784.172	94.22
784.611	93.02
785.05	94.22
785.489	99.92
785.928	106.42
786.367	105.12
786.806	97.12
787.245	111.52
787.684	125.22
788.123	126.22
788.562	113.42
789.001	112.22
789.44	105.42
789.879	97.42
790.317	104.22
790.756	110.82
791.195	108.32
791.634	124.22
792.072	173.82
792.511	305.83
792.95	836.52
793.388	1867.92
793.827	1738.42
794.265	597.02
794.704	235.62
795.142	157.42
795.581	131.52
796.019	114.02
796.458	111.82
796.896	108.32
797.334	113.72
797.773	128.12
798.211	186.52
798.649	368.12
799.087	865.62
799.526	1379.03
799.964	1744.82
800.402	1792.62
800.84	661.32
801.278	255.82
801.716	160.22
802.154	139.52
802.592	128.82
803.03	119.02
803.468	116.12
803.906	122.22
804.344	128.02
804.782	122.02
805.22	119.82
805.658	118.22
806.096	125.42
806.533	138.72
806.971	150.22
807.409	190.12
807.847	264.12
808.284	559.92
808.722	1572.33
809.16	2876.43
809.597	2655.43
810.035	4708.12
810.472	5214.52
810.91	1852.32
811.347	695.92
811.785	348.83
812.222	225.52
812.66	172.52
813.097	140.12
813.535	126.12
813.972	111.82
814.409	103.12
814.846	93.92
815.284	94.22
815.721	87.02
816.158	90.82
816.595	105.12
817.032	150.52
817.47	179.52
817.907	156.12
818.344	132.42
818.781	101.82
819.218	84.52
819.655	110.72
820.092	161.32
820.529	190.62
820.966	153.12
821.403	119.32
821.839	96.32
822.276	85.32
822.713	109.12
823.15	123.62
823.587	98.82
824.023	125.42
824.46	251.92
824.897	757.92
825.333	1207.03
825.77	516.92
826.206	203.32
826.643	118.52
827.08	89.42
827.516	74.22
827.953	64.92
828.389	69.92
828.825	59.02
829.262	55.72
829.698	56.42
830.135	58.52
830.571	53.02
831.007	49.12
831.443	55.92
831.88	53.82
832.316	50.22
832.752	57.12
833.188	53.72
833.624	54.82
834.06	51.42
834.497	59.22
834.933	64.12
835.369	65.62
835.805	59.32
836.241	67.92
836.677	69.02
837.112	77.02
837.548	91.72
837.984	117.82
838.42	174.42
838.856	418.92
839.292	1292.62
839.727	2065.23
840.163	945.42
840.599	780.32
841.034	1757.92
841.47	1900.92
841.906	679.02
842.341	291.72
842.777	203.52
843.212	274.62
843.648	276.82
844.083	135.22
844.519	85.12
844.954	68.32
845.39	55.52
845.825	47.02
846.261	49.42
846.696	52.92
847.131	45.32
847.566	49.82
848.002	49.12
848.437	48.32
848.872	52.72
849.307	52.22
849.742	72.72
850.177	144.62
850.613	470.22
851.048	772.92
851.483	336.62
851.918	133.12
852.353	76.02
852.788	45.42
853.223	48.22
853.657	43.12
854.092	38.12
854.527	34.52
854.962	36.62
855.397	39.02
855.832	44.22
856.266	38.62
856.701	32.92
857.136	30.22
857.57	37.02
858.005	38.12
858.44	50.12
858.874	41.02
859.309	45.92
859.743	35.62
860.178	40.12
860.612	32.42
861.047	42.92
861.481	54.82
861.915	65.22
862.35	48.82
862.784	36.22
863.218	37.82
863.653	25.62
864.087	43.92
864.521	51.12
864.955	65.22
865.39	135.12
865.824	154.12
866.258	103.92
866.692	139.82
867.126	157.82
867.56	100.62
867.994	47.32
868.428	31.22
868.862	43.92
869.296	46.22
869.73	52.02
870.164	48.72
870.598	36.62
871.031	27.92
871.465	27.32
871.899	28.22
872.333	21.32
872.766	22.62
873.2	21.22
873.634	26.32
874.067	24.32
874.501	26.02
874.935	32.62
875.368	29.42
875.802	33.22
876.235	21.62
876.669	25.02
877.102	21.22
877.535	20.82
877.969	21.72
878.402	16.92
878.836	16.22
879.269	22.42
879.702	20.62
880.135	17.72
880.569	16.92
881.002	21.72
881.435	19.42
881.868	16.42
882.301	18.52
882.734	16.02
883.167	18.32
883.601	18.22
884.034	18.92
884.467	12.72
884.899	19.22
885.332	17.92
885.765	12.02
886.198	14.52
886.631	21.62
887.064	19.52
887.497	19.82
887.929	20.12
888.362	14.02
888.795	15.22
889.228	18.32
889.66	15.62
890.093	21.32
890.526	13.42
890.958	8.72
891.391	14.62
891.823	21.02
892.256	13.22
892.688	15.92
893.121	14.52
893.553	7.82
893.985	20.82
894.418	14.82
894.85	9.72
895.282	21.02
895.715	12.82
896.147	20.12
896.579	16.12
897.011	10.42
897.444	15.72
897.876	4.82
898.308	11.12
898.74	12.02
899.172	12.22
899.604	17.12
900.036	14.42
900.468	18.42
900.9	14.92
901.332	13.32
901.764	11.72
902.196	16.02
902.628	20.82
903.06	15.62
903.491	27.92
903.923	20.22
904.355	20.02
904.787	24.52
905.218	18.72
905.65	14.82
906.082	11.92
906.513	13.32
906.945	14.02
907.376	10.02
907.808	17.22
908.239	18.82
908.671	15.72
909.102	14.62
909.534	21.52
909.965	44.82
910.397	72.42
910.828	264.32
911.259	420.42
911.691	189.32
912.122	91.42
912.553	50.22
912.984	36.82
913.415	27.42
913.847	25.92
914.278	15.12
914.709	13.12
915.14	17.32
915.571	21.42
916.002	9.22
916.433	16.62
916.864	22.52
917.295	10.52
917.726	15.72
918.157	13.22
918.587	25.92
919.018	21.52
919.449	18.02
919.88	27.02
920.311	33.02
920.741	43.72
921.172	141.82
921.603	133.42
922.033	62.52
922.464	42.02
922.895	19.02
923.325	20.52
923.756	11.02
924.186	17.62
924.617	21.62
925.047	33.12
925.478	46.72
925.908	39.92
926.338	24.82
926.769	18.02
927.199	24.32
927.629	10.32
928.06	19.92
928.49	9.52
928.92	12.12
929.35	8.42
929.78	12.22
930.21	12.72
930.641	11.52
931.071	9.62
931.501	10.92
931.931	7.92
932.361	4.42
932.791	1.82
933.221	8.52
933.651	0.82
934.08	11.42
934.51	23.62
934.94	12.52
935.37	9.62
935.8	11.62
936.229	9.12
936.659	8.82
937.089	4.72
937.519	22.62
937.948	24.32
938.378	15.72
938.807	7.52
939.237	6.82
939.666	8.42
940.096	-7.68
940.525	5.72
940.955	2.42
941.384	5.32
941.814	-5.58
942.243	-1.18
942.672	4.42
943.102	-0.98
943.531	2.22
943.96	6.82
944.39	1.52
944.819	3.22
945.248	1.92
945.677	4.52
946.106	3.92
946.535	2.32
946.964	8.32
947.393	8.22
947.822	-1.98
948.251	2.22
948.68	7.32
949.109	7.32
949.538	7.32
949.967	-0.78
950.396	-0.98
950.825	7.52
951.254	3.92
951.682	-5.28
952.111	6.92
952.54	1.52
952.969	-0.78
953.397	-3.08
953.826	1.32
954.254	-0.88
954.683	1.82
955.112	-0.38
955.54	3.02
955.969	8.82
956.397	4.72
956.826	-2.68
957.254	3.02
957.682	6.02
958.111	3.12
958.539	3.82
958.967	1.12
959.396	-6.58
959.824	4.82
960.252	1.52
960.68	-5.08
961.109	4.02
961.537	0.32
961.965	-3.88
962.393	5.22
962.821	-5.48
963.249	0.92
963.677	1.42
964.105	0.92
964.533	38.32
964.961	36.82
965.389	15.22
965.817	4.32
966.245	-1.28
966.672	2.52
967.1	-1.48
967.528	-1.08
967.956	-1.88
968.383	4.02
968.811	-9.18
969.239	4.62
969.666	-2.98
970.094	8.92
970.522	-1.28
970.949	-0.68
971.377	-3.58
971.804	-1.38
972.232	-2.18
972.659	-5.08
973.087	-0.78
973.514	-1.18
973.941	-4.38
974.369	-0.28
974.796	2.92
975.223	-0.48
975.651	1.22
976.078	3.82
976.505	-3.48
976.932	3.32
977.359	15.62
977.786	12.52
978.214	3.32
978.641	-2.08
979.068	-1.38
979.495	-4.28
979.922	-1.38
980.349	-3.68
980.776	11.72
981.202	-0.18
981.629	5.82
982.056	2.02
982.483	1.22
982.91	-1.38
983.337	-5.58
983.763	2.82
984.19	-5.18
984.617	-1.18
985.043	-3.28
985.47	4.02
985.897	-3.08
986.323	-3.38
986.75	0.82
987.176	2.42
987.603	2.72
988.029	-2.48
988.456	-0.98
988.882	2.42
989.308	-3.58
989.735	-6.18
990.161	1.42
990.587	-7.38
991.014	2.32
991.44	5.32
991.866	-3.58
992.292	-4.58
992.719	-1.48
993.145	3.02
993.571	-10.28
993.997	-5.28
994.423	-3.28
994.849	-0.08
995.275	2.42
995.701	1.32
996.127	3.62
996.553	6.32
996.979	2.12
997.405	1.62
997.83	-1.78
998.256	-4.08
998.682	-5.78
999.108	-5.98
999.534	-2.18
999.959	-1.48
1000.385	-2.98
1000.811	4.92
1001.236	-8.28
1001.662	-10.28
1002.087	-4.98
1002.513	4.22
1002.938	0.92
1003.364	1.32
1003.789	1.22
1004.215	2.32
1004.64	-1.08
1005.066	2.02
1005.491	0.92
1005.916	-0.38
1006.342	-5.78
1006.767	-4.78
1007.192	4.12
1007.617	3.02
1008.042	2.62
1008.468	1.52
1008.893	-2.48
1009.318	0.42
1009.743	-7.08
1010.168	9.02
1010.593	0.02
1011.018	-3.08
1011.443	-4.68
1011.868	-1.38
1012.293	-2.78
1012.718	-3.68
1013.143	-0.58
1013.567	-0.18
1013.992	-1.98
1014.417	-12.38
1014.842	0.62
1015.267	-0.58
1015.691	-2.38
1016.116	10.62
1016.541	-0.68
1016.965	-0.28
1017.39	5.62
1017.814	2.32
1018.239	2.02
1018.663	-9.48
1019.088	-9.28
1019.512	-4.58
1019.937	1.12
1020.361	-6.28
1020.785	-10.88
1021.21	-6.38
1021.634	1.72
1022.058	4.82
1022.483	-0.48
1022.907	0.42
1023.331	-2.98
1023.755	-1.08
1024.179	-1.78
1024.604	-7.68
1025.028	-1.88
1025.452	-1.78
1025.876	-1.28
1026.3	5.42
1026.724	-4.58
1027.148	-4.18
1027.572	-8.18
1027.996	-3.78
1028.42	5.22
1028.843	-3.08
1029.267	-1.38
1029.691	-4.58
1030.115	-5.48
1030.539	-5.28
1030.962	-1.58
1031.386	-9.38
1031.81	-0.48
1032.233	0.22
1032.657	-2.88
1033.08	-3.68
1033.504	-1.58
1033.927	-2.88
1034.351	0.32
1034.774	-9.18
1035.198	-1.08
1035.621	-1.48
1036.045	-5.88
1036.468	-4.38
1036.891	-5.28
1037.315	-9.08
1037.738	-4.18
1038.161	0.12
1038.584	-2.38
1039.008	-2.68
1039.431	-0.88
1039.854	1.22
1040.277	-4.68
1040.7	-6.68
1041.123	0.82
1041.546	-6.58
1041.969	5.62
1042.392	-7.08
1042.815	1.92
1043.238	-0.38
1043.661	0.12
1044.084	-6.08
1044.507	-3.58
1044.93	-5.18
1045.352	3.22
1045.775	-1.38
1046.198	-4.88
1046.621	-2.88
1047.043	0.12
1047.466	2.82
1047.889	5.12
1048.311	-0.18
1048.734	-1.28
1049.156	1.22
1049.579	-5.18
1050.001	-3.48
1050.424	0.72
1050.846	-4.78
1051.269	-4.38
1051.691	-2.98
1052.113	-1.68
1052.536	4.42
1052.958	1.32
1053.38	-6.98
1053.802	-8.08
1054.225	4.42
1054.647	-9.38
1055.069	-2.28
1055.491	-2.78
1055.913	-4.68
1056.335	-1.88
1056.757	0.02
1057.179	-13.98
1057.601	-2.08
1058.023	-4.68
1058.445	-0.78
1058.867	-1.68
1059.289	-0.18
1059.711	-6.08
1060.133	0.22
1060.555	1.22
1060.976	-4.48
1061.398	-0.78
1061.82	-10.38
1062.241	-3.68
1062.663	-5.78
1063.085	-4.98
1063.506	0.52
1063.928	-3.88
1064.35	0.12
1064.771	-12.68
1065.193	0.52
1065.614	-4.98
1066.035	3.92
1066.457	1.72
1066.878	0.22
1067.3	-6.28
1067.721	-5.08
1068.142	-4.98
1068.564	-3.48
1068.985	-1.38
1069.406	-5.88
1069.827	-2.48
1070.248	3.52
1070.67	-3.28
1071.091	-5.78
1071.512	-5.68
1071.933	-1.78
1072.354	-8.48
1072.775	-5.78
1073.196	-8.38
1073.617	-2.68
1074.038	-6.08
1074.459	-3.38
1074.88	-4.58
1075.3	-0.18
1075.721	-4.58
1076.142	-0.08
1076.563	4.32
1076.983	-11.68
1077.404	-0.28
1077.825	-7.68
1078.246	0.72
1078.666	-12.38
1079.087	-0.08
1079.507	-4.58
1079.928	4.22
1080.348	1.02
1080.769	-1.98
1081.189	1.22
1081.61	-3.48
1082.03	-1.28
1082.451	-8.38
1082.871	-8.38
1083.291	-8.48
1083.711	-8.28
1084.132	-5.78
1084.552	-5.98
1084.972	2.42
1085.392	-7.68
1085.813	-11.48
1086.233	-3.68
1086.653	-2.48
1087.073	1.12
1087.493	-2.08
1087.913	-3.48
1088.333	-2.48
1088.753	-1.48
1089.173	1.52
1089.593	-0.98
1090.013	2.32
1090.433	3.02
1090.852	-2.98
1091.272	-1.78
1091.692	-0.78
1092.112	-5.38
1092.531	-8.78
1092.951	-8.68
1093.371	5.12
1093.79	2.42
1094.21	-4.48
1094.63	-5.68
1095.049	-3.78
1095.469	-2.68
1095.888	-2.08
1096.308	2.62
1096.727	1.22
1097.146	-3.58
1097.566	2.22
1097.985	-3.68
1098.405	2.62
1098.824	-5.68
1099.243	-6.88
1099.662	-6.68
1100.082	1.22
1100.501	-2.88
1100.92	-8.78
1101.339	-6.78
1101.758	-1.98
