Data from 20171114-ORNL-Ar_H_NY_Subt18_08-07-48-905.txt Node
Date: Tue Nov 14 08:07:48 EST 2017
User: Ender
Spectrometer: HR+D1039
Trigger mode: 0
Integration Time (sec): 2.730000E-2
Scans to average: 10
Electric dark correction enabled: true
Nonlinearity correction enabled: false
Boxcar width: 0
XAxis mode: Wavelengths
Number of Pixels in Spectrum: 2048
>>>>>Begin Spectral Data<<<<<
187.836	-0.59
188.309	-0.59
188.782	-0.59
189.255	2.61
189.728	-3.89
190.201	5.61
190.674	-0.69
191.147	3.31
191.619	-8.79
192.092	1.61
192.565	0.91
193.038	-0.59
193.511	7.41
193.984	2.71
194.456	-2.89
194.929	-3.19
195.402	-2.09
195.874	-1.49
196.347	-4.09
196.82	-7.69
197.292	6.11
197.765	-3.99
198.237	-7.89
198.71	1.51
199.182	-0.89
199.655	8.01
200.127	3.71
200.6	-0.49
201.072	-2.19
201.544	-3.29
202.017	-0.69
202.489	3.71
202.961	1.81
203.433	-0.89
203.906	-9.09
204.378	-3.49
204.85	-1.09
205.322	-2.79
205.794	-1.89
206.266	-2.89
206.739	-14.09
207.211	6.11
207.683	-12.59
208.155	-4.49
208.627	-7.19
209.099	-4.29
209.57	-10.49
210.042	-3.99
210.514	-1.69
210.986	-4.49
211.458	-2.89
211.93	-0.99
212.402	0.51
212.873	-7.09
213.345	-9.49
213.817	-10.69
214.288	-5.69
214.76	-7.19
215.232	0.91
215.703	-1.89
216.175	0.51
216.646	-2.09
217.118	-6.19
217.589	-6.59
218.061	-0.59
218.532	0.21
219.004	4.81
219.475	1.51
219.946	-0.99
220.418	-1.19
220.889	4.61
221.36	0.91
221.832	-2.69
222.303	-2.59
222.774	8.01
223.245	-5.69
223.717	-10.79
224.188	-7.59
224.659	-8.39
225.13	-2.39
225.601	2.91
226.072	2.21
226.543	-1.39
227.014	-2.09
227.485	-4.59
227.956	-5.19
228.427	-1.89
228.898	-3.59
229.369	2.81
229.839	-2.09
230.31	-6.29
230.781	2.61
231.252	-2.89
231.722	0.51
232.193	-0.79
232.664	0.51
233.135	4.11
233.605	-0.69
234.076	-0.99
234.546	2.81
235.017	3.21
235.487	-2.09
235.958	0.11
236.428	-5.89
236.899	3.41
237.369	-0.09
237.84	-3.59
238.31	3.81
238.78	5.81
239.251	-2.79
239.721	2.61
240.191	2.11
240.662	-0.19
241.132	2.61
241.602	-8.49
242.072	1.31
242.542	9.81
243.013	0.91
243.483	10.71
243.953	10.11
244.423	-3.49
244.893	-0.79
245.363	7.01
245.833	5.61
246.303	3.91
246.773	8.11
247.243	3.91
247.712	6.11
248.182	8.11
248.652	12.01
249.122	-1.09
249.592	12.61
250.061	21.81
250.531	35.01
251.001	16.31
251.471	21.31
251.94	20.91
252.41	9.11
252.879	1.51
253.349	11.71
253.818	2.01
254.288	3.01
254.757	9.91
255.227	2.11
255.696	6.61
256.166	-0.89
256.635	1.41
257.105	0.71
257.574	7.31
258.043	12.71
258.513	7.21
258.982	14.31
259.451	4.31
259.92	6.61
260.389	12.81
260.859	17.51
261.328	14.21
261.797	12.41
262.266	3.61
262.735	2.61
263.204	5.21
263.673	-3.19
264.142	4.51
264.611	1.21
265.08	0.81
265.549	-2.79
266.018	6.31
266.487	0.31
266.955	2.21
267.424	-3.19
267.893	1.21
268.362	-1.79
268.83	1.31
269.299	5.61
269.768	11.81
270.236	4.51
270.705	-0.49
271.174	4.51
271.642	9.31
272.111	11.01
272.579	20.91
273.048	22.01
273.516	26.81
273.985	28.01
274.453	22.41
274.922	22.51
275.39	11.41
275.858	6.51
276.327	17.31
276.795	25.01
277.263	14.51
277.731	31.81
278.2	56.51
278.668	53.51
279.136	44.21
279.604	16.01
280.072	14.01
280.54	17.61
281.008	10.81
281.477	15.51
281.945	15.81
282.413	13.51
282.881	16.41
283.348	9.21
283.816	15.91
284.284	15.51
284.752	19.31
285.22	12.31
285.688	13.51
286.156	18.11
286.623	41.81
287.091	47.61
287.559	29.41
288.026	10.91
288.494	16.81
288.962	3.51
289.429	15.31
289.897	21.21
290.364	10.51
290.832	18.81
291.3	16.21
291.767	18.41
292.234	11.71
292.702	14.91
293.169	22.21
293.637	24.11
294.104	25.61
294.571	8.51
295.039	6.31
295.506	14.01
295.973	18.21
296.44	15.01
296.908	22.01
297.375	16.41
297.842	21.01
298.309	14.11
298.776	17.61
299.243	15.11
299.71	7.91
300.177	22.91
300.644	24.81
301.111	19.31
301.578	17.31
302.045	18.41
302.512	24.21
302.979	23.41
303.446	20.51
303.913	15.01
304.379	16.31
304.846	27.01
305.313	25.61
305.78	25.11
306.246	26.81
306.713	21.51
307.18	23.71
307.646	27.01
308.113	24.01
308.579	27.81
309.046	24.21
309.512	28.51
309.979	15.81
310.445	27.81
310.912	25.81
311.378	33.31
311.845	29.21
312.311	29.71
312.777	31.61
313.244	29.41
313.71	41.91
314.176	28.71
314.642	30.91
315.109	32.21
315.575	35.11
316.041	42.91
316.507	34.81
316.973	36.91
317.439	29.51
317.905	38.11
318.371	34.31
318.837	31.81
319.303	33.81
319.769	32.21
320.235	30.11
320.701	33.31
321.167	39.91
321.633	30.61
322.099	38.21
322.564	45.31
323.03	41.91
323.496	40.21
323.962	41.91
324.427	36.91
324.893	48.61
325.359	37.81
325.824	35.51
326.29	28.81
326.755	37.11
327.221	46.41
327.686	39.41
328.152	49.01
328.617	42.81
329.083	36.71
329.548	42.41
330.014	47.61
330.479	40.91
330.944	40.51
331.41	39.21
331.875	46.01
332.34	42.01
332.805	39.61
333.271	46.31
333.736	45.81
334.201	52.91
334.666	47.81
335.131	56.71
335.596	49.31
336.061	49.91
336.526	50.91
336.991	41.51
337.456	56.31
337.921	47.31
338.386	41.61
338.851	42.61
339.316	49.51
339.781	43.31
340.246	46.21
340.711	48.21
341.175	50.01
341.64	39.11
342.105	49.21
342.569	57.51
343.034	59.81
343.499	53.01
343.963	47.41
344.428	54.61
344.893	58.31
345.357	55.81
345.822	52.41
346.286	66.01
346.751	77.41
347.215	61.31
347.679	69.61
348.144	97.71
348.608	85.91
349.073	69.61
349.537	72.61
350.001	76.51
350.465	81.01
350.93	74.31
351.394	76.81
351.858	71.41
352.322	87.41
352.786	80.11
353.25	96.01
353.715	105.51
354.179	90.21
354.643	113.41
355.107	118.91
355.571	104.71
356.035	105.71
356.498	114.81
356.962	118.31
357.426	128.11
357.89	116.01
358.354	82.11
358.818	81.91
359.281	80.31
359.745	74.11
360.209	73.21
360.673	75.41
361.136	71.51
361.6	85.41
362.064	78.31
362.527	82.71
362.991	84.61
363.454	82.21
363.918	81.21
364.381	79.11
364.845	79.81
365.308	88.61
365.772	86.41
366.235	84.01
366.698	83.51
367.162	86.71
367.625	83.61
368.088	83.51
368.552	92.91
369.015	90.81
369.478	93.31
369.941	100.21
370.404	100.01
370.867	111.01
371.331	104.41
371.794	117.81
372.257	109.31
372.72	116.81
373.183	109.01
373.646	107.11
374.109	108.61
374.572	102.01
375.035	112.51
375.497	103.51
375.96	107.51
376.423	105.11
376.886	115.71
377.349	111.61
377.811	103.61
378.274	104.21
378.737	112.21
379.199	106.61
379.662	108.41
380.125	115.81
380.587	115.81
381.05	127.31
381.512	132.41
381.975	131.51
382.437	139.81
382.9	128.21
383.362	131.51
383.825	141.61
384.287	150.71
384.75	139.61
385.212	138.01
385.674	139.31
386.136	145.31
386.599	131.61
387.061	127.21
387.523	129.11
387.985	135.21
388.447	147.31
388.91	144.91
389.372	160.41
389.834	150.61
390.296	149.11
390.758	160.31
391.22	173.41
391.682	209.31
392.144	301.51
392.606	232.11
393.068	168.21
393.529	165.81
393.991	151.51
394.453	145.81
394.915	154.71
395.377	185.81
395.838	213.31
396.3	158.81
396.762	145.21
397.224	134.31
397.685	131.61
398.147	135.41
398.608	129.41
399.07	134.91
399.531	128.41
399.993	143.41
400.454	153.21
400.916	144.11
401.377	144.81
401.839	159.11
402.3	157.41
402.762	170.11
403.223	183.81
403.684	180.81
404.145	164.11
404.607	161.71
405.068	169.01
405.529	166.31
405.99	189.01
406.451	176.21
406.913	172.61
407.374	160.11
407.835	160.61
408.296	169.81
408.757	178.31
409.218	194.51
409.679	178.11
410.14	175.11
410.601	180.91
411.062	187.51
411.522	189.41
411.983	194.01
412.444	174.21
412.905	177.61
413.366	180.91
413.826	189.01
414.287	217.01
414.748	264.81
415.208	242.01
415.669	213.91
416.13	203.81
416.59	201.81
417.051	212.51
417.511	227.91
417.972	237.41
418.432	248.71
418.893	288.41
419.353	253.51
419.814	203.41
420.274	183.91
420.734	182.41
421.195	204.01
421.655	197.61
422.115	197.11
422.576	198.01
423.036	202.51
423.496	219.81
423.956	221.21
424.416	233.51
424.876	267.81
425.336	264.41
425.797	268.91
426.257	254.81
426.717	243.21
427.177	228.01
427.637	225.91
428.097	233.81
428.556	243.51
429.016	270.81
429.476	266.41
429.936	279.91
430.396	278.01
430.856	301.01
431.315	316.31
431.775	359.71
432.235	379.71
432.694	358.71
433.154	363.71
433.614	395.41
434.073	347.01
434.533	290.21
434.993	276.71
435.452	292.41
435.912	289.71
436.371	289.71
436.83	289.21
437.29	269.21
437.749	249.71
438.209	248.21
438.668	279.31
439.127	285.21
439.587	267.01
440.046	253.91
440.505	266.31
440.964	279.91
441.424	312.61
441.883	304.81
442.342	258.11
442.801	231.11
443.26	226.11
443.719	217.41
444.178	225.51
444.637	214.81
445.096	226.31
445.555	223.51
446.014	229.01
446.473	232.21
446.932	236.51
447.391	231.21
447.849	229.21
448.308	226.61
448.767	215.41
449.226	235.81
449.685	236.41
450.143	259.31
450.602	238.41
451.061	230.21
451.519	237.71
451.978	230.71
452.436	236.41
452.895	245.21
453.353	256.61
453.812	247.91
454.27	237.61
454.729	240.41
455.187	236.01
455.646	247.81
456.104	245.11
456.562	263.01
457.021	268.81
457.479	255.61
457.937	274.81
458.395	266.91
458.854	247.11
459.312	250.91
459.77	271.21
460.228	263.51
460.686	244.51
461.144	253.41
461.602	248.61
462.06	249.51
462.518	257.01
462.976	252.81
463.434	259.71
463.892	265.41
464.35	279.51
464.808	291.31
465.266	265.21
465.724	268.61
466.181	274.61
466.639	269.91
467.097	293.61
467.555	301.71
468.012	301.61
468.47	308.21
468.928	325.71
469.385	348.41
469.843	348.51
470.3	353.11
470.758	356.71
471.215	384.61
471.673	409.51
472.13	412.31
472.588	418.41
473.045	379.21
473.503	387.71
473.96	406.31
474.417	409.41
474.875	445.51
475.332	475.11
475.789	466.81
476.246	474.31
476.704	488.21
477.161	509.71
477.618	525.51
478.075	565.31
478.532	617.31
478.989	688.01
479.446	811.71
479.903	777.61
480.36	809.21
480.817	876.91
481.274	980.71
481.731	1071.41
482.188	1165.11
482.645	1311.91
483.102	1421.71
483.558	1540.21
484.015	1586.41
484.472	1569.41
484.929	1512.41
485.385	1479.51
485.842	1419.41
486.299	1360.31
486.755	1293.61
487.212	1087.81
487.668	934.11
488.125	849.41
488.582	788.71
489.038	743.61
489.494	718.01
489.951	683.81
490.407	671.71
490.864	648.21
491.32	647.31
491.776	652.31
492.233	653.31
492.689	610.41
493.145	602.01
493.602	601.31
494.058	610.41
494.514	612.41
494.97	640.11
495.426	654.61
495.882	618.81
496.338	611.01
496.794	634.31
497.251	612.91
497.707	629.51
498.163	627.31
498.618	645.41
499.074	645.61
499.53	675.41
499.986	677.61
500.442	658.51
500.898	629.51
501.354	625.31
501.809	648.31
502.265	642.61
502.721	675.31
503.177	680.71
503.632	683.61
504.088	684.91
504.543	725.41
504.999	724.61
505.455	667.51
505.91	634.31
506.366	635.51
506.821	632.61
507.277	628.91
507.732	622.11
508.187	627.51
508.643	636.21
509.098	642.21
509.553	651.71
510.009	672.51
510.464	667.41
510.919	695.61
511.375	703.01
511.83	714.31
512.285	723.71
512.74	762.51
513.195	789.71
513.65	779.01
514.105	779.81
514.56	769.41
515.015	798.21
515.47	803.61
515.925	799.91
516.38	796.01
516.835	803.71
517.29	788.81
517.745	792.81
518.2	790.01
518.655	747.81
519.109	751.81
519.564	743.51
520.019	738.51
520.474	729.01
520.928	734.61
521.383	719.11
521.838	715.71
522.292	714.31
522.747	723.91
523.201	709.91
523.656	712.01
524.11	707.11
524.565	698.51
525.019	703.01
525.474	708.91
525.928	710.01
526.382	698.11
526.837	695.71
527.291	709.01
527.745	698.71
528.2	691.21
528.654	683.81
529.108	684.61
529.562	694.01
530.016	686.91
530.47	692.71
530.925	688.01
531.379	702.91
531.833	702.91
532.287	707.91
532.741	708.91
533.195	714.01
533.649	714.31
534.103	727.31
534.556	711.41
535.01	712.91
535.464	714.61
535.918	716.91
536.372	723.11
536.826	719.81
537.279	708.81
537.733	719.31
538.187	713.01
538.64	717.31
539.094	730.31
539.548	734.21
540.001	738.71
540.455	733.31
540.908	737.21
541.362	738.11
541.815	759.01
542.269	756.81
542.722	767.31
543.175	771.11
543.629	778.11
544.082	800.61
544.536	795.81
544.989	791.81
545.442	797.11
545.895	800.21
546.349	799.91
546.802	799.11
547.255	805.41
547.708	813.51
548.161	816.21
548.614	832.41
549.067	830.41
549.52	819.71
549.973	825.41
550.426	809.81
550.879	804.71
551.332	814.71
551.785	807.51
552.238	813.81
552.691	824.61
553.144	824.21
553.596	859.11
554.049	875.01
554.502	900.61
554.955	912.61
555.407	910.31
555.86	906.31
556.313	905.71
556.765	889.51
557.218	880.91
557.67	898.61
558.123	880.61
558.576	887.21
559.028	881.81
559.48	893.21
559.933	875.41
560.385	851.21
560.838	813.41
561.29	793.61
561.742	796.81
562.195	774.91
562.647	776.11
563.099	784.31
563.551	779.11
564.004	787.11
564.456	788.41
564.908	766.81
565.36	750.51
565.812	736.91
566.264	738.51
566.716	735.41
567.168	726.11
567.62	731.61
568.072	711.81
568.524	707.91
568.976	698.31
569.428	684.51
569.88	685.81
570.332	693.71
570.784	696.21
571.235	697.31
571.687	701.11
572.139	708.91
572.59	719.01
573.042	720.01
573.494	713.61
573.945	708.31
574.397	687.31
574.849	693.21
575.3	699.91
575.752	682.61
576.203	683.21
576.655	687.51
577.106	684.51
577.557	675.21
578.009	677.01
578.46	671.01
578.912	679.01
579.363	668.21
579.814	676.11
580.265	665.61
580.717	679.31
581.168	675.01
581.619	685.71
582.07	687.61
582.521	688.61
582.972	666.71
583.423	692.21
583.875	685.41
584.326	700.41
584.777	750.21
585.227	843.01
585.678	924.51
586.129	1009.91
586.58	1088.51
587.031	1167.41
587.482	1323.91
587.933	1510.91
588.384	1307.51
588.834	975.31
589.285	815.51
589.736	794.11
590.186	795.21
590.637	773.51
591.088	761.01
591.538	744.81
591.989	732.71
592.439	735.91
592.89	725.91
593.34	714.41
593.791	719.21
594.241	708.11
594.692	719.31
595.142	715.51
595.593	717.41
596.043	714.21
596.493	725.91
596.943	720.41
597.394	734.81
597.844	728.81
598.294	743.91
598.744	760.31
599.195	792.11
599.645	831.21
600.095	875.31
600.545	924.11
600.995	981.61
601.445	1044.91
601.895	1106.51
602.345	1147.21
602.795	1134.61
603.245	1074.21
603.695	1026.11
604.145	963.01
604.594	906.91
605.044	871.01
605.494	807.21
605.944	765.61
606.393	753.41
606.843	741.91
607.293	753.21
607.743	746.01
608.192	748.91
608.642	767.61
609.091	773.51
609.541	768.91
609.99	779.31
610.44	769.71
610.889	726.61
611.339	716.51
611.788	689.51
612.238	708.31
612.687	727.01
613.136	729.41
613.586	752.71
614.035	745.91
614.484	770.21
614.933	773.21
615.383	765.01
615.832	750.01
616.281	735.81
616.73	687.91
617.179	674.31
617.628	656.81
618.077	645.11
618.526	634.61
618.975	640.41
619.424	623.51
619.873	617.21
620.322	618.41
620.771	613.61
621.22	615.01
621.669	601.81
622.118	594.21
622.567	591.21
623.015	574.11
623.464	589.81
623.913	565.41
624.361	563.11
624.81	562.51
625.259	557.01
625.707	569.61
626.156	566.11
626.604	576.61
627.053	562.31
627.501	579.61
627.95	577.31
628.398	595.71
628.847	577.21
629.295	576.71
629.744	587.91
630.192	580.21
630.64	580.01
631.089	570.21
631.537	586.21
631.985	590.31
632.433	609.41
632.881	616.21
633.33	670.31
633.778	659.61
634.226	580.01
634.674	588.91
635.122	592.11
635.57	614.71
636.018	640.01
636.466	580.41
636.914	567.31
637.362	583.51
637.81	577.01
638.258	588.11
638.705	592.21
639.153	615.31
639.601	628.71
640.049	658.21
640.497	680.01
640.944	696.11
641.392	653.21
641.84	622.31
642.287	597.21
642.735	577.41
643.182	581.01
643.63	579.51
644.078	581.91
644.525	595.61
644.973	604.21
645.42	619.21
645.867	633.01
646.315	648.91
646.762	670.71
647.21	703.21
647.657	725.91
648.104	751.21
648.551	780.61
648.999	848.91
649.446	923.21
649.893	1028.01
650.34	1182.81
650.787	1414.21
651.234	1766.71
651.682	2303.01
652.129	3162.21
652.576	4590.41
653.023	6719.71
653.47	9175.31
653.917	11400.41
654.363	13083.21
654.81	14361.41
655.257	13666.61
655.704	8986.31
656.151	5316.71
656.598	3436.21
657.044	2418.61
657.491	1874.31
657.938	1497.41
658.385	1248.31
658.831	1093.21
659.278	973.91
659.724	868.11
660.171	804.11
660.618	731.51
661.064	700.01
661.511	679.81
661.957	667.51
662.404	651.41
662.85	663.31
663.296	642.41
663.743	569.81
664.189	551.11
664.635	541.91
665.082	536.81
665.528	536.81
665.974	520.11
666.42	518.71
666.867	510.11
667.313	500.31
667.759	490.01
668.205	484.31
668.651	495.41
669.097	483.71
669.543	513.91
669.989	484.61
670.435	457.01
670.881	457.81
671.327	457.71
671.773	478.71
672.219	500.31
672.665	560.81
673.11	590.11
673.556	644.71
674.002	673.61
674.448	662.61
674.893	552.91
675.339	487.21
675.785	454.11
676.23	419.61
676.676	398.11
677.122	386.51
677.567	378.91
678.013	373.51
678.458	362.51
678.904	366.31
679.349	349.91
679.794	362.71
680.24	355.01
680.685	357.31
681.131	357.21
681.576	357.91
682.021	360.91
682.466	351.81
682.912	347.31
683.357	358.21
683.802	393.51
684.247	415.31
684.692	470.21
685.137	505.21
685.583	548.51
686.028	565.81
686.473	527.61
686.918	452.61
687.363	421.31
687.807	400.61
688.252	361.21
688.697	362.51
689.142	340.91
689.587	337.51
690.032	334.81
690.477	356.01
690.921	358.11
691.366	388.01
691.811	410.41
692.255	437.81
692.7	472.61
693.145	503.31
693.589	715.21
694.034	1157.81
694.478	1559.41
694.923	1740.91
695.367	2256.31
695.812	1202.41
696.256	510.01
696.701	381.21
697.145	343.41
697.59	343.01
698.034	325.21
698.478	343.11
698.922	330.71
699.367	331.11
699.811	348.51
700.255	356.51
700.699	392.61
701.143	427.31
701.588	483.11
702.032	520.11
702.476	523.41
702.92	497.71
703.364	500.21
703.808	660.91
704.252	1065.01
704.696	1478.31
705.14	1673.61
705.584	2129.31
706.027	1064.11
706.471	527.11
706.915	404.11
707.359	356.61
707.803	325.91
708.246	313.01
708.69	328.81
709.134	316.71
709.577	315.81
710.021	325.11
710.465	313.91
710.908	305.21
711.352	306.61
711.795	325.61
712.239	359.31
712.682	394.81
713.126	421.91
713.569	475.01
714.012	378.91
714.456	325.21
714.899	309.41
715.342	285.91
715.786	264.51
716.229	262.21
716.672	265.81
717.115	246.31
717.558	259.61
718.002	250.71
718.445	271.61
718.888	289.91
719.331	299.41
719.774	309.11
720.217	304.11
720.66	291.71
721.103	270.81
721.546	262.01
721.989	250.71
722.432	232.81
722.874	242.01
723.317	236.41
723.76	238.71
724.203	265.41
724.645	329.91
725.088	460.61
725.531	583.71
725.974	643.31
726.416	559.31
726.859	314.21
727.301	251.31
727.744	247.11
728.187	239.41
728.629	251.11
729.071	251.21
729.514	276.11
729.956	275.51
730.399	286.31
730.841	297.81
731.283	277.71
731.726	265.01
732.168	264.91
732.61	272.51
733.053	294.41
733.495	331.31
733.937	368.81
734.379	406.01
734.821	448.71
735.263	558.91
735.705	862.41
736.148	1638.81
736.59	2634.31
737.032	3057.41
737.474	2492.71
737.916	822.11
738.357	436.71
738.799	335.11
739.241	299.51
739.683	286.51
740.125	299.51
740.567	297.71
741.008	316.21
741.45	321.51
741.892	323.11
742.334	361.11
742.775	364.91
743.217	351.91
743.658	277.71
744.1	255.91
744.542	267.01
744.983	315.51
745.425	347.01
745.866	343.31
746.307	287.61
746.749	291.21
747.19	337.61
747.632	473.41
748.073	921.21
748.514	1933.81
748.956	2887.21
749.397	3627.21
749.838	3003.91
750.279	2966.41
750.72	1499.91
751.162	553.51
751.603	329.31
752.044	255.01
752.485	218.41
752.926	210.11
753.367	201.21
753.808	200.41
754.249	193.81
754.69	191.31
755.131	184.31
755.572	185.91
756.013	186.31
756.453	190.61
756.894	188.21
757.335	196.71
757.776	197.11
758.216	203.71
758.657	202.31
759.098	212.01
759.538	229.31
759.979	273.81
760.42	390.81
760.86	746.21
761.301	1911.31
761.741	4534.41
762.182	6390.11
762.622	4504.31
763.063	1327.01
763.503	543.31
763.943	353.91
764.384	353.11
764.824	414.61
765.264	435.91
765.705	307.11
766.145	216.71
766.585	192.91
767.025	188.11
767.465	188.81
767.906	253.21
768.346	325.61
768.786	349.21
769.226	267.21
769.666	328.71
770.106	649.51
770.546	1619.41
770.986	2665.41
771.426	2359.11
771.866	803.41
772.306	335.61
772.745	212.61
773.185	176.71
773.625	175.21
774.065	176.91
774.505	203.11
774.944	319.51
775.384	688.21
775.824	1203.81
776.263	1170.51
776.703	497.51
777.142	223.91
777.582	157.21
778.021	137.41
778.461	141.61
778.9	138.41
779.34	132.11
779.779	123.71
780.219	110.61
780.658	113.71
781.097	110.31
781.537	114.81
781.976	116.91
782.415	109.31
782.855	114.51
783.294	114.81
783.733	113.71
784.172	110.81
784.611	107.91
785.05	117.01
785.489	122.51
785.928	121.21
786.367	128.31
786.806	123.21
787.245	136.31
787.684	132.41
788.123	148.51
788.562	141.31
789.001	130.91
789.44	130.21
789.879	124.41
790.317	113.51
790.756	129.01
791.195	134.61
791.634	149.11
792.072	206.31
792.511	393.71
792.95	1054.81
793.388	2151.21
793.827	1925.71
794.265	680.61
794.704	287.71
795.142	180.81
795.581	152.11
796.019	142.01
796.458	132.31
796.896	125.71
797.334	130.61
797.773	157.21
798.211	229.21
798.649	457.01
799.087	1033.51
799.526	1627.81
799.964	2039.81
800.402	2008.91
800.84	771.01
801.278	309.51
801.716	194.81
802.154	154.21
802.592	149.91
803.03	134.31
803.468	137.01
803.906	146.21
804.344	151.91
804.782	148.11
805.22	139.31
805.658	132.21
806.096	149.01
806.533	159.61
806.971	175.61
807.409	219.71
807.847	311.51
808.284	684.41
808.722	1928.11
809.16	3314.91
809.597	3189.41
810.035	5505.81
810.472	5706.61
810.91	2076.61
811.347	812.21
811.785	409.81
812.222	264.31
812.66	195.71
813.097	164.11
813.535	142.81
813.972	127.21
814.409	118.11
814.846	108.51
815.284	115.31
815.721	102.51
816.158	110.91
816.595	122.31
817.032	179.51
817.47	202.21
817.907	159.01
818.344	155.11
818.781	115.61
819.218	102.51
819.655	123.11
820.092	189.01
820.529	209.01
820.966	176.61
821.403	142.61
821.839	114.41
822.276	105.21
822.713	126.01
823.15	136.01
823.587	118.61
824.023	151.41
824.46	313.61
824.897	920.61
825.333	1342.01
825.77	584.71
826.206	233.21
826.643	128.21
827.08	104.71
827.516	83.01
827.953	87.61
828.389	78.91
828.825	71.41
829.262	71.41
829.698	66.61
830.135	66.31
830.571	65.51
831.007	71.51
831.443	62.61
831.88	64.31
832.316	65.11
832.752	64.41
833.188	65.51
833.624	64.21
834.06	74.01
834.497	70.11
834.933	72.51
835.369	71.91
835.805	71.91
836.241	80.11
836.677	84.01
837.112	92.01
837.548	110.61
837.984	136.51
838.42	206.91
838.856	517.31
839.292	1559.21
839.727	2294.01
840.163	1071.31
840.599	951.21
841.034	2069.61
841.47	2113.61
841.906	780.91
842.341	335.21
842.777	232.81
843.212	316.01
843.648	309.61
844.083	155.91
844.519	98.51
844.954	72.41
845.39	63.21
845.825	54.61
846.261	57.71
846.696	55.71
847.131	55.81
847.566	63.51
848.002	52.01
848.437	55.81
848.872	62.81
849.307	60.31
849.742	87.11
850.177	190.41
850.613	569.61
851.048	869.81
851.483	380.81
851.918	154.61
852.353	92.11
852.788	64.81
853.223	60.11
853.657	60.01
854.092	53.01
854.527	45.01
854.962	42.11
855.397	48.41
855.832	49.81
856.266	43.81
856.701	43.91
857.136	39.71
857.57	40.11
858.005	51.61
858.44	62.31
858.874	44.61
859.309	57.61
859.743	43.71
860.178	43.71
860.612	46.41
861.047	53.11
861.481	73.61
861.915	71.41
862.35	55.41
862.784	36.21
863.218	43.01
863.653	36.51
864.087	49.31
864.521	52.71
864.955	81.01
865.39	164.51
865.824	180.61
866.258	123.01
866.692	161.21
867.126	177.01
867.56	103.61
867.994	58.91
868.428	39.41
868.862	51.31
869.296	52.21
869.73	55.71
870.164	57.81
870.598	41.51
871.031	41.11
871.465	33.81
871.899	31.11
872.333	22.21
872.766	28.51
873.2	31.31
873.634	26.71
874.067	27.71
874.501	27.21
874.935	40.61
875.368	34.01
875.802	33.21
876.235	25.21
876.669	32.91
877.102	24.51
877.535	33.81
877.969	23.21
878.402	25.21
878.836	26.21
879.269	28.01
879.702	26.31
880.135	22.21
880.569	22.91
881.002	28.41
881.435	23.31
881.868	20.71
882.301	24.61
882.734	18.61
883.167	19.91
883.601	24.11
884.034	25.61
884.467	21.61
884.899	21.31
885.332	18.01
885.765	20.91
886.198	15.11
886.631	22.11
887.064	20.91
887.497	23.91
887.929	26.81
888.362	22.41
888.795	15.51
889.228	22.81
889.66	26.21
890.093	19.81
890.526	21.31
890.958	20.91
891.391	17.21
891.823	23.41
892.256	19.81
892.688	12.31
893.121	16.01
893.553	11.71
893.985	18.81
894.418	22.81
894.85	16.21
895.282	23.21
895.715	16.51
896.147	22.61
896.579	22.31
897.011	15.51
897.444	21.21
897.876	19.01
898.308	16.71
898.74	11.41
899.172	16.01
899.604	18.71
900.036	22.51
900.468	18.41
900.9	17.61
901.332	20.01
901.764	21.21
902.196	19.31
902.628	17.11
903.06	18.01
903.491	33.01
903.923	30.11
904.355	24.01
904.787	26.81
905.218	27.51
905.65	22.21
906.082	14.91
906.513	14.01
906.945	15.61
907.376	13.71
907.808	26.51
908.239	23.01
908.671	23.11
909.102	19.31
909.534	22.61
909.965	49.21
910.397	97.21
910.828	320.81
911.259	464.91
911.691	217.11
912.122	114.01
912.553	58.11
912.984	39.81
913.415	25.51
913.847	26.71
914.278	18.11
914.709	19.71
915.14	22.81
915.571	22.81
916.002	14.11
916.433	21.51
916.864	17.31
917.295	18.01
917.726	28.41
918.157	22.01
918.587	28.71
919.018	24.11
919.449	23.31
919.88	24.81
920.311	32.41
920.741	54.81
921.172	170.21
921.603	149.91
922.033	73.21
922.464	42.61
922.895	23.01
923.325	22.91
923.756	12.41
924.186	17.61
924.617	27.71
925.047	40.21
925.478	48.21
925.908	42.71
926.338	27.01
926.769	15.11
927.199	24.31
927.629	5.41
928.06	13.71
928.49	17.81
928.92	14.51
929.35	11.81
929.78	10.81
930.21	9.81
930.641	9.21
931.071	10.51
931.501	1.11
931.931	13.71
932.361	12.91
932.791	9.11
933.221	9.11
933.651	8.01
934.08	21.21
934.51	27.51
934.94	10.41
935.37	10.11
935.8	17.11
936.229	5.21
936.659	9.71
937.089	7.41
937.519	18.91
937.948	31.51
938.378	12.91
938.807	5.11
939.237	2.21
939.666	11.21
940.096	-3.29
940.525	8.01
940.955	9.11
941.384	5.51
941.814	-2.09
942.243	-1.69
942.672	4.91
943.102	-0.59
943.531	-0.19
943.96	3.31
944.39	3.81
944.819	2.11
945.248	2.11
945.677	-0.39
946.106	6.81
946.535	13.31
946.964	5.51
947.393	4.91
947.822	-1.39
948.251	-1.59
948.68	4.41
949.109	9.71
949.538	4.31
949.967	0.71
950.396	4.61
950.825	1.71
951.254	3.31
951.682	-3.69
952.111	4.91
952.54	15.21
952.969	-3.69
953.397	-3.09
953.826	6.31
954.254	-4.09
954.683	1.21
955.112	5.21
955.54	-2.49
955.969	1.91
956.397	4.81
956.826	4.21
957.254	1.51
957.682	-1.29
958.111	5.91
958.539	-0.09
958.967	1.01
959.396	2.51
959.824	0.71
960.252	0.71
960.68	-7.59
961.109	-1.99
961.537	-3.59
961.965	6.11
962.393	0.21
962.821	-1.09
963.249	4.61
963.677	10.51
964.105	7.81
964.533	51.31
964.961	40.71
965.389	20.21
965.817	11.81
966.245	2.01
966.672	1.21
967.1	-5.09
967.528	-0.89
967.956	-0.69
968.383	2.71
968.811	-2.19
969.239	1.81
969.666	-5.99
970.094	1.91
970.522	5.61
970.949	0.01
971.377	2.31
971.804	3.21
972.232	0.31
972.659	0.11
973.087	-4.59
973.514	-7.39
973.941	-2.49
974.369	2.31
974.796	-4.89
975.223	4.81
975.651	0.31
976.078	4.91
976.505	2.51
976.932	6.01
977.359	18.81
977.786	11.31
978.214	3.51
978.641	-6.09
979.068	-4.79
979.495	-5.39
979.922	-1.99
980.349	-2.29
980.776	4.61
981.202	4.71
981.629	2.41
982.056	7.81
982.483	-6.89
982.91	5.01
983.337	-5.29
983.763	6.11
984.19	-2.59
984.617	1.61
985.043	-5.09
985.47	-0.19
985.897	-1.49
986.323	-2.19
986.75	12.61
987.176	0.81
987.603	-2.79
988.029	1.01
988.456	0.01
988.882	4.41
989.308	-3.49
989.735	-2.19
990.161	-1.49
990.587	0.41
991.014	-0.99
991.44	13.21
991.866	8.01
992.292	-9.39
992.719	-3.29
993.145	5.31
993.571	-8.99
993.997	-7.09
994.423	-4.29
994.849	-6.19
995.275	4.71
995.701	9.11
996.127	1.71
996.553	3.71
996.979	-6.19
997.405	-4.09
997.83	3.31
998.256	-2.79
998.682	-5.99
999.108	-1.09
999.534	-6.39
999.959	-1.09
1000.385	-6.09
1000.811	-0.49
1001.236	-8.39
1001.662	-6.39
1002.087	-10.49
1002.513	1.91
1002.938	6.51
1003.364	-1.49
1003.789	1.61
1004.215	7.11
1004.64	0.11
1005.066	3.41
1005.491	2.41
1005.916	1.41
1006.342	-3.99
1006.767	-2.29
1007.192	5.81
1007.617	-1.29
1008.042	-0.79
1008.468	-8.19
1008.893	-0.19
1009.318	-1.49
1009.743	1.51
1010.168	4.21
1010.593	0.31
1011.018	-6.49
1011.443	-1.49
1011.868	2.31
1012.293	1.21
1012.718	-5.99
1013.143	-0.39
1013.567	1.81
1013.992	-1.19
1014.417	-11.69
1014.842	-3.59
1015.267	1.01
1015.691	-3.99
1016.116	7.61
1016.541	-1.59
1016.965	0.81
1017.39	2.61
1017.814	2.01
1018.239	6.01
1018.663	-7.79
1019.088	-6.99
1019.512	0.01
1019.937	-0.39
1020.361	-0.89
1020.785	-8.19
1021.21	1.61
1021.634	-2.59
1022.058	-0.19
1022.483	5.41
1022.907	-0.69
1023.331	-6.59
1023.755	-3.29
1024.179	-2.99
1024.604	-5.69
1025.028	-0.69
1025.452	-3.49
1025.876	2.81
1026.3	-4.09
1026.724	-8.59
1027.148	0.71
1027.572	-4.39
1027.996	-1.99
1028.42	-1.59
1028.843	-1.49
1029.267	-3.59
1029.691	-3.29
1030.115	-6.19
1030.539	-7.19
1030.962	-4.39
1031.386	-4.79
1031.81	-1.89
1032.233	-0.89
1032.657	2.81
1033.08	0.11
1033.504	-3.39
1033.927	-5.89
1034.351	4.11
1034.774	-1.49
1035.198	-5.49
1035.621	-3.09
1036.045	-3.59
1036.468	5.31
1036.891	-11.79
1037.315	-8.29
1037.738	-11.79
1038.161	4.21
1038.584	-10.09
1039.008	-2.29
1039.431	-1.59
1039.854	1.01
1040.277	-9.79
1040.7	-12.09
1041.123	2.11
1041.546	-9.99
1041.969	0.31
1042.392	-2.79
1042.815	0.91
1043.238	3.91
1043.661	5.81
1044.084	-5.39
1044.507	-1.79
1044.93	-9.59
1045.352	-10.19
1045.775	-2.19
1046.198	3.81
1046.621	-4.89
1047.043	0.91
1047.466	4.81
1047.889	-0.79
1048.311	-8.29
1048.734	-0.89
1049.156	-5.89
1049.579	-1.89
1050.001	-4.79
1050.424	1.41
1050.846	-4.59
1051.269	-5.29
1051.691	-1.79
1052.113	-2.39
1052.536	0.21
1052.958	0.41
1053.38	1.41
1053.802	-8.29
1054.225	4.51
1054.647	-12.29
1055.069	-3.49
1055.491	-2.09
1055.913	-3.79
1056.335	1.51
1056.757	-6.19
1057.179	-1.99
1057.601	-8.39
1058.023	-1.49
1058.445	2.51
1058.867	-7.19
1059.289	-3.09
1059.711	-4.69
1060.133	-0.29
1060.555	-7.09
1060.976	-6.79
1061.398	-1.79
1061.82	-1.39
1062.241	-8.39
1062.663	-6.39
1063.085	-1.29
1063.506	-0.09
1063.928	-3.19
1064.35	3.21
1064.771	-7.19
1065.193	-4.19
1065.614	-1.99
1066.035	0.71
1066.457	2.01
1066.878	7.21
1067.3	-3.49
1067.721	-0.39
1068.142	1.91
1068.564	-4.19
1068.985	-3.49
1069.406	-1.79
1069.827	-0.69
1070.248	5.31
1070.67	-3.89
1071.091	-8.79
1071.512	1.71
1071.933	-3.79
1072.354	-8.19
1072.775	-2.19
1073.196	-8.19
1073.617	-3.79
1074.038	-3.89
1074.459	-6.79
1074.88	-9.79
1075.3	5.11
1075.721	-4.29
1076.142	4.21
1076.563	-3.79
1076.983	-9.89
1077.404	0.71
1077.825	-6.09
1078.246	0.51
1078.666	-8.59
1079.087	-4.59
1079.507	-3.89
1079.928	4.21
1080.348	-0.99
1080.769	-8.79
1081.189	-2.79
1081.61	0.91
1082.03	-3.89
1082.451	-1.69
1082.871	-2.89
1083.291	-5.79
1083.711	-5.89
1084.132	-3.79
1084.552	-2.79
1084.972	-5.29
1085.392	-3.59
1085.813	-8.69
1086.233	-1.59
1086.653	-0.89
1087.073	-3.49
1087.493	-4.69
1087.913	-2.99
1088.333	-4.29
1088.753	2.41
1089.173	5.01
1089.593	1.51
1090.013	-1.19
1090.433	1.01
1090.852	-0.99
1091.272	-3.59
1091.692	-4.49
1092.112	1.51
1092.531	-10.59
1092.951	-7.39
1093.371	0.31
1093.79	2.81
1094.21	0.11
1094.63	-7.29
1095.049	0.11
1095.469	0.91
1095.888	0.41
1096.308	3.11
1096.727	6.51
1097.146	-8.09
1097.566	0.31
1097.985	-4.29
1098.405	-4.39
1098.824	-5.59
1099.243	-3.49
1099.662	-4.79
1100.082	-1.69
1100.501	3.31
1100.92	-6.49
1101.339	-7.39
1101.758	-7.89
