Data from 20171114-ORNL-Ar_H_NY_Subt18_08-08-00-643.txt Node
Date: Tue Nov 14 08:08:00 EST 2017
User: Ender
Spectrometer: HR+D1039
Trigger mode: 0
Integration Time (sec): 2.730000E-2
Scans to average: 10
Electric dark correction enabled: true
Nonlinearity correction enabled: false
Boxcar width: 0
XAxis mode: Wavelengths
Number of Pixels in Spectrum: 2048
>>>>>Begin Spectral Data<<<<<
187.836	-9.53
188.309	-9.53
188.782	-9.53
189.255	-2.13
189.728	-1.82
190.201	10.27
190.674	0.07
191.147	3.97
191.619	-7.73
192.092	7.38
192.565	7.97
193.038	-0.43
193.511	-0.12
193.984	-3.93
194.456	2.77
194.929	-3.32
195.402	-3.53
195.874	0.08
196.347	-4.73
196.82	-3.43
197.292	6.88
197.765	-3.73
198.237	-8.73
198.71	-0.73
199.182	-1.43
199.655	0.88
200.127	0.27
200.6	1.48
201.072	-3.33
201.544	-1.23
202.017	3.38
202.489	5.67
202.961	1.48
203.433	-5.93
203.906	-3.42
204.378	-2.42
204.85	-2.73
205.322	-6.33
205.794	-5.93
206.266	0.17
206.739	-16.23
207.211	0.27
207.683	-5.32
208.155	-4.53
208.627	-3.23
209.099	-2.12
209.57	-5.42
210.042	-2.13
210.514	-2.73
210.986	-7.83
211.458	-2.03
211.93	0.17
212.402	-5.03
212.873	-5.43
213.345	-5.33
213.817	-10.23
214.288	-1.93
214.76	-4.83
215.232	1.88
215.703	-0.02
216.175	1.07
216.646	-2.52
217.118	-3.43
217.589	-2.23
218.061	-1.73
218.532	-6.23
219.004	0.88
219.475	3.58
219.946	-5.23
220.418	-5.52
220.889	4.27
221.36	1.58
221.832	1.57
222.303	-3.83
222.774	-2.33
223.245	-9.23
223.717	-3.03
224.188	2.27
224.659	-6.83
225.13	-3.12
225.601	-3.03
226.072	-2.23
226.543	-1.33
227.014	1.17
227.485	0.17
227.956	-8.42
228.427	-3.42
228.898	-3.52
229.369	12.57
229.839	-3.83
230.31	-3.43
230.781	1.27
231.252	-3.43
231.722	-2.53
232.193	-1.73
232.664	4.58
233.135	-2.12
233.605	1.77
234.076	-7.43
234.546	0.07
235.017	4.77
235.487	1.98
235.958	-1.02
236.428	1.98
236.899	-2.73
237.369	1.68
237.84	0.38
238.31	7.77
238.78	2.77
239.251	-2.92
239.721	3.88
240.191	4.27
240.662	0.27
241.132	0.88
241.602	0.97
242.072	3.67
242.542	5.77
243.013	1.27
243.483	-1.33
243.953	3.68
244.423	3.98
244.893	-3.12
245.363	3.07
245.833	2.88
246.303	-1.93
246.773	5.27
247.243	-1.83
247.712	1.17
248.182	8.47
248.652	8.57
249.122	-1.83
249.592	9.98
250.061	15.88
250.531	27.77
251.001	14.27
251.471	23.67
251.94	14.47
252.41	2.08
252.879	-0.33
253.349	15.47
253.818	11.77
254.288	3.68
254.757	-4.12
255.227	3.98
255.696	8.38
256.166	10.38
256.635	3.58
257.105	9.27
257.574	2.07
258.043	10.38
258.513	9.97
258.982	16.38
259.451	3.77
259.92	8.27
260.389	10.38
260.859	10.77
261.328	11.98
261.797	15.18
262.266	13.88
262.735	11.58
263.204	4.27
263.673	-0.33
264.142	3.77
264.611	-0.73
265.08	-0.53
265.549	0.27
266.018	7.18
266.487	2.37
266.955	-0.83
267.424	3.38
267.893	4.77
268.362	2.98
268.83	3.17
269.299	12.98
269.768	5.38
270.236	10.08
270.705	3.27
271.174	3.68
271.642	7.57
272.111	12.08
272.579	19.17
273.048	25.07
273.516	28.08
273.985	23.08
274.453	18.77
274.922	17.88
275.39	13.87
275.858	4.38
276.327	10.17
276.795	16.88
277.263	12.07
277.731	30.27
278.2	52.77
278.668	52.77
279.136	45.88
279.604	17.48
280.072	13.98
280.54	8.48
281.008	12.47
281.477	16.17
281.945	9.67
282.413	14.67
282.881	13.38
283.348	2.58
283.816	11.77
284.284	10.88
284.752	26.07
285.22	15.38
285.688	14.37
286.156	18.48
286.623	50.17
287.091	53.48
287.559	25.98
288.026	19.08
288.494	22.27
288.962	4.38
289.429	15.57
289.897	15.48
290.364	14.97
290.832	19.27
291.3	7.77
291.767	16.27
292.234	15.48
292.702	18.38
293.169	20.88
293.637	27.58
294.104	19.48
294.571	13.07
295.039	14.47
295.506	11.38
295.973	22.57
296.44	10.27
296.908	20.68
297.375	16.57
297.842	20.67
298.309	15.27
298.776	16.18
299.243	19.77
299.71	12.97
300.177	15.77
300.644	21.88
301.111	23.27
301.578	21.47
302.045	15.58
302.512	26.17
302.979	24.77
303.446	23.27
303.913	16.48
304.379	21.38
304.846	24.98
305.313	27.48
305.78	20.57
306.246	27.48
306.713	29.77
307.18	24.27
307.646	29.17
308.113	30.77
308.579	28.88
309.046	22.18
309.512	29.58
309.979	22.67
310.445	29.88
310.912	29.27
311.378	31.48
311.845	28.98
312.311	30.38
312.777	28.17
313.244	28.68
313.71	37.57
314.176	31.58
314.642	29.88
315.109	30.07
315.575	36.17
316.041	36.88
316.507	35.27
316.973	40.77
317.439	33.67
317.905	36.88
318.371	34.67
318.837	34.38
319.303	33.67
319.769	40.88
320.235	37.17
320.701	35.87
321.167	34.47
321.633	34.58
322.099	40.57
322.564	42.17
323.03	37.38
323.496	33.48
323.962	40.38
324.427	34.48
324.893	41.57
325.359	37.57
325.824	32.07
326.29	35.77
326.755	35.97
327.221	39.57
327.686	43.67
328.152	46.27
328.617	44.27
329.083	46.17
329.548	50.27
330.014	51.58
330.479	41.97
330.944	39.87
331.41	47.88
331.875	45.27
332.34	47.88
332.805	37.67
333.271	52.17
333.736	42.77
334.201	53.77
334.666	48.87
335.131	50.07
335.596	51.97
336.061	49.07
336.526	44.97
336.991	45.68
337.456	55.27
337.921	46.47
338.386	45.38
338.851	46.07
339.316	43.98
339.781	50.38
340.246	51.08
340.711	45.88
341.175	50.98
341.64	46.98
342.105	51.38
342.569	54.17
343.034	58.57
343.499	59.27
343.963	50.48
344.428	60.58
344.893	50.87
345.357	62.17
345.822	60.47
346.286	56.38
346.751	72.98
347.215	69.48
347.679	73.17
348.144	95.47
348.608	80.17
349.073	71.38
349.537	70.48
350.001	79.38
350.465	81.67
350.93	77.17
351.394	80.17
351.858	67.58
352.322	82.27
352.786	79.98
353.25	95.57
353.715	107.08
354.179	93.67
354.643	113.18
355.107	123.27
355.571	106.17
356.035	99.57
356.498	114.38
356.962	116.87
357.426	133.67
357.89	115.58
358.354	95.67
358.818	86.67
359.281	76.48
359.745	80.77
360.209	81.27
360.673	75.48
361.136	77.68
361.6	87.47
362.064	79.27
362.527	84.67
362.991	84.17
363.454	81.98
363.918	73.38
364.381	80.17
364.845	86.88
365.308	82.88
365.772	88.17
366.235	87.67
366.698	87.47
367.162	79.27
367.625	91.77
368.088	87.97
368.552	89.27
369.015	89.88
369.478	94.17
369.941	99.38
370.404	101.57
370.867	106.17
371.331	105.67
371.794	120.07
372.257	107.48
372.72	115.07
373.183	112.27
373.646	102.07
374.109	97.27
374.572	106.47
375.035	106.77
375.497	105.47
375.96	102.77
376.423	97.47
376.886	111.98
377.349	110.57
377.811	98.17
378.274	103.77
378.737	104.57
379.199	110.38
379.662	109.17
380.125	116.38
380.587	121.27
381.05	125.88
381.512	128.47
381.975	133.17
382.437	131.77
382.9	125.17
383.362	131.38
383.825	134.58
384.287	139.98
384.75	135.27
385.212	141.77
385.674	139.77
386.136	135.68
386.599	124.88
387.061	123.08
387.523	132.88
387.985	130.27
388.447	146.57
388.91	141.48
389.372	163.38
389.834	164.17
390.296	149.57
390.758	163.67
391.22	170.07
391.682	216.58
392.144	303.58
392.606	233.27
393.068	167.08
393.529	163.57
393.991	153.88
394.453	141.88
394.915	162.97
395.377	191.88
395.838	208.17
396.3	157.97
396.762	144.88
397.224	130.27
397.685	129.87
398.147	130.48
398.608	126.77
399.07	132.58
399.531	135.88
399.993	138.68
400.454	150.17
400.916	145.97
401.377	149.98
401.839	149.17
402.3	153.27
402.762	163.48
403.223	177.77
403.684	167.07
404.145	165.87
404.607	159.67
405.068	159.97
405.529	168.38
405.99	194.08
406.451	173.67
406.913	165.57
407.374	166.77
407.835	160.38
408.296	164.58
408.757	172.17
409.218	183.17
409.679	178.48
410.14	174.68
410.601	177.48
411.062	186.67
411.522	199.27
411.983	194.67
412.444	175.27
412.905	178.27
413.366	182.27
413.826	192.07
414.287	217.08
414.748	257.67
415.208	233.48
415.669	204.98
416.13	199.07
416.59	209.87
417.051	218.87
417.511	227.48
417.972	236.98
418.432	250.28
418.893	288.28
419.353	242.27
419.814	198.47
420.274	184.97
420.734	186.97
421.195	197.57
421.655	199.18
422.115	195.57
422.576	190.97
423.036	195.67
423.496	208.87
423.956	214.07
424.416	228.07
424.876	259.18
425.336	255.07
425.797	263.77
426.257	258.18
426.717	243.57
427.177	234.38
427.637	221.68
428.097	237.98
428.556	243.67
429.016	274.47
429.476	261.48
429.936	277.77
430.396	281.17
430.856	286.98
431.315	321.67
431.775	357.98
432.235	382.58
432.694	351.87
433.154	360.28
433.614	405.57
434.073	339.18
434.533	285.07
434.993	274.47
435.452	286.58
435.912	297.37
436.371	295.68
436.83	278.68
437.29	271.98
437.749	249.38
438.209	250.58
438.668	276.67
439.127	288.38
439.587	262.27
440.046	249.38
440.505	264.07
440.964	286.07
441.424	323.07
441.883	308.77
442.342	260.88
442.801	227.38
443.26	220.08
443.719	219.08
444.178	223.17
444.637	214.77
445.096	219.87
445.555	221.58
446.014	227.57
446.473	227.88
446.932	227.37
447.391	223.47
447.849	222.98
448.308	219.08
448.767	218.68
449.226	233.77
449.685	236.27
450.143	243.77
450.602	236.37
451.061	221.17
451.519	232.68
451.978	231.27
452.436	238.88
452.895	241.07
453.353	250.27
453.812	235.38
454.27	240.27
454.729	241.18
455.187	241.97
455.646	242.87
456.104	247.08
456.562	263.37
457.021	267.27
457.479	259.67
457.937	270.48
458.395	259.48
458.854	254.28
459.312	253.97
459.77	273.38
460.228	260.37
460.686	245.97
461.144	249.08
461.602	246.37
462.06	244.27
462.518	252.27
462.976	251.37
463.434	254.28
463.892	270.38
464.35	270.07
464.808	298.78
465.266	262.58
465.724	268.77
466.181	263.88
466.639	271.58
467.097	289.47
467.555	298.78
468.012	302.97
468.47	310.38
468.928	321.17
469.385	341.68
469.843	356.08
470.3	344.07
470.758	358.28
471.215	388.88
471.673	412.27
472.13	410.68
472.588	417.78
473.045	372.68
473.503	377.88
473.96	394.88
474.417	405.67
474.875	431.98
475.332	473.38
475.789	454.98
476.246	472.67
476.704	482.77
477.161	503.58
477.618	520.08
478.075	568.27
478.532	616.97
478.989	689.47
479.446	799.88
479.903	756.48
480.36	794.67
480.817	871.67
481.274	972.47
481.731	1060.07
482.188	1168.97
482.645	1282.78
483.102	1394.58
483.558	1520.38
484.015	1591.88
484.472	1564.58
484.929	1511.58
485.385	1456.38
485.842	1417.97
486.299	1341.27
486.755	1294.08
487.212	1075.88
487.668	919.17
488.125	841.27
488.582	773.27
489.038	743.58
489.494	696.27
489.951	682.78
490.407	666.27
490.864	643.18
491.32	634.88
491.776	639.28
492.233	636.98
492.689	603.67
493.145	604.77
493.602	596.97
494.058	600.17
494.514	618.98
494.97	629.88
495.426	652.58
495.882	606.58
496.338	604.08
496.794	612.78
497.251	609.97
497.707	626.18
498.163	633.38
498.618	632.77
499.074	634.67
499.53	667.57
499.986	662.57
500.442	639.07
500.898	615.18
501.354	616.17
501.809	625.57
502.265	644.28
502.721	663.07
503.177	668.18
503.632	660.67
504.088	673.37
504.543	715.98
504.999	703.38
505.455	650.17
505.91	617.58
506.366	622.88
506.821	622.87
507.277	621.07
507.732	619.07
508.187	617.17
508.643	633.28
509.098	629.08
509.553	641.77
510.009	656.57
510.464	665.27
510.919	679.88
511.375	686.87
511.83	696.48
512.285	720.07
512.74	752.67
513.195	770.67
513.65	752.57
514.105	760.37
514.56	752.77
515.015	778.88
515.47	794.38
515.925	773.18
516.38	774.17
516.835	784.08
517.29	776.18
517.745	771.27
518.2	751.07
518.655	741.07
519.109	730.77
519.564	728.87
520.019	715.97
520.474	708.88
520.928	716.18
521.383	701.07
521.838	707.38
522.292	704.78
522.747	693.58
523.201	701.67
523.656	690.28
524.11	690.77
524.565	693.08
525.019	678.27
525.474	692.58
525.928	692.27
526.382	685.47
526.837	691.97
527.291	699.77
527.745	687.17
528.2	690.87
528.654	682.17
529.108	677.97
529.562	674.27
530.016	675.98
530.47	680.88
530.925	685.58
531.379	698.17
531.833	702.87
532.287	696.57
532.741	683.38
533.195	700.68
533.649	711.27
534.103	709.97
534.556	703.07
535.01	690.57
535.464	695.77
535.918	718.57
536.372	713.98
536.826	712.87
537.279	692.98
537.733	701.38
538.187	705.67
538.64	713.07
539.094	700.47
539.548	719.87
540.001	720.37
540.455	708.07
540.908	714.08
541.362	728.38
541.815	740.78
542.269	748.87
542.722	750.27
543.175	756.47
543.629	761.48
544.082	766.27
544.536	780.08
544.989	776.18
545.442	784.77
545.895	776.07
546.349	789.07
546.802	791.87
547.255	787.97
547.708	788.28
548.161	802.27
548.614	807.77
549.067	819.78
549.52	807.17
549.973	802.27
550.426	798.67
550.879	794.88
551.332	796.68
551.785	795.17
552.238	802.77
552.691	810.77
553.144	818.98
553.596	842.48
554.049	846.08
554.502	878.58
554.955	902.17
555.407	898.97
555.86	884.88
556.313	878.28
556.765	880.37
557.218	870.57
557.67	861.57
558.123	864.37
558.576	850.08
559.028	874.27
559.48	870.18
559.933	865.47
560.385	832.77
560.838	806.17
561.29	775.58
561.742	769.88
562.195	756.38
562.647	758.88
563.099	772.98
563.551	769.38
564.004	770.27
564.456	768.57
564.908	755.48
565.36	734.38
565.812	725.37
566.264	719.68
566.716	719.77
567.168	710.27
567.62	720.68
568.072	696.28
568.524	691.48
568.976	690.57
569.428	672.28
569.88	671.67
570.332	682.07
570.784	681.87
571.235	679.48
571.687	681.38
572.139	699.37
572.59	703.67
573.042	700.37
573.494	709.27
573.945	696.37
574.397	678.58
574.849	680.97
575.3	691.88
575.752	676.08
576.203	674.77
576.655	672.37
577.106	669.97
577.557	662.98
578.009	669.18
578.46	665.18
578.912	655.07
579.363	663.28
579.814	663.07
580.265	665.18
580.717	669.08
581.168	659.97
581.619	677.88
582.07	673.88
582.521	676.17
582.972	663.57
583.423	676.77
583.875	680.97
584.326	709.77
584.777	752.18
585.227	825.97
585.678	924.97
586.129	1009.68
586.58	1090.08
587.031	1174.57
587.482	1323.67
587.933	1513.57
588.384	1314.38
588.834	972.07
589.285	800.98
589.736	780.88
590.186	783.48
590.637	762.47
591.088	746.88
591.538	728.78
591.989	720.78
592.439	712.48
592.89	715.57
593.34	703.38
593.791	713.67
594.241	708.37
594.692	705.88
595.142	691.08
595.593	703.08
596.043	714.18
596.493	710.88
596.943	710.18
597.394	722.88
597.844	715.58
598.294	738.27
598.744	752.27
599.195	775.88
599.645	814.38
600.095	855.07
600.545	917.37
600.995	954.57
601.445	1008.37
601.895	1074.98
602.345	1130.67
602.795	1107.88
603.245	1052.88
603.695	997.78
604.145	944.78
604.594	905.77
605.044	843.27
605.494	793.98
605.944	747.47
606.393	737.07
606.843	723.08
607.293	726.77
607.743	733.58
608.192	750.07
608.642	753.67
609.091	770.27
609.541	766.58
609.99	766.27
610.44	762.07
610.889	713.57
611.339	697.37
611.788	683.18
612.238	691.27
612.687	707.98
613.136	726.78
613.586	743.98
614.035	736.98
614.484	752.88
614.933	759.67
615.383	745.78
615.832	739.18
616.281	723.98
616.73	688.28
617.179	662.87
617.628	648.98
618.077	632.77
618.526	625.87
618.975	623.07
619.424	618.17
619.873	609.98
620.322	614.88
620.771	610.58
621.22	595.87
621.669	604.98
622.118	586.18
622.567	576.07
623.015	572.47
623.464	572.08
623.913	559.27
624.361	553.37
624.81	550.47
625.259	549.48
625.707	552.38
626.156	550.77
626.604	563.77
627.053	559.87
627.501	567.37
627.95	569.27
628.398	580.27
628.847	570.07
629.295	566.08
629.744	565.87
630.192	565.57
630.64	566.27
631.089	570.57
631.537	576.78
631.985	588.78
632.433	612.38
632.881	612.18
633.33	674.87
633.778	656.77
634.226	565.77
634.674	576.98
635.122	580.18
635.57	590.37
636.018	629.47
636.466	586.97
636.914	557.97
637.362	562.98
637.81	576.98
638.258	575.18
638.705	582.67
639.153	609.67
639.601	610.27
640.049	644.37
640.497	685.57
640.944	701.07
641.392	644.17
641.84	608.27
642.287	581.67
642.735	566.37
643.182	571.77
643.63	582.77
644.078	567.57
644.525	594.87
644.973	600.77
645.42	599.87
645.867	621.17
646.315	637.27
646.762	666.98
647.21	698.98
647.657	719.98
648.104	754.97
648.551	763.97
648.999	829.58
649.446	911.08
649.893	1012.28
650.34	1169.97
650.787	1409.38
651.234	1735.18
651.682	2306.18
652.129	3159.78
652.576	4562.68
653.023	6716.07
653.47	9177.27
653.917	11358.17
654.363	13093.98
654.81	14349.67
655.257	13651.98
655.704	8955.87
656.151	5283.47
656.598	3404.98
657.044	2423.88
657.491	1866.28
657.938	1499.97
658.385	1245.78
658.831	1081.27
659.278	967.27
659.724	857.57
660.171	787.98
660.618	730.77
661.064	685.38
661.511	670.38
661.957	657.87
662.404	637.47
662.85	653.07
663.296	627.88
663.743	561.37
664.189	547.27
664.635	536.77
665.082	530.77
665.528	534.07
665.974	526.27
666.42	504.07
666.867	501.17
667.313	495.38
667.759	481.48
668.205	482.57
668.651	486.38
669.097	489.17
669.543	505.07
669.989	472.77
670.435	455.57
670.881	442.98
671.327	446.88
671.773	472.77
672.219	488.27
672.665	542.48
673.11	585.87
673.556	627.88
674.002	663.17
674.448	649.67
674.893	541.88
675.339	467.07
675.785	438.97
676.23	421.68
676.676	397.88
677.122	384.77
677.567	374.67
678.013	364.67
678.458	352.47
678.904	362.38
679.349	346.97
679.794	355.17
680.24	349.37
680.685	347.17
681.131	350.47
681.576	356.77
682.021	349.28
682.466	342.87
682.912	350.07
683.357	352.58
683.802	381.48
684.247	421.98
684.692	451.27
685.137	486.38
685.583	530.67
686.028	552.87
686.473	511.98
686.918	440.67
687.363	414.37
687.807	390.48
688.252	360.87
688.697	349.68
689.142	339.08
689.587	336.48
690.032	327.07
690.477	341.37
690.921	354.37
691.366	385.47
691.811	407.68
692.255	427.88
692.7	465.88
693.145	509.27
693.589	703.57
694.034	1135.08
694.478	1539.58
694.923	1715.18
695.367	2211.78
695.812	1177.88
696.256	495.48
696.701	372.68
697.145	340.17
697.59	330.98
698.034	320.48
698.478	333.38
698.922	326.98
699.367	330.17
699.811	339.97
700.255	353.07
700.699	392.08
701.143	428.88
701.588	474.57
702.032	509.47
702.476	512.57
702.92	490.88
703.364	490.07
703.808	639.17
704.252	1046.47
704.696	1458.28
705.14	1654.68
705.584	2086.48
706.027	1058.87
706.471	512.67
706.915	398.68
707.359	354.77
707.803	329.07
708.246	308.88
708.69	313.48
709.134	318.88
709.577	317.97
710.021	321.68
710.465	309.77
710.908	306.97
711.352	296.47
711.795	313.57
712.239	347.08
712.682	384.48
713.126	411.07
713.569	463.47
714.012	374.88
714.456	334.98
714.899	299.28
715.342	277.38
715.786	268.47
716.229	263.37
716.672	256.67
717.115	254.38
717.558	246.07
718.002	254.18
718.445	268.38
718.888	292.98
719.331	289.98
719.774	311.27
720.217	303.47
720.66	288.18
721.103	269.98
721.546	259.68
721.989	246.37
722.432	237.58
722.874	232.27
723.317	233.67
723.76	242.58
724.203	257.37
724.645	323.28
725.088	447.87
725.531	568.07
725.974	632.37
726.416	543.37
726.859	303.68
727.301	245.28
727.744	243.68
728.187	225.27
728.629	232.27
729.071	243.78
729.514	259.77
729.956	275.18
730.399	290.38
730.841	286.37
731.283	272.57
731.726	276.18
732.168	262.67
732.61	270.77
733.053	279.88
733.495	309.77
733.937	353.18
734.379	404.17
734.821	430.47
735.263	541.77
735.705	859.88
736.148	1614.78
736.59	2574.77
737.032	2989.07
737.474	2425.77
737.916	800.78
738.357	435.58
738.799	322.67
739.241	294.77
739.683	278.27
740.125	288.27
740.567	299.47
741.008	321.87
741.45	316.58
741.892	319.38
742.334	350.38
742.775	347.07
743.217	334.17
743.658	277.57
744.1	257.57
744.542	267.58
744.983	315.58
745.425	335.68
745.866	343.17
746.307	285.97
746.749	288.08
747.19	329.68
747.632	468.27
748.073	901.18
748.514	1895.98
748.956	2845.58
749.397	3555.67
749.838	2942.57
750.279	2911.47
750.72	1483.98
751.162	555.08
751.603	318.37
752.044	247.68
752.485	219.78
752.926	210.77
753.367	200.37
753.808	192.87
754.249	193.27
754.69	191.77
755.131	183.48
755.572	187.07
756.013	178.67
756.453	180.17
756.894	195.48
757.335	194.77
757.776	195.77
758.216	202.27
758.657	206.18
759.098	205.38
759.538	222.17
759.979	268.57
760.42	377.17
760.86	722.27
761.301	1879.38
761.741	4458.48
762.182	6270.88
762.622	4407.68
763.063	1291.38
763.503	547.98
763.943	345.77
764.384	358.77
764.824	415.98
765.264	445.77
765.705	305.57
766.145	216.27
766.585	195.17
767.025	185.37
767.465	195.27
767.906	250.17
768.346	333.48
768.786	343.27
769.226	266.28
769.666	326.37
770.106	640.07
770.546	1594.98
770.986	2608.18
771.426	2308.38
771.866	782.18
772.306	326.97
772.745	210.27
773.185	185.27
773.625	171.98
774.065	167.88
774.505	198.17
774.944	320.77
775.384	701.37
775.824	1233.88
776.263	1194.38
776.703	503.37
777.142	228.38
777.582	154.87
778.021	140.77
778.461	133.38
778.9	142.77
779.34	137.58
779.779	116.77
780.219	117.18
780.658	105.27
781.097	108.38
781.537	119.07
781.976	114.97
782.415	107.37
782.855	108.67
783.294	102.08
783.733	106.88
784.172	118.17
784.611	101.17
785.05	116.07
785.489	117.27
785.928	118.27
786.367	120.77
786.806	121.67
787.245	128.27
787.684	138.27
788.123	154.67
788.562	128.98
789.001	122.77
789.44	121.38
789.879	124.47
790.317	122.88
790.756	132.58
791.195	126.38
791.634	140.98
792.072	202.77
792.511	381.18
792.95	1035.07
793.388	2116.28
793.827	1891.28
794.265	673.77
794.704	280.67
795.142	180.98
795.581	158.27
796.019	135.77
796.458	127.38
796.896	116.08
797.334	132.88
797.773	165.07
798.211	227.88
798.649	451.98
799.087	1033.67
799.526	1599.38
799.964	2005.47
800.402	1963.48
800.84	752.17
801.278	305.47
801.716	190.88
802.154	156.67
802.592	148.58
803.03	135.27
803.468	138.98
803.906	142.88
804.344	145.98
804.782	144.48
805.22	132.97
805.658	129.67
806.096	153.18
806.533	158.57
806.971	172.97
807.409	222.57
807.847	323.07
808.284	688.77
808.722	1900.88
809.16	3246.48
809.597	3150.98
810.035	5372.18
810.472	5571.48
810.91	2051.58
811.347	790.57
811.785	407.48
812.222	259.07
812.66	197.27
813.097	162.17
813.535	140.57
813.972	132.58
814.409	120.77
814.846	112.77
815.284	112.67
815.721	104.27
816.158	110.77
816.595	129.88
817.032	177.17
817.47	198.57
817.907	161.48
818.344	156.27
818.781	121.27
819.218	101.17
819.655	126.48
820.092	185.27
820.529	211.77
820.966	173.77
821.403	134.67
821.839	104.38
822.276	102.08
822.713	118.77
823.15	135.18
823.587	110.38
824.023	151.88
824.46	309.88
824.897	908.08
825.333	1318.58
825.77	566.17
826.206	229.57
826.643	137.77
827.08	100.27
827.516	83.58
827.953	77.17
828.389	83.17
828.825	70.07
829.262	65.77
829.698	64.27
830.135	69.67
830.571	60.37
831.007	64.27
831.443	65.17
831.88	70.88
832.316	60.38
832.752	56.67
833.188	62.48
833.624	62.48
834.06	69.48
834.497	73.77
834.933	69.38
835.369	72.38
835.805	70.38
836.241	81.97
836.677	76.18
837.112	92.67
837.548	101.98
837.984	135.67
838.42	200.27
838.856	504.17
839.292	1526.88
839.727	2241.98
840.163	1057.28
840.599	934.67
841.034	2020.78
841.47	2063.88
841.906	759.38
842.341	326.47
842.777	230.27
843.212	322.77
843.648	311.77
844.083	161.37
844.519	96.77
844.954	77.88
845.39	60.38
845.825	64.67
846.261	61.18
846.696	53.48
847.131	56.48
847.566	59.07
848.002	53.27
848.437	58.38
848.872	66.58
849.307	59.27
849.742	87.18
850.177	191.08
850.613	570.38
851.048	858.18
851.483	373.77
851.918	156.97
852.353	88.17
852.788	71.57
853.223	61.97
853.657	60.87
854.092	46.27
854.527	43.27
854.962	43.27
855.397	45.17
855.832	47.17
856.266	42.27
856.701	44.08
857.136	43.67
857.57	43.38
858.005	51.38
858.44	57.17
858.874	44.18
859.309	58.18
859.743	49.97
860.178	51.77
860.612	45.47
861.047	54.38
861.481	67.38
861.915	66.18
862.35	53.98
862.784	38.87
863.218	36.48
863.653	38.27
864.087	42.57
864.521	57.27
864.955	65.27
865.39	154.97
865.824	168.27
866.258	107.38
866.692	165.88
867.126	168.88
867.56	103.17
867.994	51.77
868.428	41.48
868.862	41.77
869.296	56.18
869.73	61.77
870.164	55.67
870.598	51.48
871.031	42.47
871.465	33.57
871.899	32.48
872.333	26.27
872.766	27.88
873.2	27.97
873.634	29.58
874.067	32.57
874.501	23.77
874.935	34.77
875.368	33.57
875.802	32.57
876.235	28.47
876.669	27.38
877.102	19.08
877.535	20.98
877.969	28.77
878.402	26.27
878.836	23.07
879.269	29.18
879.702	24.97
880.135	22.17
880.569	27.57
881.002	33.08
881.435	19.07
881.868	16.57
882.301	20.48
882.734	14.97
883.167	22.48
883.601	17.27
884.034	22.67
884.467	12.48
884.899	23.77
885.332	14.98
885.765	19.08
886.198	14.17
886.631	21.37
887.064	18.48
887.497	20.97
887.929	28.88
888.362	17.48
888.795	14.77
889.228	15.48
889.66	24.88
890.093	15.47
890.526	18.37
890.958	16.98
891.391	17.88
891.823	24.88
892.256	18.38
892.688	11.57
893.121	19.48
893.553	21.07
893.985	25.07
894.418	26.37
894.85	12.27
895.282	18.97
895.715	17.88
896.147	16.98
896.579	21.97
897.011	11.68
897.444	16.98
897.876	11.38
898.308	16.07
898.74	12.38
899.172	14.77
899.604	22.58
900.036	21.97
900.468	19.07
900.9	16.97
901.332	18.57
901.764	13.07
902.196	18.18
902.628	20.57
903.06	19.07
903.491	27.88
903.923	24.27
904.355	19.88
904.787	25.77
905.218	25.38
905.65	22.88
906.082	17.77
906.513	11.47
906.945	22.88
907.376	16.67
907.808	21.57
908.239	23.08
908.671	23.17
909.102	28.08
909.534	27.27
909.965	48.17
910.397	94.07
910.828	318.97
911.259	477.38
911.691	218.47
912.122	113.27
912.553	47.17
912.984	34.27
913.415	20.38
913.847	28.77
914.278	8.88
914.709	19.97
915.14	19.77
915.571	19.57
916.002	17.48
916.433	17.08
916.864	19.88
917.295	13.38
917.726	23.17
918.157	21.07
918.587	33.38
919.018	22.48
919.449	18.48
919.88	26.87
920.311	29.67
920.741	56.57
921.172	167.98
921.603	145.77
922.033	74.88
922.464	45.98
922.895	22.37
923.325	25.58
923.756	11.97
924.186	20.98
924.617	25.88
925.047	38.27
925.478	59.77
925.908	43.48
926.338	25.38
926.769	21.18
927.199	20.77
927.629	11.88
928.06	20.17
928.49	13.18
928.92	14.07
929.35	14.88
929.78	16.17
930.21	14.97
930.641	10.48
931.071	11.27
931.501	7.48
931.931	8.58
932.361	10.17
932.791	8.48
933.221	14.67
933.651	8.18
934.08	18.07
934.51	29.27
934.94	12.88
935.37	10.88
935.8	19.77
936.229	6.97
936.659	5.47
937.089	8.98
937.519	14.48
937.948	22.17
938.378	18.58
938.807	9.57
939.237	6.77
939.666	8.77
940.096	5.27
940.525	1.77
940.955	8.27
941.384	3.08
941.814	-0.43
942.243	-2.12
942.672	6.27
943.102	8.08
943.531	4.88
943.96	5.07
944.39	7.57
944.819	7.47
945.248	1.98
945.677	3.17
946.106	6.48
946.535	10.77
946.964	6.48
947.393	-0.73
947.822	3.18
948.251	-4.53
948.68	5.48
949.109	5.17
949.538	10.98
949.967	6.57
950.396	-1.93
950.825	4.17
951.254	-0.12
951.682	-6.03
952.111	6.77
952.54	4.67
952.969	1.57
953.397	-1.33
953.826	2.67
954.254	0.38
954.683	3.47
955.112	2.17
955.54	4.38
955.969	1.88
956.397	2.08
956.826	-1.33
957.254	6.38
957.682	-2.83
958.111	8.67
958.539	-3.23
958.967	1.58
959.396	4.07
959.824	2.88
960.252	2.27
960.68	-2.03
961.109	3.17
961.537	0.98
961.965	0.47
962.393	6.58
962.821	0.18
963.249	2.27
963.677	5.38
964.105	5.88
964.533	45.18
964.961	43.77
965.389	20.48
965.817	10.77
966.245	5.38
966.672	1.18
967.1	-7.32
967.528	1.17
967.956	-0.32
968.383	0.67
968.811	3.17
969.239	-0.63
969.666	-6.02
970.094	-0.33
970.522	4.98
970.949	4.17
971.377	-3.92
971.804	1.88
972.232	-0.02
972.659	-0.92
973.087	0.47
973.514	-2.13
973.941	-9.43
974.369	3.67
974.796	2.77
975.223	4.57
975.651	1.27
976.078	6.98
976.505	2.07
976.932	5.57
977.359	19.67
977.786	18.38
978.214	4.67
978.641	-0.93
979.068	-0.33
979.495	-6.12
979.922	-2.03
980.349	-1.43
980.776	-1.33
981.202	-2.33
981.629	1.27
982.056	6.47
982.483	2.38
982.91	3.17
983.337	-3.23
983.763	6.47
984.19	0.97
984.617	-1.12
985.043	-2.43
985.47	0.17
985.897	2.58
986.323	-2.12
986.75	0.88
987.176	1.07
987.603	1.27
988.029	4.67
988.456	-0.23
988.882	4.88
989.308	-6.73
989.735	-3.03
990.161	2.98
990.587	-6.13
991.014	1.17
991.44	3.38
991.866	0.77
992.292	-9.02
992.719	1.17
993.145	3.88
993.571	-1.62
993.997	0.48
994.423	3.88
994.849	-4.93
995.275	-0.23
995.701	3.67
996.127	-1.93
996.553	8.98
996.979	3.17
997.405	-0.12
997.83	-7.53
998.256	-2.63
998.682	-1.12
999.108	-7.63
999.534	1.17
999.959	-1.43
1000.385	-4.33
1000.811	-2.83
1001.236	-11.03
1001.662	-8.83
1002.087	-5.32
1002.513	0.77
1002.938	-0.73
1003.364	1.08
1003.789	-1.73
1004.215	2.58
1004.64	0.38
1005.066	4.48
1005.491	-1.12
1005.916	-2.63
1006.342	-0.32
1006.767	-5.62
1007.192	6.38
1007.617	-4.03
1008.042	-0.83
1008.468	-4.93
1008.893	-2.73
1009.318	-0.12
1009.743	-3.03
1010.168	6.07
1010.593	0.48
1011.018	-5.23
1011.443	-1.33
1011.868	2.18
1012.293	-3.42
1012.718	-2.42
1013.143	1.47
1013.567	1.77
1013.992	-1.52
1014.417	-10.73
1014.842	7.57
1015.267	-0.83
1015.691	-3.62
1016.116	1.17
1016.541	-1.33
1016.965	3.87
1017.39	5.27
1017.814	-2.82
1018.239	1.77
1018.663	-2.73
1019.088	-9.73
1019.512	-4.12
1019.937	0.27
1020.361	-0.12
1020.785	-7.93
1021.21	-1.33
1021.634	-4.02
1022.058	-2.12
1022.483	-1.23
1022.907	-2.53
1023.331	-6.02
1023.755	-4.73
1024.179	2.07
1024.604	-7.62
1025.028	-6.93
1025.452	-6.03
1025.876	0.97
1026.3	-0.23
1026.724	-9.73
1027.148	-3.23
1027.572	-8.52
1027.996	-0.02
1028.42	0.87
1028.843	0.07
1029.267	-1.53
1029.691	0.77
1030.115	-2.43
1030.539	-12.03
1030.962	-8.83
1031.386	-9.02
1031.81	4.27
1032.233	-1.33
1032.657	0.08
1033.08	-0.23
1033.504	-7.13
1033.927	-6.23
1034.351	2.58
1034.774	0.38
1035.198	-4.12
1035.621	-0.62
1036.045	-8.03
1036.468	-2.33
1036.891	-4.12
1037.315	-6.23
1037.738	-8.42
1038.161	4.37
1038.584	-6.12
1039.008	-3.73
1039.431	-6.33
1039.854	-4.43
1040.277	-4.62
1040.7	-12.23
1041.123	2.97
1041.546	-5.02
1041.969	-5.23
1042.392	-2.43
1042.815	0.87
1043.238	5.38
1043.661	2.07
1044.084	-1.83
1044.507	-2.83
1044.93	-10.73
1045.352	-1.12
1045.775	-4.33
1046.198	-0.83
1046.621	-3.73
1047.043	5.58
1047.466	7.48
1047.889	0.38
1048.311	-3.83
1048.734	0.27
1049.156	-4.42
1049.579	-3.83
1050.001	-3.23
1050.424	-2.63
1050.846	0.38
1051.269	-7.42
1051.691	-3.42
1052.113	-6.83
1052.536	7.98
1052.958	-1.52
1053.38	-3.33
1053.802	-5.33
1054.225	1.38
1054.647	-3.52
1055.069	-8.23
1055.491	3.88
1055.913	-6.73
1056.335	-0.83
1056.757	-0.92
1057.179	-10.93
1057.601	-6.92
1058.023	-3.73
1058.445	-1.23
1058.867	-3.23
1059.289	-0.73
1059.711	-4.62
1060.133	0.27
1060.555	-5.03
1060.976	-6.03
1061.398	-0.43
1061.82	-4.73
1062.241	-6.63
1062.663	-6.12
1063.085	-5.43
1063.506	0.38
1063.928	-7.93
1064.35	0.17
1064.771	-8.63
1065.193	-0.83
1065.614	-9.62
1066.035	-2.52
1066.457	-1.33
1066.878	1.27
1067.3	-4.43
1067.721	-3.83
1068.142	-3.63
1068.564	0.88
1068.985	-3.33
1069.406	-12.73
1069.827	-3.02
1070.248	2.67
1070.67	-1.62
1071.091	-5.82
1071.512	-0.23
1071.933	-5.03
1072.354	-13.12
1072.775	-4.42
1073.196	-7.23
1073.617	1.87
1074.038	-4.83
1074.459	-2.82
1074.88	-5.02
1075.3	1.57
1075.721	-3.03
1076.142	0.38
1076.563	-2.03
1076.983	-9.52
1077.404	-5.23
1077.825	-8.52
1078.246	-1.73
1078.666	-6.73
1079.087	-2.23
1079.507	-7.63
1079.928	1.57
1080.348	1.88
1080.769	-4.83
1081.189	-4.23
1081.61	-1.33
1082.03	-1.02
1082.451	-5.02
1082.871	-1.52
1083.291	-3.83
1083.711	-8.73
1084.132	-5.52
1084.552	-2.83
1084.972	-1.52
1085.392	-6.03
1085.813	-8.73
1086.233	-8.93
1086.653	-2.73
1087.073	1.38
1087.493	-11.43
1087.913	-5.53
1088.333	-5.12
1088.753	-3.93
1089.173	2.37
1089.593	-3.73
1090.013	-1.62
1090.433	2.27
1090.852	-0.02
1091.272	-1.93
1091.692	-3.52
1092.112	-6.93
1092.531	-8.43
1092.951	-13.92
1093.371	-2.93
1093.79	1.18
1094.21	-6.52
1094.63	-10.33
1095.049	-1.73
1095.469	-0.02
1095.888	-5.62
1096.308	7.38
1096.727	5.17
1097.146	-1.12
1097.566	-2.33
1097.985	-6.73
1098.405	-5.32
1098.824	-8.93
1099.243	-6.92
1099.662	-5.33
1100.082	0.77
1100.501	2.47
1100.92	-0.12
1101.339	-0.63
1101.758	-7.82
