Data from 20171114-ORNL-Ar_H_NY_Subt18_08-09-06-490.txt Node
Date: Tue Nov 14 08:09:06 EST 2017
User: Ender
Spectrometer: HR+D1039
Trigger mode: 0
Integration Time (sec): 2.730000E-2
Scans to average: 10
Electric dark correction enabled: true
Nonlinearity correction enabled: false
Boxcar width: 0
XAxis mode: Wavelengths
Number of Pixels in Spectrum: 2048
>>>>>Begin Spectral Data<<<<<
187.836	-4.53
188.309	-4.53
188.782	-4.53
189.255	1.27
189.728	1.17
190.201	4.77
190.674	-0.63
191.147	3.17
191.619	-7.63
192.092	4.17
192.565	5.07
193.038	1.47
193.511	2.27
193.984	0.77
194.456	-3.23
194.929	0.37
195.402	-4.93
195.874	-3.63
196.347	0.67
196.82	-6.33
197.292	5.37
197.765	-2.43
198.237	0.07
198.71	3.07
199.182	-4.03
199.655	4.27
200.127	2.27
200.6	2.97
201.072	-3.23
201.544	-3.63
202.017	-4.13
202.489	-2.13
202.961	-0.83
203.433	-1.03
203.906	-2.53
204.378	-7.83
204.85	-4.23
205.322	-11.43
205.794	0.07
206.266	-2.93
206.739	-4.53
207.211	-3.63
207.683	-5.83
208.155	-11.83
208.627	-9.03
209.099	-6.13
209.57	-6.63
210.042	-6.73
210.514	-5.33
210.986	-2.43
211.458	-2.93
211.93	-4.13
212.402	3.67
212.873	-0.93
213.345	-9.33
213.817	-12.43
214.288	-2.83
214.76	-12.23
215.232	-5.73
215.703	-2.13
216.175	-3.93
216.646	-5.63
217.118	-12.83
217.589	-4.13
218.061	-6.53
218.532	-3.93
219.004	-1.13
219.475	-2.33
219.946	-10.63
220.418	-8.13
220.889	-1.53
221.36	-0.03
221.832	-2.63
222.303	-8.83
222.774	5.27
223.245	-6.13
223.717	-3.53
224.188	-8.13
224.659	-10.83
225.13	-7.23
225.601	2.07
226.072	0.37
226.543	0.77
227.014	-0.63
227.485	-10.63
227.956	-6.23
228.427	-2.93
228.898	-0.93
229.369	2.67
229.839	-1.73
230.31	-6.63
230.781	1.07
231.252	-7.93
231.722	-6.93
232.193	-4.13
232.664	-4.23
233.135	-1.33
233.605	0.27
234.076	-4.93
234.546	-5.13
235.017	3.07
235.487	1.07
235.958	-0.13
236.428	-6.23
236.899	0.27
237.369	-5.83
237.84	-9.73
238.31	0.47
238.78	1.67
239.251	-2.03
239.721	-3.93
240.191	-5.93
240.662	-4.63
241.132	-0.23
241.602	-3.93
242.072	-2.03
242.542	0.47
243.013	1.17
243.483	0.97
243.953	-1.53
244.423	-4.93
244.893	-3.83
245.363	-1.83
245.833	-4.73
246.303	-4.03
246.773	1.67
247.243	2.07
247.712	1.17
248.182	-3.23
248.652	-0.03
249.122	-10.33
249.592	-6.63
250.061	3.37
250.531	5.07
251.001	-4.73
251.471	0.77
251.94	7.67
252.41	-1.53
252.879	-4.33
253.349	10.87
253.818	9.67
254.288	5.17
254.757	-1.93
255.227	1.37
255.696	-0.93
256.166	-0.33
256.635	0.97
257.105	-0.53
257.574	-2.73
258.043	-3.53
258.513	-5.93
258.982	2.67
259.451	-6.33
259.92	1.67
260.389	-7.73
260.859	9.07
261.328	-0.03
261.797	2.97
262.266	-3.63
262.735	6.57
263.204	-1.03
263.673	-2.23
264.142	0.77
264.611	-8.33
265.08	-5.03
265.549	-1.73
266.018	-3.33
266.487	-0.23
266.955	-4.63
267.424	-4.93
267.893	0.57
268.362	0.37
268.83	-0.83
269.299	5.47
269.768	1.47
270.236	1.27
270.705	-3.73
271.174	-1.73
271.642	-2.73
272.111	1.47
272.579	-1.93
273.048	-3.53
273.516	1.87
273.985	0.57
274.453	6.17
274.922	8.17
275.39	-0.63
275.858	0.57
276.327	7.47
276.795	6.07
277.263	0.17
277.731	11.97
278.2	1.47
278.668	1.77
279.136	1.17
279.604	1.87
280.072	0.77
280.54	5.57
281.008	1.97
281.477	6.77
281.945	2.57
282.413	6.97
282.881	-1.13
283.348	-3.93
283.816	11.37
284.284	2.87
284.752	17.87
285.22	13.07
285.688	7.77
286.156	3.97
286.623	12.37
287.091	5.87
287.559	6.37
288.026	2.27
288.494	7.27
288.962	-4.23
289.429	-0.23
289.897	14.67
290.364	6.37
290.832	6.27
291.3	12.17
291.767	6.27
292.234	10.77
292.702	6.27
293.169	8.97
293.637	12.17
294.104	12.37
294.571	3.67
295.039	6.97
295.506	7.97
295.973	7.87
296.44	6.17
296.908	-2.03
297.375	6.17
297.842	12.27
298.309	6.97
298.776	7.07
299.243	3.87
299.71	2.97
300.177	12.07
300.644	12.87
301.111	8.97
301.578	10.47
302.045	7.87
302.512	20.07
302.979	15.37
303.446	9.67
303.913	14.57
304.379	9.57
304.846	19.57
305.313	15.57
305.78	18.37
306.246	14.77
306.713	16.87
307.18	16.67
307.646	14.87
308.113	20.77
308.579	10.77
309.046	18.17
309.512	13.87
309.979	7.87
310.445	20.87
310.912	23.27
311.378	28.37
311.845	17.97
312.311	18.97
312.777	21.77
313.244	22.17
313.71	31.37
314.176	17.47
314.642	14.87
315.109	20.57
315.575	24.27
316.041	23.77
316.507	16.57
316.973	24.67
317.439	21.97
317.905	23.07
318.371	25.57
318.837	23.77
319.303	21.27
319.769	20.87
320.235	20.47
320.701	23.57
321.167	25.67
321.633	24.17
322.099	26.87
322.564	30.97
323.03	28.27
323.496	25.87
323.962	29.17
324.427	26.17
324.893	31.77
325.359	32.27
325.824	26.87
326.29	26.47
326.755	29.47
327.221	26.17
327.686	30.77
328.152	36.87
328.617	26.57
329.083	39.47
329.548	34.07
330.014	30.77
330.479	28.07
330.944	27.27
331.41	32.97
331.875	31.47
332.34	29.37
332.805	24.67
333.271	34.37
333.736	21.87
334.201	40.57
334.666	37.77
335.131	37.17
335.596	40.37
336.061	43.07
336.526	28.27
336.991	35.57
337.456	42.27
337.921	35.97
338.386	30.77
338.851	30.87
339.316	31.97
339.781	39.17
340.246	43.27
340.711	43.97
341.175	45.87
341.64	35.47
342.105	39.57
342.569	42.57
343.034	42.47
343.499	47.77
343.963	38.07
344.428	54.27
344.893	46.37
345.357	51.27
345.822	49.47
346.286	49.07
346.751	56.57
347.215	50.67
347.679	54.37
348.144	74.57
348.608	64.57
349.073	56.37
349.537	61.17
350.001	61.77
350.465	63.47
350.93	66.37
351.394	61.87
351.858	57.47
352.322	64.17
352.786	67.57
353.25	77.47
353.715	83.27
354.179	77.17
354.643	86.27
355.107	91.57
355.571	79.17
356.035	78.87
356.498	82.77
356.962	88.07
357.426	101.17
357.89	85.27
358.354	68.27
358.818	61.67
359.281	62.57
359.745	59.17
360.209	58.27
360.673	58.97
361.136	64.97
361.6	72.07
362.064	67.77
362.527	66.27
362.991	66.57
363.454	68.27
363.918	63.87
364.381	63.67
364.845	65.47
365.308	70.27
365.772	79.07
366.235	71.47
366.698	67.27
367.162	68.67
367.625	71.67
368.088	70.17
368.552	69.67
369.015	67.27
369.478	81.17
369.941	83.87
370.404	71.37
370.867	84.47
371.331	84.17
371.794	88.77
372.257	78.57
372.72	82.77
373.183	87.57
373.646	79.27
374.109	78.87
374.572	82.47
375.035	82.17
375.497	89.47
375.96	91.57
376.423	83.37
376.886	98.57
377.349	89.77
377.811	92.37
378.274	95.37
378.737	91.47
379.199	88.77
379.662	88.67
380.125	97.27
380.587	91.57
381.05	95.27
381.512	103.77
381.975	108.27
382.437	106.97
382.9	99.77
383.362	108.27
383.825	111.67
384.287	112.57
384.75	101.47
385.212	109.67
385.674	118.17
386.136	113.97
386.599	102.47
387.061	112.77
387.523	111.47
387.985	117.17
388.447	112.67
388.91	108.87
389.372	107.97
389.834	114.57
390.296	106.77
390.758	116.17
391.22	128.37
391.682	130.57
392.144	136.97
392.606	124.97
393.068	126.77
393.529	136.57
393.991	120.37
394.453	118.17
394.915	119.87
395.377	121.67
395.838	125.07
396.3	117.87
396.762	129.27
397.224	126.87
397.685	126.27
398.147	115.67
398.608	125.07
399.07	121.67
399.531	124.97
399.993	136.97
400.454	144.67
400.916	138.27
401.377	132.37
401.839	134.17
402.3	142.67
402.762	152.07
403.223	162.97
403.684	155.67
404.145	141.97
404.607	144.77
405.068	149.77
405.529	148.77
405.99	166.87
406.451	158.57
406.913	165.07
407.374	156.57
407.835	147.77
408.296	150.77
408.757	163.17
409.218	174.67
409.679	173.97
410.14	162.77
410.601	159.67
411.062	168.07
411.522	168.97
411.983	167.17
412.444	168.77
412.905	170.57
413.366	174.87
413.826	190.07
414.287	210.17
414.748	254.37
415.208	237.77
415.669	210.27
416.13	202.07
416.59	196.17
417.051	202.77
417.511	212.37
417.972	226.97
418.432	235.37
418.893	274.67
419.353	245.07
419.814	193.27
420.274	173.87
420.734	175.67
421.195	185.07
421.655	186.87
422.115	182.77
422.576	188.17
423.036	184.87
423.496	199.87
423.956	211.57
424.416	224.27
424.876	254.67
425.336	247.07
425.797	249.27
426.257	241.07
426.717	233.67
427.177	223.07
427.637	216.77
428.097	221.17
428.556	230.17
429.016	253.97
429.476	246.37
429.936	259.07
430.396	255.77
430.856	277.07
431.315	293.97
431.775	328.37
432.235	348.57
432.694	325.87
433.154	330.87
433.614	365.67
434.073	317.87
434.533	267.57
434.993	254.37
435.452	264.57
435.912	274.47
436.371	270.77
436.83	265.97
437.29	250.37
437.749	234.17
438.209	235.57
438.668	258.87
439.127	271.67
439.587	254.57
440.046	238.07
440.505	249.47
440.964	269.37
441.424	304.37
441.883	296.57
442.342	247.87
442.801	215.37
443.26	221.67
443.719	217.27
444.178	220.17
444.637	209.37
445.096	214.87
445.555	218.27
446.014	218.67
446.473	221.07
446.932	231.57
447.391	221.47
447.849	228.37
448.308	214.77
448.767	217.67
449.226	234.27
449.685	232.37
450.143	249.27
450.602	232.57
451.061	220.57
451.519	234.37
451.978	229.07
452.436	232.07
452.895	234.77
453.353	248.27
453.812	235.07
454.27	237.87
454.729	234.77
455.187	235.57
455.646	247.57
456.104	236.17
456.562	257.87
457.021	260.87
457.479	254.77
457.937	274.47
458.395	254.77
458.854	247.07
459.312	252.97
459.77	274.87
460.228	253.77
460.686	240.77
461.144	253.17
461.602	244.97
462.06	248.47
462.518	256.47
462.976	252.77
463.434	248.67
463.892	253.37
464.35	264.87
464.808	287.97
465.266	265.37
465.724	265.77
466.181	274.97
466.639	271.27
467.097	292.27
467.555	298.17
468.012	305.07
468.47	313.07
468.928	321.97
469.385	337.87
469.843	344.87
470.3	348.77
470.758	355.67
471.215	380.07
471.673	392.17
472.13	396.47
472.588	405.77
473.045	371.97
473.503	372.07
473.96	393.47
474.417	394.87
474.875	424.57
475.332	473.37
475.789	452.57
476.246	463.47
476.704	481.67
477.161	502.47
477.618	507.87
478.075	541.67
478.532	591.57
478.989	666.47
479.446	765.67
479.903	737.77
480.36	757.17
480.817	802.17
481.274	893.87
481.731	969.97
482.188	1058.07
482.645	1170.38
483.102	1268.57
483.558	1370.57
484.015	1405.57
484.472	1387.88
484.929	1342.47
485.385	1304.27
485.842	1274.17
486.299	1227.87
486.755	1193.57
487.212	1011.27
487.668	866.57
488.125	806.17
488.582	749.77
489.038	712.17
489.494	688.67
489.951	662.57
490.407	656.87
490.864	628.27
491.32	632.17
491.776	633.87
492.233	639.97
492.689	601.87
493.145	603.77
493.602	589.37
494.058	602.37
494.514	616.77
494.97	628.07
495.426	642.77
495.882	609.77
496.338	602.27
496.794	612.07
497.251	605.37
497.707	626.97
498.163	613.57
498.618	629.57
499.074	625.77
499.53	658.47
499.986	661.67
500.442	646.37
500.898	623.57
501.354	601.77
501.809	610.97
502.265	615.37
502.721	629.67
503.177	634.77
503.632	634.47
504.088	647.37
504.543	664.57
504.999	682.17
505.455	659.47
505.91	632.67
506.366	630.67
506.821	635.27
507.277	633.07
507.732	631.17
508.187	631.57
508.643	637.67
509.098	641.47
509.553	648.77
510.009	667.67
510.464	674.97
510.919	693.77
511.375	691.67
511.83	708.17
512.285	722.47
512.74	751.27
513.195	767.17
513.65	758.77
514.105	765.47
514.56	765.77
515.015	782.37
515.47	790.37
515.925	776.47
516.38	769.37
516.835	783.57
517.29	779.77
517.745	779.57
518.2	768.67
518.655	753.07
519.109	741.37
519.564	735.47
520.019	727.67
520.474	720.07
520.928	724.77
521.383	710.47
521.838	709.07
522.292	713.67
522.747	713.77
523.201	711.37
523.656	706.97
524.11	697.67
524.565	706.97
525.019	683.17
525.474	697.97
525.928	692.27
526.382	689.57
526.837	692.27
527.291	707.07
527.745	696.17
528.2	700.17
528.654	693.97
529.108	690.87
529.562	684.47
530.016	691.27
530.47	693.27
530.925	683.37
531.379	684.57
531.833	705.17
532.287	697.37
532.741	696.57
533.195	705.37
533.649	711.97
534.103	733.27
534.556	702.17
535.01	702.97
535.464	702.07
535.918	713.57
536.372	723.97
536.826	718.97
537.279	702.77
537.733	720.07
538.187	706.27
538.64	705.57
539.094	716.37
539.548	724.27
540.001	723.27
540.455	736.07
540.908	734.07
541.362	731.07
541.815	747.67
542.269	762.47
542.722	772.87
543.175	775.17
543.629	784.57
544.082	785.87
544.536	795.97
544.989	787.77
545.442	798.17
545.895	789.77
546.349	797.67
546.802	796.27
547.255	810.37
547.708	813.97
548.161	814.27
548.614	832.07
549.067	836.37
549.52	821.37
549.973	826.07
550.426	809.37
550.879	804.67
551.332	793.67
551.785	812.67
552.238	815.57
552.691	833.97
553.144	845.87
553.596	858.27
554.049	881.27
554.502	899.77
554.955	920.77
555.407	919.57
555.86	909.27
556.313	905.27
556.765	884.27
557.218	890.77
557.67	897.87
558.123	874.37
558.576	877.37
559.028	883.77
559.48	899.27
559.933	885.67
560.385	849.27
560.838	819.57
561.29	801.37
561.742	803.47
562.195	787.97
562.647	778.07
563.099	786.17
563.551	791.27
564.004	797.27
564.456	778.27
564.908	768.37
565.36	756.37
565.812	738.47
566.264	730.37
566.716	721.27
567.168	707.87
567.62	716.67
568.072	711.07
568.524	707.77
568.976	695.17
569.428	674.47
569.88	688.07
570.332	696.97
570.784	687.37
571.235	698.47
571.687	708.87
572.139	714.37
572.59	725.37
573.042	726.27
573.494	721.17
573.945	719.47
574.397	693.77
574.849	698.17
575.3	704.17
575.752	698.27
576.203	689.87
576.655	693.97
577.106	690.87
577.557	673.07
578.009	681.47
578.46	676.97
578.912	680.67
579.363	679.07
579.814	677.87
580.265	671.87
580.717	683.77
581.168	680.57
581.619	689.77
582.07	694.17
582.521	676.37
582.972	681.77
583.423	690.37
583.875	689.27
584.326	697.67
584.777	712.97
585.227	738.47
585.678	738.27
586.129	749.37
586.58	764.57
587.031	791.57
587.482	818.67
587.933	848.27
588.384	826.57
588.834	794.37
589.285	773.87
589.736	779.07
590.186	780.07
590.637	776.27
591.088	762.37
591.538	745.47
591.989	750.57
592.439	743.87
592.89	730.57
593.34	722.77
593.791	714.47
594.241	709.07
594.692	704.87
595.142	709.37
595.593	710.37
596.043	706.67
596.493	721.07
596.943	712.57
597.394	742.77
597.844	735.97
598.294	748.47
598.744	775.07
599.195	799.87
599.645	838.57
600.095	874.47
600.545	934.07
600.995	998.77
601.445	1040.67
601.895	1098.67
602.345	1163.88
602.795	1122.07
603.245	1089.67
603.695	1031.47
604.145	969.37
604.594	930.57
605.044	888.87
605.494	820.47
605.944	768.67
606.393	757.77
606.843	740.67
607.293	746.47
607.743	742.27
608.192	754.17
608.642	771.77
609.091	769.67
609.541	778.67
609.99	776.17
610.44	780.57
610.889	724.87
611.339	708.47
611.788	699.37
612.238	710.67
612.687	711.77
613.136	717.17
613.586	725.97
614.035	703.77
614.484	729.17
614.933	718.87
615.383	720.97
615.832	711.57
616.281	716.17
616.73	683.17
617.179	662.77
617.628	655.57
618.077	646.57
618.526	635.47
618.975	625.77
619.424	629.27
619.873	623.27
620.322	626.47
620.771	619.27
621.22	610.87
621.669	599.77
622.118	597.07
622.567	598.97
623.015	571.27
623.464	590.87
623.913	563.47
624.361	571.67
624.81	556.77
625.259	560.27
625.707	566.97
626.156	574.47
626.604	580.87
627.053	575.67
627.501	579.07
627.95	590.67
628.398	593.47
628.847	579.17
629.295	584.77
629.744	582.47
630.192	581.97
630.64	571.17
631.089	564.67
631.537	556.97
631.985	532.27
632.433	545.27
632.881	537.87
633.33	537.57
633.778	539.67
634.226	531.57
634.674	546.47
635.122	551.37
635.57	561.07
636.018	567.97
636.466	569.67
636.914	565.57
637.362	571.17
637.81	589.07
638.258	596.97
638.705	604.77
639.153	627.57
639.601	630.77
640.049	660.97
640.497	687.87
640.944	706.47
641.392	664.87
641.84	628.97
642.287	592.67
642.735	573.67
643.182	576.97
643.63	577.87
644.078	570.87
644.525	584.57
644.973	599.07
645.42	602.77
645.867	633.07
646.315	651.47
646.762	666.17
647.21	697.47
647.657	718.17
648.104	753.07
648.551	766.07
648.999	816.57
649.446	901.87
649.893	985.17
650.34	1121.37
650.787	1336.17
651.234	1650.47
651.682	2128.37
652.129	2889.57
652.576	4120.38
653.023	5977.28
653.47	8085.27
653.917	9934.67
654.363	11383.28
654.81	12473.88
655.257	11824.08
655.704	7842.48
656.151	4739.48
656.598	3106.97
657.044	2235.07
657.491	1741.67
657.938	1407.38
658.385	1189.57
658.831	1037.57
659.278	938.27
659.724	833.57
660.171	772.67
660.618	712.47
661.064	686.67
661.511	671.37
661.957	657.27
662.404	641.57
662.85	652.87
663.296	630.57
663.743	571.67
664.189	543.87
664.635	539.97
665.082	540.07
665.528	533.67
665.974	525.77
666.42	514.97
666.867	513.37
667.313	493.47
667.759	474.27
668.205	458.27
668.651	465.87
669.097	467.17
669.543	449.97
669.989	457.07
670.435	464.37
670.881	470.77
671.327	462.57
671.773	490.27
672.219	501.37
672.665	569.87
673.11	608.57
673.556	654.67
674.002	699.17
674.448	678.67
674.893	570.47
675.339	493.27
675.785	451.87
676.23	430.97
676.676	405.57
677.122	403.57
677.567	391.77
678.013	384.07
678.458	369.47
678.904	380.27
679.349	361.47
679.794	372.07
680.24	362.07
680.685	364.87
681.131	365.47
681.576	361.07
682.021	371.57
682.466	368.77
682.912	364.87
683.357	362.67
683.802	394.57
684.247	433.37
684.692	472.87
685.137	519.47
685.583	562.47
686.028	589.07
686.473	540.77
686.918	456.47
687.363	430.87
687.807	412.07
688.252	379.87
688.697	370.97
689.142	350.07
689.587	341.57
690.032	341.47
690.477	349.87
690.921	358.37
691.366	396.27
691.811	421.37
692.255	446.07
692.7	473.87
693.145	529.27
693.589	755.27
694.034	1238.67
694.478	1637.08
694.923	1795.38
695.367	2320.97
695.812	1246.27
696.256	524.67
696.701	388.77
697.145	357.07
697.59	347.37
698.034	328.27
698.478	335.37
698.922	333.97
699.367	328.07
699.811	342.87
700.255	374.97
700.699	397.37
701.143	442.57
701.588	494.87
702.032	536.57
702.476	538.57
702.92	507.87
703.364	516.57
703.808	694.17
704.252	1128.07
704.696	1553.17
705.14	1733.37
705.584	2185.57
706.027	1105.77
706.471	543.97
706.915	415.37
707.359	362.87
707.803	341.37
708.246	321.37
708.69	333.27
709.134	324.37
709.577	321.57
710.021	327.87
710.465	323.67
710.908	317.47
711.352	310.17
711.795	330.17
712.239	373.37
712.682	398.87
713.126	431.27
713.569	470.07
714.012	370.37
714.456	316.87
714.899	297.57
715.342	285.47
715.786	265.97
716.229	267.67
716.672	259.17
717.115	253.97
717.558	259.37
718.002	271.27
718.445	275.47
718.888	297.17
719.331	300.07
719.774	323.07
720.217	321.07
720.66	295.27
721.103	280.27
721.546	266.67
721.989	256.87
722.432	242.47
722.874	247.87
723.317	239.97
723.76	243.47
724.203	265.57
724.645	336.37
725.088	474.67
725.531	601.07
725.974	662.07
726.416	564.47
726.859	327.07
727.301	255.77
727.744	244.87
728.187	244.37
728.629	250.57
729.071	255.17
729.514	279.67
729.956	289.67
730.399	299.07
730.841	293.97
731.283	289.27
731.726	284.57
732.168	275.37
732.61	283.07
733.053	306.37
733.495	332.37
733.937	375.77
734.379	412.87
734.821	459.57
735.263	588.17
735.705	916.37
736.148	1736.57
736.59	2764.68
737.032	3142.57
737.474	2566.88
737.916	845.57
738.357	445.17
738.799	344.27
739.241	316.87
739.683	303.37
740.125	300.97
740.567	307.37
741.008	328.77
741.45	330.17
741.892	337.77
742.334	369.67
742.775	376.47
743.217	360.57
743.658	278.57
744.1	265.97
744.542	283.07
744.983	334.17
745.425	369.47
745.866	356.97
746.307	287.37
746.749	287.87
747.19	344.97
747.632	497.37
748.073	976.97
748.514	2034.87
748.956	2996.67
749.397	3835.68
749.838	3133.77
750.279	3080.07
750.72	1569.67
751.162	588.77
751.603	337.47
752.044	269.37
752.485	224.17
752.926	218.97
753.367	214.07
753.808	201.47
754.249	194.37
754.69	198.07
755.131	188.17
755.572	185.27
756.013	187.67
756.453	190.77
756.894	195.47
757.335	205.27
757.776	205.97
758.216	205.27
758.657	197.87
759.098	210.07
759.538	240.17
759.979	288.87
760.42	413.47
760.86	788.27
761.301	2075.77
761.741	4808.38
762.182	6654.27
762.622	4698.98
763.063	1391.38
763.503	571.97
763.943	346.87
764.384	282.47
764.824	256.07
765.264	233.97
765.705	220.17
766.145	187.27
766.585	184.87
767.025	173.87
767.465	166.07
767.906	186.27
768.346	202.77
768.786	204.67
769.226	218.77
769.666	333.87
770.106	698.67
770.546	1719.07
770.986	2752.38
771.426	2439.68
771.866	843.77
772.306	345.97
772.745	212.97
773.185	179.57
773.625	164.97
774.065	157.47
774.505	165.97
774.944	219.27
775.384	378.57
775.824	583.67
776.263	575.57
776.703	280.27
777.142	166.47
777.582	141.87
778.021	132.57
778.461	131.77
778.9	134.37
779.34	131.67
779.779	111.77
780.219	113.87
780.658	108.27
781.097	115.67
781.537	118.37
781.976	117.47
782.415	110.77
782.855	100.57
783.294	103.57
783.733	111.17
784.172	114.67
784.611	107.07
785.05	115.37
785.489	117.47
785.928	118.57
786.367	130.77
786.806	120.57
787.245	135.17
787.684	146.07
788.123	151.37
788.562	143.37
789.001	126.37
789.44	124.07
789.879	123.17
790.317	123.17
790.756	131.87
791.195	131.87
791.634	153.07
792.072	224.57
792.511	388.97
792.95	1121.37
793.388	2231.67
793.827	1967.27
794.265	707.97
794.704	298.27
795.142	192.07
795.581	161.37
796.019	145.37
796.458	132.67
796.896	131.67
797.334	136.07
797.773	166.67
798.211	244.77
798.649	486.57
799.087	1094.37
799.526	1702.67
799.964	2136.57
800.402	2066.78
800.84	799.77
801.278	328.57
801.716	201.47
802.154	167.67
802.592	154.77
803.03	144.77
803.468	145.67
803.906	151.17
804.344	161.57
804.782	150.77
805.22	138.97
805.658	140.57
806.096	162.77
806.533	165.87
806.971	191.07
807.409	238.17
807.847	347.47
808.284	749.37
808.722	2049.07
809.16	3458.47
809.597	3426.38
810.035	5802.98
810.472	5947.08
810.91	2208.47
811.347	853.77
811.785	427.17
812.222	271.17
812.66	209.17
813.097	169.97
813.535	145.87
813.972	141.67
814.409	124.17
814.846	119.37
815.284	116.57
815.721	112.17
816.158	108.87
816.595	111.67
817.032	158.17
817.47	182.97
817.907	133.87
818.344	104.67
818.781	99.37
819.218	98.87
819.655	136.37
820.092	196.37
820.529	229.27
820.966	180.67
821.403	132.67
821.839	100.67
822.276	108.37
822.713	131.07
823.15	141.07
823.587	127.67
824.023	159.77
824.46	347.27
824.897	978.27
825.333	1401.17
825.77	603.57
826.206	245.97
826.643	145.57
827.08	107.67
827.516	93.17
827.953	82.97
828.389	82.07
828.825	72.17
829.262	76.77
829.698	62.47
830.135	61.27
830.571	62.87
831.007	65.47
831.443	74.87
831.88	66.47
832.316	63.67
832.752	65.37
833.188	64.17
833.624	66.57
834.06	71.17
834.497	67.07
834.933	77.97
835.369	76.27
835.805	71.27
836.241	84.87
836.677	85.17
837.112	97.67
837.548	111.97
837.984	142.27
838.42	217.77
838.856	549.67
839.292	1638.97
839.727	2372.47
840.163	1131.87
840.599	1029.97
841.034	2191.47
841.47	2188.47
841.906	813.07
842.341	352.47
842.777	212.47
843.212	210.47
843.648	190.87
844.083	111.27
844.519	80.07
844.954	75.07
845.39	60.17
845.825	59.77
846.261	64.87
846.696	52.57
847.131	53.37
847.566	58.97
848.002	50.37
848.437	53.57
848.872	59.87
849.307	63.97
849.742	88.77
850.177	201.87
850.613	609.47
851.048	904.47
851.483	389.27
851.918	173.27
852.353	89.67
852.788	54.97
853.223	52.67
853.657	53.97
854.092	53.77
854.527	45.87
854.962	43.77
855.397	46.67
855.832	55.97
856.266	42.37
856.701	42.07
857.136	37.17
857.57	40.27
858.005	47.77
858.44	62.37
858.874	45.87
859.309	57.07
859.743	41.77
860.178	41.57
860.612	42.17
861.047	58.77
861.481	74.57
861.915	69.77
862.35	54.57
862.784	33.17
863.218	42.67
863.653	31.77
864.087	50.97
864.521	60.97
864.955	69.77
865.39	170.57
865.824	183.77
866.258	121.17
866.692	183.67
867.126	189.37
867.56	118.17
867.994	51.77
868.428	41.67
868.862	50.17
869.296	62.47
869.73	58.97
870.164	53.17
870.598	45.07
871.031	44.97
871.465	35.77
871.899	35.57
872.333	20.37
872.766	25.07
873.2	20.17
873.634	26.77
874.067	24.77
874.501	27.57
874.935	37.47
875.368	33.37
875.802	30.77
876.235	25.57
876.669	24.07
877.102	17.97
877.535	28.77
877.969	27.37
878.402	30.77
878.836	18.87
879.269	22.37
879.702	23.87
880.135	19.67
880.569	21.17
881.002	30.77
881.435	20.87
881.868	20.47
882.301	18.77
882.734	19.37
883.167	26.87
883.601	21.77
884.034	23.87
884.467	15.07
884.899	23.07
885.332	14.67
885.765	16.27
886.198	15.07
886.631	21.77
887.064	21.97
887.497	23.07
887.929	25.17
888.362	15.57
888.795	19.07
889.228	21.37
889.66	18.57
890.093	14.07
890.526	14.07
890.958	15.07
891.391	19.97
891.823	26.67
892.256	16.87
892.688	14.17
893.121	17.37
893.553	17.37
893.985	23.57
894.418	19.17
894.85	17.57
895.282	17.07
895.715	19.77
896.147	21.27
896.579	17.97
897.011	12.97
897.444	16.07
897.876	8.77
898.308	18.97
898.74	15.17
899.172	12.07
899.604	24.07
900.036	22.97
900.468	16.47
900.9	13.57
901.332	21.57
901.764	17.97
902.196	19.77
902.628	19.37
903.06	13.87
903.491	28.57
903.923	23.87
904.355	17.57
904.787	21.97
905.218	25.97
905.65	21.77
906.082	9.97
906.513	15.07
906.945	18.27
907.376	15.17
907.808	15.97
908.239	21.47
908.671	17.37
909.102	22.57
909.534	28.17
909.965	55.87
910.397	105.17
910.828	339.27
911.259	488.57
911.691	225.67
912.122	114.77
912.553	55.67
912.984	32.47
913.415	29.07
913.847	23.67
914.278	8.77
914.709	10.77
915.14	16.97
915.571	15.67
916.002	14.27
916.433	20.27
916.864	20.27
917.295	10.47
917.726	19.07
918.157	14.77
918.587	29.97
919.018	24.07
919.449	19.37
919.88	32.67
920.311	32.27
920.741	51.07
921.172	174.07
921.603	161.97
922.033	78.57
922.464	50.47
922.895	23.47
923.325	20.77
923.756	16.07
924.186	11.77
924.617	23.37
925.047	19.17
925.478	23.67
925.908	21.57
926.338	10.17
926.769	8.77
927.199	16.17
927.629	5.87
928.06	15.37
928.49	17.97
928.92	11.77
929.35	13.87
929.78	10.97
930.21	6.67
930.641	6.27
931.071	7.37
931.501	12.07
931.931	5.47
932.361	5.47
932.791	5.77
933.221	12.47
933.651	4.27
934.08	22.77
934.51	34.07
934.94	9.77
935.37	9.17
935.8	7.37
936.229	4.97
936.659	7.07
937.089	6.17
937.519	12.27
937.948	34.57
938.378	17.67
938.807	8.47
939.237	11.47
939.666	2.27
940.096	-2.83
940.525	4.87
940.955	4.27
941.384	1.67
941.814	-2.23
942.243	-2.93
942.672	1.57
943.102	-3.33
943.531	-3.53
943.96	4.67
944.39	5.17
944.819	9.17
945.248	3.77
945.677	-1.03
946.106	6.17
946.535	-0.03
946.964	4.87
947.393	2.87
947.822	4.67
948.251	-3.73
948.68	6.47
949.109	5.47
949.538	-0.63
949.967	0.57
950.396	3.57
950.825	-1.93
951.254	-1.63
951.682	-3.73
952.111	5.87
952.54	8.17
952.969	0.27
953.397	-5.63
953.826	-1.53
954.254	-5.83
954.683	-1.63
955.112	-1.93
955.54	-1.53
955.969	2.27
956.397	1.67
956.826	-2.13
957.254	0.97
957.682	-0.43
958.111	2.47
958.539	-6.83
958.967	-0.83
959.396	-1.73
959.824	8.07
960.252	2.77
960.68	-1.43
961.109	0.07
961.537	-5.53
961.965	-2.13
962.393	2.57
962.821	-6.43
963.249	-0.13
963.677	1.37
964.105	1.27
964.533	47.87
964.961	47.07
965.389	20.17
965.817	7.57
966.245	-1.33
966.672	6.87
967.1	-2.93
967.528	-7.93
967.956	-1.13
968.383	-1.03
968.811	-4.73
969.239	2.87
969.666	-6.83
970.094	0.67
970.522	4.47
970.949	0.87
971.377	-5.73
971.804	-3.83
972.232	-1.63
972.659	-5.83
973.087	0.07
973.514	-4.13
973.941	-5.63
974.369	0.37
974.796	-2.23
975.223	-3.33
975.651	1.47
976.078	-2.03
976.505	-1.53
976.932	4.97
977.359	17.77
977.786	12.07
978.214	0.27
978.641	-1.63
979.068	-6.83
979.495	-7.53
979.922	1.57
980.349	-4.03
980.776	3.47
981.202	2.57
981.629	3.17
982.056	0.97
982.483	1.17
982.91	3.17
983.337	-8.33
983.763	0.97
984.19	-10.13
984.617	-1.63
985.043	-12.13
985.47	-4.23
985.897	-1.83
986.323	-6.53
986.75	-1.23
987.176	1.37
987.603	0.87
988.029	-4.33
988.456	-7.23
988.882	0.57
989.308	-5.73
989.735	-5.63
990.161	-1.23
990.587	-0.53
991.014	4.57
991.44	2.97
991.866	-1.03
992.292	-3.93
992.719	-5.33
993.145	-0.93
993.571	-12.73
993.997	-0.93
994.423	0.27
994.849	-4.53
995.275	-6.23
995.701	1.07
996.127	-4.83
996.553	-1.33
996.979	0.67
997.405	1.07
997.83	-5.03
998.256	-4.63
998.682	-9.53
999.108	-13.63
999.534	1.37
999.959	-2.83
1000.385	-3.83
1000.811	-0.73
1001.236	-10.23
1001.662	-11.23
1002.087	-5.33
1002.513	0.37
1002.938	2.87
1003.364	-2.83
1003.789	-2.93
1004.215	2.87
1004.64	0.87
1005.066	2.77
1005.491	-0.23
1005.916	-1.43
1006.342	-1.83
1006.767	-7.33
1007.192	2.77
1007.617	-6.33
1008.042	-4.33
1008.468	-3.93
1008.893	-1.63
1009.318	-5.03
1009.743	-0.73
1010.168	4.57
1010.593	-0.03
1011.018	-4.03
1011.443	-2.33
1011.868	-2.43
1012.293	-2.63
1012.718	-6.23
1013.143	-8.13
1013.567	-1.63
1013.992	0.37
1014.417	-13.33
1014.842	-3.63
1015.267	-4.93
1015.691	-3.23
1016.116	3.97
1016.541	1.77
1016.965	0.67
1017.39	0.67
1017.814	2.07
1018.239	-9.33
1018.663	-3.53
1019.088	-14.83
1019.512	-5.13
1019.937	0.37
1020.361	-1.23
1020.785	-12.23
1021.21	-2.53
1021.634	-0.83
1022.058	-3.43
1022.483	4.27
1022.907	-3.13
1023.331	-4.33
1023.755	0.07
1024.179	0.67
1024.604	-4.53
1025.028	-8.03
1025.452	-5.23
1025.876	0.37
1026.3	-1.53
1026.724	-13.43
1027.148	-5.53
1027.572	-4.33
1027.996	-2.53
1028.42	2.47
1028.843	-2.33
1029.267	-4.73
1029.691	-3.53
1030.115	-8.93
1030.539	-10.03
1030.962	-8.13
1031.386	-10.23
1031.81	-6.73
1032.233	-8.03
1032.657	-8.33
1033.08	2.27
1033.504	-8.23
1033.927	-7.13
1034.351	-2.43
1034.774	-4.43
1035.198	-3.33
1035.621	-5.73
1036.045	-8.53
1036.468	0.27
1036.891	-8.53
1037.315	-8.93
1037.738	-13.93
1038.161	-3.93
1038.584	-7.63
1039.008	-9.33
1039.431	-2.63
1039.854	-9.33
1040.277	-7.53
1040.7	-11.03
1041.123	1.67
1041.546	-6.33
1041.969	-7.63
1042.392	-2.23
1042.815	-4.53
1043.238	-0.13
1043.661	5.37
1044.084	-6.83
1044.507	-8.93
1044.93	0.47
1045.352	-2.13
1045.775	-5.33
1046.198	1.47
1046.621	-3.63
1047.043	-2.23
1047.466	4.27
1047.889	-9.03
1048.311	-3.33
1048.734	-3.93
1049.156	-3.03
1049.579	-4.53
1050.001	-5.53
1050.424	-2.83
1050.846	2.07
1051.269	-2.73
1051.691	-2.43
1052.113	-6.33
1052.536	-4.63
1052.958	-3.03
1053.38	-2.63
1053.802	-13.23
1054.225	0.87
1054.647	-9.83
1055.069	-4.03
1055.491	1.17
1055.913	-6.83
1056.335	-2.73
1056.757	-0.73
1057.179	-8.43
1057.601	-2.73
1058.023	-3.23
1058.445	-3.43
1058.867	-0.73
1059.289	-4.83
1059.711	-9.33
1060.133	-5.23
1060.555	-2.53
1060.976	-5.23
1061.398	-5.43
1061.82	-11.63
1062.241	-1.13
1062.663	-10.53
1063.085	-4.13
1063.506	0.57
1063.928	-8.83
1064.35	2.27
1064.771	-8.93
1065.193	-1.63
1065.614	-7.63
1066.035	1.97
1066.457	-2.33
1066.878	-1.23
1067.3	-3.53
1067.721	-6.83
1068.142	-9.53
1068.564	-9.23
1068.985	-8.13
1069.406	-6.23
1069.827	-5.43
1070.248	-0.33
1070.67	-1.63
1071.091	-3.83
1071.512	-1.63
1071.933	-1.93
1072.354	-7.23
1072.775	-3.73
1073.196	-8.43
1073.617	-8.93
1074.038	-11.43
1074.459	-3.53
1074.88	-5.23
1075.3	1.37
1075.721	-9.23
1076.142	6.17
1076.563	4.37
1076.983	-10.53
1077.404	-3.93
1077.825	-8.93
1078.246	-4.13
1078.666	-12.73
1079.087	-9.93
1079.507	-6.33
1079.928	-5.13
1080.348	-2.53
1080.769	-1.23
1081.189	4.27
1081.61	-0.73
1082.03	-7.33
1082.451	-5.83
1082.871	-0.43
1083.291	-9.33
1083.711	-6.83
1084.132	-6.33
1084.552	-6.53
1084.972	-2.93
1085.392	-12.23
1085.813	-10.33
1086.233	-6.43
1086.653	-5.93
1087.073	-2.93
1087.493	-5.53
1087.913	-8.93
1088.333	-9.53
1088.753	-7.43
1089.173	0.67
1089.593	-5.43
1090.013	-0.43
1090.433	1.27
1090.852	-2.03
1091.272	-2.43
1091.692	-1.13
1092.112	-1.63
1092.531	-12.83
1092.951	-10.53
1093.371	-2.53
1093.79	-3.23
1094.21	-7.13
1094.63	-3.43
1095.049	-12.83
1095.469	-1.23
1095.888	-7.13
1096.308	-4.93
1096.727	0.77
1097.146	-9.63
1097.566	1.07
1097.985	-4.53
1098.405	-3.73
1098.824	-8.83
1099.243	-12.63
1099.662	-4.93
1100.082	-3.43
1100.501	-5.73
1100.92	-2.33
1101.339	-3.53
1101.758	-8.33
