Data from 20171114-ORNL-Ar_H_NY_Subt18_08-08-28-487.txt Node
Date: Tue Nov 14 08:08:28 EST 2017
User: Ender
Spectrometer: HR+D1039
Trigger mode: 0
Integration Time (sec): 2.730000E-2
Scans to average: 10
Electric dark correction enabled: true
Nonlinearity correction enabled: false
Boxcar width: 0
XAxis mode: Wavelengths
Number of Pixels in Spectrum: 2048
>>>>>Begin Spectral Data<<<<<
187.836	-4.18
188.309	-4.18
188.782	-4.18
189.255	3.92
189.728	-3.88
190.201	1.82
190.674	-0.68
191.147	1.32
191.619	-5.58
192.092	5.72
192.565	2.62
193.038	-1.78
193.511	-2.28
193.984	4.42
194.456	-1.58
194.929	0.92
195.402	1.22
195.874	-2.08
196.347	-1.58
196.82	-6.68
197.292	9.12
197.765	-4.68
198.237	-4.48
198.71	1.82
199.182	-4.58
199.655	-0.08
200.127	4.32
200.6	-3.08
201.072	-5.28
201.544	-9.48
202.017	-3.78
202.489	0.52
202.961	-1.88
203.433	-6.08
203.906	-6.98
204.378	-8.88
204.85	-10.28
205.322	-14.28
205.794	-4.08
206.266	-4.78
206.739	-7.18
207.211	4.12
207.683	-10.68
208.155	-5.28
208.627	-7.28
209.099	-0.68
209.57	-8.48
210.042	-5.68
210.514	-3.18
210.986	1.02
211.458	-11.58
211.93	-5.58
212.402	3.02
212.873	-8.38
213.345	-8.58
213.817	-8.78
214.288	-6.98
214.76	-14.68
215.232	0.62
215.703	-7.08
216.175	-2.58
216.646	-2.28
217.118	-6.08
217.589	-2.68
218.061	-1.38
218.532	-5.88
219.004	-3.48
219.475	-4.48
219.946	-5.28
220.418	-4.48
220.889	-1.18
221.36	0.22
221.832	-4.78
222.303	-8.68
222.774	1.42
223.245	-9.28
223.717	-0.98
224.188	-7.48
224.659	-8.68
225.13	-7.38
225.601	-1.78
226.072	-1.38
226.543	-5.88
227.014	0.12
227.485	-4.38
227.956	-4.38
228.427	-2.38
228.898	2.12
229.369	1.42
229.839	-5.58
230.31	-11.18
230.781	3.62
231.252	-3.58
231.722	-4.18
232.193	-6.68
232.664	-4.28
233.135	-0.78
233.605	2.82
234.076	-7.88
234.546	3.42
235.017	5.42
235.487	4.92
235.958	-2.78
236.428	-5.48
236.899	-0.88
237.369	5.32
237.84	-2.28
238.31	1.02
238.78	-3.88
239.251	0.82
239.721	-5.08
240.191	-0.48
240.662	3.82
241.132	-1.78
241.602	-6.68
242.072	-4.58
242.542	-0.08
243.013	-5.58
243.483	-2.38
243.953	0.42
244.423	-1.68
244.893	-3.68
245.363	-6.48
245.833	1.42
246.303	-2.38
246.773	-0.08
247.243	-0.38
247.712	0.92
248.182	4.32
248.652	1.52
249.122	-9.48
249.592	-2.78
250.061	0.72
250.531	4.92
251.001	0.22
251.471	8.02
251.94	4.52
252.41	2.12
252.879	-0.48
253.349	10.32
253.818	6.62
254.288	6.02
254.757	4.62
255.227	1.52
255.696	-4.08
256.166	8.52
256.635	1.62
257.105	2.62
257.574	2.42
258.043	3.52
258.513	-6.78
258.982	8.22
259.451	-0.68
259.92	2.62
260.389	6.72
260.859	11.02
261.328	-0.98
261.797	-2.08
262.266	0.62
262.735	8.82
263.204	4.72
263.673	-1.68
264.142	7.72
264.611	-9.18
265.08	-5.68
265.549	-1.28
266.018	6.62
266.487	-0.68
266.955	1.02
267.424	2.32
267.893	3.22
268.362	1.52
268.83	-1.18
269.299	6.82
269.768	-1.88
270.236	2.22
270.705	-2.28
271.174	-1.18
271.642	-0.08
272.111	2.12
272.579	4.62
273.048	12.32
273.516	4.22
273.985	3.02
274.453	14.52
274.922	12.72
275.39	7.02
275.858	2.12
276.327	9.62
276.795	13.72
277.263	6.42
277.731	17.62
278.2	13.12
278.668	10.42
279.136	8.42
279.604	6.42
280.072	5.52
280.54	6.82
281.008	10.62
281.477	14.52
281.945	4.62
282.413	11.92
282.881	10.72
283.348	4.72
283.816	14.42
284.284	13.02
284.752	17.42
285.22	14.42
285.688	10.92
286.156	10.62
286.623	15.22
287.091	12.02
287.559	11.62
288.026	6.42
288.494	10.62
288.962	4.22
289.429	9.92
289.897	14.42
290.364	14.42
290.832	17.72
291.3	16.12
291.767	16.32
292.234	18.62
292.702	8.42
293.169	8.52
293.637	15.62
294.104	14.22
294.571	1.42
295.039	13.12
295.506	13.22
295.973	18.12
296.44	13.82
296.908	24.22
297.375	10.12
297.842	11.92
298.309	13.82
298.776	10.92
299.243	19.82
299.71	10.02
300.177	22.52
300.644	22.82
301.111	17.72
301.578	19.62
302.045	19.12
302.512	23.52
302.979	22.92
303.446	16.72
303.913	14.22
304.379	20.12
304.846	29.92
305.313	25.02
305.78	20.62
306.246	24.22
306.713	21.22
307.18	27.12
307.646	21.42
308.113	28.52
308.579	16.82
309.046	25.82
309.512	25.82
309.979	17.72
310.445	22.52
310.912	28.62
311.378	32.42
311.845	26.52
312.311	32.12
312.777	30.12
313.244	28.82
313.71	32.32
314.176	33.92
314.642	30.12
315.109	29.92
315.575	32.82
316.041	37.32
316.507	28.22
316.973	32.42
317.439	36.32
317.905	34.92
318.371	34.02
318.837	33.32
319.303	33.22
319.769	26.72
320.235	32.02
320.701	30.62
321.167	36.82
321.633	35.32
322.099	32.22
322.564	43.22
323.03	31.92
323.496	40.72
323.962	39.62
324.427	30.92
324.893	38.52
325.359	35.12
325.824	39.72
326.29	38.82
326.755	39.52
327.221	41.62
327.686	44.62
328.152	46.72
328.617	41.02
329.083	46.62
329.548	46.72
330.014	48.92
330.479	40.22
330.944	44.12
331.41	42.32
331.875	41.92
332.34	38.42
332.805	39.42
333.271	43.02
333.736	40.72
334.201	48.52
334.666	49.62
335.131	52.72
335.596	48.52
336.061	44.92
336.526	43.32
336.991	54.92
337.456	54.02
337.921	49.72
338.386	50.22
338.851	49.02
339.316	48.22
339.781	51.12
340.246	49.82
340.711	44.22
341.175	50.22
341.64	43.32
342.105	51.72
342.569	48.22
343.034	55.22
343.499	55.82
343.963	51.72
344.428	69.72
344.893	59.82
345.357	69.72
345.822	62.92
346.286	64.52
346.751	79.22
347.215	69.62
347.679	77.82
348.144	101.82
348.608	83.72
349.073	66.72
349.537	76.92
350.001	79.02
350.465	87.42
350.93	80.82
351.394	85.42
351.858	77.72
352.322	93.42
352.786	87.12
353.25	100.32
353.715	112.32
354.179	99.22
354.643	121.12
355.107	126.62
355.571	104.72
356.035	100.42
356.498	113.32
356.962	121.92
357.426	124.62
357.89	119.62
358.354	92.42
358.818	87.12
359.281	77.82
359.745	73.82
360.209	77.82
360.673	71.22
361.136	85.52
361.6	83.52
362.064	79.02
362.527	90.62
362.991	90.92
363.454	81.12
363.918	80.12
364.381	78.22
364.845	88.52
365.308	88.02
365.772	88.12
366.235	81.92
366.698	85.72
367.162	84.32
367.625	87.82
368.088	93.62
368.552	95.02
369.015	86.02
369.478	102.82
369.941	97.02
370.404	101.72
370.867	98.22
371.331	108.82
371.794	113.92
372.257	101.42
372.72	112.22
373.183	104.32
373.646	98.62
374.109	107.52
374.572	106.12
375.035	99.72
375.497	112.62
375.96	111.22
376.423	105.72
376.886	113.72
377.349	113.92
377.811	109.32
378.274	106.72
378.737	115.42
379.199	114.62
379.662	112.82
380.125	109.92
380.587	108.32
381.05	115.82
381.512	115.92
381.975	132.02
382.437	123.42
382.9	118.82
383.362	126.82
383.825	139.22
384.287	133.72
384.75	125.02
385.212	139.32
385.674	136.42
386.136	140.52
386.599	123.32
387.061	129.52
387.523	127.72
387.985	133.72
388.447	139.52
388.91	137.62
389.372	140.22
389.834	135.62
390.296	128.32
390.758	139.02
391.22	144.42
391.682	158.92
392.144	167.92
392.606	153.62
393.068	145.92
393.529	163.22
393.991	149.32
394.453	150.32
394.915	145.42
395.377	141.42
395.838	144.42
396.3	142.32
396.762	150.72
397.224	140.22
397.685	140.42
398.147	142.12
398.608	139.62
399.07	143.12
399.531	148.12
399.993	157.62
400.454	165.82
400.916	158.32
401.377	158.82
401.839	163.02
402.3	159.82
402.762	177.82
403.223	192.02
403.684	186.62
404.145	174.22
404.607	172.02
405.068	173.82
405.529	179.62
405.99	191.92
406.451	189.72
406.913	191.92
407.374	179.12
407.835	178.22
408.296	178.42
408.757	181.72
409.218	190.82
409.679	193.02
410.14	184.02
410.601	184.32
411.062	188.62
411.522	195.82
411.983	190.92
412.444	182.12
412.905	190.62
413.366	193.62
413.826	215.92
414.287	236.82
414.748	283.32
415.208	274.82
415.669	224.82
416.13	221.52
416.59	221.32
417.051	230.32
417.511	240.52
417.972	257.62
418.432	262.72
418.893	313.92
419.353	273.82
419.814	212.12
420.274	200.22
420.734	197.02
421.195	214.72
421.655	210.12
422.115	210.92
422.576	211.82
423.036	216.72
423.496	224.12
423.956	233.62
424.416	251.52
424.876	290.72
425.336	278.62
425.797	281.92
426.257	274.62
426.717	256.02
427.177	250.52
427.637	246.52
428.097	251.12
428.556	257.82
429.016	279.92
429.476	281.62
429.936	295.32
430.396	293.52
430.856	303.42
431.315	329.22
431.775	367.12
432.235	405.22
432.694	379.42
433.154	386.32
433.614	418.62
434.073	356.12
434.533	300.12
434.993	289.12
435.452	295.02
435.912	312.52
436.371	313.02
436.83	300.42
437.29	284.12
437.749	264.82
438.209	260.42
438.668	299.62
439.127	315.32
439.587	282.72
440.046	264.02
440.505	277.82
440.964	299.92
441.424	349.12
441.883	336.52
442.342	278.62
442.801	253.02
443.26	241.22
443.719	243.82
444.178	235.22
444.637	224.82
445.096	244.52
445.555	249.12
446.014	246.22
446.473	251.82
446.932	252.72
447.391	243.82
447.849	251.12
448.308	249.72
448.767	246.52
449.226	256.52
449.685	264.92
450.143	274.02
450.602	261.42
451.061	254.22
451.519	257.42
451.978	257.02
452.436	253.32
452.895	260.12
453.353	275.72
453.812	264.82
454.27	264.12
454.729	263.72
455.187	262.62
455.646	267.32
456.104	263.02
456.562	286.82
457.021	296.22
457.479	282.12
457.937	297.72
458.395	285.42
458.854	267.82
459.312	276.02
459.77	303.02
460.228	276.82
460.686	262.42
461.144	279.72
461.602	265.12
462.06	268.62
462.518	278.82
462.976	284.52
463.434	282.22
463.892	288.62
464.35	302.42
464.808	315.52
465.266	297.32
465.724	289.52
466.181	295.52
466.639	290.92
467.097	311.92
467.555	327.02
468.012	331.72
468.47	334.52
468.928	358.22
469.385	372.12
469.843	372.72
470.3	377.52
470.758	391.02
471.215	414.32
471.673	443.12
472.13	443.42
472.588	449.22
473.045	401.92
473.503	409.32
473.96	425.62
474.417	441.32
474.875	466.12
475.332	509.82
475.789	502.32
476.246	498.32
476.704	518.32
477.161	542.72
477.618	562.72
478.075	594.62
478.532	663.92
478.989	720.32
479.446	843.82
479.903	801.92
480.36	832.52
480.817	876.92
481.274	965.32
481.731	1077.02
482.188	1162.22
482.645	1270.72
483.102	1368.02
483.558	1499.52
484.015	1531.72
484.472	1501.62
484.929	1466.33
485.385	1419.52
485.842	1387.43
486.299	1351.62
486.755	1315.32
487.212	1121.02
487.668	962.22
488.125	877.12
488.582	807.32
489.038	773.32
489.494	744.22
489.951	717.92
490.407	697.02
490.864	681.22
491.32	684.82
491.776	687.72
492.233	685.62
492.689	647.82
493.145	657.02
493.602	639.82
494.058	661.62
494.514	660.02
494.97	678.62
495.426	689.62
495.882	661.42
496.338	660.92
496.794	654.12
497.251	662.02
497.707	671.42
498.163	678.32
498.618	676.42
499.074	679.32
499.53	712.82
499.986	712.02
500.442	676.12
500.898	656.32
501.354	655.82
501.809	657.62
502.265	670.82
502.721	669.32
503.177	690.02
503.632	685.02
504.088	690.42
504.543	716.12
504.999	741.82
505.455	701.32
505.91	681.12
506.366	676.42
506.821	678.12
507.277	671.12
507.732	678.62
508.187	677.92
508.643	691.02
509.098	684.42
509.553	701.22
510.009	715.62
510.464	725.12
510.919	733.82
511.375	751.22
511.83	765.42
512.285	765.32
512.74	806.02
513.195	822.42
513.65	829.12
514.105	816.62
514.56	826.32
515.015	844.62
515.47	851.82
515.925	828.82
516.38	834.82
516.835	836.52
517.29	837.72
517.745	837.62
518.2	815.72
518.655	799.92
519.109	800.12
519.564	787.12
520.019	781.62
520.474	771.42
520.928	775.62
521.383	772.32
521.838	753.12
522.292	757.72
522.747	758.02
523.201	754.22
523.656	740.12
524.11	748.12
524.565	751.42
525.019	742.72
525.474	748.42
525.928	744.22
526.382	734.52
526.837	749.52
527.291	741.82
527.745	748.92
528.2	748.82
528.654	739.02
529.108	736.32
529.562	733.32
530.016	739.22
530.47	735.92
530.925	729.82
531.379	734.72
531.833	747.62
532.287	734.72
532.741	736.32
533.195	746.32
533.649	760.42
534.103	769.92
534.556	744.62
535.01	754.42
535.464	751.92
535.918	764.02
536.372	769.72
536.826	760.92
537.279	749.52
537.733	753.22
538.187	752.32
538.64	752.12
539.094	783.02
539.548	776.32
540.001	764.52
540.455	772.42
540.908	781.82
541.362	781.12
541.815	798.02
542.269	805.92
542.722	805.22
543.175	813.02
543.629	827.72
544.082	841.52
544.536	838.72
544.989	837.32
545.442	851.52
545.895	846.32
546.349	844.62
546.802	842.52
547.255	856.82
547.708	855.22
548.161	874.62
548.614	878.32
549.067	892.42
549.52	870.72
549.973	862.32
550.426	859.52
550.879	857.42
551.332	849.22
551.785	871.42
552.238	870.12
552.691	874.82
553.144	882.12
553.596	905.12
554.049	919.52
554.502	944.12
554.955	973.02
555.407	969.02
555.86	957.12
556.313	958.42
556.765	941.42
557.218	937.52
557.67	945.02
558.123	941.92
558.576	931.92
559.028	933.12
559.48	939.22
559.933	940.02
560.385	906.12
560.838	872.92
561.29	850.12
561.742	837.52
562.195	827.82
562.647	816.82
563.099	833.72
563.551	825.62
564.004	839.42
564.456	828.72
564.908	810.62
565.36	778.32
565.812	774.62
566.264	763.92
566.716	765.82
567.168	750.62
567.62	754.12
568.072	742.82
568.524	732.42
568.976	735.32
569.428	719.72
569.88	722.02
570.332	736.12
570.784	738.72
571.235	739.12
571.687	746.22
572.139	754.72
572.59	767.92
573.042	757.42
573.494	754.72
573.945	756.32
574.397	743.22
574.849	739.92
575.3	741.62
575.752	735.42
576.203	725.02
576.655	729.72
577.106	719.02
577.557	718.72
578.009	720.72
578.46	714.62
578.912	722.12
579.363	709.62
579.814	713.22
580.265	707.92
580.717	710.82
581.168	707.62
581.619	726.32
582.07	729.62
582.521	721.32
582.972	720.02
583.423	719.22
583.875	724.62
584.326	729.32
584.777	740.12
585.227	772.72
585.678	788.22
586.129	816.72
586.58	829.42
587.031	858.12
587.482	902.02
587.933	936.32
588.384	906.52
588.834	847.82
589.285	817.02
589.736	828.92
590.186	816.82
590.637	813.22
591.088	798.72
591.538	787.52
591.989	783.62
592.439	770.82
592.89	759.22
593.34	747.52
593.791	747.72
594.241	749.62
594.692	753.32
595.142	749.22
595.593	743.22
596.043	751.32
596.493	754.62
596.943	743.82
597.394	761.92
597.844	766.92
598.294	785.72
598.744	803.82
599.195	833.22
599.645	887.62
600.095	919.22
600.545	979.62
600.995	1032.02
601.445	1097.62
601.895	1151.32
602.345	1202.72
602.795	1183.42
603.245	1131.42
603.695	1075.02
604.145	1014.32
604.594	978.62
605.044	910.72
605.494	859.72
605.944	802.52
606.393	796.32
606.843	771.82
607.293	782.32
607.743	776.02
608.192	791.82
608.642	808.92
609.091	813.72
609.541	814.72
609.99	815.52
610.44	813.22
610.889	761.12
611.339	742.92
611.788	722.82
612.238	736.82
612.687	744.52
613.136	742.12
613.586	753.72
614.035	744.52
614.484	746.72
614.933	756.52
615.383	749.62
615.832	750.32
616.281	748.52
616.73	720.02
617.179	701.72
617.628	685.92
618.077	665.62
618.526	656.32
618.975	655.62
619.424	649.52
619.873	655.52
620.322	661.82
620.771	650.12
621.22	652.12
621.669	636.02
622.118	622.92
622.567	618.82
623.015	607.82
623.464	606.12
623.913	595.62
624.361	586.32
624.81	586.82
625.259	596.72
625.707	595.22
626.156	589.52
626.604	600.02
627.053	597.32
627.501	598.92
627.95	611.02
628.398	617.72
628.847	619.42
629.295	617.12
629.744	610.42
630.192	608.42
630.64	595.92
631.089	590.82
631.537	581.82
631.985	566.62
632.433	572.42
632.881	569.32
633.33	579.22
633.778	555.12
634.226	562.02
634.674	566.92
635.122	579.12
635.57	592.12
636.018	591.82
636.466	607.12
636.914	588.62
637.362	610.52
637.81	611.02
638.258	621.42
638.705	623.32
639.153	651.12
639.601	657.62
640.049	678.42
640.497	712.52
640.944	740.92
641.392	689.52
641.84	651.42
642.287	622.62
642.735	603.52
643.182	594.92
643.63	593.92
644.078	597.82
644.525	613.22
644.973	617.92
645.42	635.82
645.867	643.82
646.315	675.02
646.762	692.82
647.21	723.92
647.657	746.42
648.104	777.72
648.551	790.52
648.999	856.62
649.446	944.62
649.893	1028.72
650.34	1164.92
650.787	1403.62
651.234	1724.92
651.682	2219.72
652.129	3016.93
652.576	4301.73
653.023	6222.12
653.47	8381.32
653.917	10362.92
654.363	11874.23
654.81	12969.82
655.257	12368.52
655.704	8204.42
656.151	4987.43
656.598	3265.93
657.044	2344.62
657.491	1824.92
657.938	1465.02
658.385	1239.32
658.831	1088.92
659.278	970.52
659.724	863.12
660.171	804.02
660.618	740.32
661.064	708.12
661.511	700.02
661.957	679.32
662.404	669.52
662.85	678.42
663.296	662.42
663.743	584.32
664.189	571.62
664.635	559.42
665.082	551.42
665.528	557.22
665.974	545.92
666.42	544.82
666.867	541.82
667.313	503.92
667.759	488.02
668.205	476.92
668.651	480.42
669.097	470.52
669.543	475.42
669.989	470.82
670.435	478.62
670.881	480.52
671.327	476.02
671.773	504.12
672.219	534.82
672.665	582.52
673.11	625.82
673.556	678.72
674.002	704.62
674.448	696.22
674.893	596.72
675.339	511.82
675.785	475.12
676.23	446.62
676.676	417.42
677.122	412.22
677.567	407.32
678.013	405.02
678.458	386.22
678.904	382.32
679.349	376.22
679.794	374.52
680.24	377.22
680.685	375.72
681.131	369.82
681.576	376.92
682.021	381.92
682.466	379.62
682.912	364.92
683.357	388.02
683.802	409.72
684.247	447.42
684.692	493.32
685.137	530.42
685.583	576.62
686.028	596.32
686.473	560.32
686.918	482.52
687.363	448.42
687.807	420.72
688.252	399.62
688.697	389.12
689.142	365.62
689.587	356.72
690.032	356.62
690.477	369.42
690.921	377.72
691.366	411.12
691.811	432.72
692.255	456.32
692.7	493.12
693.145	550.92
693.589	766.12
694.034	1246.82
694.478	1680.22
694.923	1849.22
695.367	2399.73
695.812	1287.12
696.256	533.22
696.701	396.32
697.145	377.82
697.59	356.72
698.034	349.12
698.478	354.52
698.922	342.52
699.367	342.92
699.811	355.12
700.255	373.12
700.699	418.72
701.143	455.52
701.588	506.22
702.032	549.42
702.476	547.82
702.92	539.62
703.364	539.62
703.808	717.02
704.252	1161.82
704.696	1593.22
705.14	1776.03
705.584	2255.52
706.027	1143.62
706.471	567.82
706.915	429.42
707.359	382.72
707.803	346.42
708.246	334.82
708.69	336.22
709.134	336.32
709.577	333.52
710.021	337.22
710.465	324.82
710.908	320.32
711.352	318.92
711.795	341.72
712.239	378.72
712.682	416.32
713.126	433.82
713.569	480.52
714.012	389.12
714.456	325.82
714.899	308.92
715.342	292.22
715.786	280.62
716.229	279.82
716.672	272.72
717.115	267.42
717.558	274.72
718.002	261.32
718.445	282.52
718.888	312.52
719.331	319.82
719.774	330.22
720.217	332.62
720.66	305.62
721.103	286.12
721.546	275.62
721.989	269.82
722.432	249.72
722.874	258.02
723.317	247.82
723.76	250.52
724.203	276.82
724.645	347.42
725.088	485.92
725.531	613.72
725.974	684.42
726.416	588.52
726.859	324.72
727.301	273.92
727.744	251.32
728.187	257.22
728.629	255.32
729.071	260.22
729.514	279.12
729.956	288.12
730.399	304.32
730.841	312.22
731.283	295.02
731.726	280.12
732.168	289.92
732.61	290.42
733.053	308.42
733.495	338.42
733.937	385.82
734.379	434.62
734.821	471.32
735.263	595.42
735.705	948.62
736.148	1766.82
736.59	2823.12
737.032	3262.52
737.474	2671.62
737.916	878.12
738.357	460.32
738.799	355.22
739.241	332.02
739.683	305.62
740.125	314.22
740.567	325.32
741.008	333.32
741.45	339.62
741.892	334.82
742.334	381.52
742.775	396.42
743.217	370.22
743.658	297.12
744.1	279.02
744.542	288.62
744.983	342.62
745.425	369.82
745.866	365.42
746.307	303.72
746.749	303.82
747.19	354.42
747.632	501.02
748.073	996.12
748.514	2073.12
748.956	3079.72
749.397	3881.63
749.838	3228.43
750.279	3145.03
750.72	1603.12
751.162	596.22
751.603	348.62
752.044	275.02
752.485	230.82
752.926	223.42
753.367	214.32
753.808	199.92
754.249	204.32
754.69	198.72
755.131	198.52
755.572	200.02
756.013	195.62
756.453	197.02
756.894	201.42
757.335	200.42
757.776	215.42
758.216	209.32
758.657	216.52
759.098	218.92
759.538	246.02
759.979	287.72
760.42	412.12
760.86	788.42
761.301	2061.72
761.741	4899.53
762.182	6822.73
762.622	4828.32
763.063	1429.62
763.503	581.72
763.943	358.72
764.384	298.32
764.824	282.22
765.264	263.22
765.705	231.72
766.145	202.72
766.585	184.52
767.025	186.82
767.465	186.02
767.906	203.72
768.346	221.42
768.786	236.42
769.226	232.72
769.666	336.32
770.106	691.22
770.546	1742.32
770.986	2828.03
771.426	2514.43
771.866	851.12
772.306	357.42
772.745	228.52
773.185	179.72
773.625	179.72
774.065	165.42
774.505	179.72
774.944	227.82
775.384	402.02
775.824	646.32
776.263	610.82
776.703	302.12
777.142	175.32
777.582	153.42
778.021	133.52
778.461	131.12
778.9	139.22
779.34	135.52
779.779	125.52
780.219	114.12
780.658	109.02
781.097	123.62
781.537	122.02
781.976	116.72
782.415	118.22
782.855	113.92
783.294	106.62
783.733	102.72
784.172	110.02
784.611	111.92
785.05	115.72
785.489	124.82
785.928	127.22
786.367	126.92
786.806	130.02
787.245	138.22
787.684	146.02
788.123	160.72
788.562	146.32
789.001	131.12
789.44	132.02
789.879	127.92
790.317	129.22
790.756	135.82
791.195	139.92
791.634	156.42
792.072	223.22
792.511	405.62
792.95	1118.92
793.388	2273.82
793.827	2015.92
794.265	714.42
794.704	300.52
795.142	194.92
795.581	165.12
796.019	142.12
796.458	139.52
796.896	130.42
797.334	151.22
797.773	170.22
798.211	241.92
798.649	493.42
799.087	1119.32
799.526	1737.32
799.964	2177.72
800.402	2138.62
800.84	818.82
801.278	327.92
801.716	202.02
802.154	165.42
802.592	159.32
803.03	149.62
803.468	143.12
803.906	151.82
804.344	159.42
804.782	151.42
805.22	147.12
805.658	144.02
806.096	165.52
806.533	170.52
806.971	192.12
807.409	239.52
807.847	341.72
808.284	756.22
808.722	2066.12
809.16	3547.03
809.597	3462.12
810.035	5887.32
810.472	6092.03
810.91	2244.93
811.347	870.72
811.785	440.12
812.222	283.22
812.66	212.92
813.097	181.12
813.535	154.52
813.972	141.72
814.409	129.62
814.846	111.92
815.284	111.92
815.721	111.62
816.158	105.72
816.595	128.22
817.032	168.22
817.47	195.82
817.907	139.32
818.344	112.92
818.781	102.52
819.218	106.22
819.655	135.92
820.092	208.62
820.529	234.82
820.966	182.52
821.403	134.72
821.839	108.32
822.276	99.12
822.713	135.42
823.15	145.82
823.587	132.62
824.023	163.42
824.46	337.02
824.897	984.12
825.333	1432.82
825.77	629.02
826.206	250.22
826.643	151.22
827.08	110.92
827.516	88.12
827.953	82.92
828.389	89.42
828.825	75.82
829.262	73.42
829.698	68.02
830.135	65.02
830.571	61.42
831.007	71.02
831.443	69.72
831.88	63.52
832.316	67.92
832.752	58.82
833.188	73.52
833.624	70.52
834.06	75.42
834.497	74.22
834.933	72.92
835.369	81.02
835.805	74.32
836.241	86.32
836.677	88.42
837.112	91.52
837.548	113.42
837.984	143.82
838.42	218.02
838.856	558.82
839.292	1659.52
839.727	2448.23
840.163	1156.12
840.599	1036.92
841.034	2200.42
841.47	2248.83
841.906	832.62
842.341	356.22
842.777	212.52
843.212	217.82
843.648	201.52
844.083	126.42
844.519	86.72
844.954	72.72
845.39	61.62
845.825	56.82
846.261	59.22
846.696	56.52
847.131	55.32
847.566	63.72
848.002	51.92
848.437	60.62
848.872	64.92
849.307	67.42
849.742	94.42
850.177	202.42
850.613	621.02
851.048	933.02
851.483	402.92
851.918	164.92
852.353	91.22
852.788	60.12
853.223	56.32
853.657	58.32
854.092	48.22
854.527	38.52
854.962	38.42
855.397	50.92
855.832	51.32
856.266	39.52
856.701	35.92
857.136	40.02
857.57	46.82
858.005	57.42
858.44	65.32
858.874	47.92
859.309	63.32
859.743	43.12
860.178	49.02
860.612	44.82
861.047	60.12
861.481	77.52
861.915	82.12
862.35	52.52
862.784	36.42
863.218	42.62
863.653	32.62
864.087	53.92
864.521	58.12
864.955	73.82
865.39	172.22
865.824	188.22
866.258	127.42
866.692	186.32
867.126	200.52
867.56	109.72
867.994	58.42
868.428	39.52
868.862	59.42
869.296	58.72
869.73	64.82
870.164	58.72
870.598	52.22
871.031	44.52
871.465	28.42
871.899	34.92
872.333	29.32
872.766	29.22
873.2	22.42
873.634	34.92
874.067	19.12
874.501	31.22
874.935	35.42
875.368	31.92
875.802	27.32
876.235	24.62
876.669	25.32
877.102	22.22
877.535	28.02
877.969	19.42
878.402	25.12
878.836	14.82
879.269	21.92
879.702	27.82
880.135	27.02
880.569	16.92
881.002	25.52
881.435	18.22
881.868	19.02
882.301	23.12
882.734	16.52
883.167	26.62
883.601	15.62
884.034	25.82
884.467	13.92
884.899	13.92
885.332	18.82
885.765	14.22
886.198	21.82
886.631	18.32
887.064	20.02
887.497	27.02
887.929	28.52
888.362	21.72
888.795	17.82
889.228	20.92
889.66	18.62
890.093	17.92
890.526	21.02
890.958	19.52
891.391	23.82
891.823	19.72
892.256	12.62
892.688	13.32
893.121	18.02
893.553	16.82
893.985	26.02
894.418	15.82
894.85	11.92
895.282	20.72
895.715	20.92
896.147	18.22
896.579	12.92
897.011	14.62
897.444	15.72
897.876	14.62
898.308	16.22
898.74	20.22
899.172	13.92
899.604	24.72
900.036	26.32
900.468	18.02
900.9	15.92
901.332	21.62
901.764	16.62
902.196	17.92
902.628	17.22
903.06	15.62
903.491	25.12
903.923	28.02
904.355	18.02
904.787	22.92
905.218	27.92
905.65	17.32
906.082	14.12
906.513	15.42
906.945	14.22
907.376	9.32
907.808	21.92
908.239	18.82
908.671	18.92
909.102	18.82
909.534	22.92
909.965	51.92
910.397	104.42
910.828	348.12
911.259	505.12
911.691	228.62
912.122	110.52
912.553	55.62
912.984	37.72
913.415	32.32
913.847	24.12
914.278	15.02
914.709	10.92
915.14	18.62
915.571	23.42
916.002	12.22
916.433	20.82
916.864	18.62
917.295	13.42
917.726	24.72
918.157	16.82
918.587	30.32
919.018	27.32
919.449	27.12
919.88	22.32
920.311	36.22
920.741	56.32
921.172	182.82
921.603	162.32
922.033	77.62
922.464	51.52
922.895	28.42
923.325	18.92
923.756	17.12
924.186	14.02
924.617	19.22
925.047	20.22
925.478	18.12
925.908	29.72
926.338	18.72
926.769	14.72
927.199	15.22
927.629	6.92
928.06	13.42
928.49	12.52
928.92	17.92
929.35	10.12
929.78	12.12
930.21	6.32
930.641	3.62
931.071	10.82
931.501	3.32
931.931	6.72
932.361	12.42
932.791	3.42
933.221	6.42
933.651	8.12
934.08	21.12
934.51	33.32
934.94	8.02
935.37	6.92
935.8	10.72
936.229	9.52
936.659	5.32
937.089	4.72
937.519	16.52
937.948	24.82
938.378	17.12
938.807	5.22
939.237	6.82
939.666	4.22
940.096	-5.28
940.525	5.42
940.955	3.72
941.384	0.32
941.814	-7.78
942.243	-4.18
942.672	5.32
943.102	-7.58
943.531	1.72
943.96	1.22
944.39	2.02
944.819	-1.48
945.248	3.62
945.677	0.02
946.106	8.12
946.535	8.82
946.964	2.32
947.393	5.72
947.822	-1.98
948.251	-1.78
948.68	1.92
949.109	8.72
949.538	3.52
949.967	2.22
950.396	-1.58
950.825	-0.38
951.254	4.72
951.682	-1.98
952.111	2.82
952.54	2.52
952.969	-0.78
953.397	-10.18
953.826	-0.98
954.254	-9.28
954.683	2.42
955.112	-4.58
955.54	-1.98
955.969	4.42
956.397	-0.38
956.826	-1.48
957.254	4.42
957.682	-1.68
958.111	2.62
958.539	2.62
958.967	1.72
959.396	-1.48
959.824	3.42
960.252	6.72
960.68	0.22
961.109	-8.38
961.537	-2.08
961.965	-1.78
962.393	-3.88
962.821	-0.38
963.249	-3.38
963.677	4.52
964.105	0.82
964.533	53.52
964.961	45.32
965.389	27.02
965.817	6.22
966.245	0.82
966.672	-2.38
967.1	-3.18
967.528	0.92
967.956	-4.98
968.383	2.82
968.811	-3.58
969.239	-6.38
969.666	-3.98
970.094	0.32
970.522	1.22
970.949	-3.48
971.377	-3.08
971.804	-5.98
972.232	-2.48
972.659	-7.48
973.087	-0.68
973.514	-4.58
973.941	-2.18
974.369	2.22
974.796	5.82
975.223	3.62
975.651	-1.78
976.078	-2.18
976.505	-4.68
976.932	3.32
977.359	18.92
977.786	14.02
978.214	2.12
978.641	-8.98
979.068	-1.58
979.495	-12.68
979.922	-1.48
980.349	3.92
980.776	5.82
981.202	3.92
981.629	3.82
982.056	3.12
982.483	-2.38
982.91	9.02
983.337	4.22
983.763	8.82
984.19	-6.08
984.617	-1.18
985.043	-6.68
985.47	1.02
985.897	-7.88
986.323	-9.88
986.75	2.82
987.176	0.82
987.603	-3.18
988.029	-6.28
988.456	1.52
988.882	-2.68
989.308	-2.08
989.735	-6.38
990.161	-4.48
990.587	-8.88
991.014	-6.28
991.44	2.92
991.866	-0.78
992.292	-2.98
992.719	-2.68
993.145	4.72
993.571	-4.98
993.997	-1.58
994.423	-5.68
994.849	-8.58
995.275	3.52
995.701	1.32
996.127	1.52
996.553	0.22
996.979	-5.08
997.405	0.22
997.83	-7.38
998.256	-8.88
998.682	-5.08
999.108	-10.38
999.534	-6.68
999.959	-0.88
1000.385	-9.08
1000.811	-4.08
1001.236	-8.58
1001.662	-2.18
1002.087	-13.98
1002.513	-0.88
1002.938	0.32
1003.364	-3.28
1003.789	-0.58
1004.215	2.92
1004.64	-1.88
1005.066	8.02
1005.491	5.12
1005.916	-4.38
1006.342	-4.18
1006.767	-8.88
1007.192	1.52
1007.617	-1.08
1008.042	-7.48
1008.468	-4.08
1008.893	-9.98
1009.318	-3.48
1009.743	-3.48
1010.168	2.22
1010.593	6.92
1011.018	-5.28
1011.443	-1.08
1011.868	5.72
1012.293	-0.48
1012.718	-4.58
1013.143	1.82
1013.567	6.42
1013.992	-5.08
1014.417	-12.88
1014.842	-4.38
1015.267	-5.08
1015.691	0.22
1016.116	7.72
1016.541	-5.08
1016.965	0.82
1017.39	5.62
1017.814	-2.68
1018.239	-0.58
1018.663	-8.28
1019.088	-5.88
1019.512	-3.38
1019.937	-2.18
1020.361	-5.88
1020.785	-5.78
1021.21	-9.28
1021.634	-4.78
1022.058	-4.38
1022.483	4.32
1022.907	-1.68
1023.331	-5.38
1023.755	-3.78
1024.179	-3.48
1024.604	-5.88
1025.028	-7.38
1025.452	-2.78
1025.876	0.42
1026.3	-0.78
1026.724	-18.38
1027.148	-3.28
1027.572	-10.18
1027.996	-1.28
1028.42	-4.98
1028.843	-5.28
1029.267	-4.48
1029.691	1.72
1030.115	-4.78
1030.539	-6.68
1030.962	-0.38
1031.386	-11.28
1031.81	-4.88
1032.233	2.62
1032.657	-6.48
1033.08	-5.58
1033.504	-5.88
1033.927	-0.48
1034.351	-1.08
1034.774	-5.98
1035.198	1.22
1035.621	-9.68
1036.045	-4.78
1036.468	5.62
1036.891	-12.18
1037.315	-10.78
1037.738	-7.88
1038.161	-4.48
1038.584	-9.08
1039.008	-9.98
1039.431	-3.98
1039.854	-8.28
1040.277	-4.38
1040.7	-5.68
1041.123	-1.78
1041.546	-4.98
1041.969	-6.58
1042.392	-3.38
1042.815	-2.58
1043.238	3.72
1043.661	5.92
1044.084	-8.58
1044.507	-1.78
1044.93	-3.08
1045.352	-7.68
1045.775	-1.58
1046.198	-2.38
1046.621	-0.48
1047.043	-4.18
1047.466	7.72
1047.889	-1.38
1048.311	-10.38
1048.734	-3.68
1049.156	-3.68
1049.579	-3.98
1050.001	-10.48
1050.424	-2.18
1050.846	-9.18
1051.269	-6.28
1051.691	-4.18
1052.113	-4.88
1052.536	3.82
1052.958	-4.28
1053.38	-1.98
1053.802	-7.48
1054.225	4.02
1054.647	-9.18
1055.069	-2.68
1055.491	0.52
1055.913	-11.18
1056.335	0.32
1056.757	-0.88
1057.179	-6.68
1057.601	-9.18
1058.023	-0.38
1058.445	-9.48
1058.867	-0.98
1059.289	-0.38
1059.711	-8.38
1060.133	-3.48
1060.555	-3.28
1060.976	-6.28
1061.398	-7.08
1061.82	-4.38
1062.241	-5.98
1062.663	-6.18
1063.085	-4.88
1063.506	-10.38
1063.928	-1.58
1064.35	1.32
1064.771	-10.88
1065.193	-6.88
1065.614	-11.88
1066.035	0.92
1066.457	-7.28
1066.878	-1.08
1067.3	-0.78
1067.721	-0.88
1068.142	-2.18
1068.564	-4.78
1068.985	-7.18
1069.406	-2.68
1069.827	-10.28
1070.248	3.32
1070.67	-5.38
1071.091	-7.38
1071.512	-7.78
1071.933	-8.18
1072.354	-9.98
1072.775	-5.08
1073.196	-4.68
1073.617	-4.78
1074.038	-4.88
1074.459	-0.48
1074.88	-12.78
1075.3	0.72
1075.721	-7.68
1076.142	4.12
1076.563	-0.08
1076.983	-10.08
1077.404	-7.78
1077.825	-8.48
1078.246	-9.58
1078.666	-9.28
1079.087	-4.08
1079.507	-3.98
1079.928	-0.48
1080.348	-3.18
1080.769	-0.08
1081.189	-0.78
1081.61	-3.18
1082.03	-12.08
1082.451	-12.38
1082.871	-2.98
1083.291	-5.88
1083.711	-12.08
1084.132	-6.28
1084.552	-4.28
1084.972	-5.18
1085.392	-13.08
1085.813	-12.98
1086.233	-5.68
1086.653	-4.88
1087.073	-6.08
1087.493	-8.28
1087.913	-8.18
1088.333	-8.08
1088.753	-5.08
1089.173	5.32
1089.593	-1.48
1090.013	-2.38
1090.433	0.52
1090.852	-5.28
1091.272	-3.48
1091.692	-4.48
1092.112	-3.38
1092.531	-10.08
1092.951	-14.18
1093.371	-1.28
1093.79	-0.38
1094.21	-3.28
1094.63	-5.68
1095.049	-5.28
1095.469	-1.18
1095.888	0.22
1096.308	1.22
1096.727	0.22
1097.146	-12.38
1097.566	-2.18
1097.985	-4.58
1098.405	-3.28
1098.824	-10.08
1099.243	-9.88
1099.662	-8.78
1100.082	-4.88
1100.501	0.52
1100.92	-9.38
1101.339	-9.08
1101.758	-1.38
