Data from 20171114-ORNL-Ar_H_NY_Subt18_08-06-27-012.txt Node
Date: Tue Nov 14 08:06:27 EST 2017
User: Ender
Spectrometer: HR+D1039
Trigger mode: 0
Integration Time (sec): 2.730000E-2
Scans to average: 10
Electric dark correction enabled: true
Nonlinearity correction enabled: false
Boxcar width: 0
XAxis mode: Wavelengths
Number of Pixels in Spectrum: 2048
>>>>>Begin Spectral Data<<<<<
187.836	-3.32
188.309	-3.32
188.782	-3.32
189.255	0.38
189.728	-2.02
190.201	7.58
190.674	-2.02
191.147	-0.82
191.619	-3.42
192.092	2.58
192.565	6.88
193.038	0.08
193.511	2.58
193.984	-1.22
194.456	-0.52
194.929	-4.02
195.402	-6.02
195.874	3.28
196.347	-3.72
196.82	-11.92
197.292	3.08
197.765	1.88
198.237	-7.72
198.71	-1.12
199.182	-3.62
199.655	6.58
200.127	7.28
200.6	-4.02
201.072	0.28
201.544	-4.32
202.017	-4.82
202.489	0.08
202.961	-0.62
203.433	-5.42
203.906	-7.82
204.378	-4.82
204.85	-5.42
205.322	-4.32
205.794	-7.52
206.266	-5.52
206.739	-7.62
207.211	1.78
207.683	-7.02
208.155	-5.32
208.627	-10.42
209.099	-5.82
209.57	-12.02
210.042	-8.82
210.514	-5.62
210.986	-1.32
211.458	-5.52
211.93	-2.12
212.402	0.38
212.873	-12.12
213.345	-11.62
213.817	-10.92
214.288	-8.32
214.76	-12.82
215.232	1.18
215.703	-3.02
216.175	-6.62
216.646	-4.42
217.118	-4.82
217.589	-9.42
218.061	-2.82
218.532	-9.72
219.004	-1.02
219.475	-3.32
219.946	-3.72
220.418	-5.52
220.889	1.08
221.36	-1.42
221.832	-6.22
222.303	-11.02
222.774	-2.12
223.245	-15.92
223.717	-5.22
224.188	-4.22
224.659	-13.32
225.13	-9.12
225.601	-2.92
226.072	0.58
226.543	-4.62
227.014	-4.32
227.485	-4.22
227.956	-8.42
228.427	-1.92
228.898	1.58
229.369	1.68
229.839	-6.42
230.31	-4.42
230.781	2.28
231.252	-4.72
231.722	-9.82
232.193	-3.62
232.664	0.68
233.135	-3.22
233.605	5.18
234.076	-5.82
234.546	3.18
235.017	3.48
235.487	-3.72
235.958	-1.22
236.428	-1.42
236.899	5.78
237.369	3.08
237.84	-3.82
238.31	2.08
238.78	5.48
239.251	-3.42
239.721	-3.72
240.191	0.48
240.662	-4.52
241.132	-2.12
241.602	-4.82
242.072	0.68
242.542	3.78
243.013	-0.62
243.483	3.18
243.953	4.78
244.423	-3.72
244.893	-6.52
245.363	-0.32
245.833	0.18
246.303	4.38
246.773	6.48
247.243	9.68
247.712	1.28
248.182	3.68
248.652	9.98
249.122	-3.32
249.592	9.68
250.061	16.48
250.531	29.48
251.001	11.38
251.471	17.48
251.94	11.98
252.41	8.78
252.879	-2.02
253.349	9.18
253.818	9.98
254.288	-1.22
254.757	3.18
255.227	5.58
255.696	1.38
256.166	3.88
256.635	3.48
257.105	5.88
257.574	3.78
258.043	6.68
258.513	2.38
258.982	13.28
259.451	3.48
259.92	12.48
260.389	12.78
260.859	19.78
261.328	8.58
261.797	16.78
262.266	9.68
262.735	8.38
263.204	5.38
263.673	-2.62
264.142	-0.52
264.611	-3.32
265.08	-2.92
265.549	0.38
266.018	-1.82
266.487	-2.12
266.955	-1.02
267.424	0.18
267.893	4.68
268.362	3.38
268.83	4.58
269.299	10.88
269.768	7.58
270.236	3.38
270.705	-1.82
271.174	6.18
271.642	7.18
272.111	8.48
272.579	13.08
273.048	21.08
273.516	30.18
273.985	27.18
274.453	19.18
274.922	12.68
275.39	4.98
275.858	-2.52
276.327	11.38
276.795	19.48
277.263	11.28
277.731	32.38
278.2	50.28
278.668	52.68
279.136	45.28
279.604	14.48
280.072	14.08
280.54	10.38
281.008	15.58
281.477	13.78
281.945	10.98
282.413	9.28
282.881	12.28
283.348	7.78
283.816	12.38
284.284	16.48
284.752	25.18
285.22	11.28
285.688	11.28
286.156	15.98
286.623	40.78
287.091	49.18
287.559	28.48
288.026	22.98
288.494	20.58
288.962	2.18
289.429	7.28
289.897	18.78
290.364	11.38
290.832	9.38
291.3	8.58
291.767	14.78
292.234	15.28
292.702	12.28
293.169	22.68
293.637	24.48
294.104	23.18
294.571	9.98
295.039	7.08
295.506	14.38
295.973	18.98
296.44	13.78
296.908	15.78
297.375	16.48
297.842	18.58
298.309	16.18
298.776	13.88
299.243	20.48
299.71	10.78
300.177	19.68
300.644	19.58
301.111	18.18
301.578	25.18
302.045	19.88
302.512	23.68
302.979	24.68
303.446	21.58
303.913	19.48
304.379	14.58
304.846	23.28
305.313	21.98
305.78	22.98
306.246	26.68
306.713	24.38
307.18	21.18
307.646	23.28
308.113	29.18
308.579	24.28
309.046	22.28
309.512	27.88
309.979	17.58
310.445	27.38
310.912	27.38
311.378	34.08
311.845	28.58
312.311	28.68
312.777	35.38
313.244	23.88
313.71	39.78
314.176	29.88
314.642	35.68
315.109	29.18
315.575	33.18
316.041	39.58
316.507	41.98
316.973	38.58
317.439	32.28
317.905	34.38
318.371	37.78
318.837	37.38
319.303	35.48
319.769	38.38
320.235	32.08
320.701	37.88
321.167	35.98
321.633	32.18
322.099	37.78
322.564	42.68
323.03	41.88
323.496	39.28
323.962	43.28
324.427	41.88
324.893	46.08
325.359	38.48
325.824	34.88
326.29	39.98
326.755	40.48
327.221	42.88
327.686	38.88
328.152	43.28
328.617	43.18
329.083	45.98
329.548	43.68
330.014	41.38
330.479	39.88
330.944	42.48
331.41	46.28
331.875	44.68
332.34	37.48
332.805	43.48
333.271	45.38
333.736	44.88
334.201	50.98
334.666	50.18
335.131	55.08
335.596	47.68
336.061	44.18
336.526	42.18
336.991	47.38
337.456	56.28
337.921	44.58
338.386	42.88
338.851	53.28
339.316	46.48
339.781	43.28
340.246	48.08
340.711	44.08
341.175	51.98
341.64	44.78
342.105	53.18
342.569	59.78
343.034	58.98
343.499	59.68
343.963	53.48
344.428	63.68
344.893	58.98
345.357	63.48
345.822	61.08
346.286	65.78
346.751	74.28
347.215	72.38
347.679	73.68
348.144	96.68
348.608	81.48
349.073	72.68
349.537	81.68
350.001	77.08
350.465	88.88
350.93	77.68
351.394	80.98
351.858	68.78
352.322	90.48
352.786	84.28
353.25	101.78
353.715	115.78
354.179	103.88
354.643	126.38
355.107	128.08
355.571	103.18
356.035	107.58
356.498	122.28
356.962	122.48
357.426	134.38
357.89	114.78
358.354	89.08
358.818	83.68
359.281	82.98
359.745	72.78
360.209	82.38
360.673	76.68
361.136	78.48
361.6	80.68
362.064	77.08
362.527	82.38
362.991	95.48
363.454	82.28
363.918	78.88
364.381	82.88
364.845	83.08
365.308	90.58
365.772	81.48
366.235	86.18
366.698	87.08
367.162	85.58
367.625	86.48
368.088	92.88
368.552	92.38
369.015	91.58
369.478	96.38
369.941	107.68
370.404	93.68
370.867	109.18
371.331	112.28
371.794	116.38
372.257	115.58
372.72	118.78
373.183	106.38
373.646	105.18
374.109	113.98
374.572	104.28
375.035	106.28
375.497	109.38
375.96	107.88
376.423	101.18
376.886	113.88
377.349	113.88
377.811	104.58
378.274	107.58
378.737	108.78
379.199	115.58
379.662	121.28
380.125	119.98
380.587	117.68
381.05	119.88
381.512	131.78
381.975	135.98
382.437	130.88
382.9	126.78
383.362	135.98
383.825	141.88
384.287	150.88
384.75	138.88
385.212	136.98
385.674	140.48
386.136	133.08
386.599	128.38
387.061	135.48
387.523	135.28
387.985	135.78
388.447	143.88
388.91	142.88
389.372	160.68
389.834	151.98
390.296	149.28
390.758	161.48
391.22	169.58
391.682	217.68
392.144	294.18
392.606	234.28
393.068	167.28
393.529	175.38
393.991	151.78
394.453	146.98
394.915	151.88
395.377	201.18
395.838	218.78
396.3	156.68
396.762	143.08
397.224	137.28
397.685	125.38
398.147	126.28
398.608	132.08
399.07	130.98
399.531	133.98
399.993	145.18
400.454	151.18
400.916	150.48
401.377	149.48
401.839	155.38
402.3	148.28
402.762	162.48
403.223	182.18
403.684	176.88
404.145	164.68
404.607	164.88
405.068	167.48
405.529	173.18
405.99	190.48
406.451	178.38
406.913	179.68
407.374	170.58
407.835	164.48
408.296	172.28
408.757	173.98
409.218	200.38
409.679	182.58
410.14	174.38
410.601	175.28
411.062	184.88
411.522	196.38
411.983	202.18
412.444	177.98
412.905	177.68
413.366	189.08
413.826	197.08
414.287	221.78
414.748	259.38
415.208	251.38
415.669	211.88
416.13	214.78
416.59	210.88
417.051	225.48
417.511	230.78
417.972	242.58
418.432	249.28
418.893	299.28
419.353	255.58
419.814	204.18
420.274	188.08
420.734	184.28
421.195	203.88
421.655	196.88
422.115	199.88
422.576	193.78
423.036	202.68
423.496	214.58
423.956	218.58
424.416	228.18
424.876	266.28
425.336	271.08
425.797	268.88
426.257	256.18
426.717	247.28
427.177	233.48
427.637	227.08
428.097	240.38
428.556	252.78
429.016	281.98
429.476	267.38
429.936	283.08
430.396	280.68
430.856	299.88
431.315	327.58
431.775	361.18
432.235	395.68
432.694	369.58
433.154	372.08
433.614	400.58
434.073	342.68
434.533	288.78
434.993	282.18
435.452	284.98
435.912	305.48
436.371	297.88
436.83	300.08
437.29	277.28
437.749	250.58
438.209	249.78
438.668	278.38
439.127	299.38
439.587	269.38
440.046	254.58
440.505	269.78
440.964	283.38
441.424	335.08
441.883	312.88
442.342	273.68
442.801	225.08
443.26	231.48
443.719	228.38
444.178	222.18
444.637	211.98
445.096	217.18
445.555	227.78
446.014	227.08
446.473	231.48
446.932	240.98
447.391	228.48
447.849	232.08
448.308	225.88
448.767	224.88
449.226	239.08
449.685	244.78
450.143	247.98
450.602	239.38
451.061	227.68
451.519	242.58
451.978	236.08
452.436	232.98
452.895	240.28
453.353	261.28
453.812	248.18
454.27	250.58
454.729	236.08
455.187	249.38
455.646	244.68
456.104	247.68
456.562	262.68
457.021	269.98
457.479	264.88
457.937	278.28
458.395	271.58
458.854	257.18
459.312	257.78
459.77	279.98
460.228	264.88
460.686	252.08
461.144	253.28
461.602	244.88
462.06	245.78
462.518	255.18
462.976	255.18
463.434	260.98
463.892	270.88
464.35	288.18
464.808	298.48
465.266	270.88
465.724	271.78
466.181	275.28
466.639	275.68
467.097	291.08
467.555	305.88
468.012	311.38
468.47	322.28
468.928	335.58
469.385	346.48
469.843	360.48
470.3	360.68
470.758	373.48
471.215	399.18
471.673	424.48
472.13	415.58
472.588	435.68
473.045	391.98
473.503	381.88
473.96	401.88
474.417	408.88
474.875	445.88
475.332	482.58
475.789	474.28
476.246	477.38
476.704	494.98
477.161	517.58
477.618	540.88
478.075	576.08
478.532	627.78
478.989	715.58
479.446	819.68
479.903	796.38
480.36	812.08
480.817	881.88
481.274	994.08
481.731	1087.48
482.188	1192.08
482.645	1324.28
483.102	1431.48
483.558	1569.48
484.015	1621.38
484.472	1593.58
484.929	1549.98
485.385	1493.08
485.842	1458.48
486.299	1394.28
486.755	1326.98
487.212	1131.08
487.668	950.28
488.125	869.18
488.582	786.98
489.038	773.58
489.494	728.98
489.951	708.98
490.407	683.48
490.864	664.88
491.32	660.98
491.776	656.78
492.233	662.38
492.689	621.08
493.145	619.68
493.602	614.38
494.058	626.78
494.514	622.48
494.97	649.08
495.426	667.58
495.882	632.08
496.338	637.48
496.794	640.58
497.251	626.28
497.707	657.08
498.163	661.08
498.618	655.58
499.074	661.48
499.53	686.48
499.986	692.18
500.442	668.18
500.898	646.78
501.354	635.18
501.809	658.08
502.265	655.38
502.721	672.48
503.177	688.08
503.632	677.78
504.088	688.68
504.543	726.78
504.999	719.88
505.455	673.78
505.91	645.98
506.366	636.68
506.821	643.78
507.277	635.98
507.732	637.08
508.187	648.48
508.643	650.18
509.098	648.58
509.553	669.78
510.009	662.58
510.464	691.88
510.919	702.68
511.375	707.98
511.83	727.88
512.285	732.58
512.74	767.28
513.195	798.28
513.65	788.58
514.105	791.28
514.56	793.88
515.015	802.18
515.47	827.08
515.925	813.98
516.38	800.48
516.835	814.08
517.29	809.48
517.745	797.88
518.2	777.08
518.655	768.58
519.109	748.98
519.564	756.68
520.019	747.38
520.474	741.28
520.928	747.08
521.383	736.68
521.838	725.98
522.292	725.28
522.747	729.48
523.201	718.38
523.656	712.28
524.11	714.38
524.565	707.78
525.019	699.58
525.474	715.58
525.928	711.18
526.382	712.58
526.837	709.38
527.291	715.08
527.745	716.18
528.2	722.88
528.654	709.28
529.108	704.08
529.562	700.18
530.016	715.28
530.47	706.98
530.925	709.18
531.379	718.98
531.833	720.78
532.287	713.78
532.741	718.48
533.195	722.18
533.649	727.58
534.103	736.98
534.556	717.38
535.01	727.58
535.464	722.88
535.918	740.98
536.372	734.68
536.826	726.08
537.279	721.18
537.733	720.48
538.187	728.88
538.64	728.48
539.094	741.08
539.548	739.78
540.001	739.88
540.455	739.18
540.908	747.18
541.362	756.98
541.815	759.88
542.269	773.88
542.722	778.78
543.175	787.68
543.629	783.38
544.082	804.98
544.536	808.28
544.989	799.28
545.442	799.38
545.895	798.08
546.349	802.08
546.802	805.98
547.255	823.18
547.708	818.88
548.161	824.18
548.614	833.58
549.067	836.98
549.52	832.98
549.973	818.78
550.426	819.88
550.879	813.28
551.332	810.58
551.785	832.88
552.238	820.08
552.691	844.48
553.144	850.98
553.596	865.18
554.049	880.98
554.502	910.98
554.955	939.68
555.407	931.58
555.86	922.88
556.313	908.08
556.765	894.08
557.218	903.48
557.67	899.88
558.123	894.28
558.576	889.18
559.028	887.28
559.48	890.98
559.933	894.08
560.385	852.38
560.838	821.78
561.29	795.98
561.742	796.68
562.195	774.08
562.647	777.48
563.099	790.78
563.551	787.78
564.004	791.18
564.456	785.38
564.908	783.98
565.36	767.68
565.812	752.18
566.264	747.68
566.716	740.68
567.168	721.88
567.62	735.18
568.072	720.68
568.524	709.78
568.976	703.68
569.428	690.78
569.88	681.38
570.332	689.88
570.784	694.08
571.235	697.18
571.687	704.58
572.139	707.98
572.59	726.88
573.042	727.08
573.494	728.78
573.945	725.28
574.397	692.78
574.849	711.98
575.3	709.28
575.752	697.58
576.203	694.58
576.655	696.98
577.106	686.88
577.557	673.78
578.009	671.58
578.46	677.78
578.912	677.68
579.363	682.48
579.814	679.68
580.265	674.48
580.717	673.48
581.168	686.88
581.619	692.78
582.07	698.68
582.521	689.08
582.972	685.88
583.423	684.58
583.875	693.58
584.326	713.68
584.777	760.08
585.227	838.48
585.678	931.98
586.129	1008.08
586.58	1064.48
587.031	1158.48
587.482	1320.48
587.933	1482.08
588.384	1303.78
588.834	985.18
589.285	814.58
589.736	795.78
590.186	782.28
590.637	779.18
591.088	756.28
591.538	742.88
591.989	741.98
592.439	736.18
592.89	734.68
593.34	716.48
593.791	724.88
594.241	711.18
594.692	727.88
595.142	713.48
595.593	718.18
596.043	714.48
596.493	715.68
596.943	727.68
597.394	741.18
597.844	736.18
598.294	746.28
598.744	769.58
599.195	788.48
599.645	816.98
600.095	871.08
600.545	932.98
600.995	993.58
601.445	1040.28
601.895	1097.78
602.345	1143.48
602.795	1112.68
603.245	1080.78
603.695	1033.88
604.145	980.48
604.594	923.88
605.044	876.08
605.494	806.18
605.944	768.88
606.393	764.98
606.843	733.18
607.293	739.38
607.743	744.48
608.192	760.68
608.642	771.38
609.091	782.88
609.541	783.08
609.99	774.28
610.44	781.08
610.889	746.38
611.339	711.28
611.788	701.08
612.238	706.68
612.687	725.98
613.136	734.88
613.586	743.08
614.035	742.88
614.484	757.78
614.933	762.38
615.383	763.58
615.832	749.58
616.281	726.38
616.73	686.58
617.179	677.78
617.628	656.68
618.077	635.58
618.526	626.68
618.975	622.68
619.424	624.48
619.873	619.58
620.322	627.38
620.771	625.18
621.22	617.98
621.669	595.28
622.118	599.38
622.567	585.38
623.015	573.18
623.464	587.98
623.913	572.98
624.361	565.28
624.81	556.28
625.259	558.38
625.707	557.68
626.156	566.48
626.604	569.58
627.053	567.58
627.501	568.58
627.95	567.88
628.398	594.28
628.847	582.08
629.295	580.88
629.744	584.68
630.192	573.88
630.64	579.88
631.089	575.48
631.537	587.08
631.985	590.08
632.433	604.38
632.881	612.48
633.33	661.58
633.778	633.38
634.226	573.38
634.674	577.48
635.122	581.98
635.57	598.18
636.018	633.38
636.466	588.68
636.914	562.68
637.362	568.98
637.81	579.28
638.258	586.18
638.705	585.28
639.153	616.38
639.601	622.88
640.049	648.58
640.497	678.08
640.944	690.98
641.392	644.08
641.84	626.98
642.287	597.48
642.735	576.38
643.182	573.98
643.63	571.98
644.078	576.78
644.525	591.48
644.973	602.88
645.42	601.88
645.867	627.78
646.315	643.58
646.762	665.08
647.21	696.58
647.657	722.88
648.104	752.68
648.551	779.48
648.999	842.48
649.446	928.58
649.893	1015.08
650.34	1178.18
650.787	1403.48
651.234	1738.38
651.682	2267.48
652.129	3113.98
652.576	4501.18
653.023	6637.88
653.47	9066.58
653.917	11338.68
654.363	13066.18
654.81	14431.48
655.257	13748.38
655.704	9007.68
656.151	5328.78
656.598	3431.58
657.044	2457.28
657.491	1882.88
657.938	1511.98
658.385	1259.78
658.831	1090.48
659.278	976.78
659.724	863.88
660.171	801.18
660.618	722.88
661.064	699.28
661.511	673.68
661.957	662.68
662.404	650.58
662.85	647.18
663.296	626.28
663.743	561.48
664.189	544.98
664.635	537.08
665.082	519.48
665.528	543.28
665.974	519.28
666.42	512.48
666.867	505.68
667.313	503.48
667.759	483.78
668.205	479.88
668.651	493.08
669.097	483.58
669.543	504.28
669.989	470.78
670.435	452.08
670.881	447.38
671.327	442.38
671.773	471.58
672.219	503.68
672.665	545.68
673.11	595.48
673.556	638.38
674.002	669.58
674.448	658.58
674.893	546.38
675.339	477.78
675.785	441.58
676.23	423.98
676.676	391.58
677.122	384.08
677.567	375.78
678.013	365.68
678.458	360.88
678.904	357.78
679.349	347.28
679.794	352.88
680.24	361.08
680.685	353.28
681.131	346.18
681.576	353.68
682.021	350.28
682.466	345.08
682.912	351.98
683.357	361.18
683.802	384.68
684.247	417.98
684.692	454.68
685.137	495.48
685.583	533.18
686.028	559.08
686.473	517.98
686.918	447.48
687.363	415.98
687.807	398.48
688.252	368.18
688.697	356.38
689.142	337.28
689.587	345.38
690.032	332.28
690.477	349.08
690.921	355.78
691.366	378.98
691.811	406.08
692.255	431.28
692.7	465.48
693.145	502.28
693.589	700.28
694.034	1137.48
694.478	1533.58
694.923	1750.28
695.367	2284.78
695.812	1203.48
696.256	498.78
696.701	381.68
697.145	350.68
697.59	331.78
698.034	324.78
698.478	332.58
698.922	323.38
699.367	329.08
699.811	345.38
700.255	360.38
700.699	380.38
701.143	425.68
701.588	479.48
702.032	517.38
702.476	508.58
702.92	486.98
703.364	489.88
703.808	628.68
704.252	1039.88
704.696	1449.08
705.14	1673.88
705.584	2143.28
706.027	1066.38
706.471	527.08
706.915	388.18
707.359	349.98
707.803	312.88
708.246	306.58
708.69	312.28
709.134	315.08
709.577	313.68
710.021	315.48
710.465	309.18
710.908	305.18
711.352	304.38
711.795	314.88
712.239	352.38
712.682	380.78
713.126	423.58
713.569	466.28
714.012	372.08
714.456	321.78
714.899	290.88
715.342	279.88
715.786	270.28
716.229	252.98
716.672	254.68
717.115	247.18
717.558	251.58
718.002	251.48
718.445	259.68
718.888	288.88
719.331	290.78
719.774	301.38
720.217	302.88
720.66	282.28
721.103	259.58
721.546	251.68
721.989	241.78
722.432	229.58
722.874	234.48
723.317	232.78
723.76	234.68
724.203	258.98
724.645	327.48
725.088	452.28
725.531	576.58
725.974	647.18
726.416	542.18
726.859	311.48
727.301	247.48
727.744	234.58
728.187	231.48
728.629	237.98
729.071	242.08
729.514	265.68
729.956	265.28
730.399	278.88
730.841	288.38
731.283	277.28
731.726	265.18
732.168	256.38
732.61	264.08
733.053	282.78
733.495	317.98
733.937	351.08
734.379	396.08
734.821	427.18
735.263	542.78
735.705	824.68
736.148	1576.08
736.59	2596.68
737.032	3062.78
737.474	2480.88
737.916	805.48
738.357	425.38
738.799	330.28
739.241	297.88
739.683	287.18
740.125	280.58
740.567	297.08
741.008	311.68
741.45	318.88
741.892	318.58
742.334	344.18
742.775	361.28
743.217	342.48
743.658	265.58
744.1	255.08
744.542	260.38
744.983	317.58
745.425	345.58
745.866	340.48
746.307	281.38
746.749	284.78
747.19	327.68
747.632	453.48
748.073	869.78
748.514	1870.98
748.956	2845.28
749.397	3579.48
749.838	2961.58
750.279	2979.78
750.72	1497.48
751.162	546.58
751.603	312.48
752.044	250.38
752.485	218.38
752.926	208.38
753.367	196.98
753.808	198.48
754.249	187.88
754.69	185.08
755.131	179.38
755.572	183.98
756.013	189.58
756.453	182.98
756.894	186.48
757.335	188.88
757.776	191.58
758.216	191.98
758.657	203.98
759.098	203.28
759.538	231.88
759.979	261.58
760.42	365.68
760.86	700.98
761.301	1813.98
761.741	4404.08
762.182	6452.08
762.622	4524.08
763.063	1306.18
763.503	540.08
763.943	344.48
764.384	331.58
764.824	400.78
765.264	437.28
765.705	305.78
766.145	211.28
766.585	189.78
767.025	178.68
767.465	182.38
767.906	237.88
768.346	313.58
768.786	339.28
769.226	262.78
769.666	315.68
770.106	614.68
770.546	1554.78
770.986	2641.18
771.426	2375.78
771.866	794.58
772.306	328.88
772.745	212.48
773.185	174.98
773.625	167.68
774.065	162.68
774.505	200.88
774.944	303.28
775.384	657.78
775.824	1194.08
776.263	1168.78
776.703	496.98
777.142	216.08
777.582	161.68
778.021	141.68
778.461	141.98
778.9	133.68
779.34	129.88
779.779	118.38
780.219	111.38
780.658	109.88
781.097	108.88
781.537	117.88
781.976	110.68
782.415	104.78
782.855	102.78
783.294	103.58
783.733	104.78
784.172	107.28
784.611	110.48
785.05	110.38
785.489	111.58
785.928	115.48
786.367	119.28
786.806	122.98
787.245	134.48
787.684	130.38
788.123	149.28
788.562	131.98
789.001	130.88
789.44	123.88
789.879	117.38
790.317	120.78
790.756	127.38
791.195	132.68
791.634	137.28
792.072	200.38
792.511	363.88
792.95	1001.38
793.388	2123.68
793.827	1926.38
794.265	675.28
794.704	275.78
795.142	178.68
795.581	151.68
796.019	137.18
796.458	128.18
796.896	119.88
797.334	130.88
797.773	150.28
798.211	217.28
798.649	434.88
799.087	1019.28
799.526	1580.58
799.964	2009.28
800.402	2014.28
800.84	757.88
801.278	300.18
801.716	189.88
802.154	150.78
802.592	145.48
803.03	141.58
803.468	133.08
803.906	146.68
804.344	145.48
804.782	137.58
805.22	139.98
805.658	124.88
806.096	150.78
806.533	153.18
806.971	164.18
807.409	211.38
807.847	317.58
808.284	661.78
808.722	1855.58
809.16	3289.38
809.597	3103.28
810.035	5399.68
810.472	5801.98
810.91	2094.08
811.347	793.68
811.785	403.48
812.222	246.88
812.66	200.38
813.097	167.18
813.535	143.28
813.972	124.88
814.409	120.38
814.846	110.18
815.284	111.78
815.721	100.18
816.158	103.68
816.595	118.48
817.032	176.78
817.47	192.78
817.907	167.88
818.344	150.28
818.781	114.48
819.218	99.88
819.655	119.08
820.092	182.58
820.529	215.88
820.966	176.18
821.403	129.58
821.839	106.98
822.276	98.88
822.713	124.98
823.15	129.08
823.587	116.78
824.023	149.38
824.46	302.38
824.897	883.18
825.333	1353.38
825.77	578.08
826.206	224.38
826.643	136.28
827.08	102.78
827.516	83.78
827.953	80.28
828.389	79.58
828.825	66.68
829.262	63.98
829.698	58.38
830.135	63.28
830.571	63.08
831.007	62.38
831.443	62.88
831.88	61.08
832.316	67.78
832.752	58.68
833.188	61.38
833.624	58.68
834.06	70.88
834.497	67.88
834.933	74.08
835.369	72.38
835.805	64.38
836.241	73.78
836.677	79.38
837.112	90.18
837.548	98.78
837.984	132.68
838.42	206.68
838.856	488.68
839.292	1507.58
839.727	2300.08
840.163	1063.98
840.599	911.98
841.034	2022.48
841.47	2123.18
841.906	777.48
842.341	326.48
842.777	227.78
843.212	318.18
843.648	313.78
844.083	146.08
844.519	97.28
844.954	74.58
845.39	64.98
845.825	56.68
846.261	54.58
846.696	52.58
847.131	48.78
847.566	60.98
848.002	57.58
848.437	52.48
848.872	64.38
849.307	61.38
849.742	80.98
850.177	177.68
850.613	552.18
851.048	866.98
851.483	372.78
851.918	152.38
852.353	86.18
852.788	63.38
853.223	54.88
853.657	54.78
854.092	49.98
854.527	43.58
854.962	45.48
855.397	40.38
855.832	48.18
856.266	41.48
856.701	44.68
857.136	38.98
857.57	44.38
858.005	44.28
858.44	54.08
858.874	45.48
859.309	50.48
859.743	39.18
860.178	44.88
860.612	40.68
861.047	53.28
861.481	63.78
861.915	77.38
862.35	50.18
862.784	29.68
863.218	40.48
863.653	29.98
864.087	42.88
864.521	52.68
864.955	63.28
865.39	151.98
865.824	172.88
866.258	112.38
866.692	160.38
867.126	171.98
867.56	104.38
867.994	52.28
868.428	39.98
868.862	40.58
869.296	50.48
869.73	51.28
870.164	51.18
870.598	46.98
871.031	37.98
871.465	33.18
871.899	24.18
872.333	27.78
872.766	21.08
873.2	22.98
873.634	31.08
874.067	27.48
874.501	24.28
874.935	30.98
875.368	37.58
875.802	26.38
876.235	20.98
876.669	27.28
877.102	22.18
877.535	23.38
877.969	24.48
878.402	23.68
878.836	15.78
879.269	19.08
879.702	24.88
880.135	19.88
880.569	17.58
881.002	30.88
881.435	21.48
881.868	19.88
882.301	24.48
882.734	15.88
883.167	20.98
883.601	18.68
884.034	19.88
884.467	16.68
884.899	13.48
885.332	15.18
885.765	14.78
886.198	19.68
886.631	18.88
887.064	17.38
887.497	21.78
887.929	19.58
888.362	15.18
888.795	12.38
889.228	19.68
889.66	21.38
890.093	18.58
890.526	12.58
890.958	16.08
891.391	18.68
891.823	19.68
892.256	15.18
892.688	11.18
893.121	10.58
893.553	15.78
893.985	13.58
894.418	13.48
894.85	7.78
895.282	17.88
895.715	15.08
896.147	17.08
896.579	17.08
897.011	11.98
897.444	20.68
897.876	9.38
898.308	20.38
898.74	18.08
899.172	12.48
899.604	24.68
900.036	20.08
900.468	13.48
900.9	11.38
901.332	19.18
901.764	11.98
902.196	22.08
902.628	20.88
903.06	13.58
903.491	29.48
903.923	18.48
904.355	12.68
904.787	21.88
905.218	22.38
905.65	21.18
906.082	12.28
906.513	11.18
906.945	14.58
907.376	14.48
907.808	21.48
908.239	22.48
908.671	18.08
909.102	22.18
909.534	21.28
909.965	47.98
910.397	92.08
910.828	312.98
911.259	473.98
911.691	221.48
912.122	105.28
912.553	50.88
912.984	33.28
913.415	24.58
913.847	28.98
914.278	15.68
914.709	18.28
915.14	16.98
915.571	16.88
916.002	13.38
916.433	20.88
916.864	20.98
917.295	16.48
917.726	18.48
918.157	16.58
918.587	29.48
919.018	22.48
919.449	23.68
919.88	18.48
920.311	27.08
920.741	49.28
921.172	167.18
921.603	147.28
922.033	69.18
922.464	41.58
922.895	22.48
923.325	20.78
923.756	18.78
924.186	15.68
924.617	21.18
925.047	39.28
925.478	55.18
925.908	44.88
926.338	25.38
926.769	20.58
927.199	22.88
927.629	10.58
928.06	9.68
928.49	17.28
928.92	14.28
929.35	5.98
929.78	12.28
930.21	6.18
930.641	7.88
931.071	12.08
931.501	9.18
931.931	8.98
932.361	6.98
932.791	0.88
933.221	8.28
933.651	1.18
934.08	14.88
934.51	28.58
934.94	18.48
935.37	10.98
935.8	10.88
936.229	8.48
936.659	9.08
937.089	4.98
937.519	13.28
937.948	22.88
938.378	17.48
938.807	3.28
939.237	12.08
939.666	13.48
940.096	2.08
940.525	4.78
940.955	3.08
941.384	-2.72
941.814	-8.62
942.243	-0.52
942.672	5.08
943.102	-2.12
943.531	-2.12
943.96	2.78
944.39	3.58
944.819	1.88
945.248	1.48
945.677	4.08
946.106	7.18
946.535	9.78
946.964	2.88
947.393	3.38
947.822	0.88
948.251	-4.02
948.68	1.28
949.109	5.28
949.538	3.08
949.967	1.98
950.396	0.78
950.825	-0.52
951.254	1.68
951.682	-4.72
952.111	-1.22
952.54	7.18
952.969	-2.92
953.397	-11.12
953.826	4.48
954.254	-6.32
954.683	3.78
955.112	-3.52
955.54	-4.12
955.969	-0.12
956.397	-3.72
956.826	-2.02
957.254	1.28
957.682	5.88
958.111	7.28
958.539	-3.42
958.967	-5.02
959.396	-5.52
959.824	-0.62
960.252	0.88
960.68	-6.52
961.109	-9.52
961.537	-5.22
961.965	0.38
962.393	-1.12
962.821	-1.42
963.249	2.78
963.677	3.08
964.105	6.28
964.533	41.78
964.961	43.48
965.389	23.78
965.817	10.18
966.245	-0.02
966.672	1.18
967.1	-11.02
967.528	-1.52
967.956	1.68
968.383	-0.72
968.811	-3.12
969.239	-3.62
969.666	-3.02
970.094	0.18
970.522	4.58
970.949	-1.82
971.377	-5.22
971.804	-0.42
972.232	-0.42
972.659	-3.02
973.087	-4.42
973.514	-3.12
973.941	-9.72
974.369	1.98
974.796	1.68
975.223	0.48
975.651	-1.12
976.078	-2.12
976.505	-1.02
976.932	1.88
977.359	19.88
977.786	15.48
978.214	-2.02
978.641	-3.52
979.068	-3.72
979.495	-4.32
979.922	-5.02
980.349	-4.42
980.776	3.58
981.202	4.98
981.629	5.18
982.056	4.38
982.483	-2.92
982.91	-4.32
983.337	-6.82
983.763	3.48
984.19	-6.42
984.617	-12.82
985.043	-7.82
985.47	1.88
985.897	0.08
986.323	-9.72
986.75	1.38
987.176	0.68
987.603	-6.02
988.029	-0.32
988.456	-7.72
988.882	1.88
989.308	-13.12
989.735	-7.52
990.161	1.48
990.587	-6.12
991.014	1.38
991.44	4.48
991.866	-3.82
992.292	-2.52
992.719	-2.92
993.145	-1.32
993.571	-7.62
993.997	-2.02
994.423	-2.42
994.849	-2.52
995.275	0.58
995.701	-7.02
996.127	-3.62
996.553	3.18
996.979	-4.42
997.405	-5.12
997.83	-6.72
998.256	-9.02
998.682	-2.22
999.108	-10.72
999.534	-2.72
999.959	-3.62
1000.385	-8.42
1000.811	-1.02
1001.236	-9.42
1001.662	-10.32
1002.087	-13.32
1002.513	-0.12
1002.938	3.58
1003.364	-4.62
1003.789	-3.22
1004.215	4.08
1004.64	-4.62
1005.066	4.38
1005.491	-4.42
1005.916	-6.82
1006.342	-0.42
1006.767	-9.12
1007.192	7.18
1007.617	-7.72
1008.042	-9.02
1008.468	-3.82
1008.893	-6.22
1009.318	-4.82
1009.743	-0.02
1010.168	5.58
1010.593	0.28
1011.018	-8.82
1011.443	-1.62
1011.868	1.88
1012.293	-5.72
1012.718	-4.42
1013.143	-3.52
1013.567	-2.52
1013.992	-7.12
1014.417	-10.92
1014.842	-2.12
1015.267	-6.82
1015.691	-5.32
1016.116	6.28
1016.541	-0.52
1016.965	3.28
1017.39	-1.22
1017.814	-1.22
1018.239	-3.52
1018.663	-0.62
1019.088	-13.42
1019.512	-2.92
1019.937	-0.82
1020.361	-10.72
1020.785	-15.32
1021.21	-4.62
1021.634	-3.92
1022.058	-4.02
1022.483	2.88
1022.907	-5.62
1023.331	-5.32
1023.755	-6.02
1024.179	-4.02
1024.604	-8.72
1025.028	-10.32
1025.452	-5.32
1025.876	-3.22
1026.3	-0.42
1026.724	-8.02
1027.148	-0.32
1027.572	-6.62
1027.996	-6.22
1028.42	-6.52
1028.843	-9.42
1029.267	-5.32
1029.691	-2.32
1030.115	-6.82
1030.539	-8.32
1030.962	-11.92
1031.386	-12.02
1031.81	-5.32
1032.233	-0.52
1032.657	0.68
1033.08	-5.92
1033.504	-5.42
1033.927	-3.32
1034.351	-3.82
1034.774	-6.62
1035.198	-5.42
1035.621	-0.42
1036.045	-8.32
1036.468	-1.42
1036.891	-5.32
1037.315	-10.42
1037.738	-6.42
1038.161	1.18
1038.584	-9.32
1039.008	-13.52
1039.431	-4.22
1039.854	-7.32
1040.277	-11.52
1040.7	-14.62
1041.123	-6.62
1041.546	-3.22
1041.969	-11.52
1042.392	-3.92
1042.815	-4.02
1043.238	0.58
1043.661	-2.92
1044.084	-9.52
1044.507	-7.52
1044.93	-9.12
1045.352	-7.12
1045.775	1.18
1046.198	-3.02
1046.621	-6.22
1047.043	-2.32
1047.466	3.08
1047.889	-3.32
1048.311	-6.02
1048.734	-5.42
1049.156	-6.02
1049.579	-1.92
1050.001	-2.82
1050.424	-3.72
1050.846	-4.72
1051.269	-1.92
1051.691	-7.42
1052.113	-2.42
1052.536	-7.22
1052.958	2.58
1053.38	-4.32
1053.802	-7.12
1054.225	-3.52
1054.647	-8.22
1055.069	-10.12
1055.491	0.18
1055.913	-13.72
1056.335	-0.82
1056.757	-0.22
1057.179	-10.32
1057.601	-9.02
1058.023	-2.92
1058.445	-1.32
1058.867	-4.72
1059.289	-7.82
1059.711	-9.32
1060.133	-3.82
1060.555	-9.42
1060.976	-10.52
1061.398	-8.72
1061.82	-9.72
1062.241	-9.92
1062.663	-10.62
1063.085	-6.42
1063.506	3.98
1063.928	-0.62
1064.35	-2.12
1064.771	-15.62
1065.193	-1.12
1065.614	-10.62
1066.035	-9.72
1066.457	-6.02
1066.878	-4.52
1067.3	-4.32
1067.721	-3.42
1068.142	-6.72
1068.564	-2.72
1068.985	-9.62
1069.406	-9.72
1069.827	-9.62
1070.248	-1.92
1070.67	-9.92
1071.091	-4.62
1071.512	-8.22
1071.933	-7.72
1072.354	-10.12
1072.775	-5.62
1073.196	-8.62
1073.617	-5.82
1074.038	-5.02
1074.459	-2.82
1074.88	-11.72
1075.3	-0.62
1075.721	-10.12
1076.142	0.28
1076.563	-1.82
1076.983	-13.42
1077.404	-6.92
1077.825	-9.82
1078.246	-7.62
1078.666	-8.02
1079.087	-6.82
1079.507	-6.22
1079.928	-6.52
1080.348	-4.42
1080.769	-12.72
1081.189	1.48
1081.61	-3.52
1082.03	-3.92
1082.451	-10.92
1082.871	-4.32
1083.291	-3.32
1083.711	-8.42
1084.132	-5.12
1084.552	-13.32
1084.972	-7.12
1085.392	-13.72
1085.813	-12.92
1086.233	-4.52
1086.653	-4.12
1087.073	-3.32
1087.493	-5.72
1087.913	-5.12
1088.333	-6.72
1088.753	-7.82
1089.173	-3.22
1089.593	-4.82
1090.013	-1.32
1090.433	0.38
1090.852	-9.92
1091.272	-0.12
1091.692	-1.42
1092.112	-4.72
1092.531	-12.72
1092.951	-11.42
1093.371	-6.12
1093.79	-3.32
1094.21	0.98
1094.63	-8.82
1095.049	-8.32
1095.469	-5.62
1095.888	-6.22
1096.308	2.28
1096.727	2.38
1097.146	-4.02
1097.566	0.58
1097.985	-4.22
1098.405	-2.32
1098.824	-9.42
1099.243	-12.62
1099.662	-9.52
1100.082	-2.02
1100.501	-1.62
1100.92	-4.72
1101.339	-10.02
1101.758	-5.62
