Data from 20171114-ORNL-Ar_H_NY_Subt18_08-05-40-607.txt Node
Date: Tue Nov 14 08:05:40 EST 2017
User: Ender
Spectrometer: HR+D1039
Trigger mode: 0
Integration Time (sec): 2.730000E-2
Scans to average: 10
Electric dark correction enabled: true
Nonlinearity correction enabled: false
Boxcar width: 0
XAxis mode: Wavelengths
Number of Pixels in Spectrum: 2048
>>>>>Begin Spectral Data<<<<<
187.836	-8.19
188.309	-8.19
188.782	-8.19
189.255	1.91
189.728	1.01
190.201	7.51
190.674	5.91
191.147	3.81
191.619	-5.99
192.092	-1.49
192.565	1.01
193.038	1.21
193.511	7.01
193.984	-7.69
194.456	-5.19
194.929	-1.79
195.402	-2.49
195.874	3.51
196.347	-4.29
196.82	-3.89
197.292	2.61
197.765	1.01
198.237	-3.99
198.71	2.01
199.182	-1.39
199.655	5.81
200.127	5.11
200.6	-0.89
201.072	0.91
201.544	-2.09
202.017	-0.19
202.489	3.51
202.961	-2.79
203.433	-0.99
203.906	-3.29
204.378	-6.59
204.85	-0.39
205.322	-12.89
205.794	-0.09
206.266	-3.69
206.739	-6.39
207.211	0.91
207.683	-4.89
208.155	-0.09
208.627	-6.49
209.099	-2.49
209.57	-11.89
210.042	-8.39
210.514	-3.29
210.986	-3.09
211.458	-8.79
211.93	-6.59
212.402	2.81
212.873	-7.89
213.345	-8.29
213.817	-7.69
214.288	-8.59
214.76	-9.29
215.232	-2.99
215.703	-2.29
216.175	-4.19
216.646	-7.99
217.118	-9.49
217.589	-2.79
218.061	1.21
218.532	-4.89
219.004	4.11
219.475	2.21
219.946	-3.89
220.418	-1.69
220.889	-2.79
221.36	-1.29
221.832	-3.09
222.303	-8.19
222.774	3.61
223.245	-8.39
223.717	-3.59
224.188	-5.69
224.659	-7.49
225.13	-3.49
225.601	-4.49
226.072	0.31
226.543	2.51
227.014	1.61
227.485	2.01
227.956	-11.09
228.427	-3.39
228.898	0.51
229.369	-0.49
229.839	-2.59
230.31	-7.09
230.781	4.21
231.252	-3.69
231.722	-2.49
232.193	-4.49
232.664	-0.69
233.135	-2.59
233.605	2.11
234.076	-9.29
234.546	4.01
235.017	5.11
235.487	-0.19
235.958	1.61
236.428	-2.09
236.899	5.01
237.369	3.31
237.84	-0.09
238.31	4.91
238.78	3.61
239.251	2.91
239.721	7.21
240.191	1.11
240.662	4.51
241.132	1.71
241.602	-2.89
242.072	5.11
242.542	10.61
243.013	4.21
243.483	5.91
243.953	3.91
244.423	6.11
244.893	-1.69
245.363	7.81
245.833	0.81
246.303	3.61
246.773	9.61
247.243	4.61
247.712	3.01
248.182	8.71
248.652	13.61
249.122	-0.79
249.592	8.31
250.061	20.41
250.531	39.91
251.001	18.71
251.471	23.91
251.94	28.01
252.41	11.11
252.879	4.91
253.349	14.41
253.818	6.31
254.288	5.71
254.757	3.11
255.227	6.51
255.696	6.71
256.166	7.21
256.635	6.11
257.105	7.91
257.574	12.91
258.043	12.91
258.513	10.51
258.982	19.11
259.451	6.01
259.92	22.31
260.389	14.21
260.859	21.51
261.328	8.61
261.797	19.41
262.266	11.31
262.735	10.81
263.204	4.91
263.673	0.91
264.142	9.61
264.611	-2.89
265.08	3.21
265.549	3.11
266.018	3.61
266.487	1.61
266.955	0.11
267.424	2.41
267.893	3.31
268.362	1.21
268.83	1.71
269.299	12.11
269.768	9.11
270.236	14.31
270.705	2.81
271.174	3.51
271.642	10.11
272.111	7.91
272.579	14.71
273.048	26.91
273.516	29.71
273.985	29.11
274.453	22.81
274.922	25.01
275.39	8.31
275.858	8.61
276.327	10.01
276.795	25.11
277.263	9.21
277.731	39.21
278.2	54.01
278.668	63.01
279.136	57.51
279.604	24.21
280.072	19.91
280.54	13.61
281.008	12.81
281.477	12.61
281.945	11.51
282.413	19.21
282.881	17.51
283.348	11.41
283.816	8.81
284.284	15.01
284.752	21.51
285.22	23.91
285.688	21.51
286.156	22.51
286.623	47.21
287.091	56.51
287.559	28.51
288.026	21.41
288.494	20.91
288.962	7.41
289.429	14.21
289.897	21.11
290.364	18.01
290.832	17.51
291.3	14.41
291.767	16.61
292.234	20.11
292.702	21.51
293.169	24.01
293.637	23.11
294.104	22.81
294.571	13.91
295.039	11.61
295.506	17.71
295.973	24.71
296.44	15.61
296.908	25.91
297.375	23.01
297.842	25.81
298.309	20.01
298.776	18.01
299.243	21.01
299.71	15.21
300.177	26.71
300.644	23.71
301.111	25.21
301.578	24.31
302.045	22.41
302.512	27.41
302.979	29.11
303.446	21.51
303.913	29.61
304.379	22.81
304.846	33.71
305.313	27.91
305.78	29.81
306.246	27.61
306.713	23.51
307.18	24.61
307.646	30.51
308.113	30.41
308.579	29.01
309.046	30.01
309.512	28.71
309.979	24.01
310.445	29.41
310.912	29.51
311.378	36.51
311.845	27.01
312.311	35.11
312.777	33.11
313.244	31.51
313.71	37.61
314.176	32.31
314.642	33.51
315.109	34.51
315.575	38.71
316.041	35.41
316.507	39.31
316.973	44.01
317.439	41.51
317.905	34.51
318.371	39.81
318.837	36.71
319.303	40.81
319.769	43.51
320.235	38.21
320.701	42.01
321.167	42.21
321.633	38.51
322.099	45.21
322.564	45.41
323.03	43.51
323.496	35.41
323.962	42.51
324.427	47.41
324.893	49.01
325.359	39.31
325.824	42.91
326.29	42.01
326.755	43.51
327.221	44.21
327.686	34.61
328.152	51.61
328.617	41.11
329.083	45.91
329.548	48.81
330.014	52.61
330.479	45.91
330.944	41.91
331.41	45.01
331.875	46.31
332.34	44.11
332.805	41.71
333.271	51.31
333.736	54.81
334.201	57.81
334.666	56.51
335.131	60.61
335.596	54.51
336.061	54.21
336.526	51.11
336.991	53.31
337.456	59.11
337.921	52.61
338.386	53.41
338.851	45.51
339.316	52.21
339.781	49.81
340.246	53.11
340.711	52.91
341.175	52.11
341.64	45.41
342.105	58.91
342.569	60.21
343.034	62.31
343.499	60.21
343.963	56.31
344.428	67.81
344.893	66.51
345.357	62.11
345.822	66.51
346.286	70.51
346.751	77.61
347.215	70.11
347.679	79.11
348.144	102.71
348.608	91.81
349.073	75.01
349.537	77.81
350.001	85.11
350.465	91.01
350.93	85.41
351.394	87.71
351.858	80.21
352.322	88.31
352.786	91.41
353.25	102.81
353.715	113.31
354.179	105.61
354.643	124.61
355.107	132.61
355.571	112.21
356.035	107.21
356.498	121.81
356.962	136.51
357.426	137.61
357.89	124.11
358.354	97.51
358.818	86.41
359.281	81.81
359.745	76.51
360.209	79.71
360.673	79.81
361.136	88.11
361.6	89.01
362.064	93.01
362.527	94.51
362.991	87.81
363.454	84.91
363.918	74.41
364.381	79.41
364.845	85.31
365.308	80.91
365.772	93.71
366.235	93.91
366.698	92.11
367.162	95.21
367.625	86.11
368.088	87.41
368.552	89.81
369.015	96.51
369.478	100.81
369.941	105.91
370.404	95.51
370.867	106.61
371.331	108.11
371.794	117.31
372.257	112.31
372.72	117.41
373.183	108.71
373.646	106.61
374.109	106.61
374.572	111.91
375.035	111.11
375.497	112.21
375.96	109.91
376.423	104.51
376.886	115.41
377.349	112.51
377.811	108.11
378.274	111.31
378.737	112.31
379.199	109.61
379.662	118.61
380.125	127.71
380.587	122.91
381.05	122.31
381.512	127.81
381.975	133.51
382.437	135.21
382.9	129.61
383.362	136.01
383.825	144.91
384.287	146.41
384.75	144.41
385.212	143.51
385.674	138.81
386.136	143.51
386.599	131.61
387.061	133.61
387.523	126.41
387.985	141.21
388.447	146.31
388.91	142.41
389.372	158.51
389.834	154.91
390.296	147.11
390.758	153.91
391.22	171.21
391.682	211.21
392.144	291.71
392.606	224.01
393.068	170.11
393.529	173.41
393.991	156.01
394.453	148.11
394.915	161.41
395.377	196.91
395.838	214.11
396.3	156.61
396.762	150.41
397.224	134.01
397.685	135.21
398.147	136.71
398.608	134.61
399.07	128.81
399.531	139.21
399.993	148.81
400.454	157.61
400.916	147.11
401.377	147.51
401.839	157.91
402.3	157.31
402.762	172.81
403.223	183.81
403.684	176.91
404.145	159.51
404.607	174.51
405.068	172.01
405.529	182.51
405.99	195.41
406.451	179.31
406.913	184.21
407.374	169.21
407.835	165.51
408.296	169.91
408.757	177.51
409.218	193.41
409.679	185.01
410.14	177.71
410.601	178.21
411.062	184.71
411.522	190.21
411.983	194.81
412.444	174.41
412.905	183.91
413.366	183.51
413.826	187.31
414.287	220.61
414.748	266.01
415.208	255.71
415.669	217.51
416.13	209.01
416.59	203.51
417.051	217.01
417.511	221.61
417.972	236.91
418.432	248.31
418.893	288.21
419.353	254.51
419.814	203.21
420.274	184.91
420.734	178.41
421.195	206.41
421.655	199.21
422.115	198.11
422.576	198.31
423.036	204.41
423.496	214.71
423.956	223.31
424.416	236.81
424.876	267.81
425.336	259.71
425.797	262.41
426.257	255.61
426.717	237.41
427.177	240.91
427.637	229.71
428.097	227.21
428.556	252.11
429.016	276.41
429.476	274.11
429.936	285.11
430.396	283.11
430.856	296.41
431.315	317.91
431.775	360.81
432.235	382.71
432.694	357.41
433.154	370.11
433.614	396.61
434.073	346.81
434.533	290.11
434.993	279.71
435.452	284.61
435.912	309.91
436.371	295.01
436.83	301.11
437.29	279.11
437.749	251.61
438.209	251.41
438.668	274.01
439.127	299.81
439.587	265.71
440.046	249.11
440.505	264.41
440.964	280.41
441.424	328.01
441.883	328.91
442.342	266.81
442.801	235.91
443.26	227.01
443.719	223.31
444.178	223.31
444.637	214.11
445.096	222.31
445.555	224.71
446.014	227.51
446.473	223.01
446.932	233.21
447.391	234.41
447.849	234.01
448.308	224.01
448.767	229.71
449.226	240.81
449.685	245.11
450.143	251.91
450.602	239.71
451.061	232.51
451.519	241.31
451.978	235.21
452.436	238.81
452.895	246.11
453.353	260.81
453.812	234.21
454.27	243.61
454.729	247.81
455.187	246.61
455.646	256.11
456.104	253.71
456.562	266.41
457.021	267.91
457.479	268.61
457.937	278.61
458.395	269.21
458.854	254.71
459.312	269.51
459.77	283.91
460.228	262.11
460.686	249.51
461.144	254.71
461.602	248.51
462.06	241.71
462.518	267.01
462.976	257.11
463.434	265.41
463.892	268.61
464.35	286.81
464.808	296.51
465.266	274.41
465.724	276.61
466.181	272.81
466.639	276.21
467.097	300.31
467.555	305.51
468.012	304.81
468.47	319.21
468.928	337.31
469.385	351.81
469.843	354.81
470.3	352.01
470.758	377.61
471.215	395.51
471.673	423.51
472.13	412.01
472.588	426.41
473.045	381.81
473.503	380.01
473.96	399.81
474.417	410.01
474.875	437.01
475.332	487.21
475.789	472.61
476.246	477.41
476.704	498.61
477.161	516.51
477.618	531.31
478.075	572.31
478.532	629.71
478.989	706.71
479.446	822.81
479.903	791.91
480.36	835.51
480.817	889.71
481.274	998.01
481.731	1088.71
482.188	1188.41
482.645	1331.01
483.102	1450.51
483.558	1579.51
484.015	1630.11
484.472	1607.51
484.929	1552.61
485.385	1506.41
485.842	1465.61
486.299	1397.81
486.755	1337.51
487.212	1126.41
487.668	944.61
488.125	877.91
488.582	796.51
489.038	765.11
489.494	734.21
489.951	708.01
490.407	687.61
490.864	667.71
491.32	660.61
491.776	654.01
492.233	661.31
492.689	628.01
493.145	619.01
493.602	614.91
494.058	630.31
494.514	631.31
494.97	652.11
495.426	661.41
495.882	639.41
496.338	633.61
496.794	640.61
497.251	640.01
497.707	654.11
498.163	658.01
498.618	667.11
499.074	657.81
499.53	689.51
499.986	691.41
500.442	662.11
500.898	639.81
501.354	642.41
501.809	647.71
502.265	660.51
502.721	670.21
503.177	680.81
503.632	674.21
504.088	691.41
504.543	725.81
504.999	723.81
505.455	685.41
505.91	643.21
506.366	638.51
506.821	640.11
507.277	638.81
507.732	641.61
508.187	641.91
508.643	649.91
509.098	650.41
509.553	664.01
510.009	680.21
510.464	688.91
510.919	708.41
511.375	716.11
511.83	721.01
512.285	737.71
512.74	784.71
513.195	806.31
513.65	794.71
514.105	792.91
514.56	793.51
515.015	811.11
515.47	823.71
515.925	817.31
516.38	810.81
516.835	811.91
517.29	802.51
517.745	797.71
518.2	779.11
518.655	772.81
519.109	766.21
519.564	764.11
520.019	749.31
520.474	733.21
520.928	739.51
521.383	741.41
521.838	743.61
522.292	726.41
522.747	722.11
523.201	723.51
523.656	718.11
524.11	710.11
524.565	705.01
525.019	705.81
525.474	711.81
525.928	711.81
526.382	706.51
526.837	711.31
527.291	719.91
527.745	711.61
528.2	708.31
528.654	705.31
529.108	699.61
529.562	707.71
530.016	712.81
530.47	717.21
530.925	711.81
531.379	714.71
531.833	725.41
532.287	711.11
532.741	721.41
533.195	716.11
533.649	731.31
534.103	747.41
534.556	721.81
535.01	732.91
535.464	714.11
535.918	740.71
536.372	737.01
536.826	733.71
537.279	719.21
537.733	726.31
538.187	733.01
538.64	732.11
539.094	739.71
539.548	743.31
540.001	742.81
540.455	734.01
540.908	747.21
541.362	762.31
541.815	757.21
542.269	771.51
542.722	773.01
543.175	786.71
543.629	793.01
544.082	799.41
544.536	794.41
544.989	795.91
545.442	816.51
545.895	803.21
546.349	808.41
546.802	806.71
547.255	803.01
547.708	828.41
548.161	830.21
548.614	838.01
549.067	842.81
549.52	832.41
549.973	828.21
550.426	824.81
550.879	808.01
551.332	815.61
551.785	825.21
552.238	814.11
552.691	832.41
553.144	844.01
553.596	859.61
554.049	878.61
554.502	904.11
554.955	928.61
555.407	931.31
555.86	912.21
556.313	909.71
556.765	898.71
557.218	895.61
557.67	906.71
558.123	893.61
558.576	888.51
559.028	887.81
559.48	896.61
559.933	891.51
560.385	858.21
560.838	822.61
561.29	798.51
561.742	793.91
562.195	778.31
562.647	785.21
563.099	782.91
563.551	781.51
564.004	792.11
564.456	788.51
564.908	773.31
565.36	752.31
565.812	747.61
566.264	739.41
566.716	741.31
567.168	708.21
567.62	735.91
568.072	716.71
568.524	715.61
568.976	703.71
569.428	685.91
569.88	680.81
570.332	683.01
570.784	696.71
571.235	701.31
571.687	707.81
572.139	712.11
572.59	721.71
573.042	720.31
573.494	721.11
573.945	708.71
574.397	691.51
574.849	705.11
575.3	701.01
575.752	691.41
576.203	682.61
576.655	694.51
577.106	683.01
577.557	670.51
578.009	680.31
578.46	678.01
578.912	669.41
579.363	671.61
579.814	678.21
580.265	672.31
580.717	677.81
581.168	677.11
581.619	680.91
582.07	688.41
582.521	688.01
582.972	673.01
583.423	682.61
583.875	687.91
584.326	701.51
584.777	746.31
585.227	825.01
585.678	917.61
586.129	990.11
586.58	1059.81
587.031	1145.91
587.482	1294.71
587.933	1478.71
588.384	1290.51
588.834	968.51
589.285	812.01
589.736	788.91
590.186	779.11
590.637	775.01
591.088	754.61
591.538	750.71
591.989	743.71
592.439	733.61
592.89	741.01
593.34	721.61
593.791	719.71
594.241	716.21
594.692	719.61
595.142	708.11
595.593	708.71
596.043	717.71
596.493	716.21
596.943	732.41
597.394	720.41
597.844	716.81
598.294	737.11
598.744	751.91
599.195	780.81
599.645	819.91
600.095	853.21
600.545	895.71
600.995	967.11
601.445	1035.81
601.895	1097.31
602.345	1135.31
602.795	1115.51
603.245	1078.81
603.695	1017.31
604.145	966.71
604.594	925.91
605.044	860.41
605.494	793.91
605.944	773.51
606.393	751.81
606.843	734.81
607.293	732.21
607.743	721.81
608.192	747.21
608.642	758.31
609.091	770.01
609.541	776.21
609.99	772.61
610.44	768.21
610.889	724.51
611.339	702.61
611.788	683.11
612.238	700.61
612.687	716.41
613.136	721.71
613.586	733.21
614.035	743.31
614.484	753.21
614.933	760.41
615.383	748.51
615.832	745.31
616.281	718.41
616.73	691.51
617.179	670.11
617.628	652.51
618.077	631.61
618.526	624.81
618.975	617.61
619.424	614.11
619.873	620.91
620.322	618.21
620.771	607.31
621.22	602.81
621.669	598.21
622.118	586.81
622.567	576.51
623.015	565.71
623.464	568.31
623.913	559.71
624.361	557.61
624.81	551.51
625.259	561.51
625.707	552.81
626.156	557.91
626.604	569.31
627.053	558.21
627.501	558.81
627.95	560.81
628.398	577.41
628.847	570.01
629.295	565.51
629.744	573.61
630.192	577.81
630.64	558.51
631.089	565.51
631.537	578.31
631.985	571.01
632.433	595.71
632.881	600.21
633.33	645.31
633.778	635.41
634.226	559.61
634.674	569.01
635.122	573.01
635.57	589.31
636.018	612.51
636.466	565.61
636.914	551.91
637.362	554.41
637.81	571.11
638.258	576.81
638.705	572.31
639.153	611.21
639.601	607.01
640.049	641.51
640.497	663.81
640.944	686.01
641.392	637.21
641.84	610.11
642.287	593.21
642.735	565.61
643.182	571.81
643.63	573.51
644.078	575.51
644.525	581.31
644.973	584.61
645.42	607.51
645.867	614.71
646.315	639.01
646.762	661.91
647.21	694.11
647.657	716.31
648.104	741.81
648.551	760.01
648.999	831.81
649.446	900.81
649.893	993.71
650.34	1148.91
650.787	1373.71
651.234	1694.01
651.682	2209.61
652.129	3038.81
652.576	4353.91
653.023	6442.61
653.47	8799.71
653.917	11080.91
654.363	12822.21
654.81	14215.31
655.257	13562.21
655.704	8859.91
656.151	5239.91
656.598	3400.31
657.044	2415.61
657.491	1850.61
657.938	1477.21
658.385	1228.71
658.831	1083.11
659.278	959.31
659.724	845.21
660.171	788.11
660.618	719.71
661.064	678.01
661.511	657.31
661.957	648.81
662.404	637.21
662.85	646.21
663.296	612.21
663.743	559.91
664.189	522.31
664.635	517.61
665.082	528.81
665.528	518.91
665.974	512.11
666.42	512.31
666.867	500.71
667.313	475.31
667.759	471.91
668.205	471.01
668.651	480.91
669.097	472.91
669.543	496.11
669.989	468.01
670.435	440.41
670.881	431.11
671.327	440.41
671.773	459.51
672.219	478.71
672.665	537.01
673.11	580.21
673.556	620.81
674.002	658.31
674.448	650.01
674.893	533.21
675.339	473.11
675.785	436.71
676.23	412.71
676.676	383.01
677.122	371.91
677.567	361.91
678.013	362.41
678.458	350.41
678.904	358.71
679.349	341.01
679.794	344.31
680.24	345.71
680.685	345.31
681.131	335.61
681.576	348.11
682.021	349.41
682.466	333.81
682.912	341.91
683.357	343.11
683.802	377.81
684.247	400.51
684.692	442.51
685.137	482.41
685.583	520.51
686.028	562.01
686.473	507.91
686.918	442.81
687.363	412.71
687.807	388.11
688.252	357.11
688.697	355.71
689.142	337.41
689.587	328.41
690.032	319.81
690.477	334.51
690.921	344.01
691.366	373.71
691.811	394.51
692.255	422.61
692.7	452.41
693.145	482.51
693.589	668.81
694.034	1086.81
694.478	1494.81
694.923	1704.81
695.367	2239.51
695.812	1178.41
696.256	495.91
696.701	372.11
697.145	340.51
697.59	325.21
698.034	317.51
698.478	326.11
698.922	316.71
699.367	320.11
699.811	331.51
700.255	345.41
700.699	372.81
701.143	414.71
701.588	464.01
702.032	498.11
702.476	495.21
702.92	487.91
703.364	483.61
703.808	618.11
704.252	992.91
704.696	1405.41
705.14	1640.61
705.584	2092.11
706.027	1044.21
706.471	515.41
706.915	390.51
707.359	346.81
707.803	310.81
708.246	301.41
708.69	304.61
709.134	310.91
709.577	297.81
710.021	315.81
710.465	309.81
710.908	295.01
711.352	292.91
711.795	302.11
712.239	346.11
712.682	373.41
713.126	411.91
713.569	463.01
714.012	363.71
714.456	314.11
714.899	288.91
715.342	262.41
715.786	249.41
716.229	251.01
716.672	246.61
717.115	238.61
717.558	245.31
718.002	241.01
718.445	252.01
718.888	282.41
719.331	284.71
719.774	305.21
720.217	295.01
720.66	275.61
721.103	258.41
721.546	250.81
721.989	248.01
722.432	222.71
722.874	238.51
723.317	224.61
723.76	228.21
724.203	248.71
724.645	312.41
725.088	430.01
725.531	546.21
725.974	632.41
726.416	536.31
726.859	300.01
727.301	242.71
727.744	231.51
728.187	231.91
728.629	231.71
729.071	232.71
729.514	252.11
729.956	263.01
730.399	277.71
730.841	287.11
731.283	270.11
731.726	257.01
732.168	261.41
732.61	256.71
733.053	277.61
733.495	309.11
733.937	344.81
734.379	392.41
734.821	423.11
735.263	528.31
735.705	799.61
736.148	1500.41
736.59	2483.81
737.032	2999.61
737.474	2441.51
737.916	790.31
738.357	413.81
738.799	314.21
739.241	288.31
739.683	280.41
740.125	286.71
740.567	297.41
741.008	316.01
741.45	304.31
741.892	307.01
742.334	333.71
742.775	358.41
743.217	330.81
743.658	270.41
744.1	245.81
744.542	253.81
744.983	295.91
745.425	329.51
745.866	333.31
746.307	278.71
746.749	278.31
747.19	307.61
747.632	433.71
748.073	832.61
748.514	1772.91
748.956	2763.11
749.397	3455.61
749.838	2872.31
750.279	2899.11
750.72	1481.61
751.162	523.61
751.603	311.31
752.044	247.41
752.485	214.71
752.926	202.81
753.367	193.81
753.808	191.61
754.249	186.51
754.69	180.71
755.131	176.31
755.572	179.11
756.013	176.91
756.453	184.41
756.894	176.61
757.335	185.11
757.776	189.71
758.216	192.71
758.657	197.21
759.098	199.91
759.538	217.11
759.979	263.11
760.42	362.51
760.86	665.61
761.301	1717.21
761.741	4216.71
762.182	6290.71
762.622	4438.51
763.063	1280.11
763.503	522.91
763.943	336.31
764.384	328.51
764.824	371.11
765.264	422.11
765.705	289.61
766.145	202.31
766.585	184.21
767.025	174.91
767.465	180.51
767.906	232.81
768.346	305.51
768.786	321.21
769.226	247.91
769.666	308.21
770.106	586.91
770.546	1472.01
770.986	2563.31
771.426	2319.91
771.866	776.21
772.306	319.51
772.745	201.21
773.185	171.11
773.625	169.31
774.065	157.91
774.505	188.51
774.944	292.41
775.384	628.71
775.824	1159.91
776.263	1146.11
776.703	480.41
777.142	216.41
777.582	150.41
778.021	135.81
778.461	134.81
778.9	139.31
779.34	127.11
779.779	112.01
780.219	112.21
780.658	111.91
781.097	112.01
781.537	117.91
781.976	115.71
782.415	107.71
782.855	104.71
783.294	98.61
783.733	106.61
784.172	108.11
784.611	100.21
785.05	105.91
785.489	112.51
785.928	117.11
786.367	119.31
786.806	115.31
787.245	124.91
787.684	134.61
788.123	148.31
788.562	126.31
789.001	128.81
789.44	118.71
789.879	120.71
790.317	119.41
790.756	119.31
791.195	124.21
791.634	144.51
792.072	199.31
792.511	349.11
792.95	951.31
793.388	2068.81
793.827	1916.21
794.265	662.61
794.704	273.21
795.142	182.71
795.581	145.81
796.019	133.61
796.458	125.71
796.896	119.31
797.334	128.41
797.773	149.61
798.211	209.61
798.649	410.31
799.087	978.01
799.526	1531.61
799.964	1941.91
800.402	1968.11
800.84	733.41
801.278	292.81
801.716	181.81
802.154	138.81
802.592	147.31
803.03	135.81
803.468	127.91
803.906	141.61
804.344	143.91
804.782	135.11
805.22	128.11
805.658	124.61
806.096	135.41
806.533	147.51
806.971	165.61
807.409	206.61
807.847	300.31
808.284	622.21
808.722	1770.51
809.16	3194.61
809.597	3001.51
810.035	5197.81
810.472	5684.11
810.91	2024.51
811.347	767.91
811.785	389.91
812.222	250.21
812.66	194.21
813.097	164.51
813.535	139.41
813.972	126.91
814.409	113.21
814.846	107.01
815.284	106.61
815.721	98.41
816.158	97.21
816.595	119.91
817.032	166.11
817.47	199.51
817.907	169.81
818.344	141.71
818.781	115.11
819.218	97.41
819.655	122.91
820.092	177.61
820.529	201.61
820.966	174.21
821.403	128.61
821.839	107.01
822.276	98.81
822.713	120.71
823.15	136.31
823.587	118.11
824.023	142.91
824.46	281.11
824.897	858.41
825.333	1333.01
825.77	568.81
826.206	225.21
826.643	135.91
827.08	96.01
827.516	88.41
827.953	72.81
828.389	73.11
828.825	71.41
829.262	65.11
829.698	59.11
830.135	64.81
830.571	59.31
831.007	60.61
831.443	66.31
831.88	63.61
832.316	62.71
832.752	63.81
833.188	68.31
833.624	62.91
834.06	69.41
834.497	73.51
834.933	65.11
835.369	77.01
835.805	71.31
836.241	76.11
836.677	71.61
837.112	94.21
837.548	98.51
837.984	135.71
838.42	194.21
838.856	480.01
839.292	1456.31
839.727	2247.91
840.163	1041.91
840.599	876.31
841.034	1940.21
841.47	2086.51
841.906	758.31
842.341	314.51
842.777	216.91
843.212	301.31
843.648	300.11
844.083	150.81
844.519	99.31
844.954	74.91
845.39	64.01
845.825	58.41
846.261	57.11
846.696	56.81
847.131	54.81
847.566	54.61
848.002	52.51
848.437	60.61
848.872	61.51
849.307	61.61
849.742	83.71
850.177	165.41
850.613	533.81
851.048	858.51
851.483	376.31
851.918	153.21
852.353	85.61
852.788	62.71
853.223	58.51
853.657	53.51
854.092	47.41
854.527	48.71
854.962	44.51
855.397	45.81
855.832	58.01
856.266	41.41
856.701	39.11
857.136	40.11
857.57	38.91
858.005	49.81
858.44	62.11
858.874	38.11
859.309	54.21
859.743	45.81
860.178	51.01
860.612	44.61
861.047	50.81
861.481	70.51
861.915	73.31
862.35	52.31
862.784	30.21
863.218	40.21
863.653	38.81
864.087	45.91
864.521	55.11
864.955	71.31
865.39	147.81
865.824	169.91
866.258	108.31
866.692	163.61
867.126	172.01
867.56	105.71
867.994	59.31
868.428	42.31
868.862	49.31
869.296	53.31
869.73	53.91
870.164	52.91
870.598	47.11
871.031	36.61
871.465	31.61
871.899	27.11
872.333	25.61
872.766	26.41
873.2	25.31
873.634	24.31
874.067	31.91
874.501	26.91
874.935	36.41
875.368	32.21
875.802	21.71
876.235	26.51
876.669	22.81
877.102	29.11
877.535	22.81
877.969	23.51
878.402	19.71
878.836	20.91
879.269	24.91
879.702	22.21
880.135	23.41
880.569	26.91
881.002	34.61
881.435	27.81
881.868	22.71
882.301	22.71
882.734	21.21
883.167	26.01
883.601	16.01
884.034	25.81
884.467	14.41
884.899	18.51
885.332	19.31
885.765	10.91
886.198	18.51
886.631	21.11
887.064	17.51
887.497	24.01
887.929	26.41
888.362	20.01
888.795	13.51
889.228	16.41
889.66	25.41
890.093	12.51
890.526	10.91
890.958	17.51
891.391	20.21
891.823	21.81
892.256	14.01
892.688	14.61
893.121	16.61
893.553	20.01
893.985	18.01
894.418	22.61
894.85	11.01
895.282	18.41
895.715	14.61
896.147	17.11
896.579	20.31
897.011	9.31
897.444	21.81
897.876	16.31
898.308	22.21
898.74	17.11
899.172	12.81
899.604	25.71
900.036	16.81
900.468	15.71
900.9	14.11
901.332	19.91
901.764	12.01
902.196	20.51
902.628	17.31
903.06	19.41
903.491	32.81
903.923	22.51
904.355	22.91
904.787	26.81
905.218	22.71
905.65	21.91
906.082	15.91
906.513	18.21
906.945	13.11
907.376	17.91
907.808	19.61
908.239	16.31
908.671	24.41
909.102	24.51
909.534	27.61
909.965	50.31
910.397	87.81
910.828	305.41
911.259	460.71
911.691	212.31
912.122	112.01
912.553	50.31
912.984	35.81
913.415	24.11
913.847	26.01
914.278	16.31
914.709	14.91
915.14	18.41
915.571	12.41
916.002	12.01
916.433	16.61
916.864	16.61
917.295	13.71
917.726	26.81
918.157	20.21
918.587	32.51
919.018	24.41
919.449	20.01
919.88	23.91
920.311	29.31
920.741	45.91
921.172	159.31
921.603	149.41
922.033	69.31
922.464	44.41
922.895	21.01
923.325	18.81
923.756	16.51
924.186	15.51
924.617	23.41
925.047	44.81
925.478	54.01
925.908	42.01
926.338	23.51
926.769	11.71
927.199	22.21
927.629	8.41
928.06	18.01
928.49	14.21
928.92	13.31
929.35	12.21
929.78	8.81
930.21	3.31
930.641	5.11
931.071	4.01
931.501	6.31
931.931	9.21
932.361	6.71
932.791	-1.29
933.221	13.11
933.651	5.11
934.08	17.91
934.51	24.61
934.94	16.41
935.37	13.11
935.8	10.01
936.229	12.21
936.659	1.41
937.089	4.91
937.519	11.11
937.948	23.31
938.378	11.51
938.807	9.71
939.237	8.21
939.666	8.11
940.096	-3.39
940.525	4.51
940.955	1.31
941.384	4.71
941.814	-5.39
942.243	2.71
942.672	7.71
943.102	1.21
943.531	2.61
943.96	5.51
944.39	4.71
944.819	4.31
945.248	7.01
945.677	1.41
946.106	4.11
946.535	2.41
946.964	0.81
947.393	6.31
947.822	5.11
948.251	-2.79
948.68	3.91
949.109	6.01
949.538	7.41
949.967	1.71
950.396	0.01
950.825	-1.19
951.254	3.01
951.682	-5.99
952.111	3.01
952.54	10.11
952.969	-7.89
953.397	0.81
953.826	1.51
954.254	-8.49
954.683	4.31
955.112	-3.09
955.54	6.61
955.969	4.71
956.397	4.61
956.826	-3.99
957.254	2.51
957.682	1.71
958.111	7.31
958.539	-0.59
958.967	4.11
959.396	3.41
959.824	2.31
960.252	2.41
960.68	-3.19
961.109	-0.99
961.537	-3.99
961.965	4.01
962.393	-0.59
962.821	2.51
963.249	-0.59
963.677	2.81
964.105	6.11
964.533	40.61
964.961	37.01
965.389	20.81
965.817	9.71
966.245	-1.69
966.672	0.61
967.1	-3.19
967.528	-4.79
967.956	2.11
968.383	6.41
968.811	0.01
969.239	-0.19
969.666	-7.19
970.094	1.41
970.522	2.21
970.949	0.51
971.377	-4.99
971.804	0.91
972.232	6.11
972.659	-2.09
973.087	0.11
973.514	-5.89
973.941	-3.19
974.369	3.41
974.796	3.41
975.223	0.01
975.651	0.51
976.078	6.91
976.505	0.61
976.932	2.91
977.359	17.91
977.786	18.01
978.214	2.01
978.641	1.91
979.068	-2.89
979.495	-7.59
979.922	-0.99
980.349	-0.19
980.776	3.31
981.202	-2.89
981.629	0.31
982.056	3.01
982.483	0.71
982.91	4.81
983.337	-5.89
983.763	4.31
984.19	-5.19
984.617	-5.39
985.043	0.31
985.47	-4.19
985.897	-1.79
986.323	-5.69
986.75	5.71
987.176	-1.59
987.603	2.01
988.029	5.71
988.456	-4.39
988.882	1.61
989.308	-0.69
989.735	-1.99
990.161	-2.49
990.587	-7.29
991.014	-0.29
991.44	5.81
991.866	-2.79
992.292	-5.99
992.719	1.61
993.145	3.11
993.571	-3.39
993.997	0.21
994.423	4.11
994.849	-3.59
995.275	5.01
995.701	-0.69
996.127	-1.29
996.553	3.41
996.979	-2.49
997.405	4.21
997.83	-8.39
998.256	-6.49
998.682	-11.79
999.108	-3.49
999.534	-0.09
999.959	-4.79
1000.385	-0.99
1000.811	2.41
1001.236	-7.09
1001.662	-6.59
1002.087	-3.49
1002.513	-1.19
1002.938	0.51
1003.364	-6.29
1003.789	-4.19
1004.215	6.91
1004.64	-2.99
1005.066	5.91
1005.491	0.41
1005.916	-0.29
1006.342	-4.09
1006.767	-7.39
1007.192	10.01
1007.617	-1.39
1008.042	-5.29
1008.468	-5.79
1008.893	-3.19
1009.318	-2.39
1009.743	-2.99
1010.168	4.61
1010.593	1.11
1011.018	-6.29
1011.443	0.01
1011.868	2.31
1012.293	-3.69
1012.718	-4.09
1013.143	1.71
1013.567	3.91
1013.992	-2.99
1014.417	-13.39
1014.842	3.91
1015.267	-1.99
1015.691	-9.09
1016.116	4.31
1016.541	0.41
1016.965	1.21
1017.39	4.01
1017.814	-0.39
1018.239	-3.69
1018.663	-8.39
1019.088	-4.19
1019.512	-5.09
1019.937	0.11
1020.361	-5.69
1020.785	-12.29
1021.21	-1.89
1021.634	-3.09
1022.058	-0.19
1022.483	1.21
1022.907	-4.99
1023.331	-2.09
1023.755	2.41
1024.179	3.01
1024.604	-5.39
1025.028	-3.09
1025.452	-2.09
1025.876	0.51
1026.3	2.21
1026.724	-11.99
1027.148	-4.99
1027.572	-9.19
1027.996	-5.19
1028.42	-5.69
1028.843	-2.19
1029.267	-5.59
1029.691	2.41
1030.115	-9.19
1030.539	-7.19
1030.962	-5.99
1031.386	-12.19
1031.81	-0.79
1032.233	-0.09
1032.657	-2.29
1033.08	-5.69
1033.504	-4.59
1033.927	-9.99
1034.351	1.11
1034.774	-6.59
1035.198	-2.09
1035.621	-9.49
1036.045	-8.29
1036.468	-0.39
1036.891	-10.89
1037.315	-5.79
1037.738	-8.89
1038.161	3.31
1038.584	-1.79
1039.008	-2.79
1039.431	-2.39
1039.854	-6.99
1040.277	-5.99
1040.7	-10.99
1041.123	2.71
1041.546	-10.69
1041.969	-1.89
1042.392	-3.29
1042.815	3.71
1043.238	5.71
1043.661	-1.59
1044.084	-5.79
1044.507	-4.49
1044.93	-4.09
1045.352	-8.79
1045.775	-2.19
1046.198	-2.39
1046.621	0.11
1047.043	2.21
1047.466	5.61
1047.889	-0.19
1048.311	-3.69
1048.734	-3.19
1049.156	-2.99
1049.579	-3.69
1050.001	-3.19
1050.424	-1.09
1050.846	-10.39
1051.269	-5.79
1051.691	-4.99
1052.113	-11.59
1052.536	3.01
1052.958	-3.09
1053.38	-6.99
1053.802	-8.79
1054.225	-1.09
1054.647	-14.19
1055.069	-9.99
1055.491	3.81
1055.913	-6.69
1056.335	-0.49
1056.757	-8.49
1057.179	-3.39
1057.601	-10.09
1058.023	3.21
1058.445	-2.09
1058.867	-6.79
1059.289	0.11
1059.711	-11.99
1060.133	-4.79
1060.555	-9.89
1060.976	-7.69
1061.398	-2.49
1061.82	-6.79
1062.241	-5.09
1062.663	-1.39
1063.085	-2.49
1063.506	-4.69
1063.928	-0.99
1064.35	-2.99
1064.771	-4.89
1065.193	-1.09
1065.614	-5.59
1066.035	-1.09
1066.457	-0.39
1066.878	-1.19
1067.3	-4.59
1067.721	-6.19
1068.142	-3.19
1068.564	-5.99
1068.985	-9.39
1069.406	0.71
1069.827	-4.99
1070.248	-1.29
1070.67	-5.09
1071.091	-5.19
1071.512	-0.69
1071.933	-7.09
1072.354	-2.09
1072.775	-6.29
1073.196	-0.39
1073.617	0.41
1074.038	-3.69
1074.459	-0.79
1074.88	-8.99
1075.3	-2.29
1075.721	-6.89
1076.142	5.51
1076.563	0.61
1076.983	-11.59
1077.404	-8.29
1077.825	-10.59
1078.246	-2.79
1078.666	-14.69
1079.087	-6.09
1079.507	-4.99
1079.928	5.11
1080.348	-0.19
1080.769	-3.09
1081.189	-1.59
1081.61	-2.19
1082.03	-7.59
1082.451	-4.89
1082.871	-0.99
1083.291	-9.29
1083.711	-6.39
1084.132	-4.59
1084.552	-3.59
1084.972	-1.89
1085.392	-10.39
1085.813	-6.19
1086.233	-3.79
1086.653	-7.19
1087.073	-5.69
1087.493	-3.09
1087.913	-1.29
1088.333	-8.99
1088.753	-4.39
1089.173	0.51
1089.593	-4.09
1090.013	1.01
1090.433	3.21
1090.852	-4.69
1091.272	-3.29
1091.692	-0.19
1092.112	0.91
1092.531	-13.99
1092.951	-9.59
1093.371	1.21
1093.79	-0.29
1094.21	-5.09
1094.63	-5.89
1095.049	-10.09
1095.469	-5.29
1095.888	-9.79
1096.308	-0.79
1096.727	0.11
1097.146	-5.59
1097.566	5.81
1097.985	-1.69
1098.405	-2.49
1098.824	-3.09
1099.243	-6.69
1099.662	-6.39
1100.082	-1.29
1100.501	3.01
1100.92	-2.89
1101.339	1.51
1101.758	-3.19
