Data from 20171114-ORNL-Ar_H_NY_Subt18_08-05-16-039.txt Node
Date: Tue Nov 14 08:05:16 EST 2017
User: Ender
Spectrometer: HR+D1039
Trigger mode: 0
Integration Time (sec): 2.730000E-2
Scans to average: 10
Electric dark correction enabled: true
Nonlinearity correction enabled: false
Boxcar width: 0
XAxis mode: Wavelengths
Number of Pixels in Spectrum: 2048
>>>>>Begin Spectral Data<<<<<
187.836	-2.36
188.309	-2.36
188.782	-2.36
189.255	-1.16
189.728	3.44
190.201	10.04
190.674	-1.56
191.147	2.44
191.619	-11.76
192.092	0.94
192.565	8.44
193.038	-0.26
193.511	3.74
193.984	-0.56
194.456	-5.06
194.929	2.84
195.402	-1.16
195.874	-7.96
196.347	-6.96
196.82	-7.86
197.292	1.44
197.765	-3.36
198.237	-10.66
198.71	-0.76
199.182	-2.86
199.655	3.34
200.127	0.34
200.6	-3.76
201.072	1.64
201.544	-4.66
202.017	-1.96
202.489	2.44
202.961	0.74
203.433	-6.06
203.906	-9.56
204.378	-5.96
204.85	-5.46
205.322	-8.16
205.794	-0.26
206.266	-5.46
206.739	-13.16
207.211	3.74
207.683	-4.16
208.155	-3.06
208.627	-7.26
209.099	-6.56
209.57	-7.96
210.042	-3.46
210.514	-2.36
210.986	-2.36
211.458	-5.56
211.93	-8.16
212.402	-3.86
212.873	-8.56
213.345	-15.96
213.817	-14.56
214.288	-5.76
214.76	-18.06
215.232	-4.16
215.703	-3.76
216.175	-0.26
216.646	-2.66
217.118	-8.66
217.589	-5.96
218.061	-5.66
218.532	-8.46
219.004	-0.26
219.475	-7.46
219.946	-7.16
220.418	-10.26
220.889	6.64
221.36	-3.36
221.832	-7.06
222.303	-4.06
222.774	0.74
223.245	-8.26
223.717	-6.86
224.188	-4.76
224.659	-9.96
225.13	-7.66
225.601	-6.96
226.072	2.34
226.543	-1.96
227.014	1.54
227.485	-1.46
227.956	-8.36
228.427	-0.66
228.898	-0.96
229.369	1.14
229.839	-4.76
230.31	-3.46
230.781	6.94
231.252	-1.36
231.722	-2.36
232.193	-5.56
232.664	4.74
233.135	1.94
233.605	-0.96
234.076	-5.26
234.546	1.94
235.017	-0.26
235.487	-0.46
235.958	4.34
236.428	-4.96
236.899	9.94
237.369	-0.56
237.84	-2.36
238.31	11.24
238.78	3.04
239.251	-0.36
239.721	-0.26
240.191	2.14
240.662	-0.26
241.132	-1.96
241.602	-4.06
242.072	-0.16
242.542	5.34
243.013	1.64
243.483	3.44
243.953	5.24
244.423	2.14
244.893	0.84
245.363	0.84
245.833	-1.26
246.303	-4.16
246.773	8.34
247.243	4.64
247.712	5.14
248.182	8.44
248.652	4.14
249.122	-0.46
249.592	15.04
250.061	23.94
250.531	33.34
251.001	14.44
251.471	20.34
251.94	15.94
252.41	7.84
252.879	-2.76
253.349	11.44
253.818	14.34
254.288	3.74
254.757	3.44
255.227	-1.36
255.696	2.94
256.166	11.34
256.635	10.24
257.105	9.84
257.574	6.64
258.043	8.14
258.513	12.14
258.982	17.94
259.451	9.34
259.92	13.04
260.389	9.44
260.859	18.94
261.328	14.14
261.797	20.54
262.266	12.54
262.735	7.34
263.204	8.04
263.673	7.74
264.142	6.44
264.611	-4.36
265.08	2.34
265.549	-0.36
266.018	8.24
266.487	-3.76
266.955	-7.26
267.424	6.54
267.893	8.14
268.362	8.44
268.83	4.94
269.299	15.24
269.768	2.54
270.236	7.04
270.705	3.54
271.174	9.64
271.642	5.34
272.111	9.84
272.579	23.14
273.048	17.14
273.516	34.14
273.985	31.84
274.453	29.14
274.922	27.94
275.39	12.94
275.858	10.34
276.327	15.74
276.795	20.24
277.263	11.34
277.731	33.44
278.2	56.74
278.668	64.14
279.136	61.24
279.604	24.74
280.072	26.24
280.54	13.24
281.008	14.24
281.477	15.84
281.945	14.04
282.413	12.84
282.881	13.24
283.348	11.54
283.816	22.74
284.284	19.04
284.752	19.04
285.22	17.84
285.688	17.64
286.156	23.74
286.623	48.14
287.091	52.04
287.559	32.74
288.026	14.44
288.494	12.94
288.962	7.64
289.429	14.84
289.897	14.14
290.364	16.34
290.832	14.84
291.3	17.94
291.767	26.24
292.234	20.04
292.702	14.44
293.169	17.74
293.637	24.64
294.104	22.14
294.571	11.24
295.039	18.04
295.506	16.84
295.973	20.84
296.44	20.44
296.908	17.14
297.375	23.54
297.842	22.24
298.309	16.44
298.776	14.74
299.243	18.84
299.71	13.94
300.177	24.84
300.644	26.14
301.111	26.14
301.578	24.14
302.045	22.14
302.512	21.74
302.979	29.04
303.446	22.84
303.913	24.94
304.379	26.14
304.846	27.94
305.313	29.54
305.78	26.44
306.246	27.94
306.713	28.14
307.18	25.34
307.646	26.94
308.113	31.04
308.579	27.04
309.046	25.44
309.512	29.54
309.979	16.14
310.445	28.14
310.912	29.24
311.378	35.14
311.845	33.34
312.311	28.94
312.777	31.44
313.244	30.84
313.71	42.04
314.176	31.74
314.642	32.04
315.109	33.44
315.575	40.64
316.041	38.34
316.507	39.94
316.973	34.04
317.439	33.24
317.905	42.74
318.371	33.14
318.837	40.84
319.303	33.44
319.769	36.74
320.235	35.44
320.701	43.74
321.167	42.74
321.633	39.04
322.099	44.84
322.564	45.64
323.03	42.74
323.496	40.04
323.962	46.94
324.427	38.64
324.893	49.14
325.359	37.44
325.824	41.14
326.29	32.64
326.755	43.44
327.221	37.34
327.686	44.34
328.152	52.14
328.617	40.74
329.083	47.24
329.548	49.94
330.014	50.84
330.479	43.84
330.944	45.64
331.41	45.54
331.875	47.64
332.34	49.04
332.805	40.34
333.271	52.64
333.736	43.74
334.201	45.14
334.666	51.54
335.131	50.84
335.596	54.74
336.061	53.74
336.526	45.14
336.991	48.04
337.456	57.14
337.921	47.34
338.386	48.44
338.851	45.84
339.316	52.54
339.781	41.54
340.246	52.94
340.711	49.34
341.175	51.54
341.64	45.04
342.105	52.24
342.569	58.64
343.034	53.54
343.499	55.84
343.963	55.94
344.428	61.14
344.893	58.84
345.357	61.24
345.822	64.64
346.286	65.94
346.751	73.54
347.215	65.74
347.679	75.94
348.144	102.74
348.608	88.84
349.073	71.34
349.537	84.34
350.001	81.94
350.465	89.74
350.93	82.14
351.394	82.24
351.858	79.84
352.322	93.34
352.786	83.54
353.25	104.74
353.715	110.14
354.179	101.54
354.643	123.74
355.107	136.14
355.571	107.14
356.035	101.74
356.498	119.64
356.962	129.64
357.426	131.64
357.89	120.24
358.354	92.44
358.818	83.54
359.281	83.24
359.745	78.44
360.209	80.04
360.673	75.74
361.136	82.44
361.6	79.34
362.064	86.54
362.527	82.24
362.991	85.14
363.454	85.44
363.918	77.84
364.381	83.14
364.845	79.74
365.308	82.94
365.772	87.24
366.235	85.34
366.698	82.54
367.162	83.54
367.625	83.74
368.088	81.74
368.552	97.24
369.015	87.34
369.478	100.94
369.941	106.34
370.404	95.04
370.867	107.24
371.331	106.84
371.794	120.74
372.257	117.44
372.72	115.24
373.183	110.44
373.646	99.74
374.109	98.34
374.572	108.54
375.035	110.54
375.497	107.94
375.96	105.74
376.423	102.84
376.886	116.14
377.349	109.04
377.811	101.64
378.274	102.04
378.737	112.14
379.199	108.14
379.662	113.54
380.125	118.04
380.587	124.34
381.05	121.04
381.512	125.04
381.975	134.54
382.437	130.44
382.9	133.34
383.362	134.34
383.825	143.54
384.287	151.24
384.75	138.64
385.212	138.44
385.674	130.64
386.136	138.74
386.599	125.54
387.061	128.44
387.523	129.14
387.985	128.14
388.447	140.14
388.91	143.04
389.372	152.84
389.834	147.44
390.296	146.24
390.758	149.64
391.22	167.34
391.682	203.54
392.144	293.54
392.606	230.04
393.068	167.64
393.529	173.44
393.991	152.84
394.453	143.04
394.915	157.84
395.377	190.74
395.838	214.24
396.3	155.84
396.762	144.44
397.224	132.44
397.685	120.04
398.147	127.84
398.608	135.84
399.07	128.84
399.531	134.74
399.993	137.84
400.454	151.74
400.916	149.74
401.377	142.94
401.839	143.24
402.3	146.94
402.762	164.34
403.223	178.04
403.684	167.14
404.145	157.74
404.607	159.54
405.068	162.64
405.529	166.84
405.99	189.14
406.451	169.64
406.913	170.94
407.374	158.44
407.835	159.64
408.296	162.34
408.757	172.64
409.218	180.44
409.679	181.14
410.14	174.44
410.601	177.14
411.062	182.04
411.522	186.74
411.983	185.54
412.444	176.64
412.905	183.84
413.366	175.44
413.826	191.24
414.287	212.84
414.748	258.04
415.208	250.84
415.669	202.34
416.13	206.44
416.59	201.24
417.051	205.24
417.511	214.04
417.972	239.74
418.432	246.34
418.893	285.44
419.353	247.44
419.814	197.74
420.274	182.54
420.734	174.14
421.195	193.14
421.655	193.14
422.115	196.04
422.576	188.54
423.036	189.84
423.496	196.54
423.956	211.44
424.416	236.54
424.876	263.14
425.336	258.74
425.797	266.64
426.257	252.54
426.717	238.04
427.177	227.34
427.637	222.64
428.097	229.74
428.556	241.34
429.016	261.84
429.476	258.54
429.936	273.44
430.396	279.34
430.856	293.34
431.315	310.44
431.775	353.64
432.235	375.54
432.694	344.04
433.154	352.54
433.614	391.54
434.073	325.84
434.533	273.84
434.993	264.74
435.452	278.54
435.912	293.64
436.371	287.24
436.83	283.64
437.29	265.44
437.749	239.24
438.209	246.14
438.668	267.74
439.127	282.74
439.587	260.34
440.046	251.14
440.505	258.54
440.964	275.74
441.424	321.24
441.883	310.04
442.342	258.04
442.801	222.04
443.26	213.34
443.719	216.64
444.178	217.94
444.637	206.34
445.096	217.84
445.555	214.14
446.014	220.24
446.473	223.54
446.932	224.74
447.391	223.64
447.849	225.54
448.308	218.64
448.767	220.34
449.226	236.34
449.685	229.44
450.143	243.74
450.602	232.94
451.061	224.84
451.519	227.84
451.978	231.14
452.436	232.94
452.895	237.14
453.353	246.04
453.812	241.64
454.27	238.04
454.729	234.54
455.187	237.24
455.646	248.64
456.104	250.34
456.562	255.94
457.021	265.54
457.479	261.74
457.937	269.44
458.395	255.84
458.854	245.44
459.312	255.24
459.77	273.24
460.228	255.04
460.686	232.24
461.144	248.54
461.602	239.64
462.06	241.64
462.518	249.84
462.976	253.14
463.434	255.94
463.892	257.14
464.35	277.04
464.808	276.94
465.266	261.94
465.724	270.94
466.181	269.94
466.639	266.94
467.097	283.54
467.555	292.54
468.012	297.04
468.47	312.34
468.928	323.54
469.385	335.34
469.843	353.74
470.3	347.04
470.758	356.44
471.215	377.24
471.673	406.04
472.13	405.14
472.588	412.44
473.045	368.74
473.503	372.04
473.96	395.74
474.417	403.94
474.875	435.54
475.332	470.94
475.789	456.14
476.246	462.84
476.704	485.24
477.161	504.04
477.618	518.44
478.075	553.44
478.532	606.14
478.989	689.04
479.446	806.44
479.903	776.24
480.36	813.74
480.817	869.34
481.274	965.84
481.731	1076.14
482.188	1169.54
482.645	1303.94
483.102	1413.94
483.558	1559.94
484.015	1613.74
484.472	1579.24
484.929	1531.14
485.385	1494.44
485.842	1429.74
486.299	1371.24
486.755	1284.34
487.212	1087.64
487.668	915.24
488.125	858.84
488.582	777.14
489.038	751.04
489.494	718.34
489.951	689.54
490.407	674.24
490.864	645.44
491.32	645.34
491.776	639.44
492.233	639.54
492.689	603.14
493.145	596.54
493.602	599.14
494.058	610.64
494.514	609.24
494.97	636.44
495.426	642.64
495.882	620.44
496.338	617.54
496.794	623.24
497.251	623.14
497.707	633.34
498.163	637.74
498.618	652.14
499.074	642.94
499.53	672.64
499.986	667.54
500.442	651.74
500.898	631.54
501.354	627.34
501.809	632.44
502.265	636.34
502.721	663.04
503.177	673.94
503.632	661.34
504.088	681.74
504.543	696.64
504.999	704.74
505.455	668.64
505.91	628.24
506.366	629.64
506.821	623.74
507.277	624.84
507.732	628.94
508.187	611.24
508.643	625.04
509.098	625.04
509.553	656.14
510.009	651.14
510.464	667.84
510.919	679.44
511.375	692.04
511.83	710.94
512.285	717.14
512.74	771.74
513.195	784.14
513.65	765.54
514.105	767.64
514.56	780.54
515.015	793.84
515.47	806.94
515.925	788.74
516.38	787.94
516.835	783.64
517.29	779.84
517.745	778.74
518.2	758.84
518.655	739.64
519.109	738.54
519.564	737.14
520.019	724.84
520.474	724.14
520.928	716.44
521.383	712.74
521.838	713.64
522.292	711.04
522.747	706.84
523.201	694.34
523.656	698.34
524.11	692.34
524.565	687.84
525.019	687.44
525.474	696.04
525.928	697.94
526.382	692.54
526.837	702.14
527.291	693.84
527.745	690.74
528.2	701.54
528.654	684.74
529.108	681.84
529.562	689.94
530.016	681.24
530.47	695.24
530.925	685.44
531.379	691.94
531.833	703.24
532.287	704.74
532.741	693.94
533.195	704.34
533.649	709.74
534.103	721.24
534.556	704.44
535.01	715.24
535.464	711.14
535.918	713.64
536.372	719.94
536.826	717.04
537.279	701.44
537.733	709.34
538.187	712.64
538.64	709.74
539.094	720.24
539.548	726.64
540.001	721.54
540.455	721.94
540.908	718.14
541.362	730.94
541.815	738.14
542.269	749.74
542.722	753.54
543.175	768.94
543.629	767.14
544.082	785.84
544.536	775.54
544.989	770.34
545.442	785.44
545.895	774.64
546.349	781.34
546.802	781.54
547.255	787.24
547.708	801.54
548.161	815.84
548.614	810.24
549.067	824.64
549.52	817.64
549.973	799.64
550.426	797.24
550.879	781.24
551.332	788.84
551.785	799.94
552.238	788.74
552.691	812.74
553.144	819.54
553.596	841.64
554.049	848.94
554.502	878.74
554.955	898.44
555.407	910.84
555.86	890.84
556.313	889.44
556.765	868.34
557.218	874.94
557.67	872.84
558.123	870.24
558.576	872.44
559.028	867.34
559.48	884.24
559.933	870.14
560.385	827.44
560.838	791.54
561.29	768.94
561.742	767.04
562.195	753.54
562.647	758.94
563.099	765.84
563.551	764.64
564.004	774.94
564.456	768.24
564.908	753.24
565.36	743.94
565.812	730.54
566.264	718.04
566.716	720.24
567.168	703.44
567.62	705.54
568.072	689.54
568.524	679.64
568.976	677.24
569.428	662.34
569.88	655.04
570.332	672.54
570.784	674.44
571.235	673.04
571.687	677.94
572.139	692.84
572.59	700.14
573.042	689.24
573.494	701.04
573.945	693.94
574.397	675.64
574.849	677.04
575.3	678.64
575.752	669.44
576.203	674.34
576.655	675.34
577.106	662.74
577.557	655.54
578.009	656.34
578.46	654.64
578.912	662.44
579.363	658.24
579.814	650.34
580.265	650.14
580.717	656.74
581.168	664.34
581.619	662.04
582.07	673.24
582.521	659.64
582.972	660.44
583.423	660.34
583.875	662.44
584.326	688.04
584.777	732.24
585.227	787.44
585.678	895.54
586.129	991.44
586.58	1055.14
587.031	1144.34
587.482	1298.14
587.933	1495.74
588.384	1289.84
588.834	946.14
589.285	778.04
589.736	768.94
590.186	753.34
590.637	738.24
591.088	728.34
591.538	706.64
591.989	710.04
592.439	708.84
592.89	702.64
593.34	685.94
593.791	688.54
594.241	686.64
594.692	699.04
595.142	692.24
595.593	689.64
596.043	683.64
596.493	697.64
596.943	697.04
597.394	696.64
597.844	698.74
598.294	705.24
598.744	730.34
599.195	755.74
599.645	799.14
600.095	816.64
600.545	889.94
600.995	930.54
601.445	999.74
601.895	1060.74
602.345	1104.84
602.795	1078.04
603.245	1045.84
603.695	978.14
604.145	929.34
604.594	882.14
605.044	843.44
605.494	778.44
605.944	729.34
606.393	710.54
606.843	704.84
607.293	715.84
607.743	704.64
608.192	715.04
608.642	728.74
609.091	734.94
609.541	744.74
609.99	750.54
610.44	740.44
610.889	693.44
611.339	676.14
611.788	653.94
612.238	667.64
612.687	691.34
613.136	691.94
613.586	717.64
614.035	711.64
614.484	730.54
614.933	732.84
615.383	728.44
615.832	712.24
616.281	698.14
616.73	662.24
617.179	634.24
617.628	626.04
618.077	609.84
618.526	582.14
618.975	596.04
619.424	591.44
619.873	592.54
620.322	595.34
620.771	588.84
621.22	581.54
621.669	573.24
622.118	565.84
622.567	551.04
623.015	549.84
623.464	550.74
623.913	541.74
624.361	529.34
624.81	530.14
625.259	527.74
625.707	535.44
626.156	536.54
626.604	542.84
627.053	537.44
627.501	538.84
627.95	531.24
628.398	553.14
628.847	543.14
629.295	551.44
629.744	551.24
630.192	547.64
630.64	551.44
631.089	540.64
631.537	544.74
631.985	570.04
632.433	570.84
632.881	578.04
633.33	626.34
633.778	613.24
634.226	542.14
634.674	538.14
635.122	546.64
635.57	571.04
636.018	591.64
636.466	551.94
636.914	540.24
637.362	555.34
637.81	546.84
638.258	560.04
638.705	557.24
639.153	573.54
639.601	584.54
640.049	611.64
640.497	639.94
640.944	648.94
641.392	616.04
641.84	585.54
642.287	562.64
642.735	539.14
643.182	546.24
643.63	545.74
644.078	558.84
644.525	567.14
644.973	571.54
645.42	570.14
645.867	589.44
646.315	616.24
646.762	628.44
647.21	662.34
647.657	680.04
648.104	719.64
648.551	731.94
648.999	797.94
649.446	882.14
649.893	962.64
650.34	1103.44
650.787	1315.54
651.234	1629.14
651.682	2119.84
652.129	2920.24
652.576	4195.64
653.023	6199.64
653.47	8532.84
653.917	10767.54
654.363	12509.84
654.81	13950.84
655.257	13285.84
655.704	8650.24
656.151	5084.64
656.598	3281.84
657.044	2339.04
657.491	1786.64
657.938	1429.04
658.385	1197.44
658.831	1036.84
659.278	926.34
659.724	805.74
660.171	741.54
660.618	685.44
661.064	657.04
661.511	631.44
661.957	623.94
662.404	613.84
662.85	620.44
663.296	586.04
663.743	530.94
664.189	509.84
664.635	499.24
665.082	499.04
665.528	499.74
665.974	488.14
666.42	482.84
666.867	481.04
667.313	457.74
667.759	454.44
668.205	451.54
668.651	464.14
669.097	455.84
669.543	468.44
669.989	447.84
670.435	425.14
670.881	422.04
671.327	428.04
671.773	441.04
672.219	467.34
672.665	506.24
673.11	545.04
673.556	585.64
674.002	628.94
674.448	618.74
674.893	518.44
675.339	449.94
675.785	408.84
676.23	390.04
676.676	360.84
677.122	357.54
677.567	348.64
678.013	352.94
678.458	339.54
678.904	338.54
679.349	326.14
679.794	334.94
680.24	325.64
680.685	329.94
681.131	325.34
681.576	327.74
682.021	336.44
682.466	327.84
682.912	328.84
683.357	326.24
683.802	355.84
684.247	384.14
684.692	430.04
685.137	463.04
685.583	503.24
686.028	518.04
686.473	487.14
686.918	422.04
687.363	386.44
687.807	373.54
688.252	348.24
688.697	327.94
689.142	320.54
689.587	314.94
690.032	302.04
690.477	325.54
690.921	327.74
691.366	356.54
691.811	376.64
692.255	402.34
692.7	429.64
693.145	467.04
693.589	634.24
694.034	1028.84
694.478	1417.24
694.923	1630.44
695.367	2156.94
695.812	1129.74
696.256	464.34
696.701	348.84
697.145	323.14
697.59	300.24
698.034	307.14
698.478	307.64
698.922	303.74
699.367	308.64
699.811	311.14
700.255	332.64
700.699	356.34
701.143	399.24
701.588	450.14
702.032	481.54
702.476	480.14
702.92	460.54
703.364	457.14
703.808	583.04
704.252	947.44
704.696	1353.74
705.14	1583.34
705.584	2011.64
706.027	996.34
706.471	490.44
706.915	367.94
707.359	329.04
707.803	301.44
708.246	287.14
708.69	289.14
709.134	289.84
709.577	287.94
710.021	291.54
710.465	279.44
710.908	279.34
711.352	270.84
711.795	292.84
712.239	321.04
712.682	358.94
713.126	387.94
713.569	439.04
714.012	350.14
714.456	303.24
714.899	281.84
715.342	256.84
715.786	246.84
716.229	235.14
716.672	234.64
717.115	226.94
717.558	234.84
718.002	235.24
718.445	244.34
718.888	265.24
719.331	268.14
719.774	279.54
720.217	284.54
720.66	271.34
721.103	245.64
721.546	239.44
721.989	232.74
722.432	214.04
722.874	222.14
723.317	213.74
723.76	216.74
724.203	244.84
724.645	288.54
725.088	410.24
725.531	527.04
725.974	608.54
726.416	515.94
726.859	285.34
727.301	232.84
727.744	216.84
728.187	218.14
728.629	217.24
729.071	222.74
729.514	237.24
729.956	253.64
730.399	258.94
730.841	263.44
731.283	248.94
731.726	244.34
732.168	237.94
732.61	246.04
733.053	263.24
733.495	292.14
733.937	328.04
734.379	368.44
734.821	398.14
735.263	496.44
735.705	759.54
736.148	1428.84
736.59	2381.04
737.032	2876.64
737.474	2338.64
737.916	751.34
738.357	394.04
738.799	298.04
739.241	269.64
739.683	267.64
740.125	272.54
740.567	279.44
741.008	294.44
741.45	287.94
741.892	290.84
742.334	319.24
742.775	339.04
743.217	313.54
743.658	247.84
744.1	230.24
744.542	243.64
744.983	281.24
745.425	320.94
745.866	320.04
746.307	265.14
746.749	266.54
747.19	290.74
747.632	409.34
748.073	794.14
748.514	1689.14
748.956	2646.94
749.397	3302.14
749.838	2747.04
750.279	2800.44
750.72	1406.74
751.162	510.54
751.603	296.24
752.044	234.14
752.485	204.24
752.926	191.44
753.367	189.84
753.808	187.34
754.249	176.44
754.69	181.34
755.131	164.04
755.572	166.64
756.013	162.84
756.453	168.84
756.894	182.34
757.335	168.14
757.776	174.54
758.216	180.84
758.657	180.34
759.098	183.74
759.538	208.34
759.979	241.44
760.42	328.54
760.86	636.94
761.301	1621.14
761.741	4020.74
762.182	6091.14
762.622	4293.84
763.063	1216.74
763.503	508.24
763.943	324.14
764.384	308.84
764.824	368.44
765.264	404.24
765.705	284.74
766.145	196.14
766.585	174.84
767.025	159.04
767.465	171.84
767.906	226.94
768.346	295.94
768.786	321.34
769.226	242.74
769.666	290.24
770.106	562.44
770.546	1394.24
770.986	2488.54
771.426	2235.04
771.866	732.14
772.306	302.24
772.745	194.44
773.185	162.84
773.625	154.04
774.065	151.54
774.505	183.94
774.944	283.14
775.384	610.24
775.824	1161.34
776.263	1149.54
776.703	480.34
777.142	212.74
777.582	149.64
778.021	131.44
778.461	125.34
778.9	129.04
779.34	120.04
779.779	111.14
780.219	102.74
780.658	105.64
781.097	102.84
781.537	111.04
781.976	98.54
782.415	93.24
782.855	101.64
783.294	98.94
783.733	101.94
784.172	102.54
784.611	93.34
785.05	102.24
785.489	102.04
785.928	108.94
786.367	109.84
786.806	107.34
787.245	119.14
787.684	123.84
788.123	143.04
788.562	125.14
789.001	115.84
789.44	111.84
789.879	114.14
790.317	109.14
790.756	112.74
791.195	115.14
791.634	131.34
792.072	189.14
792.511	324.54
792.95	898.44
793.388	1980.14
793.827	1827.54
794.265	621.34
794.704	254.64
795.142	169.34
795.581	138.64
796.019	124.44
796.458	118.04
796.896	106.44
797.334	118.04
797.773	144.24
798.211	193.64
798.649	394.24
799.087	937.04
799.526	1463.44
799.964	1853.04
800.402	1889.34
800.84	708.94
801.278	274.74
801.716	164.94
802.154	141.74
802.592	134.24
803.03	126.94
803.468	118.64
803.906	129.24
804.344	139.44
804.782	130.24
805.22	124.54
805.658	116.24
806.096	133.24
806.533	152.54
806.971	161.64
807.409	201.24
807.847	281.84
808.284	595.24
808.722	1691.14
809.16	3058.84
809.597	2858.04
810.035	4992.64
810.472	5498.44
810.91	1960.74
811.347	733.44
811.785	375.04
812.222	243.24
812.66	179.74
813.097	150.74
813.535	131.44
813.972	116.64
814.409	107.74
814.846	98.24
815.284	100.04
815.721	96.74
816.158	94.24
816.595	110.24
817.032	164.34
817.47	192.14
817.907	155.94
818.344	137.94
818.781	102.14
819.218	91.24
819.655	108.94
820.092	163.64
820.529	198.14
820.966	169.14
821.403	122.74
821.839	98.84
822.276	96.14
822.713	106.64
823.15	130.94
823.587	101.14
824.023	136.54
824.46	264.54
824.897	807.54
825.333	1269.24
825.77	550.14
826.206	208.14
826.643	123.44
827.08	91.04
827.516	76.24
827.953	69.84
828.389	70.34
828.825	65.14
829.262	63.44
829.698	59.24
830.135	59.54
830.571	57.44
831.007	62.44
831.443	59.44
831.88	51.44
832.316	58.34
832.752	56.74
833.188	66.84
833.624	55.14
834.06	61.44
834.497	68.84
834.933	65.34
835.369	65.34
835.805	62.54
836.241	70.64
836.677	69.04
837.112	80.84
837.548	98.54
837.984	126.04
838.42	178.14
838.856	436.14
839.292	1375.14
839.727	2173.74
840.163	1004.24
840.599	835.24
841.034	1853.74
841.47	2015.14
841.906	726.04
842.341	310.44
842.777	214.84
843.212	294.74
843.648	296.34
844.083	150.64
844.519	93.04
844.954	68.74
845.39	54.24
845.825	50.34
846.261	49.44
846.696	48.54
847.131	49.54
847.566	55.54
848.002	51.34
848.437	49.44
848.872	53.74
849.307	53.84
849.742	72.94
850.177	156.74
850.613	508.74
851.048	805.14
851.483	353.24
851.918	142.64
852.353	78.64
852.788	58.34
853.223	48.84
853.657	50.04
854.092	41.84
854.527	32.44
854.962	43.74
855.397	42.14
855.832	44.04
856.266	41.04
856.701	36.44
857.136	30.14
857.57	37.84
858.005	45.64
858.44	58.24
858.874	36.04
859.309	53.54
859.743	35.64
860.178	48.24
860.612	39.34
861.047	44.64
861.481	63.94
861.915	66.74
862.35	47.94
862.784	36.94
863.218	33.44
863.653	32.14
864.087	42.34
864.521	50.14
864.955	63.04
865.39	141.14
865.824	156.94
866.258	108.94
866.692	147.94
867.126	168.04
867.56	103.34
867.994	51.84
868.428	32.64
868.862	43.84
869.296	56.44
869.73	54.54
870.164	55.74
870.598	40.94
871.031	32.04
871.465	26.64
871.899	31.64
872.333	21.94
872.766	21.84
873.2	25.04
873.634	26.84
874.067	27.04
874.501	18.94
874.935	27.74
875.368	25.94
875.802	26.34
876.235	21.14
876.669	23.14
877.102	24.04
877.535	21.44
877.969	24.04
878.402	20.24
878.836	16.44
879.269	20.44
879.702	23.44
880.135	18.94
880.569	23.04
881.002	25.44
881.435	13.84
881.868	14.04
882.301	21.24
882.734	16.34
883.167	19.64
883.601	15.54
884.034	20.34
884.467	15.54
884.899	18.44
885.332	18.64
885.765	10.34
886.198	10.94
886.631	16.34
887.064	15.34
887.497	15.84
887.929	21.14
888.362	19.54
888.795	8.94
889.228	14.64
889.66	20.54
890.093	17.74
890.526	11.94
890.958	9.34
891.391	17.54
891.823	18.64
892.256	15.34
892.688	11.04
893.121	11.14
893.553	13.64
893.985	25.54
894.418	18.54
894.85	9.64
895.282	10.94
895.715	19.64
896.147	20.84
896.579	13.74
897.011	10.84
897.444	16.94
897.876	13.94
898.308	15.74
898.74	6.94
899.172	10.94
899.604	22.54
900.036	20.04
900.468	13.44
900.9	12.54
901.332	18.84
901.764	5.34
902.196	14.64
902.628	10.84
903.06	13.54
903.491	30.34
903.923	18.74
904.355	21.94
904.787	21.64
905.218	22.34
905.65	21.04
906.082	7.64
906.513	15.84
906.945	17.64
907.376	7.64
907.808	15.94
908.239	23.84
908.671	13.64
909.102	17.54
909.534	21.14
909.965	47.34
910.397	82.44
910.828	281.44
911.259	451.94
911.691	202.04
912.122	98.94
912.553	49.34
912.984	31.74
913.415	22.74
913.847	21.04
914.278	11.24
914.709	12.74
915.14	19.64
915.571	15.04
916.002	7.74
916.433	16.34
916.864	15.54
917.295	13.04
917.726	20.74
918.157	15.34
918.587	21.64
919.018	21.44
919.449	17.14
919.88	24.74
920.311	22.24
920.741	34.74
921.172	145.84
921.603	138.94
922.033	54.74
922.464	34.94
922.895	18.04
923.325	18.24
923.756	14.84
924.186	12.24
924.617	26.84
925.047	43.24
925.478	53.74
925.908	40.44
926.338	22.64
926.769	8.64
927.199	22.34
927.629	7.04
928.06	13.34
928.49	11.74
928.92	14.14
929.35	11.34
929.78	10.04
930.21	8.24
930.641	9.34
931.071	7.34
931.501	4.84
931.931	11.34
932.361	8.04
932.791	1.64
933.221	4.14
933.651	-4.06
934.08	12.64
934.51	30.14
934.94	11.24
935.37	11.24
935.8	9.84
936.229	7.24
936.659	6.44
937.089	-0.26
937.519	8.64
937.948	23.34
938.378	13.64
938.807	4.94
939.237	5.24
939.666	4.94
940.096	-1.86
940.525	5.54
940.955	3.84
941.384	1.84
941.814	-4.26
942.243	-2.86
942.672	2.44
943.102	-4.76
943.531	-0.26
943.96	9.24
944.39	4.44
944.819	3.64
945.248	0.74
945.677	-0.76
946.106	0.84
946.535	2.74
946.964	0.84
947.393	0.94
947.822	-1.56
948.251	-1.16
948.68	1.44
949.109	3.94
949.538	1.04
949.967	-6.26
950.396	-0.26
950.825	-1.46
951.254	2.24
951.682	-10.26
952.111	2.34
952.54	-0.86
952.969	-4.76
953.397	-7.76
953.826	5.24
954.254	-4.96
954.683	2.64
955.112	1.64
955.54	-0.76
955.969	0.64
956.397	-7.06
956.826	-5.26
957.254	2.84
957.682	5.84
958.111	6.24
958.539	-2.16
958.967	2.14
959.396	-3.56
959.824	0.94
960.252	4.14
960.68	-8.76
961.109	-1.16
961.537	-4.66
961.965	-5.76
962.393	-3.96
962.821	-1.96
963.249	-0.26
963.677	1.34
964.105	0.64
964.533	44.94
964.961	33.54
965.389	12.94
965.817	12.44
966.245	1.94
966.672	-0.86
967.1	-9.76
967.528	1.04
967.956	-5.56
968.383	2.64
968.811	-1.96
969.239	-1.96
969.666	-8.96
970.094	-5.66
970.522	-7.16
970.949	-1.96
971.377	-6.36
971.804	-1.56
972.232	4.44
972.659	-0.36
973.087	-3.66
973.514	-3.26
973.941	-5.56
974.369	10.64
974.796	4.14
975.223	-1.06
975.651	-1.46
976.078	3.14
976.505	0.64
976.932	1.34
977.359	12.34
977.786	14.64
978.214	-2.46
978.641	-1.36
979.068	1.44
979.495	-6.66
979.922	-6.76
980.349	-0.86
980.776	2.34
981.202	3.64
981.629	-2.46
982.056	1.94
982.483	-10.06
982.91	2.74
983.337	-5.16
983.763	4.14
984.19	-6.36
984.617	-3.46
985.043	-9.06
985.47	-2.76
985.897	-3.86
986.323	-6.56
986.75	1.54
987.176	-6.16
987.603	-2.66
988.029	0.54
988.456	-0.96
988.882	3.94
989.308	-4.86
989.735	-1.56
990.161	2.74
990.587	-8.96
991.014	-3.16
991.44	4.44
991.866	-4.96
992.292	-3.46
992.719	-6.56
993.145	2.34
993.571	-6.86
993.997	-4.96
994.423	-4.36
994.849	-5.86
995.275	2.04
995.701	-2.96
996.127	-9.06
996.553	-1.56
996.979	-6.76
997.405	-6.46
997.83	-6.56
998.256	-4.16
998.682	-3.06
999.108	-8.16
999.534	0.34
999.959	-3.56
1000.385	-1.66
1000.811	-1.46
1001.236	-8.36
1001.662	-9.36
1002.087	-8.46
1002.513	0.44
1002.938	4.74
1003.364	-1.46
1003.789	-1.06
1004.215	7.14
1004.64	-1.66
1005.066	3.74
1005.491	-0.76
1005.916	-6.16
1006.342	-0.56
1006.767	-8.56
1007.192	1.84
1007.617	0.24
1008.042	-3.36
1008.468	-4.76
1008.893	-1.76
1009.318	-4.96
1009.743	-7.56
1010.168	0.24
1010.593	1.94
1011.018	-9.96
1011.443	-4.36
1011.868	3.44
1012.293	-4.06
1012.718	-10.56
1013.143	-2.76
1013.567	-2.96
1013.992	-4.16
1014.417	-5.16
1014.842	-1.46
1015.267	-4.36
1015.691	-2.06
1016.116	5.24
1016.541	0.24
1016.965	7.94
1017.39	0.64
1017.814	-2.36
1018.239	-4.46
1018.663	-9.06
1019.088	-7.56
1019.512	-4.06
1019.937	-3.16
1020.361	-4.46
1020.785	-10.36
1021.21	-7.36
1021.634	-3.86
1022.058	-2.56
1022.483	0.34
1022.907	-3.26
1023.331	-4.46
1023.755	-1.66
1024.179	-4.16
1024.604	-10.46
1025.028	-8.96
1025.452	-2.26
1025.876	-2.16
1026.3	-2.16
1026.724	-10.06
1027.148	-1.46
1027.572	-8.46
1027.996	-5.86
1028.42	0.34
1028.843	-3.06
1029.267	-6.46
1029.691	-2.96
1030.115	-3.76
1030.539	-5.66
1030.962	-9.16
1031.386	-10.96
1031.81	0.44
1032.233	1.94
1032.657	0.04
1033.08	-1.96
1033.504	-5.06
1033.927	-9.26
1034.351	-1.96
1034.774	-9.56
1035.198	-2.16
1035.621	-5.26
1036.045	-4.66
1036.468	0.44
1036.891	-8.76
1037.315	-8.06
1037.738	-12.06
1038.161	5.64
1038.584	-3.96
1039.008	-3.96
1039.431	-5.76
1039.854	-4.06
1040.277	-5.36
1040.7	-11.56
1041.123	-3.06
1041.546	-7.46
1041.969	-8.16
1042.392	-7.56
1042.815	0.84
1043.238	0.44
1043.661	5.54
1044.084	-15.26
1044.507	-7.96
1044.93	-4.66
1045.352	-5.36
1045.775	-2.36
1046.198	-4.16
1046.621	5.84
1047.043	2.44
1047.466	8.54
1047.889	-3.96
1048.311	-6.26
1048.734	-3.16
1049.156	-7.26
1049.579	-2.66
1050.001	-0.26
1050.424	-1.76
1050.846	-1.26
1051.269	-3.76
1051.691	-7.56
1052.113	-6.86
1052.536	0.64
1052.958	-5.06
1053.38	-3.36
1053.802	-9.86
1054.225	0.74
1054.647	-5.96
1055.069	-1.56
1055.491	3.94
1055.913	-3.86
1056.335	-2.06
1056.757	-7.86
1057.179	-2.76
1057.601	-1.96
1058.023	-0.16
1058.445	-9.26
1058.867	-2.76
1059.289	-8.26
1059.711	-8.36
1060.133	-4.36
1060.555	-3.86
1060.976	-3.36
1061.398	-7.26
1061.82	-11.86
1062.241	-9.66
1062.663	-7.46
1063.085	-6.06
1063.506	-4.46
1063.928	-5.36
1064.35	-3.16
1064.771	-14.66
1065.193	-1.06
1065.614	-11.46
1066.035	-2.06
1066.457	-3.86
1066.878	-2.56
1067.3	-5.56
1067.721	-8.96
1068.142	1.44
1068.564	-1.16
1068.985	-6.76
1069.406	-2.26
1069.827	0.14
1070.248	-2.16
1070.67	-8.46
1071.091	-10.96
1071.512	-1.86
1071.933	-1.06
1072.354	-5.86
1072.775	-11.66
1073.196	-2.46
1073.617	-8.36
1074.038	-8.66
1074.459	-3.56
1074.88	-7.86
1075.3	3.64
1075.721	-7.46
1076.142	-1.86
1076.563	2.34
1076.983	-7.76
1077.404	-5.76
1077.825	-6.46
1078.246	-5.06
1078.666	-11.06
1079.087	-7.06
1079.507	-5.76
1079.928	-6.06
1080.348	-1.46
1080.769	-6.36
1081.189	-0.06
1081.61	-5.76
1082.03	-8.96
1082.451	-4.96
1082.871	-8.26
1083.291	-10.46
1083.711	-7.36
1084.132	-6.16
1084.552	-1.66
1084.972	0.44
1085.392	-8.66
1085.813	-6.66
1086.233	-6.76
1086.653	-6.46
1087.073	-2.86
1087.493	-7.96
1087.913	-6.46
1088.333	-10.36
1088.753	-5.36
1089.173	0.04
1089.593	-5.16
1090.013	-0.26
1090.433	-2.76
1090.852	0.74
1091.272	-2.56
1091.692	4.24
1092.112	-2.06
1092.531	-7.66
1092.951	-12.26
1093.371	-3.96
1093.79	-1.76
1094.21	-2.86
1094.63	-0.56
1095.049	-3.36
1095.469	-1.76
1095.888	-4.96
1096.308	-2.66
1096.727	5.14
1097.146	-6.46
1097.566	0.24
1097.985	-5.26
1098.405	-6.16
1098.824	-5.76
1099.243	-9.46
1099.662	-6.26
1100.082	1.84
1100.501	-1.26
1100.92	-9.66
1101.339	-5.56
1101.758	-11.26
