Data from 20171114-ORNL-Ar_H_NY_Subt18_08-05-02-390.txt Node
Date: Tue Nov 14 08:05:02 EST 2017
User: Ender
Spectrometer: HR+D1039
Trigger mode: 0
Integration Time (sec): 2.730000E-2
Scans to average: 10
Electric dark correction enabled: true
Nonlinearity correction enabled: false
Boxcar width: 0
XAxis mode: Wavelengths
Number of Pixels in Spectrum: 2048
>>>>>Begin Spectral Data<<<<<
187.836	-7.18
188.309	-7.18
188.782	-7.18
189.255	0.62
189.728	-0.38
190.201	6.22
190.674	6.92
191.147	3.62
191.619	-6.28
192.092	3.12
192.565	3.02
193.038	0.52
193.511	0.12
193.984	-1.28
194.456	3.02
194.929	-4.48
195.402	-4.38
195.874	-3.28
196.347	-2.48
196.82	-7.98
197.292	8.12
197.765	-10.48
198.237	-7.78
198.71	4.42
199.182	-2.48
199.655	-3.18
200.127	7.32
200.6	-6.58
201.072	-2.18
201.544	0.02
202.017	-3.28
202.489	7.62
202.961	2.62
203.433	-2.38
203.906	-3.08
204.378	-6.58
204.85	0.12
205.322	-12.88
205.794	1.72
206.266	-3.58
206.739	-6.08
207.211	0.02
207.683	-8.98
208.155	-7.38
208.627	-6.68
209.099	-6.58
209.57	-6.48
210.042	-2.58
210.514	-7.28
210.986	-5.78
211.458	-5.28
211.93	-4.18
212.402	0.92
212.873	-9.88
213.345	-10.78
213.817	-15.08
214.288	-3.98
214.76	-10.28
215.232	1.12
215.703	-1.08
216.175	-5.98
216.646	-2.48
217.118	-5.78
217.589	2.32
218.061	-0.68
218.532	-2.28
219.004	-2.68
219.475	-3.88
219.946	-6.68
220.418	-6.88
220.889	6.82
221.36	-4.68
221.832	0.42
222.303	-6.78
222.774	3.52
223.245	-6.38
223.717	-0.68
224.188	3.32
224.659	-4.08
225.13	-4.18
225.601	-1.38
226.072	3.82
226.543	-2.58
227.014	-2.38
227.485	-0.48
227.956	-0.38
228.427	0.22
228.898	2.42
229.369	5.92
229.839	-6.38
230.31	-9.58
230.781	-0.08
231.252	-1.18
231.722	2.72
232.193	2.22
232.664	3.62
233.135	1.52
233.605	0.52
234.076	-2.48
234.546	3.12
235.017	5.02
235.487	1.22
235.958	-2.38
236.428	-4.48
236.899	1.72
237.369	6.02
237.84	6.52
238.31	11.92
238.78	0.42
239.251	2.82
239.721	8.12
240.191	0.42
240.662	2.12
241.132	-1.98
241.602	-2.28
242.072	-0.88
242.542	5.42
243.013	-2.88
243.483	4.02
243.953	5.42
244.423	1.62
244.893	-5.18
245.363	4.92
245.833	6.22
246.303	-0.48
246.773	9.32
247.243	10.52
247.712	4.02
248.182	12.22
248.652	9.92
249.122	5.32
249.592	17.82
250.061	28.42
250.531	35.02
251.001	17.42
251.471	20.72
251.94	18.52
252.41	8.02
252.879	5.62
253.349	16.42
253.818	14.32
254.288	10.22
254.757	1.22
255.227	1.02
255.696	6.42
256.166	6.02
256.635	8.92
257.105	3.92
257.574	11.92
258.043	13.72
258.513	16.22
258.982	16.92
259.451	12.22
259.92	16.62
260.389	10.52
260.859	16.42
261.328	9.62
261.797	20.92
262.266	9.82
262.735	19.42
263.204	8.92
263.673	5.62
264.142	8.32
264.611	-1.88
265.08	8.42
265.549	0.02
266.018	8.22
266.487	5.72
266.955	-6.28
267.424	3.12
267.893	8.42
268.362	4.42
268.83	6.22
269.299	11.62
269.768	4.32
270.236	13.22
270.705	-0.08
271.174	9.82
271.642	15.22
272.111	12.82
272.579	17.72
273.048	26.72
273.516	30.02
273.985	30.82
274.453	27.22
274.922	22.12
275.39	16.62
275.858	6.32
276.327	16.22
276.795	22.92
277.263	11.02
277.731	33.22
278.2	57.42
278.668	66.42
279.136	50.72
279.604	25.22
280.072	19.12
280.54	16.52
281.008	13.52
281.477	18.22
281.945	16.42
282.413	18.02
282.881	19.02
283.348	16.32
283.816	19.22
284.284	19.22
284.752	24.82
285.22	19.82
285.688	24.32
286.156	18.42
286.623	52.62
287.091	58.22
287.559	31.32
288.026	31.52
288.494	22.12
288.962	14.32
289.429	10.52
289.897	16.52
290.364	13.62
290.832	19.42
291.3	16.12
291.767	19.22
292.234	25.82
292.702	19.82
293.169	28.62
293.637	29.82
294.104	24.42
294.571	10.42
295.039	15.72
295.506	17.72
295.973	23.62
296.44	21.02
296.908	25.32
297.375	21.42
297.842	25.22
298.309	19.22
298.776	9.42
299.243	24.32
299.71	20.02
300.177	21.12
300.644	22.62
301.111	21.62
301.578	24.82
302.045	13.92
302.512	20.52
302.979	25.32
303.446	25.32
303.913	21.02
304.379	21.52
304.846	30.82
305.313	30.12
305.78	27.82
306.246	35.22
306.713	30.72
307.18	34.12
307.646	33.52
308.113	34.82
308.579	29.62
309.046	27.72
309.512	29.42
309.979	24.82
310.445	30.42
310.912	36.72
311.378	26.72
311.845	30.52
312.311	36.82
312.777	31.62
313.244	38.42
313.71	45.12
314.176	30.92
314.642	34.32
315.109	38.12
315.575	41.22
316.041	39.02
316.507	38.52
316.973	39.12
317.439	35.22
317.905	41.02
318.371	39.72
318.837	33.72
319.303	42.12
319.769	32.82
320.235	38.52
320.701	39.12
321.167	42.52
321.633	35.92
322.099	42.52
322.564	47.92
323.03	41.62
323.496	46.82
323.962	44.52
324.427	43.32
324.893	47.42
325.359	35.82
325.824	37.32
326.29	35.02
326.755	42.62
327.221	46.72
327.686	42.12
328.152	45.92
328.617	48.22
329.083	46.42
329.548	59.42
330.014	49.02
330.479	41.82
330.944	48.02
331.41	45.32
331.875	46.22
332.34	44.22
332.805	44.82
333.271	48.02
333.736	51.52
334.201	52.72
334.666	47.72
335.131	53.32
335.596	53.82
336.061	47.32
336.526	46.42
336.991	48.92
337.456	54.42
337.921	47.52
338.386	44.72
338.851	41.92
339.316	50.32
339.781	50.32
340.246	54.12
340.711	41.32
341.175	55.72
341.64	47.62
342.105	57.82
342.569	63.32
343.034	62.92
343.499	57.82
343.963	60.72
344.428	65.12
344.893	59.72
345.357	62.52
345.822	69.42
346.286	69.02
346.751	77.92
347.215	73.52
347.679	79.22
348.144	102.22
348.608	84.12
349.073	72.72
349.537	80.92
350.001	86.82
350.465	91.32
350.93	85.42
351.394	89.72
351.858	79.72
352.322	86.92
352.786	83.42
353.25	98.92
353.715	113.82
354.179	101.82
354.643	121.52
355.107	128.42
355.571	108.02
356.035	112.42
356.498	118.32
356.962	127.92
357.426	131.12
357.89	118.02
358.354	91.42
358.818	81.62
359.281	81.52
359.745	82.12
360.209	82.72
360.673	74.82
361.136	81.82
361.6	84.32
362.064	78.42
362.527	87.72
362.991	93.02
363.454	81.22
363.918	80.52
364.381	76.22
364.845	85.52
365.308	86.52
365.772	85.72
366.235	88.22
366.698	84.12
367.162	87.52
367.625	85.32
368.088	89.72
368.552	93.22
369.015	83.32
369.478	99.32
369.941	98.92
370.404	97.22
370.867	110.62
371.331	108.02
371.794	114.02
372.257	113.52
372.72	119.02
373.183	105.52
373.646	109.22
374.109	102.82
374.572	108.62
375.035	108.42
375.497	109.82
375.96	107.62
376.423	103.92
376.886	106.22
377.349	109.22
377.811	98.12
378.274	102.92
378.737	110.22
379.199	109.72
379.662	116.02
380.125	116.52
380.587	118.72
381.05	117.72
381.512	125.02
381.975	127.22
382.437	124.32
382.9	128.22
383.362	136.42
383.825	141.12
384.287	147.52
384.75	138.22
385.212	136.12
385.674	135.02
386.136	136.52
386.599	123.32
387.061	130.02
387.523	129.92
387.985	134.22
388.447	138.42
388.91	139.02
389.372	156.12
389.834	153.82
390.296	142.92
390.758	157.22
391.22	170.02
391.682	205.02
392.144	291.92
392.606	227.92
393.068	174.42
393.529	165.42
393.991	153.52
394.453	141.72
394.915	147.52
395.377	192.82
395.838	211.52
396.3	158.62
396.762	144.02
397.224	130.12
397.685	123.22
398.147	130.92
398.608	133.12
399.07	123.72
399.531	129.22
399.993	142.52
400.454	149.82
400.916	137.12
401.377	142.92
401.839	151.02
402.3	149.02
402.762	163.62
403.223	187.22
403.684	172.92
404.145	159.12
404.607	159.22
405.068	161.32
405.529	169.62
405.99	189.62
406.451	173.52
406.913	170.12
407.374	153.12
407.835	163.62
408.296	162.12
408.757	165.22
409.218	182.22
409.679	178.52
410.14	174.92
410.601	174.62
411.062	181.12
411.522	189.72
411.983	187.52
412.444	168.12
412.905	175.52
413.366	175.42
413.826	189.32
414.287	211.72
414.748	255.92
415.208	244.92
415.669	207.82
416.13	199.32
416.59	193.52
417.051	208.62
417.511	214.62
417.972	237.02
418.432	248.02
418.893	284.42
419.353	245.62
419.814	196.52
420.274	184.92
420.734	181.62
421.195	194.72
421.655	194.22
422.115	193.52
422.576	183.02
423.036	190.02
423.496	201.22
423.956	213.62
424.416	227.32
424.876	256.52
425.336	258.92
425.797	260.92
426.257	258.52
426.717	240.22
427.177	231.92
427.637	224.02
428.097	229.82
428.556	237.32
429.016	268.42
429.476	253.22
429.936	263.22
430.396	269.12
430.856	281.12
431.315	313.52
431.775	342.22
432.235	369.32
432.694	348.62
433.154	352.22
433.614	374.52
434.073	329.82
434.533	276.92
434.993	267.42
435.452	282.12
435.912	291.22
436.371	284.92
436.83	274.02
437.29	262.42
437.749	239.22
438.209	236.52
438.668	269.72
439.127	281.32
439.587	262.22
440.046	244.62
440.505	267.32
440.964	275.52
441.424	320.92
441.883	298.32
442.342	251.62
442.801	226.42
443.26	218.92
443.719	211.72
444.178	213.72
444.637	200.82
445.096	213.42
445.555	218.92
446.014	218.92
446.473	221.82
446.932	228.02
447.391	223.32
447.849	226.92
448.308	214.12
448.767	215.52
449.226	230.82
449.685	229.92
450.143	247.82
450.602	231.32
451.061	232.32
451.519	229.02
451.978	228.82
452.436	233.32
452.895	234.12
453.353	252.62
453.812	241.52
454.27	235.02
454.729	237.02
455.187	236.42
455.646	239.82
456.104	240.92
456.562	263.32
457.021	260.82
457.479	250.32
457.937	269.82
458.395	257.32
458.854	246.62
459.312	247.52
459.77	266.52
460.228	255.82
460.686	237.02
461.144	241.72
461.602	240.72
462.06	233.32
462.518	248.12
462.976	250.12
463.434	251.72
463.892	258.02
464.35	270.72
464.808	287.52
465.266	262.42
465.724	269.82
466.181	270.92
466.639	257.52
467.097	287.92
467.555	289.82
468.012	296.82
468.47	302.92
468.928	327.22
469.385	349.52
469.843	340.02
470.3	344.72
470.758	353.52
471.215	377.92
471.673	400.52
472.13	394.82
472.588	409.32
473.045	360.82
473.503	378.32
473.96	387.22
474.417	394.22
474.875	429.32
475.332	463.52
475.789	452.32
476.246	461.02
476.704	482.02
477.161	508.22
477.618	509.92
478.075	551.82
478.532	605.62
478.989	677.72
479.446	786.12
479.903	770.52
480.36	808.12
480.817	854.02
481.274	952.72
481.731	1069.12
482.188	1162.62
482.645	1280.42
483.102	1395.12
483.558	1524.62
484.015	1585.42
484.472	1555.02
484.929	1512.72
485.385	1465.92
485.842	1410.32
486.299	1363.52
486.755	1283.52
487.212	1084.92
487.668	918.62
488.125	839.32
488.582	772.92
489.038	742.02
489.494	705.12
489.951	686.72
490.407	671.22
490.864	647.92
491.32	644.72
491.776	635.12
492.233	639.32
492.689	601.52
493.145	599.42
493.602	590.92
494.058	610.32
494.514	609.92
494.97	639.22
495.426	631.72
495.882	624.52
496.338	615.02
496.794	627.62
497.251	623.82
497.707	628.52
498.163	632.92
498.618	649.22
499.074	641.62
499.53	675.82
499.986	664.22
500.442	640.12
500.898	623.32
501.354	616.22
501.809	631.12
502.265	635.72
502.721	651.52
503.177	657.02
503.632	660.42
504.088	661.92
504.543	702.32
504.999	714.02
505.455	654.12
505.91	624.92
506.366	627.32
506.821	618.82
507.277	615.02
507.732	608.72
508.187	616.22
508.643	627.82
509.098	635.62
509.553	644.82
510.009	655.52
510.464	666.32
510.919	684.12
511.375	690.82
511.83	704.42
512.285	725.42
512.74	749.62
513.195	783.32
513.65	771.62
514.105	763.52
514.56	769.52
515.015	785.92
515.47	810.72
515.925	788.62
516.38	779.22
516.835	789.52
517.29	780.82
517.745	779.22
518.2	770.02
518.655	745.42
519.109	746.62
519.564	739.92
520.019	730.12
520.474	721.52
520.928	715.12
521.383	719.72
521.838	697.52
522.292	704.82
522.747	703.22
523.201	698.52
523.656	675.92
524.11	683.72
524.565	688.32
525.019	682.82
525.474	700.22
525.928	689.22
526.382	688.92
526.837	688.82
527.291	692.52
527.745	685.62
528.2	692.02
528.654	679.02
529.108	681.22
529.562	675.62
530.016	680.92
530.47	680.52
530.925	677.52
531.379	693.72
531.833	698.12
532.287	690.22
532.741	693.42
533.195	699.12
533.649	706.92
534.103	719.12
534.556	700.42
535.01	702.62
535.464	700.82
535.918	709.32
536.372	713.22
536.826	708.52
537.279	697.82
537.733	711.82
538.187	714.32
538.64	703.72
539.094	716.92
539.548	731.62
540.001	713.32
540.455	706.52
540.908	714.42
541.362	724.42
541.815	738.22
542.269	748.82
542.722	739.62
543.175	758.62
543.629	758.92
544.082	775.82
544.536	769.62
544.989	768.52
545.442	778.92
545.895	769.62
546.349	777.92
546.802	781.62
547.255	792.82
547.708	784.22
548.161	796.32
548.614	808.62
549.067	803.32
549.52	811.42
549.973	799.32
550.426	783.82
550.879	780.62
551.332	778.42
551.785	786.52
552.238	800.92
552.691	803.12
553.144	808.12
553.596	827.12
554.049	844.02
554.502	886.52
554.955	902.42
555.407	900.62
555.86	887.42
556.313	876.62
556.765	863.12
557.218	864.22
557.67	868.52
558.123	851.82
558.576	851.42
559.028	859.82
559.48	867.12
559.933	855.92
560.385	818.12
560.838	792.22
561.29	768.22
561.742	760.62
562.195	756.12
562.647	737.72
563.099	746.42
563.551	752.22
564.004	766.52
564.456	760.32
564.908	732.92
565.36	723.62
565.812	713.52
566.264	700.52
566.716	702.72
567.168	699.12
567.62	698.52
568.072	677.42
568.524	677.12
568.976	672.82
569.428	652.82
569.88	654.02
570.332	663.42
570.784	672.12
571.235	664.12
571.687	669.82
572.139	679.12
572.59	689.52
573.042	699.12
573.494	697.02
573.945	690.02
574.397	662.52
574.849	671.02
575.3	675.62
575.752	668.42
576.203	665.02
576.655	667.42
577.106	647.42
577.557	654.52
578.009	654.12
578.46	651.72
578.912	637.12
579.363	648.42
579.814	651.92
580.265	639.12
580.717	653.32
581.168	653.82
581.619	653.82
582.07	658.12
582.521	665.12
582.972	651.52
583.423	654.72
583.875	654.12
584.326	673.42
584.777	708.72
585.227	796.52
585.678	876.52
586.129	951.52
586.58	1007.92
587.031	1093.72
587.482	1255.52
587.933	1423.62
588.384	1231.02
588.834	925.72
589.285	778.12
589.736	749.32
590.186	745.52
590.637	738.22
591.088	718.32
591.538	711.92
591.989	701.82
592.439	700.72
592.89	690.82
593.34	688.32
593.791	689.92
594.241	674.82
594.692	683.02
595.142	665.42
595.593	668.62
596.043	682.22
596.493	681.32
596.943	684.92
597.394	687.52
597.844	682.72
598.294	700.02
598.744	717.02
599.195	740.02
599.645	776.52
600.095	812.32
600.545	877.42
600.995	924.02
601.445	985.12
601.895	1047.82
602.345	1083.72
602.795	1066.72
603.245	1023.12
603.695	973.32
604.145	921.52
604.594	882.12
605.044	821.82
605.494	760.52
605.944	718.02
606.393	714.92
606.843	692.92
607.293	702.92
607.743	702.82
608.192	714.92
608.642	719.22
609.091	727.32
609.541	727.02
609.99	729.02
610.44	736.22
610.889	684.22
611.339	664.02
611.788	656.82
612.238	664.92
612.687	686.42
613.136	688.22
613.586	701.62
614.035	691.32
614.484	721.32
614.933	722.32
615.383	709.12
615.832	700.42
616.281	685.42
616.73	659.22
617.179	629.62
617.628	625.72
618.077	603.12
618.526	586.82
618.975	581.92
619.424	582.82
619.873	572.12
620.322	588.42
620.771	580.82
621.22	561.82
621.669	566.72
622.118	555.92
622.567	551.92
623.015	544.02
623.464	534.72
623.913	520.32
624.361	519.22
624.81	520.02
625.259	521.02
625.707	526.62
626.156	531.12
626.604	538.42
627.053	532.72
627.501	530.72
627.95	531.42
628.398	543.12
628.847	541.32
629.295	548.32
629.744	547.52
630.192	537.92
630.64	534.32
631.089	537.42
631.537	548.02
631.985	547.62
632.433	559.02
632.881	566.22
633.33	611.92
633.778	592.42
634.226	529.92
634.674	533.52
635.122	549.02
635.57	569.22
636.018	591.72
636.466	551.72
636.914	520.32
637.362	542.72
637.81	540.92
638.258	543.82
638.705	543.42
639.153	571.22
639.601	584.02
640.049	598.32
640.497	628.12
640.944	652.82
641.392	603.92
641.84	571.82
642.287	547.72
642.735	530.02
643.182	529.62
643.63	539.32
644.078	541.32
644.525	546.32
644.973	558.32
645.42	561.42
645.867	579.72
646.315	595.52
646.762	622.52
647.21	646.52
647.657	671.02
648.104	695.22
648.551	725.42
648.999	780.82
649.446	853.82
649.893	937.42
650.34	1088.02
650.787	1280.93
651.234	1594.62
651.682	2062.82
652.129	2826.43
652.576	4060.93
653.023	5997.73
653.47	8281.52
653.917	10442.02
654.363	12183.33
654.81	13590.92
655.257	12922.92
655.704	8428.52
656.151	4971.82
656.598	3212.52
657.044	2288.92
657.491	1755.22
657.938	1389.42
658.385	1158.42
658.831	1007.62
659.278	904.02
659.724	801.02
660.171	746.72
660.618	678.12
661.064	644.32
661.511	616.02
661.957	616.62
662.404	598.02
662.85	598.12
663.296	580.82
663.743	521.72
664.189	503.62
664.635	492.32
665.082	489.52
665.528	493.82
665.974	482.02
666.42	484.12
666.867	468.12
667.313	454.72
667.759	452.42
668.205	445.42
668.651	457.02
669.097	444.62
669.543	463.92
669.989	440.52
670.435	418.82
670.881	408.02
671.327	418.92
671.773	444.12
672.219	455.62
672.665	495.42
673.11	539.72
673.556	575.12
674.002	621.52
674.448	608.02
674.893	512.82
675.339	439.92
675.785	413.42
676.23	388.32
676.676	357.12
677.122	347.42
677.567	345.52
678.013	348.42
678.458	324.42
678.904	335.52
679.349	318.72
679.794	327.52
680.24	323.62
680.685	322.32
681.131	320.62
681.576	325.12
682.021	328.92
682.466	318.72
682.912	316.02
683.357	322.32
683.802	343.82
684.247	376.82
684.692	421.32
685.137	451.22
685.583	497.72
686.028	512.12
686.473	476.82
686.918	409.02
687.363	385.42
687.807	363.52
688.252	340.12
688.697	331.12
689.142	303.22
689.587	305.12
690.032	297.12
690.477	314.02
690.921	325.02
691.366	343.82
691.811	358.92
692.255	398.22
692.7	432.72
693.145	451.62
693.589	618.62
694.034	1008.82
694.478	1401.12
694.923	1615.02
695.367	2137.82
695.812	1115.12
696.256	455.92
696.701	343.32
697.145	316.42
697.59	300.62
698.034	293.72
698.478	305.22
698.922	300.42
699.367	306.42
699.811	310.22
700.255	329.02
700.699	356.22
701.143	394.82
701.588	435.02
702.032	473.22
702.476	475.82
702.92	447.82
703.364	448.82
703.808	566.82
704.252	920.82
704.696	1317.03
705.14	1542.22
705.584	1987.52
706.027	992.82
706.471	483.92
706.915	368.32
707.359	325.42
707.803	297.62
708.246	281.92
708.69	292.22
709.134	288.12
709.577	283.52
710.021	290.82
710.465	278.92
710.908	269.22
711.352	275.32
711.795	288.52
712.239	315.12
712.682	349.32
713.126	380.02
713.569	427.72
714.012	347.92
714.456	299.82
714.899	276.32
715.342	257.12
715.786	240.32
716.229	233.72
716.672	235.22
717.115	227.12
717.558	226.82
718.002	225.02
718.445	239.52
718.888	257.82
719.331	264.62
719.774	280.62
720.217	276.52
720.66	263.92
721.103	241.22
721.546	237.02
721.989	229.42
722.432	203.82
722.874	213.82
723.317	208.82
723.76	213.92
724.203	232.12
724.645	289.42
725.088	403.82
725.531	521.02
725.974	595.12
726.416	503.92
726.859	277.72
727.301	222.12
727.744	220.72
728.187	214.42
728.629	219.32
729.071	225.22
729.514	231.92
729.956	239.92
730.399	256.72
730.841	266.92
731.283	252.62
731.726	242.32
732.168	236.52
732.61	238.62
733.053	258.92
733.495	284.12
733.937	323.42
734.379	367.32
734.821	390.62
735.263	493.02
735.705	742.92
736.148	1404.52
736.59	2328.92
737.032	2834.32
737.474	2306.52
737.916	732.22
738.357	386.22
738.799	292.92
739.241	274.42
739.683	256.72
740.125	262.72
740.567	269.82
741.008	292.32
741.45	288.72
741.892	289.12
742.334	315.62
742.775	322.32
743.217	315.92
743.658	243.72
744.1	233.02
744.542	238.62
744.983	278.82
745.425	313.52
745.866	313.22
746.307	264.42
746.749	259.62
747.19	305.02
747.632	408.72
748.073	790.92
748.514	1659.03
748.956	2602.03
749.397	3257.72
749.838	2711.73
750.279	2748.72
750.72	1377.42
751.162	504.42
751.603	293.22
752.044	231.22
752.485	202.62
752.926	184.52
753.367	186.52
753.808	173.72
754.249	175.42
754.69	162.52
755.131	170.32
755.572	169.42
756.013	158.42
756.453	163.22
756.894	168.62
757.335	174.52
757.776	176.72
758.216	174.32
758.657	174.32
759.098	185.62
759.538	210.12
759.979	242.42
760.42	333.32
760.86	621.32
761.301	1588.93
761.741	3969.53
762.182	5996.42
762.622	4224.82
763.063	1209.92
763.503	489.12
763.943	314.42
764.384	301.02
764.824	357.82
765.264	392.82
765.705	280.52
766.145	189.62
766.585	170.12
767.025	163.12
767.465	170.12
767.906	221.12
768.346	283.42
768.786	304.92
769.226	234.42
769.666	285.12
770.106	539.52
770.546	1357.82
770.986	2440.73
771.426	2218.93
771.866	722.62
772.306	301.02
772.745	190.02
773.185	156.62
773.625	156.32
774.065	146.32
774.505	178.52
774.944	269.22
775.384	587.02
775.824	1099.82
776.263	1098.32
776.703	464.02
777.142	201.32
777.582	143.32
778.021	122.62
778.461	125.02
778.9	126.92
779.34	114.92
779.779	105.72
780.219	98.82
780.658	101.72
781.097	96.62
781.537	105.02
781.976	99.02
782.415	91.42
782.855	93.82
783.294	97.12
783.733	101.52
784.172	99.02
784.611	96.62
785.05	105.22
785.489	103.72
785.928	106.52
786.367	113.42
786.806	105.82
787.245	118.62
787.684	126.42
788.123	131.62
788.562	122.42
789.001	112.22
789.44	113.52
789.879	103.82
790.317	112.32
790.756	120.52
791.195	117.72
791.634	134.22
792.072	179.92
792.511	316.12
792.95	882.32
793.388	1950.72
793.827	1811.62
794.265	616.12
794.704	253.02
795.142	163.92
795.581	130.02
796.019	123.12
796.458	116.62
796.896	110.22
797.334	120.02
797.773	141.42
798.211	193.82
798.649	391.32
799.087	914.62
799.526	1451.72
799.964	1813.42
800.402	1881.52
800.84	694.42
801.278	270.72
801.716	163.22
802.154	132.72
802.592	135.32
803.03	130.92
803.468	119.32
803.906	128.42
804.344	143.92
804.782	126.32
805.22	120.72
805.658	115.02
806.096	133.02
806.533	144.12
806.971	164.22
807.409	197.52
807.847	283.72
808.284	584.02
808.722	1662.82
809.16	3022.82
809.597	2803.93
810.035	4938.73
810.472	5460.32
810.91	1936.52
811.347	720.92
811.785	364.82
812.222	238.62
812.66	180.92
813.097	151.82
813.535	122.72
813.972	117.32
814.409	103.12
814.846	97.82
815.284	103.82
815.721	91.22
816.158	97.82
816.595	103.72
817.032	164.22
817.47	185.62
817.907	147.32
818.344	132.92
818.781	104.12
819.218	90.22
819.655	112.82
820.092	175.12
820.529	206.82
820.966	160.52
821.403	126.72
821.839	95.92
822.276	98.22
822.713	115.02
823.15	117.92
823.587	101.32
824.023	133.22
824.46	259.42
824.897	793.62
825.333	1248.12
825.77	543.92
826.206	210.32
826.643	125.82
827.08	91.12
827.516	73.32
827.953	68.82
828.389	73.52
828.825	71.82
829.262	62.92
829.698	60.12
830.135	57.52
830.571	60.32
831.007	61.02
831.443	56.02
831.88	61.92
832.316	55.52
832.752	64.32
833.188	51.72
833.624	56.62
834.06	62.32
834.497	66.02
834.933	64.12
835.369	72.42
835.805	61.82
836.241	63.02
836.677	65.92
837.112	79.92
837.548	94.82
837.984	123.42
838.42	171.62
838.856	432.02
839.292	1367.22
839.727	2148.82
840.163	992.22
840.599	819.02
841.034	1848.12
841.47	1991.53
841.906	724.62
842.341	309.92
842.777	210.62
843.212	287.72
843.648	284.92
844.083	138.12
844.519	88.12
844.954	66.62
845.39	59.02
845.825	49.22
846.261	50.22
846.696	53.12
847.131	50.42
847.566	55.92
848.002	48.02
848.437	48.62
848.872	54.82
849.307	58.52
849.742	73.62
850.177	159.22
850.613	497.02
851.048	806.12
851.483	350.72
851.918	146.62
852.353	80.82
852.788	54.42
853.223	54.12
853.657	49.52
854.092	47.42
854.527	39.92
854.962	37.12
855.397	40.82
855.832	47.92
856.266	42.62
856.701	34.72
857.136	37.32
857.57	38.72
858.005	44.32
858.44	49.92
858.874	41.62
859.309	52.82
859.743	36.72
860.178	41.12
860.612	39.92
861.047	46.82
861.481	61.92
861.915	69.12
862.35	47.42
862.784	32.22
863.218	34.02
863.653	25.42
864.087	37.62
864.521	51.22
864.955	65.62
865.39	135.62
865.824	164.72
866.258	99.42
866.692	156.22
867.126	162.62
867.56	98.22
867.994	43.52
868.428	38.22
868.862	45.82
869.296	53.82
869.73	53.12
870.164	45.02
870.598	46.12
871.031	36.12
871.465	32.22
871.899	29.42
872.333	23.12
872.766	29.32
873.2	21.32
873.634	28.02
874.067	23.72
874.501	27.42
874.935	34.32
875.368	25.12
875.802	22.12
876.235	17.72
876.669	26.02
877.102	19.12
877.535	20.32
877.969	23.62
878.402	21.82
878.836	17.62
879.269	22.22
879.702	19.92
880.135	24.62
880.569	15.82
881.002	25.42
881.435	19.62
881.868	14.82
882.301	24.82
882.734	15.12
883.167	22.72
883.601	18.42
884.034	21.62
884.467	20.12
884.899	21.42
885.332	11.42
885.765	10.82
886.198	14.22
886.631	13.02
887.064	24.62
887.497	19.32
887.929	27.32
888.362	10.92
888.795	6.72
889.228	18.82
889.66	19.52
890.093	12.22
890.526	12.72
890.958	20.42
891.391	16.02
891.823	23.62
892.256	16.72
892.688	12.52
893.121	18.02
893.553	15.62
893.985	21.62
894.418	16.82
894.85	4.82
895.282	15.62
895.715	22.02
896.147	13.32
896.579	18.22
897.011	10.82
897.444	16.62
897.876	10.82
898.308	14.52
898.74	15.72
899.172	9.42
899.604	20.12
900.036	17.02
900.468	14.82
900.9	14.42
901.332	11.72
901.764	16.12
902.196	20.42
902.628	16.72
903.06	13.32
903.491	24.12
903.923	23.32
904.355	16.02
904.787	18.42
905.218	24.42
905.65	20.42
906.082	15.02
906.513	13.92
906.945	17.32
907.376	15.82
907.808	17.42
908.239	18.52
908.671	25.62
909.102	18.42
909.534	26.22
909.965	41.22
910.397	85.42
910.828	291.62
911.259	445.12
911.691	200.52
912.122	95.42
912.553	54.52
912.984	26.72
913.415	25.62
913.847	21.42
914.278	12.72
914.709	14.32
915.14	17.92
915.571	20.82
916.002	14.82
916.433	17.42
916.864	15.02
917.295	9.82
917.726	22.22
918.157	12.22
918.587	23.52
919.018	13.82
919.449	25.02
919.88	26.72
920.311	31.22
920.741	44.52
921.172	160.72
921.603	141.22
922.033	66.02
922.464	40.02
922.895	19.82
923.325	24.02
923.756	15.72
924.186	15.92
924.617	22.82
925.047	34.52
925.478	40.92
925.908	43.42
926.338	27.72
926.769	15.52
927.199	21.72
927.629	10.02
928.06	14.42
928.49	10.12
928.92	13.62
929.35	11.12
929.78	10.52
930.21	8.62
930.641	12.82
931.071	5.42
931.501	3.92
931.931	5.52
932.361	3.82
932.791	4.12
933.221	-1.78
933.651	5.92
934.08	15.02
934.51	32.02
934.94	7.42
935.37	10.92
935.8	7.02
936.229	12.92
936.659	13.32
937.089	5.62
937.519	13.52
937.948	22.52
938.378	14.72
938.807	5.12
939.237	3.72
939.666	9.12
940.096	-9.08
940.525	0.22
940.955	1.42
941.384	3.42
941.814	-1.78
942.243	1.12
942.672	3.72
943.102	-1.78
943.531	-2.28
943.96	10.52
944.39	3.52
944.819	1.52
945.248	4.32
945.677	6.12
946.106	6.12
946.535	10.52
946.964	3.92
947.393	0.92
947.822	3.62
948.251	-7.18
948.68	1.62
949.109	8.52
949.538	5.02
949.967	1.52
950.396	-0.28
950.825	-3.18
951.254	3.32
951.682	-4.88
952.111	5.62
952.54	5.02
952.969	-5.98
953.397	-12.28
953.826	9.62
954.254	-4.58
954.683	4.92
955.112	0.32
955.54	4.92
955.969	3.72
956.397	-3.68
956.826	-5.88
957.254	6.32
957.682	1.12
958.111	3.92
958.539	0.62
958.967	0.82
959.396	-5.08
959.824	-3.88
960.252	3.72
960.68	-6.88
961.109	-2.28
961.537	0.92
961.965	2.32
962.393	1.82
962.821	-5.18
963.249	5.62
963.677	4.62
964.105	10.22
964.533	40.62
964.961	41.52
965.389	19.22
965.817	6.82
966.245	4.22
966.672	-1.58
967.1	-3.28
967.528	2.42
967.956	-2.58
968.383	3.42
968.811	-5.68
969.239	-1.88
969.666	-2.48
970.094	-2.18
970.522	2.32
970.949	1.12
971.377	-3.98
971.804	0.32
972.232	1.02
972.659	-6.18
973.087	-3.68
973.514	-1.88
973.941	-6.88
974.369	3.22
974.796	6.22
975.223	3.52
975.651	0.02
976.078	2.22
976.505	-2.88
976.932	2.72
977.359	13.92
977.786	15.02
978.214	-1.98
978.641	-2.08
979.068	-2.58
979.495	-2.38
979.922	0.22
980.349	-2.48
980.776	3.42
981.202	-0.68
981.629	5.92
982.056	2.62
982.483	-1.28
982.91	-1.78
983.337	-10.38
983.763	3.42
984.19	-4.28
984.617	-3.08
985.043	-0.28
985.47	-1.78
985.897	-6.38
986.323	-5.58
986.75	8.32
987.176	-0.78
987.603	0.62
988.029	3.42
988.456	-4.38
988.882	4.52
989.308	-6.98
989.735	-2.68
990.161	-1.58
990.587	-2.28
991.014	1.52
991.44	10.92
991.866	-2.28
992.292	-6.98
992.719	-6.08
993.145	2.32
993.571	-8.78
993.997	-2.58
994.423	-4.68
994.849	-1.08
995.275	3.52
995.701	0.12
996.127	-5.68
996.553	1.12
996.979	-3.58
997.405	-0.68
997.83	-0.58
998.256	-8.38
998.682	-4.78
999.108	-10.38
999.534	2.22
999.959	2.92
1000.385	-3.68
1000.811	-0.98
1001.236	-8.98
1001.662	-8.88
1002.087	-11.38
1002.513	0.72
1002.938	1.82
1003.364	1.32
1003.789	2.82
1004.215	-0.88
1004.64	-3.08
1005.066	4.52
1005.491	-0.48
1005.916	-1.58
1006.342	6.72
1006.767	-4.68
1007.192	9.72
1007.617	-5.18
1008.042	-2.88
1008.468	-6.48
1008.893	-8.58
1009.318	-7.48
1009.743	-7.78
1010.168	2.92
1010.593	2.62
1011.018	-6.58
1011.443	1.42
1011.868	0.02
1012.293	-4.18
1012.718	-6.28
1013.143	1.92
1013.567	-3.08
1013.992	-5.08
1014.417	-9.08
1014.842	0.32
1015.267	-2.58
1015.691	0.72
1016.116	1.12
1016.541	0.52
1016.965	8.52
1017.39	7.32
1017.814	0.32
1018.239	-0.78
1018.663	-5.98
1019.088	-7.08
1019.512	-2.48
1019.937	2.02
1020.361	-0.78
1020.785	-10.88
1021.21	-5.78
1021.634	0.72
1022.058	-0.58
1022.483	0.32
1022.907	-5.98
1023.331	0.52
1023.755	-2.68
1024.179	-0.68
1024.604	-7.38
1025.028	-2.48
1025.452	3.72
1025.876	0.52
1026.3	4.12
1026.724	-3.28
1027.148	-2.28
1027.572	-10.38
1027.996	-0.18
1028.42	-1.08
1028.843	-1.18
1029.267	-2.88
1029.691	-1.28
1030.115	-3.78
1030.539	-9.88
1030.962	-1.08
1031.386	-16.78
1031.81	-3.88
1032.233	-2.28
1032.657	-2.18
1033.08	-3.78
1033.504	-5.28
1033.927	-2.48
1034.351	-1.68
1034.774	-0.58
1035.198	-5.38
1035.621	-7.48
1036.045	-7.18
1036.468	-0.08
1036.891	-7.48
1037.315	-9.18
1037.738	-8.08
1038.161	-5.08
1038.584	-0.48
1039.008	-6.58
1039.431	-3.28
1039.854	-0.58
1040.277	-12.28
1040.7	-7.68
1041.123	-6.98
1041.546	-9.08
1041.969	-5.48
1042.392	-5.18
1042.815	-0.48
1043.238	-6.18
1043.661	5.42
1044.084	-6.38
1044.507	-1.28
1044.93	1.02
1045.352	-0.18
1045.775	1.72
1046.198	-5.68
1046.621	-0.08
1047.043	1.12
1047.466	5.42
1047.889	-3.68
1048.311	-3.18
1048.734	-2.18
1049.156	-6.58
1049.579	0.62
1050.001	-5.38
1050.424	0.42
1050.846	-8.28
1051.269	3.42
1051.691	-6.08
1052.113	-2.98
1052.536	-0.78
1052.958	-1.58
1053.38	-5.58
1053.802	-10.78
1054.225	5.92
1054.647	-7.08
1055.069	0.52
1055.491	5.02
1055.913	-9.68
1056.335	-0.98
1056.757	-6.78
1057.179	-10.08
1057.601	-5.68
1058.023	-6.68
1058.445	-5.28
1058.867	-6.18
1059.289	-4.28
1059.711	-2.18
1060.133	0.22
1060.555	-3.08
1060.976	0.02
1061.398	-3.18
1061.82	-5.08
1062.241	0.62
1062.663	-4.28
1063.085	-5.78
1063.506	-3.08
1063.928	-10.08
1064.35	1.92
1064.771	-14.98
1065.193	3.32
1065.614	-8.48
1066.035	-0.08
1066.457	1.62
1066.878	1.62
1067.3	-7.58
1067.721	-9.88
1068.142	-10.28
1068.564	-4.28
1068.985	-4.28
1069.406	-4.18
1069.827	-6.58
1070.248	1.52
1070.67	-6.18
1071.091	-4.08
1071.512	-3.08
1071.933	-6.58
1072.354	-5.18
1072.775	-5.48
1073.196	-11.38
1073.617	-5.28
1074.038	-12.88
1074.459	-5.68
1074.88	-10.58
1075.3	-2.08
1075.721	-8.18
1076.142	-5.68
1076.563	-7.18
1076.983	-7.88
1077.404	-4.58
1077.825	-9.08
1078.246	-1.08
1078.666	-8.68
1079.087	-4.28
1079.507	-8.88
1079.928	-0.98
1080.348	1.32
1080.769	-6.48
1081.189	3.82
1081.61	-0.18
1082.03	-13.08
1082.451	-11.98
1082.871	2.12
1083.291	-5.08
1083.711	-5.68
1084.132	-0.88
1084.552	-2.78
1084.972	1.62
1085.392	-9.68
1085.813	-8.88
1086.233	-6.68
1086.653	-5.08
1087.073	-6.48
1087.493	-4.18
1087.913	-4.48
1088.333	-12.78
1088.753	-3.78
1089.173	2.52
1089.593	-1.18
1090.013	-1.38
1090.433	-6.58
1090.852	-3.78
1091.272	-5.38
1091.692	3.22
1092.112	-1.68
1092.531	-10.38
1092.951	-7.88
1093.371	-8.48
1093.79	0.62
1094.21	0.22
1094.63	-4.58
1095.049	2.42
1095.469	0.52
1095.888	-4.38
1096.308	3.82
1096.727	5.22
1097.146	-3.28
1097.566	-1.58
1097.985	-1.28
1098.405	0.32
1098.824	-9.48
1099.243	-5.68
1099.662	-12.38
1100.082	-6.38
1100.501	-3.48
1100.92	-4.68
1101.339	-7.98
1101.758	-6.58
