Data from 20171114-ORNL-Ar_H_NY_Subt18_08-08-51-718.txt Node
Date: Tue Nov 14 08:08:51 EST 2017
User: Ender
Spectrometer: HR+D1039
Trigger mode: 0
Integration Time (sec): 2.730000E-2
Scans to average: 10
Electric dark correction enabled: true
Nonlinearity correction enabled: false
Boxcar width: 0
XAxis mode: Wavelengths
Number of Pixels in Spectrum: 2048
>>>>>Begin Spectral Data<<<<<
187.836	3.39
188.309	3.39
188.782	3.39
189.255	-3.41
189.728	-0.41
190.201	4.69
190.674	-2.41
191.147	7.29
191.619	-7.71
192.092	3.49
192.565	6.39
193.038	2.09
193.511	-0.51
193.984	-0.61
194.456	-0.81
194.929	0.99
195.402	-5.81
195.874	-6.71
196.347	-1.61
196.82	-9.31
197.292	7.69
197.765	-2.21
198.237	-5.51
198.71	-1.51
199.182	-1.21
199.655	1.49
200.127	0.09
200.6	1.39
201.072	-6.01
201.544	-5.81
202.017	-7.61
202.489	8.09
202.961	1.39
203.433	-3.71
203.906	-4.91
204.378	-6.11
204.85	-6.01
205.322	-9.81
205.794	-6.81
206.266	-7.11
206.739	-8.51
207.211	-0.01
207.683	-12.21
208.155	-2.11
208.627	-2.81
209.099	-4.91
209.57	-11.31
210.042	-1.31
210.514	-4.31
210.986	-3.51
211.458	-6.31
211.93	-1.11
212.402	1.09
212.873	-9.51
213.345	-12.71
213.817	-12.81
214.288	-8.51
214.76	-8.21
215.232	0.09
215.703	-1.51
216.175	-4.81
216.646	-5.61
217.118	-13.61
217.589	-11.11
218.061	-2.51
218.532	-5.31
219.004	-4.31
219.475	-8.91
219.946	-2.41
220.418	-4.51
220.889	1.99
221.36	-5.71
221.832	-10.91
222.303	-9.41
222.774	-1.21
223.245	-8.91
223.717	-8.31
224.188	-6.01
224.659	-4.01
225.13	-5.91
225.601	-3.91
226.072	2.29
226.543	-5.51
227.014	-0.41
227.485	-4.71
227.956	-14.11
228.427	-5.41
228.898	-2.71
229.369	4.19
229.839	-5.31
230.31	-9.91
230.781	-4.11
231.252	-7.31
231.722	-8.11
232.193	-4.61
232.664	-3.91
233.135	-6.51
233.605	-7.41
234.076	-6.31
234.546	1.69
235.017	-2.41
235.487	-3.21
235.958	-0.21
236.428	-4.21
236.899	-4.71
237.369	-0.91
237.84	-5.21
238.31	2.99
238.78	-5.61
239.251	-12.51
239.721	-2.61
240.191	-7.21
240.662	-5.71
241.132	-4.91
241.602	-1.31
242.072	1.79
242.542	3.59
243.013	-4.81
243.483	1.89
243.953	-4.41
244.423	-6.71
244.893	-9.51
245.363	0.29
245.833	-0.11
246.303	-9.91
246.773	-4.01
247.243	-3.81
247.712	-4.71
248.182	-0.51
248.652	5.39
249.122	-9.91
249.592	1.09
250.061	2.59
250.531	7.19
251.001	0.09
251.471	8.79
251.94	9.79
252.41	6.99
252.879	-6.41
253.349	7.09
253.818	1.19
254.288	-0.01
254.757	-3.91
255.227	-7.61
255.696	1.49
256.166	5.49
256.635	0.59
257.105	0.09
257.574	-3.61
258.043	1.49
258.513	-4.81
258.982	2.29
259.451	-10.31
259.92	1.09
260.389	-1.71
260.859	9.09
261.328	1.99
261.797	2.29
262.266	-2.41
262.735	1.89
263.204	0.99
263.673	-7.41
264.142	-0.21
264.611	-0.71
265.08	-2.01
265.549	-0.71
266.018	4.59
266.487	-4.01
266.955	-10.51
267.424	-6.21
267.893	-0.11
268.362	-3.81
268.83	-6.11
269.299	9.39
269.768	-2.11
270.236	0.09
270.705	-0.01
271.174	0.49
271.642	2.79
272.111	-5.21
272.579	0.39
273.048	1.59
273.516	-0.51
273.985	8.29
274.453	10.79
274.922	7.59
275.39	4.09
275.858	-8.31
276.327	-1.41
276.795	10.39
277.263	-1.31
277.731	6.59
278.2	12.69
278.668	10.99
279.136	11.79
279.604	-1.71
280.072	4.39
280.54	6.09
281.008	6.49
281.477	7.39
281.945	2.49
282.413	8.89
282.881	14.19
283.348	-0.11
283.816	9.19
284.284	8.79
284.752	15.59
285.22	6.89
285.688	5.89
286.156	2.79
286.623	11.79
287.091	11.49
287.559	6.79
288.026	12.69
288.494	9.79
288.962	-3.01
289.429	3.09
289.897	12.49
290.364	8.29
290.832	9.69
291.3	4.09
291.767	11.09
292.234	14.49
292.702	10.19
293.169	12.89
293.637	16.69
294.104	13.09
294.571	0.39
295.039	3.19
295.506	1.29
295.973	10.09
296.44	6.79
296.908	9.29
297.375	8.79
297.842	9.39
298.309	9.69
298.776	6.79
299.243	13.29
299.71	7.49
300.177	10.09
300.644	12.59
301.111	13.79
301.578	19.59
302.045	3.59
302.512	16.79
302.979	14.49
303.446	15.39
303.913	13.99
304.379	8.49
304.846	16.89
305.313	5.39
305.78	15.59
306.246	17.19
306.713	15.99
307.18	17.09
307.646	17.69
308.113	18.19
308.579	17.19
309.046	17.09
309.512	14.59
309.979	9.39
310.445	18.79
310.912	17.09
311.378	26.69
311.845	21.79
312.311	18.19
312.777	19.99
313.244	22.49
313.71	33.19
314.176	21.59
314.642	17.29
315.109	20.09
315.575	22.79
316.041	21.49
316.507	21.79
316.973	18.59
317.439	21.79
317.905	20.29
318.371	28.69
318.837	21.49
319.303	21.39
319.769	17.69
320.235	24.79
320.701	25.89
321.167	25.89
321.633	24.29
322.099	20.19
322.564	27.49
323.03	29.79
323.496	28.49
323.962	28.59
324.427	23.39
324.893	26.79
325.359	26.29
325.824	22.89
326.29	19.69
326.755	28.19
327.221	28.39
327.686	25.49
328.152	37.39
328.617	26.59
329.083	35.09
329.548	36.19
330.014	35.39
330.479	32.89
330.944	31.39
331.41	31.09
331.875	33.99
332.34	34.29
332.805	29.89
333.271	35.69
333.736	28.99
334.201	45.69
334.666	39.19
335.131	41.79
335.596	35.99
336.061	33.49
336.526	28.29
336.991	40.79
337.456	38.99
337.921	37.69
338.386	38.39
338.851	36.99
339.316	39.19
339.781	40.29
340.246	46.69
340.711	34.59
341.175	37.89
341.64	38.49
342.105	36.89
342.569	45.99
343.034	47.39
343.499	44.69
343.963	40.29
344.428	51.49
344.893	50.09
345.357	43.79
345.822	44.99
346.286	50.89
346.751	59.39
347.215	54.39
347.679	54.29
348.144	68.19
348.608	64.09
349.073	54.99
349.537	58.69
350.001	63.09
350.465	71.19
350.93	60.09
351.394	63.89
351.858	57.59
352.322	65.19
352.786	67.79
353.25	82.19
353.715	90.29
354.179	79.89
354.643	95.29
355.107	100.79
355.571	80.79
356.035	78.49
356.498	91.19
356.962	93.19
357.426	105.29
357.89	90.99
358.354	69.59
358.818	69.29
359.281	62.69
359.745	69.89
360.209	62.99
360.673	61.99
361.136	63.69
361.6	70.89
362.064	69.09
362.527	67.19
362.991	76.09
363.454	66.59
363.918	60.09
364.381	71.89
364.845	66.49
365.308	69.29
365.772	72.19
366.235	72.69
366.698	70.09
367.162	69.39
367.625	71.79
368.088	65.09
368.552	76.59
369.015	70.69
369.478	83.79
369.941	79.09
370.404	78.09
370.867	88.09
371.331	90.99
371.794	96.19
372.257	82.79
372.72	94.59
373.183	85.79
373.646	82.69
374.109	78.39
374.572	86.99
375.035	89.19
375.497	89.49
375.96	94.09
376.423	90.49
376.886	98.79
377.349	97.99
377.811	94.59
378.274	90.89
378.737	86.99
379.199	98.19
379.662	94.49
380.125	100.39
380.587	85.39
381.05	97.29
381.512	105.39
381.975	110.19
382.437	101.39
382.9	100.99
383.362	105.09
383.825	109.79
384.287	113.19
384.75	103.69
385.212	111.69
385.674	120.49
386.136	122.59
386.599	108.99
387.061	108.69
387.523	107.09
387.985	119.09
388.447	122.09
388.91	116.69
389.372	119.39
389.834	115.49
390.296	117.69
390.758	119.09
391.22	129.09
391.682	139.79
392.144	157.69
392.606	135.69
393.068	135.49
393.529	138.59
393.991	131.89
394.453	118.59
394.915	121.69
395.377	131.29
395.838	135.89
396.3	125.49
396.762	130.69
397.224	126.29
397.685	118.99
398.147	127.49
398.608	122.29
399.07	114.89
399.531	130.99
399.993	129.19
400.454	142.79
400.916	139.19
401.377	132.89
401.839	137.09
402.3	135.19
402.762	152.79
403.223	164.39
403.684	160.39
404.145	149.79
404.607	150.99
405.068	154.19
405.529	154.29
405.99	166.79
406.451	162.89
406.913	162.29
407.374	150.59
407.835	153.99
408.296	154.19
408.757	161.29
409.218	175.29
409.679	165.39
410.14	162.29
410.601	161.69
411.062	165.29
411.522	170.49
411.983	164.39
412.444	169.99
412.905	167.89
413.366	173.19
413.826	177.89
414.287	208.19
414.748	249.59
415.208	241.99
415.669	208.69
416.13	199.69
416.59	196.29
417.051	206.49
417.511	206.09
417.972	235.29
418.432	238.19
418.893	279.29
419.353	243.89
419.814	186.29
420.274	179.69
420.734	176.49
421.195	187.09
421.655	184.29
422.115	178.59
422.576	192.79
423.036	188.69
423.496	204.09
423.956	204.49
424.416	221.19
424.876	261.29
425.336	247.69
425.797	256.89
426.257	247.69
426.717	235.99
427.177	221.49
427.637	215.09
428.097	226.59
428.556	232.79
429.016	257.89
429.476	254.59
429.936	260.19
430.396	259.99
430.856	274.29
431.315	293.99
431.775	331.19
432.235	361.09
432.694	333.29
433.154	341.89
433.614	366.69
434.073	311.79
434.533	269.99
434.993	256.19
435.452	264.79
435.912	277.19
436.371	274.69
436.83	265.19
437.29	255.49
437.749	238.09
438.209	234.89
438.668	266.39
439.127	273.69
439.587	252.79
440.046	244.19
440.505	245.39
440.964	259.59
441.424	308.29
441.883	306.19
442.342	255.19
442.801	216.09
443.26	213.49
443.719	215.49
444.178	215.59
444.637	211.99
445.096	214.89
445.555	221.89
446.014	221.99
446.473	227.59
446.932	233.29
447.391	222.69
447.849	230.69
448.308	219.79
448.767	223.89
449.226	233.49
449.685	234.09
450.143	243.09
450.602	233.99
451.061	224.29
451.519	232.29
451.978	232.79
452.436	233.29
452.895	236.79
453.353	253.49
453.812	241.99
454.27	233.99
454.729	243.99
455.187	243.59
455.646	244.49
456.104	247.39
456.562	262.19
457.021	270.49
457.479	250.99
457.937	263.79
458.395	264.79
458.854	242.89
459.312	253.09
459.77	276.89
460.228	252.09
460.686	245.79
461.144	251.19
461.602	246.19
462.06	240.79
462.518	255.59
462.976	252.69
463.434	256.99
463.892	258.09
464.35	271.49
464.808	279.79
465.266	268.59
465.724	266.89
466.181	270.39
466.639	266.69
467.097	282.09
467.555	294.19
468.012	298.39
468.47	300.39
468.928	327.89
469.385	336.29
469.843	344.29
470.3	345.09
470.758	363.89
471.215	376.49
471.673	401.49
472.13	411.09
472.588	411.79
473.045	376.39
473.503	376.69
473.96	394.29
474.417	402.69
474.875	422.19
475.332	466.79
475.789	450.99
476.246	456.59
476.704	476.19
477.161	497.09
477.618	506.29
478.075	545.89
478.532	595.49
478.989	666.99
479.446	772.79
479.903	745.19
480.36	771.99
480.817	816.79
481.274	890.49
481.731	984.99
482.188	1057.29
482.645	1175.89
483.102	1255.69
483.558	1384.99
484.015	1411.79
484.472	1387.19
484.929	1351.29
485.385	1314.59
485.842	1290.09
486.299	1241.79
486.755	1200.99
487.212	1033.99
487.668	880.69
488.125	799.29
488.582	732.29
489.038	706.19
489.494	682.59
489.951	657.29
490.407	646.39
490.864	626.89
491.32	624.79
491.776	626.49
492.233	639.99
492.689	608.29
493.145	602.69
493.602	592.69
494.058	600.19
494.514	601.79
494.97	623.59
495.426	634.39
495.882	617.29
496.338	603.59
496.794	602.89
497.251	602.19
497.707	609.19
498.163	617.39
498.618	626.39
499.074	620.89
499.53	654.89
499.986	656.79
500.442	637.39
500.898	605.39
501.354	605.29
501.809	612.39
502.265	618.79
502.721	628.99
503.177	641.79
503.632	636.39
504.088	639.89
504.543	662.09
504.999	685.99
505.455	648.59
505.91	635.49
506.366	631.69
506.821	617.39
507.277	624.69
507.732	623.39
508.187	626.59
508.643	630.89
509.098	642.39
509.553	652.29
510.009	659.99
510.464	657.99
510.919	684.99
511.375	689.49
511.83	705.59
512.285	713.79
512.74	749.69
513.195	770.69
513.65	754.49
514.105	749.39
514.56	753.39
515.015	771.09
515.47	782.39
515.925	776.69
516.38	768.19
516.835	782.09
517.29	771.99
517.745	775.39
518.2	756.69
518.655	736.09
519.109	741.39
519.564	732.69
520.019	719.09
520.474	711.89
520.928	720.79
521.383	712.69
521.838	703.69
522.292	710.89
522.747	708.19
523.201	693.99
523.656	688.39
524.11	693.09
524.565	695.69
525.019	690.39
525.474	704.69
525.928	691.09
526.382	691.59
526.837	686.69
527.291	697.39
527.745	689.59
528.2	690.19
528.654	684.29
529.108	678.69
529.562	684.79
530.016	682.49
530.47	693.39
530.925	679.19
531.379	682.59
531.833	692.39
532.287	694.79
532.741	702.59
533.195	698.39
533.649	705.49
534.103	711.29
534.556	706.69
535.01	707.39
535.464	697.79
535.918	706.39
536.372	710.39
536.826	713.19
537.279	702.49
537.733	701.09
538.187	708.79
538.64	715.89
539.094	714.29
539.548	725.69
540.001	718.09
540.455	718.99
540.908	724.49
541.362	733.39
541.815	744.59
542.269	758.89
542.722	751.39
543.175	760.99
543.629	766.49
544.082	783.39
544.536	782.59
544.989	782.89
545.442	798.79
545.895	794.89
546.349	800.59
546.802	793.59
547.255	788.79
547.708	796.09
548.161	806.89
548.614	817.89
549.067	825.29
549.52	816.59
549.973	806.59
550.426	796.49
550.879	791.99
551.332	795.49
551.785	801.09
552.238	804.39
552.691	818.59
553.144	841.19
553.596	849.99
554.049	855.29
554.502	885.19
554.955	907.49
555.407	893.39
555.86	897.69
556.313	884.69
556.765	879.39
557.218	876.89
557.67	878.69
558.123	859.29
558.576	870.69
559.028	875.19
559.48	885.69
559.933	873.29
560.385	836.09
560.838	816.49
561.29	789.49
561.742	780.69
562.195	759.79
562.647	765.69
563.099	778.29
563.551	769.99
564.004	786.29
564.456	773.69
564.908	757.59
565.36	727.69
565.812	734.29
566.264	717.39
566.716	719.79
567.168	704.19
567.62	707.99
568.072	700.79
568.524	694.79
568.976	692.49
569.428	678.69
569.88	682.99
570.332	681.99
570.784	695.19
571.235	692.29
571.687	695.09
572.139	700.29
572.59	721.09
573.042	724.99
573.494	713.39
573.945	706.59
574.397	676.09
574.849	683.79
575.3	690.99
575.752	675.19
576.203	669.39
576.655	681.59
577.106	675.29
577.557	670.79
578.009	672.09
578.46	669.19
578.912	667.49
579.363	674.29
579.814	661.69
580.265	661.69
580.717	666.59
581.168	675.49
581.619	674.69
582.07	686.09
582.521	667.49
582.972	664.49
583.423	679.49
583.875	683.19
584.326	691.69
584.777	705.69
585.227	735.59
585.678	750.59
586.129	778.99
586.58	799.89
587.031	837.99
587.482	873.69
587.933	920.59
588.384	889.99
588.834	815.79
589.285	780.79
589.736	771.09
590.186	776.59
590.637	775.89
591.088	745.99
591.538	737.39
591.989	741.69
592.439	720.09
592.89	714.69
593.34	711.59
593.791	707.39
594.241	706.49
594.692	702.39
595.142	700.69
595.593	702.39
596.043	710.29
596.493	708.39
596.943	714.49
597.394	730.49
597.844	716.09
598.294	743.49
598.744	763.89
599.195	786.19
599.645	822.89
600.095	861.19
600.545	923.29
600.995	966.89
601.445	1043.49
601.895	1091.59
602.345	1138.69
602.795	1127.09
603.245	1075.69
603.695	1005.29
604.145	965.39
604.594	912.59
605.044	865.79
605.494	806.49
605.944	753.19
606.393	752.59
606.843	735.19
607.293	739.39
607.743	736.89
608.192	739.09
608.642	755.79
609.091	769.39
609.541	767.39
609.99	762.29
610.44	759.89
610.889	716.79
611.339	703.19
611.788	691.49
612.238	694.39
612.687	703.29
613.136	694.29
613.586	723.49
614.035	712.39
614.484	723.49
614.933	714.49
615.383	721.49
615.832	708.49
616.281	713.69
616.73	677.99
617.179	664.79
617.628	644.29
618.077	639.69
618.526	629.89
618.975	623.89
619.424	633.29
619.873	615.99
620.322	622.69
620.771	600.49
621.22	600.99
621.669	591.99
622.118	580.59
622.567	590.29
623.015	574.89
623.464	573.09
623.913	565.99
624.361	558.19
624.81	546.99
625.259	556.49
625.707	562.39
626.156	559.29
626.604	567.99
627.053	571.39
627.501	578.99
627.95	576.39
628.398	583.19
628.847	572.59
629.295	577.59
629.744	583.89
630.192	568.99
630.64	556.79
631.089	555.49
631.537	550.79
631.985	534.49
632.433	546.99
632.881	534.69
633.33	542.19
633.778	545.89
634.226	534.19
634.674	548.19
635.122	555.69
635.57	550.79
636.018	567.19
636.466	565.99
636.914	559.39
637.362	569.29
637.81	582.09
638.258	583.59
638.705	597.39
639.153	615.09
639.601	621.19
640.049	643.89
640.497	681.79
640.944	701.99
641.392	642.79
641.84	620.29
642.287	588.29
642.735	570.89
643.182	569.09
643.63	568.99
644.078	563.89
644.525	577.39
644.973	579.79
645.42	597.39
645.867	616.59
646.315	637.99
646.762	661.39
647.21	683.19
647.657	710.19
648.104	738.79
648.551	752.09
648.999	816.69
649.446	898.49
649.893	974.29
650.34	1123.89
650.787	1329.99
651.234	1649.69
651.682	2125.09
652.129	2878.59
652.576	4082.79
653.023	5961.69
653.47	8046.49
653.917	9953.29
654.363	11389.69
654.81	12513.59
655.257	11885.49
655.704	7846.29
656.151	4733.99
656.598	3111.09
657.044	2235.19
657.491	1739.89
657.938	1395.49
658.385	1174.09
658.831	1025.79
659.278	918.99
659.724	820.69
660.171	760.89
660.618	711.49
661.064	684.99
661.511	659.99
661.957	653.59
662.404	642.59
662.85	652.89
663.296	617.59
663.743	558.09
664.189	536.29
664.635	530.09
665.082	531.89
665.528	530.19
665.974	523.89
666.42	512.19
666.867	503.19
667.313	491.49
667.759	474.49
668.205	451.99
668.651	458.49
669.097	457.79
669.543	451.59
669.989	446.49
670.435	451.89
670.881	460.59
671.327	460.09
671.773	474.49
672.219	505.29
672.665	558.99
673.11	592.49
673.556	643.49
674.002	680.39
674.448	661.19
674.893	558.29
675.339	482.09
675.785	449.09
676.23	430.29
676.676	407.19
677.122	387.99
677.567	389.09
678.013	377.79
678.458	368.09
678.904	371.49
679.349	349.59
679.794	364.09
680.24	357.49
680.685	355.49
681.131	352.29
681.576	352.39
682.021	363.99
682.466	359.29
682.912	350.89
683.357	368.99
683.802	389.99
684.247	421.89
684.692	465.79
685.137	506.29
685.583	551.19
686.028	577.69
686.473	531.79
686.918	450.59
687.363	425.19
687.807	403.19
688.252	378.69
688.697	369.39
689.142	344.49
689.587	342.09
690.032	329.09
690.477	352.99
690.921	354.99
691.366	387.49
691.811	414.09
692.255	431.39
692.7	469.29
693.145	518.39
693.589	735.69
694.034	1191.49
694.478	1586.39
694.923	1772.09
695.367	2285.19
695.812	1227.69
696.256	517.19
696.701	379.99
697.145	342.49
697.59	327.39
698.034	323.89
698.478	332.99
698.922	332.59
699.367	327.79
699.811	339.19
700.255	363.49
700.699	398.89
701.143	436.19
701.588	486.09
702.032	527.39
702.476	530.99
702.92	508.89
703.364	517.19
703.808	685.79
704.252	1103.59
704.696	1526.39
705.14	1707.59
705.584	2147.09
706.027	1100.29
706.471	536.89
706.915	413.59
707.359	356.89
707.803	327.29
708.246	315.09
708.69	316.29
709.134	324.19
709.577	320.99
710.021	321.99
710.465	321.29
710.908	310.09
711.352	302.89
711.795	311.59
712.239	363.99
712.682	395.29
713.126	415.69
713.569	471.19
714.012	369.49
714.456	317.69
714.899	296.39
715.342	276.69
715.786	269.59
716.229	267.89
716.672	261.19
717.115	254.49
717.558	255.69
718.002	257.69
718.445	265.09
718.888	292.69
719.331	299.19
719.774	318.19
720.217	308.29
720.66	293.39
721.103	272.79
721.546	265.69
721.989	248.89
722.432	226.29
722.874	238.89
723.317	228.59
723.76	242.29
724.203	263.69
724.645	332.09
725.088	463.49
725.531	588.59
725.974	645.39
726.416	560.79
726.859	314.49
727.301	251.19
727.744	244.69
728.187	233.49
728.629	249.19
729.071	249.69
729.514	265.59
729.956	272.99
730.399	293.69
730.841	295.59
731.283	275.39
731.726	276.89
732.168	271.99
732.61	278.69
733.053	296.99
733.495	322.29
733.937	364.09
734.379	405.99
734.821	455.39
735.263	577.29
735.705	889.19
736.148	1705.09
736.59	2711.59
737.032	3089.59
737.474	2532.79
737.916	840.69
738.357	443.49
738.799	339.29
739.241	311.89
739.683	291.29
740.125	299.59
740.567	307.69
741.008	318.99
741.45	325.89
741.892	333.49
742.334	359.89
742.775	369.19
743.217	351.89
743.658	290.29
744.1	263.69
744.542	269.69
744.983	326.09
745.425	356.49
745.866	346.19
746.307	288.29
746.749	285.59
747.19	336.29
747.632	487.29
748.073	961.29
748.514	2004.89
748.956	2958.39
749.397	3729.09
749.838	3089.09
750.279	3007.39
750.72	1538.19
751.162	566.59
751.603	336.19
752.044	266.69
752.485	229.29
752.926	207.79
753.367	208.19
753.808	203.29
754.249	200.79
754.69	191.39
755.131	187.29
755.572	186.99
756.013	189.19
756.453	191.09
756.894	195.19
757.335	197.39
757.776	192.99
758.216	199.19
758.657	206.99
759.098	203.69
759.538	237.59
759.979	278.59
760.42	395.59
760.86	768.29
761.301	2007.39
761.741	4710.09
762.182	6544.19
762.622	4604.19
763.063	1366.29
763.503	566.19
763.943	336.59
764.384	291.99
764.824	264.59
765.264	268.09
765.705	225.59
766.145	188.39
766.585	180.69
767.025	168.29
767.465	172.79
767.906	192.39
768.346	218.79
768.786	228.39
769.226	225.99
769.666	316.19
770.106	675.49
770.546	1666.69
770.986	2710.79
771.426	2408.39
771.866	819.09
772.306	340.99
772.745	211.39
773.185	177.59
773.625	166.69
774.065	151.69
774.505	170.39
774.944	222.19
775.384	403.39
775.824	648.29
776.263	624.19
776.703	299.29
777.142	170.69
777.582	140.79
778.021	130.49
778.461	131.39
778.9	129.19
779.34	127.59
779.779	114.79
780.219	115.69
780.658	108.39
781.097	110.59
781.537	112.59
781.976	106.09
782.415	103.59
782.855	103.89
783.294	102.49
783.733	107.19
784.172	110.89
784.611	105.19
785.05	113.49
785.489	114.19
785.928	117.79
786.367	121.79
786.806	120.99
787.245	133.29
787.684	138.39
788.123	148.49
788.562	141.59
789.001	128.89
789.44	119.19
789.879	122.49
790.317	123.29
790.756	131.89
791.195	129.39
791.634	151.49
792.072	215.09
792.511	393.29
792.95	1092.99
793.388	2193.49
793.827	1955.19
794.265	695.59
794.704	289.99
795.142	188.99
795.581	153.49
796.019	142.19
796.458	133.69
796.896	131.69
797.334	137.79
797.773	166.29
798.211	235.69
798.649	478.89
799.087	1075.99
799.526	1683.49
799.964	2108.39
800.402	2034.99
800.84	784.49
801.278	311.69
801.716	197.69
802.154	158.29
802.592	150.89
803.03	141.79
803.468	140.29
803.906	151.79
804.344	148.39
804.782	145.69
805.22	142.29
805.658	133.19
806.096	152.99
806.533	166.59
806.971	184.39
807.409	226.99
807.847	337.89
808.284	725.89
808.722	2020.89
809.16	3406.79
809.597	3327.09
810.035	5687.39
810.472	5831.49
810.91	2167.09
811.347	837.09
811.785	427.29
812.222	270.49
812.66	209.69
813.097	175.09
813.535	149.49
813.972	136.09
814.409	127.69
814.846	110.59
815.284	112.69
815.721	107.29
816.158	106.99
816.595	115.19
817.032	162.09
817.47	182.59
817.907	131.29
818.344	113.59
818.781	101.99
819.218	97.79
819.655	126.99
820.092	199.19
820.529	218.79
820.966	174.99
821.403	131.49
821.839	104.39
822.276	104.89
822.713	122.79
823.15	134.29
823.587	123.99
824.023	150.99
824.46	322.39
824.897	948.29
825.333	1377.09
825.77	597.29
826.206	243.19
826.643	132.19
827.08	106.39
827.516	85.59
827.953	81.09
828.389	92.09
828.825	70.59
829.262	73.19
829.698	62.79
830.135	69.99
830.571	59.09
831.007	64.19
831.443	65.49
831.88	55.19
832.316	62.39
832.752	64.49
833.188	69.99
833.624	65.49
834.06	74.09
834.497	68.49
834.933	70.89
835.369	83.99
835.805	68.09
836.241	81.09
836.677	80.69
837.112	91.39
837.548	112.39
837.984	142.89
838.42	212.59
838.856	550.49
839.292	1602.69
839.727	2341.89
840.163	1112.49
840.599	1007.79
841.034	2127.29
841.47	2139.79
841.906	797.19
842.341	346.39
842.777	212.19
843.212	213.49
843.648	198.39
844.083	115.89
844.519	84.59
844.954	74.79
845.39	62.19
845.825	54.79
846.261	56.99
846.696	55.89
847.131	50.49
847.566	58.09
848.002	51.29
848.437	57.09
848.872	63.49
849.307	68.29
849.742	83.19
850.177	189.29
850.613	584.69
851.048	906.59
851.483	394.19
851.918	160.09
852.353	86.39
852.788	59.99
853.223	46.79
853.657	60.59
854.092	44.89
854.527	42.99
854.962	40.09
855.397	42.29
855.832	49.89
856.266	44.59
856.701	41.49
857.136	37.99
857.57	41.19
858.005	45.39
858.44	59.89
858.874	45.49
859.309	57.59
859.743	42.69
860.178	39.39
860.612	47.09
861.047	49.89
861.481	74.69
861.915	74.19
862.35	53.19
862.784	38.69
863.218	42.99
863.653	41.19
864.087	46.69
864.521	60.09
864.955	74.69
865.39	158.19
865.824	184.49
866.258	125.69
866.692	166.29
867.126	186.99
867.56	113.29
867.994	60.29
868.428	37.69
868.862	51.89
869.296	58.29
869.73	61.29
870.164	60.29
870.598	49.29
871.031	38.19
871.465	39.59
871.899	30.69
872.333	28.99
872.766	22.09
873.2	20.29
873.634	34.99
874.067	27.49
874.501	27.09
874.935	37.59
875.368	34.99
875.802	27.59
876.235	24.99
876.669	26.69
877.102	27.59
877.535	18.79
877.969	25.99
878.402	28.69
878.836	20.69
879.269	22.49
879.702	26.29
880.135	23.99
880.569	23.99
881.002	20.79
881.435	19.99
881.868	17.69
882.301	20.99
882.734	22.09
883.167	26.59
883.601	19.29
884.034	23.19
884.467	15.69
884.899	21.69
885.332	19.79
885.765	15.79
886.198	19.69
886.631	17.79
887.064	19.49
887.497	22.89
887.929	25.39
888.362	18.99
888.795	16.59
889.228	15.69
889.66	21.19
890.093	13.09
890.526	14.09
890.958	15.69
891.391	13.09
891.823	24.69
892.256	12.99
892.688	16.29
893.121	13.59
893.553	16.59
893.985	24.79
894.418	21.69
894.85	12.99
895.282	19.59
895.715	16.39
896.147	18.69
896.579	15.19
897.011	8.39
897.444	18.59
897.876	10.59
898.308	20.59
898.74	12.29
899.172	14.29
899.604	18.79
900.036	21.09
900.468	14.19
900.9	13.09
901.332	24.39
901.764	15.99
902.196	22.89
902.628	16.89
903.06	18.79
903.491	26.89
903.923	19.69
904.355	24.19
904.787	15.99
905.218	18.29
905.65	16.39
906.082	7.79
906.513	16.19
906.945	18.49
907.376	16.99
907.808	16.29
908.239	14.49
908.671	14.59
909.102	16.49
909.534	22.09
909.965	48.69
910.397	97.49
910.828	333.69
911.259	482.29
911.691	224.39
912.122	112.79
912.553	50.39
912.984	31.19
913.415	22.09
913.847	26.09
914.278	13.39
914.709	14.39
915.14	16.79
915.571	19.29
916.002	16.69
916.433	21.99
916.864	13.89
917.295	10.09
917.726	20.79
918.157	17.19
918.587	29.79
919.018	21.39
919.449	23.89
919.88	27.69
920.311	27.89
920.741	48.99
921.172	170.59
921.603	153.99
922.033	75.39
922.464	49.69
922.895	23.89
923.325	20.69
923.756	12.09
924.186	9.29
924.617	21.29
925.047	27.09
925.478	23.29
925.908	19.59
926.338	14.29
926.769	20.99
927.199	17.89
927.629	2.99
928.06	12.49
928.49	14.39
928.92	8.19
929.35	17.29
929.78	14.39
930.21	6.69
930.641	8.99
931.071	6.89
931.501	3.69
931.931	12.29
932.361	12.09
932.791	0.49
933.221	5.39
933.651	2.39
934.08	16.29
934.51	31.49
934.94	4.49
935.37	-1.61
935.8	9.29
936.229	8.89
936.659	11.99
937.089	5.69
937.519	14.49
937.948	25.49
938.378	18.39
938.807	3.69
939.237	2.49
939.666	4.59
940.096	-4.21
940.525	0.49
940.955	-1.81
941.384	3.99
941.814	-2.21
942.243	4.19
942.672	-0.01
943.102	-5.41
943.531	0.89
943.96	5.99
944.39	3.19
944.819	2.89
945.248	7.89
945.677	4.89
946.106	6.79
946.535	-2.21
946.964	-1.11
947.393	2.79
947.822	0.19
948.251	-4.41
948.68	6.19
949.109	2.69
949.538	11.69
949.967	-2.01
950.396	-2.21
950.825	0.19
951.254	0.39
951.682	-8.71
952.111	1.49
952.54	7.49
952.969	-0.31
953.397	-5.71
953.826	-1.11
954.254	-5.11
954.683	-4.21
955.112	-5.91
955.54	-3.01
955.969	1.59
956.397	1.59
956.826	-3.91
957.254	-1.21
957.682	1.19
958.111	5.89
958.539	0.79
958.967	-4.31
959.396	-1.71
959.824	2.89
960.252	2.89
960.68	-7.01
961.109	-6.81
961.537	-2.01
961.965	0.39
962.393	1.69
962.821	-3.01
963.249	0.19
963.677	6.59
964.105	6.49
964.533	42.69
964.961	46.69
965.389	24.89
965.817	6.49
966.245	7.69
966.672	-1.21
967.1	-7.61
967.528	-5.11
967.956	-1.11
968.383	-1.31
968.811	-3.01
969.239	-2.91
969.666	-4.91
970.094	-0.91
970.522	3.49
970.949	7.49
971.377	-8.61
971.804	-0.61
972.232	-4.91
972.659	-2.81
973.087	-4.21
973.514	-1.01
973.941	-11.91
974.369	5.19
974.796	2.79
975.223	-3.91
975.651	3.29
976.078	2.29
976.505	2.89
976.932	2.69
977.359	15.59
977.786	12.59
978.214	0.59
978.641	-2.21
979.068	-8.01
979.495	-0.21
979.922	-0.61
980.349	-4.81
980.776	3.99
981.202	-1.51
981.629	6.39
982.056	4.99
982.483	-5.41
982.91	0.39
983.337	-0.31
983.763	4.89
984.19	-3.41
984.617	-6.71
985.043	-3.81
985.47	1.79
985.897	-7.11
986.323	-5.31
986.75	4.39
987.176	-2.21
987.603	-7.91
988.029	-0.81
988.456	-6.11
988.882	1.19
989.308	-14.61
989.735	-7.81
990.161	-3.61
990.587	-12.21
991.014	3.19
991.44	1.99
991.866	-5.01
992.292	-8.31
992.719	-0.01
993.145	1.59
993.571	-10.31
993.997	-4.01
994.423	-4.01
994.849	-7.11
995.275	3.59
995.701	-0.91
996.127	-5.51
996.553	-2.81
996.979	-6.31
997.405	-6.61
997.83	-5.61
998.256	-8.31
998.682	-6.31
999.108	-12.51
999.534	-0.81
999.959	-3.71
1000.385	-5.41
1000.811	1.79
1001.236	-9.81
1001.662	-5.41
1002.087	-11.01
1002.513	-7.71
1002.938	-2.11
1003.364	2.39
1003.789	-4.51
1004.215	5.79
1004.64	-2.91
1005.066	2.49
1005.491	0.19
1005.916	-6.81
1006.342	-5.51
1006.767	-5.41
1007.192	6.39
1007.617	-2.61
1008.042	-3.31
1008.468	-10.61
1008.893	-6.61
1009.318	-1.61
1009.743	-4.01
1010.168	3.49
1010.593	-1.61
1011.018	-4.11
1011.443	-2.71
1011.868	1.99
1012.293	-5.61
1012.718	-8.61
1013.143	2.39
1013.567	-2.61
1013.992	1.99
1014.417	-13.61
1014.842	6.09
1015.267	-5.21
1015.691	-3.21
1016.116	4.99
1016.541	-5.01
1016.965	5.29
1017.39	0.59
1017.814	-1.71
1018.239	-2.81
1018.663	-4.41
1019.088	-16.31
1019.512	-1.81
1019.937	-2.21
1020.361	-4.41
1020.785	-6.01
1021.21	-9.01
1021.634	-2.81
1022.058	2.29
1022.483	8.39
1022.907	-3.01
1023.331	-2.91
1023.755	-1.71
1024.179	2.89
1024.604	-0.31
1025.028	-8.11
1025.452	-4.51
1025.876	-0.31
1026.3	-1.91
1026.724	-14.51
1027.148	-2.11
1027.572	-10.01
1027.996	-5.31
1028.42	-1.21
1028.843	-4.31
1029.267	-8.01
1029.691	-1.91
1030.115	-3.41
1030.539	-10.41
1030.962	-9.71
1031.386	-9.81
1031.81	-4.91
1032.233	-5.71
1032.657	-5.11
1033.08	-2.31
1033.504	-9.71
1033.927	-2.41
1034.351	-3.41
1034.774	-2.91
1035.198	-3.61
1035.621	-7.61
1036.045	-4.61
1036.468	2.89
1036.891	-12.71
1037.315	-12.61
1037.738	-10.91
1038.161	-2.71
1038.584	-9.01
1039.008	-9.71
1039.431	-1.81
1039.854	-0.71
1040.277	-4.91
1040.7	-12.21
1041.123	0.79
1041.546	-8.11
1041.969	-4.21
1042.392	-9.11
1042.815	-2.41
1043.238	-0.91
1043.661	-2.81
1044.084	-11.51
1044.507	-3.21
1044.93	-2.31
1045.352	-5.11
1045.775	-9.51
1046.198	3.19
1046.621	-2.51
1047.043	-1.41
1047.466	-0.61
1047.889	-6.41
1048.311	1.39
1048.734	2.19
1049.156	-2.01
1049.579	-5.51
1050.001	-4.21
1050.424	0.39
1050.846	-4.31
1051.269	1.39
1051.691	-6.71
1052.113	-4.01
1052.536	-4.71
1052.958	-0.81
1053.38	-6.81
1053.802	-6.41
1054.225	3.99
1054.647	-4.91
1055.069	-4.41
1055.491	-4.41
1055.913	-12.81
1056.335	-2.01
1056.757	3.59
1057.179	-3.31
1057.601	-13.41
1058.023	-5.11
1058.445	-3.31
1058.867	-2.71
1059.289	-4.11
1059.711	-8.91
1060.133	-6.61
1060.555	-5.71
1060.976	-6.61
1061.398	-2.41
1061.82	-6.71
1062.241	-0.11
1062.663	-12.71
1063.085	-7.01
1063.506	-0.01
1063.928	-3.01
1064.35	-1.91
1064.771	-13.91
1065.193	-3.61
1065.614	-12.71
1066.035	-1.11
1066.457	-3.21
1066.878	2.39
1067.3	-1.21
1067.721	-3.11
1068.142	-2.31
1068.564	-5.71
1068.985	-4.51
1069.406	-8.41
1069.827	-3.61
1070.248	-7.01
1070.67	-6.51
1071.091	-6.31
1071.512	-6.01
1071.933	-2.31
1072.354	-14.61
1072.775	-0.91
1073.196	-9.51
1073.617	-2.01
1074.038	-9.21
1074.459	-4.51
1074.88	-7.11
1075.3	-2.51
1075.721	-0.91
1076.142	0.39
1076.563	3.39
1076.983	-9.81
1077.404	-9.31
1077.825	-12.01
1078.246	-2.51
1078.666	-13.91
1079.087	-7.71
1079.507	-1.61
1079.928	-0.51
1080.348	-1.91
1080.769	-13.01
1081.189	5.99
1081.61	-2.51
1082.03	-10.51
1082.451	-10.11
1082.871	-1.11
1083.291	-9.91
1083.711	-6.91
1084.132	-0.71
1084.552	-1.71
1084.972	-2.31
1085.392	-13.51
1085.813	-10.11
1086.233	-10.11
1086.653	-13.61
1087.073	-4.51
1087.493	-4.11
1087.913	-9.01
1088.333	-12.61
1088.753	-2.81
1089.173	1.69
1089.593	-4.81
1090.013	-0.91
1090.433	-2.81
1090.852	-5.71
1091.272	-1.51
1091.692	0.29
1092.112	-0.81
1092.531	-14.11
1092.951	-14.01
1093.371	-8.01
1093.79	-1.71
1094.21	-4.51
1094.63	-5.31
1095.049	-9.01
1095.469	-4.71
1095.888	-3.51
1096.308	2.09
1096.727	5.29
1097.146	-6.71
1097.566	-9.21
1097.985	-6.51
1098.405	-3.41
1098.824	-10.51
1099.243	-0.01
1099.662	-10.31
1100.082	-4.01
1100.501	-1.81
1100.92	-0.31
1101.339	-4.01
1101.758	-12.91
