Data from 20171114-ORNL-Ar_H_NY_Subt18_08-05-19-041.txt Node
Date: Tue Nov 14 08:05:19 EST 2017
User: Ender
Spectrometer: HR+D1039
Trigger mode: 0
Integration Time (sec): 2.730000E-2
Scans to average: 10
Electric dark correction enabled: true
Nonlinearity correction enabled: false
Boxcar width: 0
XAxis mode: Wavelengths
Number of Pixels in Spectrum: 2048
>>>>>Begin Spectral Data<<<<<
187.836	-1.58
188.309	-1.58
188.782	-1.58
189.255	0.82
189.728	-5.08
190.201	2.62
190.674	1.12
191.147	2.52
191.619	-5.08
192.092	0.82
192.565	4.62
193.038	1.82
193.511	0.62
193.984	4.82
194.456	-2.18
194.929	0.12
195.402	-4.98
195.874	-0.98
196.347	-2.48
196.82	-6.58
197.292	3.02
197.765	-0.38
198.237	-4.48
198.71	3.52
199.182	-2.48
199.655	0.02
200.127	3.52
200.6	-5.38
201.072	-1.78
201.544	-4.78
202.017	-6.38
202.489	8.02
202.961	-1.18
203.433	1.62
203.906	-6.98
204.378	-6.68
204.85	-4.08
205.322	-10.28
205.794	0.42
206.266	-1.68
206.739	-4.68
207.211	4.92
207.683	-6.78
208.155	-5.28
208.627	-6.38
209.099	-1.78
209.57	-5.88
210.042	-3.38
210.514	-1.08
210.986	-1.18
211.458	-4.08
211.93	-0.28
212.402	-0.08
212.873	-7.38
213.345	-8.38
213.817	-12.18
214.288	-4.08
214.76	-8.28
215.232	-0.48
215.703	-9.08
216.175	-3.68
216.646	-9.08
217.118	-1.18
217.589	-2.98
218.061	-1.28
218.532	-6.08
219.004	2.52
219.475	-1.08
219.946	-3.58
220.418	-4.58
220.889	2.22
221.36	4.92
221.832	-0.78
222.303	-0.48
222.774	1.92
223.245	-7.98
223.717	-3.08
224.188	-4.08
224.659	-6.18
225.13	-6.98
225.601	-1.38
226.072	1.92
226.543	0.92
227.014	0.02
227.485	1.82
227.956	-5.38
228.427	3.02
228.898	4.72
229.369	1.42
229.839	-2.98
230.31	-2.18
230.781	5.12
231.252	-3.98
231.722	-4.08
232.193	1.32
232.664	-0.88
233.135	5.12
233.605	0.42
234.076	-3.98
234.546	3.62
235.017	2.82
235.487	1.82
235.958	1.92
236.428	-3.98
236.899	8.42
237.369	9.62
237.84	-1.58
238.31	5.12
238.78	0.92
239.251	2.62
239.721	3.12
240.191	5.62
240.662	-1.38
241.132	2.02
241.602	-3.08
242.072	0.22
242.542	9.12
243.013	-2.68
243.483	7.22
243.953	3.22
244.423	0.12
244.893	6.22
245.363	6.32
245.833	-0.58
246.303	2.52
246.773	8.02
247.243	-0.58
247.712	9.52
248.182	7.32
248.652	9.92
249.122	4.32
249.592	10.72
250.061	27.22
250.531	36.62
251.001	25.52
251.471	18.92
251.94	16.02
252.41	8.52
252.879	2.52
253.349	12.52
253.818	15.62
254.288	6.92
254.757	4.72
255.227	4.72
255.696	3.32
256.166	8.82
256.635	6.42
257.105	8.72
257.574	9.12
258.043	12.32
258.513	15.62
258.982	21.82
259.451	13.92
259.92	17.72
260.389	15.82
260.859	17.22
261.328	11.62
261.797	21.42
262.266	10.22
262.735	11.32
263.204	4.12
263.673	2.32
264.142	8.52
264.611	-5.58
265.08	5.82
265.549	4.32
266.018	6.92
266.487	-2.08
266.955	-1.58
267.424	3.32
267.893	6.82
268.362	4.72
268.83	4.12
269.299	13.32
269.768	6.22
270.236	10.02
270.705	6.32
271.174	6.62
271.642	13.52
272.111	12.82
272.579	20.42
273.048	29.72
273.516	31.22
273.985	34.92
274.453	23.92
274.922	22.92
275.39	13.62
275.858	7.52
276.327	11.22
276.795	13.32
277.263	14.32
277.731	36.22
278.2	58.92
278.668	63.22
279.136	56.42
279.604	24.62
280.072	12.42
280.54	11.92
281.008	16.62
281.477	15.12
281.945	13.52
282.413	13.72
282.881	20.52
283.348	9.42
283.816	15.22
284.284	19.42
284.752	24.32
285.22	14.92
285.688	13.72
286.156	15.92
286.623	46.22
287.091	57.42
287.559	32.22
288.026	18.12
288.494	19.22
288.962	11.52
289.429	17.52
289.897	24.52
290.364	17.02
290.832	19.12
291.3	18.32
291.767	17.92
292.234	27.22
292.702	20.62
293.169	22.72
293.637	29.32
294.104	26.92
294.571	15.22
295.039	17.92
295.506	16.22
295.973	18.62
296.44	15.32
296.908	24.72
297.375	18.02
297.842	24.32
298.309	22.92
298.776	14.02
299.243	25.72
299.71	19.32
300.177	24.92
300.644	22.92
301.111	19.02
301.578	28.12
302.045	18.82
302.512	26.72
302.979	25.02
303.446	20.32
303.913	18.32
304.379	26.22
304.846	29.22
305.313	26.72
305.78	25.62
306.246	27.52
306.713	32.62
307.18	28.92
307.646	29.12
308.113	30.12
308.579	30.92
309.046	26.42
309.512	28.52
309.979	18.12
310.445	29.42
310.912	38.52
311.378	40.52
311.845	32.72
312.311	37.72
312.777	36.82
313.244	31.52
313.71	43.92
314.176	36.72
314.642	30.62
315.109	37.82
315.575	34.22
316.041	39.22
316.507	39.72
316.973	46.82
317.439	32.32
317.905	37.12
318.371	36.22
318.837	41.72
319.303	38.52
319.769	35.42
320.235	42.32
320.701	35.92
321.167	40.72
321.633	42.62
322.099	44.02
322.564	46.62
323.03	41.82
323.496	45.52
323.962	44.72
324.427	33.62
324.893	41.22
325.359	44.72
325.824	40.12
326.29	39.32
326.755	42.12
327.221	46.02
327.686	43.92
328.152	49.72
328.617	42.82
329.083	52.72
329.548	54.22
330.014	55.42
330.479	41.52
330.944	46.42
331.41	50.02
331.875	46.32
332.34	47.32
332.805	50.72
333.271	49.62
333.736	54.22
334.201	53.92
334.666	55.02
335.131	55.42
335.596	58.52
336.061	51.72
336.526	47.62
336.991	47.32
337.456	60.22
337.921	46.92
338.386	47.62
338.851	50.02
339.316	49.02
339.781	47.22
340.246	52.22
340.711	54.82
341.175	53.92
341.64	48.52
342.105	59.72
342.569	58.82
343.034	66.42
343.499	58.62
343.963	56.92
344.428	62.02
344.893	62.72
345.357	62.52
345.822	61.62
346.286	69.42
346.751	80.12
347.215	72.22
347.679	79.72
348.144	98.42
348.608	84.82
349.073	78.82
349.537	79.22
350.001	90.02
350.465	90.32
350.93	83.72
351.394	86.62
351.858	74.82
352.322	93.22
352.786	85.72
353.25	104.62
353.715	112.82
354.179	100.82
354.643	128.42
355.107	128.82
355.571	118.22
356.035	106.62
356.498	120.12
356.962	129.22
357.426	130.02
357.89	115.42
358.354	96.52
358.818	94.12
359.281	80.92
359.745	86.02
360.209	84.82
360.673	81.92
361.136	76.62
361.6	87.32
362.064	90.52
362.527	91.92
362.991	91.22
363.454	84.12
363.918	89.32
364.381	81.92
364.845	87.62
365.308	89.72
365.772	88.32
366.235	93.42
366.698	84.62
367.162	92.12
367.625	93.42
368.088	94.02
368.552	91.72
369.015	90.92
369.478	100.72
369.941	112.92
370.404	95.72
370.867	108.12
371.331	116.42
371.794	120.32
372.257	113.02
372.72	118.62
373.183	113.52
373.646	100.42
374.109	104.62
374.572	116.42
375.035	115.22
375.497	116.82
375.96	116.32
376.423	111.22
376.886	112.12
377.349	112.62
377.811	102.22
378.274	113.22
378.737	109.82
379.199	113.82
379.662	118.72
380.125	122.72
380.587	118.82
381.05	123.92
381.512	131.62
381.975	138.42
382.437	136.02
382.9	130.92
383.362	138.32
383.825	149.52
384.287	148.22
384.75	145.62
385.212	143.42
385.674	141.02
386.136	138.32
386.599	122.42
387.061	127.02
387.523	133.02
387.985	141.52
388.447	149.42
388.91	150.82
389.372	158.32
389.834	155.32
390.296	145.32
390.758	159.52
391.22	169.62
391.682	206.22
392.144	285.22
392.606	228.72
393.068	172.42
393.529	171.72
393.991	159.72
394.453	148.52
394.915	159.22
395.377	195.82
395.838	216.72
396.3	154.92
396.762	147.82
397.224	140.62
397.685	132.42
398.147	136.22
398.608	125.62
399.07	131.82
399.531	136.82
399.993	142.62
400.454	158.42
400.916	149.52
401.377	146.52
401.839	157.82
402.3	161.02
402.762	168.42
403.223	180.82
403.684	176.52
404.145	166.12
404.607	165.92
405.068	172.22
405.529	175.62
405.99	193.62
406.451	180.22
406.913	172.82
407.374	173.42
407.835	160.92
408.296	166.22
408.757	181.02
409.218	186.92
409.679	186.12
410.14	182.72
410.601	176.42
411.062	179.42
411.522	188.62
411.983	195.12
412.444	185.22
412.905	176.52
413.366	189.02
413.826	202.62
414.287	214.62
414.748	267.52
415.208	254.42
415.669	221.02
416.13	209.52
416.59	207.72
417.051	213.32
417.511	217.82
417.972	242.62
418.432	255.52
418.893	293.92
419.353	257.22
419.814	201.22
420.274	187.02
420.734	187.52
421.195	206.32
421.655	209.12
422.115	198.52
422.576	196.02
423.036	204.22
423.496	214.82
423.956	221.22
424.416	237.32
424.876	267.42
425.336	266.02
425.797	263.92
426.257	260.72
426.717	239.02
427.177	235.42
427.637	225.52
428.097	244.52
428.556	248.22
429.016	276.52
429.476	271.22
429.936	280.62
430.396	279.62
430.856	297.02
431.315	317.52
431.775	359.82
432.235	381.42
432.694	352.32
433.154	369.42
433.614	394.32
434.073	345.92
434.533	294.12
434.993	274.02
435.452	292.12
435.912	304.82
436.371	290.92
436.83	290.02
437.29	273.32
437.749	246.72
438.209	254.12
438.668	276.92
439.127	294.52
439.587	268.82
440.046	247.82
440.505	264.82
440.964	279.92
441.424	328.92
441.883	322.22
442.342	267.62
442.801	227.12
443.26	219.82
443.719	230.02
444.178	220.62
444.637	221.02
445.096	215.62
445.555	224.52
446.014	224.92
446.473	228.22
446.932	236.02
447.391	232.82
447.849	230.12
448.308	220.42
448.767	229.72
449.226	238.22
449.685	243.52
450.143	254.22
450.602	240.22
451.061	232.72
451.519	236.22
451.978	231.42
452.436	240.62
452.895	243.52
453.353	255.92
453.812	249.12
454.27	238.02
454.729	244.12
455.187	246.22
455.646	251.92
456.104	252.42
456.562	262.02
457.021	268.92
457.479	259.72
457.937	274.82
458.395	261.12
458.854	254.82
459.312	260.62
459.77	272.72
460.228	263.02
460.686	246.52
461.144	247.82
461.602	249.32
462.06	242.82
462.518	248.12
462.976	260.72
463.434	264.52
463.892	266.52
464.35	272.02
464.808	293.82
465.266	270.52
465.724	275.02
466.181	279.92
466.639	276.22
467.097	289.82
467.555	302.32
468.012	309.62
468.47	313.52
468.928	335.32
469.385	348.72
469.843	352.62
470.3	367.62
470.758	368.62
471.215	391.22
471.673	410.82
472.13	404.62
472.588	419.12
473.045	374.82
473.503	377.62
473.96	392.12
474.417	416.72
474.875	447.72
475.332	479.12
475.789	468.12
476.246	470.72
476.704	487.52
477.161	521.42
477.618	527.12
478.075	571.12
478.532	632.32
478.989	710.72
479.446	812.62
479.903	785.52
480.36	825.62
480.817	875.32
481.274	985.42
481.731	1077.22
482.188	1188.52
482.645	1307.72
483.102	1425.42
483.558	1561.42
484.015	1609.52
484.472	1604.32
484.929	1548.62
485.385	1492.82
485.842	1444.82
486.299	1379.12
486.755	1313.12
487.212	1113.72
487.668	944.82
488.125	857.02
488.582	784.52
489.038	767.82
489.494	726.72
489.951	704.42
490.407	686.42
490.864	655.12
491.32	651.72
491.776	653.02
492.233	662.82
492.689	613.92
493.145	609.32
493.602	618.02
494.058	633.82
494.514	622.32
494.97	638.32
495.426	657.22
495.882	639.52
496.338	624.12
496.794	640.22
497.251	621.52
497.707	654.62
498.163	646.82
498.618	654.92
499.074	655.72
499.53	690.52
499.986	693.32
500.442	669.22
500.898	637.52
501.354	629.12
501.809	644.42
502.265	650.72
502.721	670.32
503.177	674.82
503.632	676.92
504.088	681.72
504.543	723.12
504.999	721.42
505.455	668.82
505.91	645.92
506.366	646.12
506.821	645.12
507.277	624.12
507.732	633.82
508.187	631.32
508.643	647.02
509.098	641.22
509.553	662.42
510.009	668.02
510.464	682.02
510.919	701.32
511.375	707.02
511.83	724.42
512.285	737.62
512.74	771.62
513.195	794.32
513.65	782.02
514.105	794.92
514.56	785.82
515.015	799.22
515.47	820.32
515.925	807.72
516.38	794.92
516.835	819.02
517.29	791.02
517.745	783.42
518.2	772.52
518.655	754.92
519.109	754.32
519.564	754.12
520.019	735.82
520.474	730.82
520.928	724.82
521.383	726.82
521.838	715.22
522.292	720.62
522.747	720.52
523.201	707.32
523.656	701.42
524.11	694.62
524.565	695.92
525.019	701.02
525.474	708.92
525.928	712.02
526.382	716.82
526.837	701.02
527.291	704.22
527.745	697.42
528.2	706.92
528.654	694.62
529.108	697.92
529.562	708.62
530.016	701.42
530.47	698.82
530.925	695.12
531.379	698.92
531.833	712.72
532.287	712.22
532.741	714.12
533.195	716.62
533.649	712.72
534.103	722.82
534.556	714.52
535.01	728.52
535.464	716.82
535.918	735.62
536.372	728.72
536.826	727.62
537.279	711.62
537.733	715.52
538.187	724.22
538.64	718.72
539.094	727.32
539.548	731.62
540.001	722.62
540.455	731.32
540.908	730.62
541.362	737.02
541.815	745.22
542.269	761.82
542.722	761.52
543.175	775.32
543.629	776.12
544.082	789.92
544.536	789.22
544.989	785.52
545.442	801.62
545.895	793.02
546.349	800.12
546.802	796.62
547.255	798.92
547.708	809.32
548.161	820.42
548.614	818.32
549.067	827.42
549.52	826.62
549.973	806.42
550.426	813.02
550.879	799.42
551.332	792.62
551.785	817.32
552.238	798.72
552.691	819.82
553.144	826.42
553.596	849.22
554.049	865.12
554.502	889.42
554.955	920.12
555.407	902.92
555.86	895.82
556.313	888.32
556.765	891.72
557.218	887.22
557.67	883.62
558.123	879.12
558.576	885.62
559.028	875.02
559.48	883.92
559.933	867.92
560.385	832.72
560.838	818.22
561.29	780.82
561.742	787.32
562.195	763.12
562.647	765.42
563.099	772.62
563.551	779.22
564.004	783.92
564.456	761.32
564.908	761.82
565.36	741.22
565.812	726.62
566.264	721.92
566.716	721.12
567.168	708.62
567.62	720.72
568.072	702.02
568.524	695.62
568.976	692.52
569.428	672.12
569.88	659.42
570.332	678.72
570.784	679.62
571.235	681.92
571.687	688.92
572.139	704.32
572.59	706.32
573.042	707.02
573.494	704.02
573.945	696.92
574.397	680.32
574.849	692.42
575.3	690.32
575.752	678.82
576.203	667.02
576.655	692.02
577.106	677.42
577.557	653.02
578.009	668.92
578.46	669.62
578.912	661.12
579.363	667.22
579.814	668.72
580.265	655.22
580.717	668.62
581.168	665.82
581.619	672.32
582.07	676.22
582.521	655.32
582.972	661.82
583.423	677.12
583.875	679.02
584.326	694.12
584.777	737.22
585.227	812.52
585.678	896.72
586.129	986.32
586.58	1040.52
587.031	1128.52
587.482	1291.12
587.933	1458.72
588.384	1270.32
588.834	953.82
589.285	782.22
589.736	763.32
590.186	760.92
590.637	760.72
591.088	737.02
591.538	719.82
591.989	721.82
592.439	726.32
592.89	715.12
593.34	702.52
593.791	702.52
594.241	696.62
594.692	692.12
595.142	676.92
595.593	692.32
596.043	704.72
596.493	703.62
596.943	701.62
597.394	708.22
597.844	697.92
598.294	712.02
598.744	744.82
599.195	758.22
599.645	795.82
600.095	844.02
600.545	901.32
600.995	947.62
601.445	1007.32
601.895	1066.22
602.345	1118.52
602.795	1087.02
603.245	1049.02
603.695	990.92
604.145	939.62
604.594	894.32
605.044	838.92
605.494	785.12
605.944	741.72
606.393	723.02
606.843	708.72
607.293	714.42
607.743	713.52
608.192	728.32
608.642	743.32
609.091	758.32
609.541	757.22
609.99	751.02
610.44	754.72
610.889	694.82
611.339	683.22
611.788	663.22
612.238	679.82
612.687	703.92
613.136	697.82
613.586	717.62
614.035	717.42
614.484	729.72
614.933	734.72
615.383	732.92
615.832	727.42
616.281	714.62
616.73	665.42
617.179	654.32
617.628	644.72
618.077	615.52
618.526	615.92
618.975	598.62
619.424	595.22
619.873	598.12
620.322	592.62
620.771	590.02
621.22	586.52
621.669	571.02
622.118	586.32
622.567	572.12
623.015	557.02
623.464	556.32
623.913	545.92
624.361	538.72
624.81	533.72
625.259	528.92
625.707	535.42
626.156	536.92
626.604	547.92
627.053	547.52
627.501	549.02
627.95	550.32
628.398	559.32
628.847	554.72
629.295	560.32
629.744	554.82
630.192	560.02
630.64	554.42
631.089	548.02
631.537	563.52
631.985	560.72
632.433	581.02
632.881	579.22
633.33	632.72
633.778	607.92
634.226	557.92
634.674	556.42
635.122	561.92
635.57	587.42
636.018	608.42
636.466	568.92
636.914	544.22
637.362	553.42
637.81	555.12
638.258	560.72
638.705	551.72
639.153	584.12
639.601	598.12
640.049	617.02
640.497	654.02
640.944	675.02
641.392	627.92
641.84	589.32
642.287	563.92
642.735	556.42
643.182	557.62
643.63	554.22
644.078	552.22
644.525	561.12
644.973	570.82
645.42	581.82
645.867	593.02
646.315	609.52
646.762	640.72
647.21	668.62
647.657	679.92
648.104	723.62
648.551	752.92
648.999	799.12
649.446	870.42
649.893	957.02
650.34	1109.92
650.787	1318.92
651.234	1649.42
651.682	2135.52
652.129	2929.92
652.576	4188.42
653.023	6208.62
653.47	8531.12
653.917	10713.62
654.363	12495.92
654.81	13920.92
655.257	13193.02
655.704	8629.62
656.151	5080.52
656.598	3292.22
657.044	2343.62
657.491	1802.62
657.938	1429.32
658.385	1193.52
658.831	1043.72
659.278	924.72
659.724	822.22
660.171	758.62
660.618	689.82
661.064	658.02
661.511	640.82
661.957	621.92
662.404	613.12
662.85	619.52
663.296	591.32
663.743	531.32
664.189	516.12
664.635	515.32
665.082	506.12
665.528	516.22
665.974	487.22
666.42	481.32
666.867	489.12
667.313	469.42
667.759	456.52
668.205	455.62
668.651	462.12
669.097	464.22
669.543	481.22
669.989	463.72
670.435	429.22
670.881	424.82
671.327	429.52
671.773	441.42
672.219	461.02
672.665	516.12
673.11	555.72
673.556	601.92
674.002	628.92
674.448	627.92
674.893	519.12
675.339	447.12
675.785	419.12
676.23	400.52
676.676	373.12
677.122	357.92
677.567	354.22
678.013	347.72
678.458	343.72
678.904	345.62
679.349	334.32
679.794	333.42
680.24	338.52
680.685	327.52
681.131	334.12
681.576	344.42
682.021	336.72
682.466	333.72
682.912	332.42
683.357	332.32
683.802	362.32
684.247	384.42
684.692	432.02
685.137	478.92
685.583	513.02
686.028	527.82
686.473	490.92
686.918	422.12
687.363	399.42
687.807	377.32
688.252	348.52
688.697	340.92
689.142	321.32
689.587	316.52
690.032	313.72
690.477	326.12
690.921	329.12
691.366	354.92
691.811	386.72
692.255	412.22
692.7	436.12
693.145	472.32
693.589	639.92
694.034	1047.32
694.478	1441.62
694.923	1656.52
695.367	2171.62
695.812	1137.72
696.256	473.42
696.701	351.12
697.145	319.42
697.59	311.22
698.034	309.22
698.478	308.22
698.922	312.62
699.367	309.72
699.811	325.22
700.255	332.22
700.699	361.92
701.143	404.02
701.588	442.42
702.032	487.72
702.476	489.02
702.92	463.62
703.364	461.62
703.808	583.12
704.252	956.82
704.696	1357.22
705.14	1602.12
705.584	2022.02
706.027	1013.82
706.471	499.22
706.915	376.22
707.359	344.72
707.803	306.52
708.246	293.52
708.69	300.62
709.134	292.82
709.577	286.92
710.021	298.82
710.465	292.12
710.908	282.82
711.352	283.22
711.795	290.12
712.239	328.32
712.682	367.72
713.126	391.02
713.569	444.72
714.012	360.12
714.456	306.52
714.899	288.42
715.342	259.22
715.786	246.22
716.229	253.92
716.672	247.92
717.115	235.72
717.558	240.72
718.002	243.52
718.445	255.72
718.888	274.02
719.331	276.22
719.774	290.72
720.217	288.62
720.66	269.42
721.103	254.02
721.546	240.32
721.989	239.82
722.432	214.02
722.874	227.92
723.317	218.02
723.76	220.42
724.203	247.92
724.645	299.42
725.088	415.02
725.531	534.52
725.974	612.52
726.416	532.22
726.859	289.32
727.301	230.12
727.744	224.62
728.187	227.22
728.629	226.72
729.071	230.22
729.514	238.22
729.956	260.72
730.399	271.92
730.841	275.42
731.283	256.12
731.726	249.42
732.168	246.42
732.61	251.42
733.053	269.42
733.495	290.82
733.937	326.22
734.379	374.02
734.821	413.42
735.263	504.12
735.705	767.42
736.148	1448.12
736.59	2398.12
737.032	2919.52
737.474	2363.82
737.916	768.92
738.357	401.22
738.799	302.42
739.241	281.82
739.683	269.72
740.125	282.52
740.567	281.92
741.008	298.92
741.45	298.02
741.892	302.02
742.334	330.32
742.775	334.62
743.217	315.92
743.658	250.22
744.1	240.92
744.542	243.32
744.983	293.32
745.425	329.02
745.866	328.12
746.307	266.72
746.749	267.72
747.19	305.62
747.632	419.52
748.073	807.42
748.514	1720.02
748.956	2680.82
749.397	3358.02
749.838	2788.72
750.279	2825.02
750.72	1414.22
751.162	504.62
751.603	303.12
752.044	240.62
752.485	200.22
752.926	199.72
753.367	191.82
753.808	181.82
754.249	179.12
754.69	179.52
755.131	174.72
755.572	179.72
756.013	174.12
756.453	170.72
756.894	177.32
757.335	176.02
757.776	179.82
758.216	183.52
758.657	191.22
759.098	184.32
759.538	207.52
759.979	250.82
760.42	343.42
760.86	642.02
761.301	1645.52
761.741	4090.12
762.182	6149.62
762.622	4309.92
763.063	1228.22
763.503	504.02
763.943	331.52
764.384	319.72
764.824	380.82
765.264	416.22
765.705	293.42
766.145	191.02
766.585	175.72
767.025	171.22
767.465	172.52
767.906	224.12
768.346	295.52
768.786	315.12
769.226	244.22
769.666	291.42
770.106	564.32
770.546	1419.72
770.986	2504.22
771.426	2264.22
771.866	742.72
772.306	305.22
772.745	197.62
773.185	168.62
773.625	163.32
774.065	156.92
774.505	177.92
774.944	278.72
775.384	600.22
775.824	1130.82
776.263	1120.82
776.703	473.22
777.142	206.52
777.582	149.32
778.021	132.52
778.461	129.32
778.9	130.22
779.34	121.12
779.779	118.02
780.219	101.32
780.658	100.62
781.097	111.22
781.537	108.82
781.976	101.92
782.415	102.92
782.855	101.42
783.294	95.52
783.733	100.82
784.172	104.32
784.611	103.32
785.05	98.72
785.489	108.22
785.928	112.22
786.367	114.62
786.806	117.42
787.245	122.72
787.684	124.12
788.123	143.42
788.562	128.72
789.001	117.42
789.44	119.72
789.879	108.22
790.317	113.72
790.756	119.32
791.195	126.32
791.634	139.32
792.072	186.52
792.511	332.52
792.95	913.12
793.388	2005.62
793.827	1856.72
794.265	646.32
794.704	262.52
795.142	169.92
795.581	144.82
796.019	119.82
796.458	119.52
796.896	120.22
797.334	119.12
797.773	136.32
798.211	200.52
798.649	403.82
799.087	929.42
799.526	1472.82
799.964	1869.02
800.402	1918.72
800.84	714.82
801.278	277.52
801.716	175.52
802.154	150.62
802.592	133.42
803.03	134.92
803.468	129.42
803.906	136.42
804.344	139.82
804.782	133.12
805.22	123.72
805.658	116.32
806.096	138.52
806.533	147.12
806.971	165.62
807.409	202.62
807.847	288.12
808.284	598.72
808.722	1718.52
809.16	3098.22
809.597	2869.22
810.035	5070.52
810.472	5567.62
810.91	1986.52
811.347	742.92
811.785	383.12
812.222	239.62
812.66	184.52
813.097	151.02
813.535	137.02
813.972	126.12
814.409	113.72
814.846	110.82
815.284	102.52
815.721	95.42
816.158	97.82
816.595	109.22
817.032	164.02
817.47	184.82
817.907	155.22
818.344	134.02
818.781	106.72
819.218	93.72
819.655	115.42
820.092	174.52
820.529	204.32
820.966	159.42
821.403	126.62
821.839	103.42
822.276	95.62
822.713	116.82
823.15	126.92
823.587	112.52
824.023	130.22
824.46	263.92
824.897	822.42
825.333	1280.12
825.77	554.02
826.206	214.92
826.643	128.52
827.08	90.92
827.516	77.72
827.953	68.72
828.389	76.72
828.825	65.12
829.262	63.02
829.698	59.62
830.135	54.02
830.571	58.72
831.007	58.02
831.443	65.72
831.88	58.72
832.316	52.32
832.752	61.32
833.188	61.12
833.624	61.82
834.06	69.02
834.497	62.62
834.933	68.62
835.369	72.32
835.805	68.12
836.241	74.22
836.677	81.62
837.112	84.02
837.548	103.02
837.984	123.32
838.42	186.02
838.856	450.42
839.292	1391.42
839.727	2201.32
840.163	1008.72
840.599	841.12
841.034	1895.32
841.47	2024.12
841.906	732.52
842.341	310.72
842.777	213.42
843.212	297.02
843.648	290.02
844.083	143.52
844.519	89.22
844.954	70.82
845.39	58.32
845.825	56.32
846.261	56.72
846.696	50.32
847.131	47.62
847.566	50.22
848.002	48.72
848.437	54.52
848.872	59.42
849.307	59.92
849.742	77.62
850.177	163.82
850.613	513.42
851.048	828.82
851.483	363.82
851.918	145.82
852.353	83.22
852.788	56.72
853.223	55.32
853.657	50.22
854.092	47.62
854.527	42.62
854.962	41.82
855.397	38.02
855.832	45.62
856.266	43.22
856.701	37.92
857.136	31.62
857.57	36.42
858.005	46.32
858.44	56.72
858.874	44.72
859.309	49.52
859.743	36.52
860.178	45.42
860.612	42.92
861.047	49.22
861.481	64.02
861.915	68.92
862.35	44.52
862.784	37.62
863.218	37.32
863.653	33.12
864.087	45.72
864.521	50.72
864.955	71.92
865.39	147.62
865.824	166.42
866.258	108.52
866.692	153.62
867.126	162.22
867.56	102.02
867.994	50.22
868.428	37.22
868.862	43.82
869.296	50.92
869.73	57.22
870.164	48.22
870.598	43.52
871.031	34.12
871.465	30.62
871.899	32.72
872.333	24.92
872.766	28.42
873.2	22.82
873.634	33.82
874.067	22.92
874.501	22.82
874.935	28.92
875.368	33.72
875.802	24.12
876.235	29.72
876.669	16.22
877.102	21.82
877.535	23.32
877.969	17.92
878.402	26.42
878.836	18.02
879.269	23.92
879.702	22.92
880.135	25.22
880.569	22.82
881.002	27.82
881.435	16.22
881.868	20.82
882.301	22.82
882.734	18.22
883.167	19.92
883.601	22.52
884.034	20.82
884.467	18.62
884.899	18.82
885.332	19.92
885.765	12.82
886.198	19.12
886.631	16.62
887.064	23.92
887.497	16.62
887.929	20.92
888.362	11.62
888.795	12.92
889.228	24.22
889.66	17.52
890.093	17.62
890.526	12.62
890.958	18.32
891.391	22.12
891.823	26.62
892.256	13.22
892.688	14.22
893.121	10.72
893.553	13.32
893.985	23.12
894.418	18.02
894.85	12.42
895.282	15.32
895.715	14.92
896.147	10.72
896.579	13.22
897.011	13.22
897.444	19.02
897.876	14.02
898.308	16.92
898.74	17.12
899.172	14.32
899.604	22.92
900.036	19.12
900.468	15.72
900.9	17.72
901.332	16.72
901.764	10.22
902.196	10.22
902.628	18.52
903.06	11.92
903.491	26.42
903.923	22.62
904.355	19.52
904.787	28.92
905.218	20.72
905.65	24.62
906.082	14.12
906.513	11.22
906.945	14.72
907.376	16.32
907.808	19.52
908.239	25.62
908.671	24.22
909.102	19.12
909.534	21.32
909.965	43.62
910.397	82.82
910.828	290.52
911.259	453.52
911.691	202.32
912.122	101.12
912.553	49.42
912.984	32.52
913.415	26.92
913.847	19.92
914.278	10.62
914.709	13.62
915.14	19.42
915.571	14.72
916.002	13.12
916.433	17.42
916.864	15.92
917.295	14.12
917.726	21.92
918.157	18.22
918.587	25.82
919.018	18.12
919.449	15.42
919.88	22.32
920.311	26.62
920.741	46.02
921.172	158.92
921.603	142.82
922.033	57.52
922.464	40.02
922.895	23.42
923.325	20.62
923.756	16.62
924.186	11.32
924.617	20.42
925.047	40.92
925.478	53.52
925.908	40.92
926.338	28.32
926.769	22.42
927.199	22.22
927.629	13.32
928.06	12.12
928.49	16.82
928.92	14.12
929.35	11.12
929.78	10.42
930.21	7.92
930.641	10.22
931.071	7.12
931.501	3.62
931.931	8.32
932.361	9.82
932.791	6.52
933.221	9.32
933.651	-1.48
934.08	14.42
934.51	29.22
934.94	14.92
935.37	8.12
935.8	9.62
936.229	2.12
936.659	10.02
937.089	4.32
937.519	7.82
937.948	27.02
938.378	19.42
938.807	6.92
939.237	1.72
939.666	4.62
940.096	-8.78
940.525	4.42
940.955	3.82
941.384	2.12
941.814	0.42
942.243	-0.28
942.672	2.82
943.102	-1.58
943.531	3.12
943.96	5.72
944.39	2.22
944.819	2.92
945.248	2.12
945.677	7.22
946.106	6.02
946.535	2.32
946.964	1.22
947.393	5.82
947.822	3.02
948.251	3.02
948.68	2.62
949.109	9.12
949.538	3.82
949.967	4.22
950.396	6.02
950.825	-1.58
951.254	0.82
951.682	-3.48
952.111	4.52
952.54	8.52
952.969	-7.48
953.397	-6.38
953.826	-7.78
954.254	-4.58
954.683	0.02
955.112	-0.18
955.54	-0.68
955.969	4.92
956.397	-0.08
956.826	-5.28
957.254	2.22
957.682	0.52
958.111	3.92
958.539	1.52
958.967	-0.58
959.396	5.92
959.824	3.62
960.252	6.52
960.68	-2.08
961.109	2.42
961.537	0.72
961.965	2.12
962.393	-2.38
962.821	-5.18
963.249	5.02
963.677	-0.58
964.105	8.42
964.533	40.72
964.961	36.82
965.389	24.52
965.817	9.52
966.245	-0.38
966.672	-1.68
967.1	-0.68
967.528	-3.58
967.956	3.42
968.383	-4.38
968.811	-1.38
969.239	-2.08
969.666	-0.08
970.094	-3.88
970.522	-4.28
970.949	0.22
971.377	-4.28
971.804	-0.98
972.232	-6.28
972.659	-0.58
973.087	1.02
973.514	-1.28
973.941	-6.38
974.369	5.32
974.796	4.02
975.223	3.42
975.651	1.32
976.078	4.02
976.505	1.72
976.932	3.22
977.359	11.12
977.786	9.42
978.214	0.72
978.641	0.12
979.068	-6.58
979.495	-7.78
979.922	2.72
980.349	-1.88
980.776	1.82
981.202	-3.68
981.629	9.02
982.056	2.12
982.483	2.72
982.91	5.72
983.337	0.22
983.763	2.02
984.19	-9.88
984.617	-2.78
985.043	-10.38
985.47	0.32
985.897	-5.88
986.323	-9.88
986.75	0.02
987.176	5.42
987.603	-0.68
988.029	-0.08
988.456	-2.88
988.882	-1.08
989.308	-8.88
989.735	-5.78
990.161	1.62
990.587	-1.18
991.014	3.02
991.44	4.22
991.866	0.22
992.292	-1.78
992.719	-2.78
993.145	3.12
993.571	-7.88
993.997	-0.38
994.423	-2.08
994.849	-7.08
995.275	-0.98
995.701	-1.48
996.127	-4.08
996.553	3.92
996.979	-1.88
997.405	0.72
997.83	-5.98
998.256	-5.28
998.682	-7.88
999.108	-4.88
999.534	-3.68
999.959	-1.08
1000.385	0.62
1000.811	3.52
1001.236	-8.18
1001.662	-5.28
1002.087	-7.88
1002.513	-1.28
1002.938	-2.98
1003.364	-3.98
1003.789	-0.68
1004.215	-1.38
1004.64	0.32
1005.066	5.22
1005.491	5.92
1005.916	-8.18
1006.342	3.42
1006.767	-11.88
1007.192	5.82
1007.617	-2.08
1008.042	-1.78
1008.468	-6.58
1008.893	0.12
1009.318	-5.58
1009.743	-1.28
1010.168	-1.88
1010.593	1.62
1011.018	-7.88
1011.443	-0.78
1011.868	-3.38
1012.293	-6.08
1012.718	-5.28
1013.143	-1.28
1013.567	-3.58
1013.992	0.12
1014.417	-12.18
1014.842	3.02
1015.267	-0.68
1015.691	-1.48
1016.116	3.22
1016.541	2.92
1016.965	4.22
1017.39	8.52
1017.814	-1.48
1018.239	-4.68
1018.663	-7.68
1019.088	-14.88
1019.512	0.02
1019.937	1.22
1020.361	-0.68
1020.785	-13.98
1021.21	2.22
1021.634	1.72
1022.058	-4.88
1022.483	4.02
1022.907	-3.98
1023.331	-4.18
1023.755	-8.98
1024.179	-1.58
1024.604	-1.88
1025.028	-5.38
1025.452	-1.18
1025.876	-0.58
1026.3	-0.58
1026.724	-11.18
1027.148	-2.98
1027.572	-4.88
1027.996	-0.68
1028.42	-5.88
1028.843	-3.38
1029.267	-6.48
1029.691	-4.28
1030.115	-9.68
1030.539	-6.08
1030.962	-4.08
1031.386	-6.78
1031.81	3.82
1032.233	0.72
1032.657	-4.48
1033.08	-0.68
1033.504	-0.58
1033.927	0.52
1034.351	-3.48
1034.774	2.32
1035.198	1.42
1035.621	-5.18
1036.045	-4.48
1036.468	3.62
1036.891	-7.18
1037.315	-4.88
1037.738	-13.38
1038.161	-2.58
1038.584	-1.88
1039.008	-5.78
1039.431	-7.48
1039.854	1.62
1040.277	-3.18
1040.7	-7.58
1041.123	4.02
1041.546	-6.38
1041.969	-5.58
1042.392	-3.78
1042.815	-1.78
1043.238	1.82
1043.661	2.02
1044.084	-5.28
1044.507	-5.18
1044.93	-10.38
1045.352	-6.28
1045.775	1.32
1046.198	-4.38
1046.621	-5.08
1047.043	1.12
1047.466	6.92
1047.889	-0.88
1048.311	-3.78
1048.734	-2.58
1049.156	2.82
1049.579	-0.98
1050.001	-5.88
1050.424	5.22
1050.846	-0.28
1051.269	-10.18
1051.691	-2.88
1052.113	-5.58
1052.536	0.92
1052.958	1.32
1053.38	-2.38
1053.802	-6.08
1054.225	5.12
1054.647	-10.68
1055.069	-5.98
1055.491	1.22
1055.913	-9.58
1056.335	-1.98
1056.757	-1.78
1057.179	-4.98
1057.601	-1.78
1058.023	-1.48
1058.445	-5.48
1058.867	-9.48
1059.289	4.22
1059.711	-2.78
1060.133	-5.08
1060.555	-1.68
1060.976	-7.08
1061.398	-4.98
1061.82	-5.38
1062.241	-3.98
1062.663	-6.58
1063.085	2.72
1063.506	-0.28
1063.928	-0.58
1064.35	0.72
1064.771	-10.38
1065.193	-6.68
1065.614	-7.38
1066.035	-0.28
1066.457	-5.78
1066.878	3.62
1067.3	-5.98
1067.721	-3.18
1068.142	-3.58
1068.564	-3.38
1068.985	0.42
1069.406	-1.88
1069.827	-2.18
1070.248	-5.08
1070.67	-8.38
1071.091	-9.28
1071.512	-4.48
1071.933	-11.08
1072.354	-12.98
1072.775	-2.58
1073.196	-6.58
1073.617	-0.18
1074.038	-5.18
1074.459	-1.38
1074.88	-4.28
1075.3	3.42
1075.721	0.12
1076.142	2.42
1076.563	-0.48
1076.983	-11.08
1077.404	-4.68
1077.825	-13.78
1078.246	-1.68
1078.666	-10.68
1079.087	2.12
1079.507	-1.98
1079.928	2.12
1080.348	1.42
1080.769	-5.18
1081.189	2.02
1081.61	-3.48
1082.03	-1.68
1082.451	-4.38
1082.871	5.62
1083.291	-5.18
1083.711	-8.18
1084.132	-5.58
1084.552	2.22
1084.972	1.82
1085.392	-7.48
1085.813	-1.98
1086.233	-7.08
1086.653	0.82
1087.073	-0.18
1087.493	-7.88
1087.913	-8.38
1088.333	-5.38
1088.753	-2.78
1089.173	-3.88
1089.593	0.22
1090.013	-3.98
1090.433	-0.58
1090.852	-8.18
1091.272	1.82
1091.692	-5.48
1092.112	-0.58
1092.531	-5.48
1092.951	-12.08
1093.371	-1.28
1093.79	-2.98
1094.21	-6.38
1094.63	-6.98
1095.049	-4.28
1095.469	1.12
1095.888	-3.08
1096.308	3.62
1096.727	5.92
1097.146	-6.48
1097.566	-3.68
1097.985	-7.48
1098.405	-6.28
1098.824	-8.08
1099.243	-5.18
1099.662	-7.48
1100.082	-8.78
1100.501	-2.38
1100.92	-4.38
1101.339	-5.08
1101.758	-0.78
