Data from 20171114-ORNL-Ar_H_NY_Subt18_08-06-57-859.txt Node
Date: Tue Nov 14 08:06:57 EST 2017
User: Ender
Spectrometer: HR+D1039
Trigger mode: 0
Integration Time (sec): 2.730000E-2
Scans to average: 10
Electric dark correction enabled: true
Nonlinearity correction enabled: false
Boxcar width: 0
XAxis mode: Wavelengths
Number of Pixels in Spectrum: 2048
>>>>>Begin Spectral Data<<<<<
187.836	-0.59
188.309	-0.59
188.782	-0.59
189.255	3.11
189.728	-1.09
190.201	2.41
190.674	-1.09
191.147	3.01
191.619	-4.49
192.092	3.21
192.565	-0.29
193.038	2.71
193.511	-0.59
193.984	0.11
194.456	2.81
194.929	-1.79
195.402	-1.79
195.874	-5.59
196.347	-5.29
196.82	-2.69
197.292	8.81
197.765	0.41
198.237	-6.69
198.71	-0.39
199.182	-5.69
199.655	1.61
200.127	0.21
200.6	2.81
201.072	-3.49
201.544	-3.39
202.017	-5.39
202.489	7.31
202.961	-6.59
203.433	-4.99
203.906	-2.09
204.378	-6.79
204.85	-2.09
205.322	-6.09
205.794	-2.79
206.266	-8.19
206.739	-5.59
207.211	-1.99
207.683	-10.69
208.155	-9.89
208.627	-7.79
209.099	-0.19
209.57	-7.99
210.042	-8.69
210.514	-6.59
210.986	-4.99
211.458	-8.99
211.93	1.11
212.402	0.11
212.873	-5.39
213.345	-12.29
213.817	-17.19
214.288	-3.69
214.76	-7.89
215.232	3.21
215.703	-4.79
216.175	-2.59
216.646	-7.89
217.118	-6.39
217.589	-4.99
218.061	-2.49
218.532	-5.89
219.004	1.21
219.475	-4.59
219.946	-4.49
220.418	-3.59
220.889	2.01
221.36	-3.29
221.832	-9.09
222.303	-6.39
222.774	-0.89
223.245	-10.09
223.717	-6.99
224.188	-5.89
224.659	-13.09
225.13	-4.29
225.601	-3.79
226.072	1.11
226.543	0.51
227.014	0.11
227.485	-1.49
227.956	-8.99
228.427	-7.19
228.898	3.71
229.369	5.91
229.839	-7.79
230.31	-7.49
230.781	-0.69
231.252	-0.69
231.722	-11.49
232.193	0.31
232.664	-1.49
233.135	-6.79
233.605	-4.09
234.076	-4.09
234.546	4.31
235.017	3.51
235.487	3.21
235.958	-4.99
236.428	-11.29
236.899	-5.19
237.369	-2.39
237.84	-9.59
238.31	-0.79
238.78	-5.09
239.251	-6.29
239.721	-1.09
240.191	-3.59
240.662	-5.89
241.132	-1.19
241.602	-3.69
242.072	-5.89
242.542	5.11
243.013	-4.79
243.483	-0.39
243.953	2.11
244.423	-5.29
244.893	-4.69
245.363	-0.19
245.833	-4.19
246.303	-10.19
246.773	0.91
247.243	-3.79
247.712	1.41
248.182	4.01
248.652	4.21
249.122	-8.09
249.592	-3.79
250.061	6.81
250.531	6.41
251.001	-3.69
251.471	2.91
251.94	3.81
252.41	0.81
252.879	-8.79
253.349	4.91
253.818	-0.89
254.288	-2.09
254.757	-3.49
255.227	-0.09
255.696	2.71
256.166	7.41
256.635	0.21
257.105	0.61
257.574	1.81
258.043	-0.19
258.513	-0.89
258.982	0.91
259.451	-2.99
259.92	-2.09
260.389	3.71
260.859	14.21
261.328	3.11
261.797	2.11
262.266	-3.39
262.735	4.21
263.204	-2.19
263.673	-3.29
264.142	0.91
264.611	-7.69
265.08	-3.99
265.549	-3.99
266.018	1.71
266.487	-2.99
266.955	0.11
267.424	-3.79
267.893	3.71
268.362	-5.59
268.83	1.31
269.299	6.41
269.768	2.21
270.236	-0.69
270.705	-0.99
271.174	3.41
271.642	4.21
272.111	3.81
272.579	3.11
273.048	1.91
273.516	5.51
273.985	1.71
274.453	8.01
274.922	8.81
275.39	7.11
275.858	-1.79
276.327	5.31
276.795	9.61
277.263	7.81
277.731	9.71
278.2	9.71
278.668	0.31
279.136	7.51
279.604	3.81
280.072	10.71
280.54	5.81
281.008	4.21
281.477	10.61
281.945	5.91
282.413	12.91
282.881	14.51
283.348	6.21
283.816	12.51
284.284	11.31
284.752	14.21
285.22	6.51
285.688	12.01
286.156	11.81
286.623	17.51
287.091	10.51
287.559	6.71
288.026	12.21
288.494	11.11
288.962	3.61
289.429	4.81
289.897	13.51
290.364	15.21
290.832	12.21
291.3	7.61
291.767	9.01
292.234	11.61
292.702	10.51
293.169	10.91
293.637	17.91
294.104	20.81
294.571	4.01
295.039	5.21
295.506	5.31
295.973	14.41
296.44	7.71
296.908	16.51
297.375	11.01
297.842	12.31
298.309	10.21
298.776	12.01
299.243	16.71
299.71	11.61
300.177	12.01
300.644	17.51
301.111	12.71
301.578	15.91
302.045	8.51
302.512	19.51
302.979	16.91
303.446	21.31
303.913	13.01
304.379	13.91
304.846	23.11
305.313	18.41
305.78	20.11
306.246	18.21
306.713	19.51
307.18	14.41
307.646	22.01
308.113	22.21
308.579	20.81
309.046	19.71
309.512	19.71
309.979	12.81
310.445	15.61
310.912	22.01
311.378	23.41
311.845	25.21
312.311	29.61
312.777	27.11
313.244	24.41
313.71	32.61
314.176	23.01
314.642	22.81
315.109	26.91
315.575	23.41
316.041	33.11
316.507	26.61
316.973	30.51
317.439	23.01
317.905	25.91
318.371	35.11
318.837	25.01
319.303	33.11
319.769	30.01
320.235	31.91
320.701	30.01
321.167	31.21
321.633	25.21
322.099	29.21
322.564	35.81
323.03	27.81
323.496	31.21
323.962	34.91
324.427	28.51
324.893	37.11
325.359	37.81
325.824	37.51
326.29	33.01
326.755	33.61
327.221	30.11
327.686	38.61
328.152	35.81
328.617	37.11
329.083	42.11
329.548	39.41
330.014	45.81
330.479	29.91
330.944	31.61
331.41	32.51
331.875	43.01
332.34	35.81
332.805	42.11
333.271	39.81
333.736	36.81
334.201	44.11
334.666	43.91
335.131	43.51
335.596	49.11
336.061	40.21
336.526	42.91
336.991	47.41
337.456	45.91
337.921	40.41
338.386	34.81
338.851	39.01
339.316	37.31
339.781	41.81
340.246	47.81
340.711	41.41
341.175	47.61
341.64	45.41
342.105	50.31
342.569	49.41
343.034	51.31
343.499	46.41
343.963	50.21
344.428	60.21
344.893	52.41
345.357	51.11
345.822	54.01
346.286	58.31
346.751	70.41
347.215	64.31
347.679	60.71
348.144	86.01
348.608	72.51
349.073	59.51
349.537	63.81
350.001	71.21
350.465	77.51
350.93	70.31
351.394	72.11
351.858	57.21
352.322	75.11
352.786	73.91
353.25	87.81
353.715	98.31
354.179	81.91
354.643	104.11
355.107	110.51
355.571	90.81
356.035	84.51
356.498	91.11
356.962	102.31
357.426	107.01
357.89	103.71
358.354	73.51
358.818	75.41
359.281	67.81
359.745	71.21
360.209	68.41
360.673	62.81
361.136	72.71
361.6	80.51
362.064	83.11
362.527	76.81
362.991	82.71
363.454	82.21
363.918	74.01
364.381	67.21
364.845	77.11
365.308	73.91
365.772	75.11
366.235	84.81
366.698	77.81
367.162	76.11
367.625	75.51
368.088	77.61
368.552	84.01
369.015	77.61
369.478	93.01
369.941	84.71
370.404	77.01
370.867	87.91
371.331	92.61
371.794	100.91
372.257	97.01
372.72	95.11
373.183	93.21
373.646	85.51
374.109	87.91
374.572	97.31
375.035	90.91
375.497	97.81
375.96	95.81
376.423	97.91
376.886	99.71
377.349	103.71
377.811	94.01
378.274	92.11
378.737	96.51
379.199	103.11
379.662	104.61
380.125	106.21
380.587	103.41
381.05	97.11
381.512	108.61
381.975	115.81
382.437	109.81
382.9	104.01
383.362	120.11
383.825	127.41
384.287	116.11
384.75	106.71
385.212	122.51
385.674	127.31
386.136	122.21
386.599	114.61
387.061	122.21
387.523	110.81
387.985	118.61
388.447	130.61
388.91	116.41
389.372	113.61
389.834	127.61
390.296	119.61
390.758	124.31
391.22	129.41
391.682	142.91
392.144	147.01
392.606	140.11
393.068	129.81
393.529	150.41
393.991	142.51
394.453	125.41
394.915	124.51
395.377	124.51
395.838	130.21
396.3	129.11
396.762	129.81
397.224	128.91
397.685	129.01
398.147	129.41
398.608	133.31
399.07	130.91
399.531	132.51
399.993	141.01
400.454	153.41
400.916	148.71
401.377	137.81
401.839	146.41
402.3	145.71
402.762	156.21
403.223	173.51
403.684	166.81
404.145	158.81
404.607	162.11
405.068	158.41
405.529	161.41
405.99	176.81
406.451	168.41
406.913	172.61
407.374	160.71
407.835	164.01
408.296	171.21
408.757	171.21
409.218	182.11
409.679	179.91
410.14	169.31
410.601	171.01
411.062	181.41
411.522	177.51
411.983	174.41
412.444	168.41
412.905	184.91
413.366	179.11
413.826	194.81
414.287	222.61
414.748	266.11
415.208	251.91
415.669	220.61
416.13	212.71
416.59	202.71
417.051	214.91
417.511	219.61
417.972	248.31
418.432	260.71
418.893	300.11
419.353	256.21
419.814	201.91
420.274	186.21
420.734	178.61
421.195	193.81
421.655	191.81
422.115	193.81
422.576	199.51
423.036	201.41
423.496	213.51
423.956	209.61
424.416	230.81
424.876	267.81
425.336	273.11
425.797	271.31
426.257	255.71
426.717	231.31
427.177	232.51
427.637	221.91
428.097	228.41
428.556	238.81
429.016	261.61
429.476	258.91
429.936	266.61
430.396	271.81
430.856	283.91
431.315	313.71
431.775	332.71
432.235	367.71
432.694	348.31
433.154	343.91
433.614	373.51
434.073	329.81
434.533	281.01
434.993	263.11
435.452	282.71
435.912	289.51
436.371	277.01
436.83	286.41
437.29	260.71
437.749	244.81
438.209	249.01
438.668	277.21
439.127	291.01
439.587	259.51
440.046	247.51
440.505	272.11
440.964	275.31
441.424	315.31
441.883	316.71
442.342	264.91
442.801	233.71
443.26	226.41
443.719	229.81
444.178	226.01
444.637	219.21
445.096	236.21
445.555	231.11
446.014	226.31
446.473	229.31
446.932	240.31
447.391	229.41
447.849	238.41
448.308	224.21
448.767	224.01
449.226	246.91
449.685	248.11
450.143	254.31
450.602	244.81
451.061	243.11
451.519	240.21
451.978	238.71
452.436	239.11
452.895	255.71
453.353	261.91
453.812	245.61
454.27	248.91
454.729	249.11
455.187	252.51
455.646	251.51
456.104	257.91
456.562	273.01
457.021	276.31
457.479	260.01
457.937	278.01
458.395	275.01
458.854	258.91
459.312	264.41
459.77	286.61
460.228	258.51
460.686	249.91
461.144	258.31
461.602	253.91
462.06	252.31
462.518	268.11
462.976	268.81
463.434	269.31
463.892	278.21
464.35	285.81
464.808	302.91
465.266	279.21
465.724	282.81
466.181	283.11
466.639	280.81
467.097	300.21
467.555	321.11
468.012	315.01
468.47	324.51
468.928	342.31
469.385	362.21
469.843	362.91
470.3	362.41
470.758	381.61
471.215	399.11
471.673	417.71
472.13	414.01
472.588	430.61
473.045	381.41
473.503	391.41
473.96	409.91
474.417	416.61
474.875	449.51
475.332	492.01
475.789	471.71
476.246	483.31
476.704	506.41
477.161	523.31
477.618	534.31
478.075	566.41
478.532	624.91
478.989	705.31
479.446	806.71
479.903	769.51
480.36	809.71
480.817	854.01
481.274	945.81
481.731	1035.41
482.188	1112.61
482.645	1224.01
483.102	1325.61
483.558	1446.01
484.015	1478.81
484.472	1457.81
484.929	1408.21
485.385	1380.41
485.842	1338.31
486.299	1305.31
486.755	1262.41
487.212	1063.81
487.668	909.91
488.125	850.71
488.582	788.51
489.038	760.61
489.494	721.61
489.951	712.71
490.407	677.91
490.864	666.71
491.32	659.11
491.776	669.51
492.233	676.31
492.689	640.21
493.145	626.11
493.602	618.91
494.058	638.31
494.514	639.41
494.97	653.31
495.426	669.41
495.882	651.31
496.338	640.81
496.794	643.81
497.251	640.81
497.707	653.71
498.163	657.21
498.618	670.51
499.074	660.71
499.53	686.21
499.986	692.01
500.442	666.21
500.898	650.71
501.354	640.31
501.809	651.01
502.265	647.71
502.721	658.21
503.177	665.31
503.632	657.51
504.088	673.71
504.543	693.11
504.999	715.61
505.455	687.21
505.91	667.01
506.366	666.01
506.821	656.51
507.277	667.71
507.732	665.51
508.187	667.31
508.643	673.91
509.098	674.01
509.553	685.51
510.009	703.61
510.464	705.81
510.919	731.91
511.375	727.51
511.83	748.01
512.285	765.51
512.74	795.11
513.195	810.71
513.65	800.91
514.105	804.41
514.56	804.71
515.015	820.41
515.47	835.81
515.925	823.41
516.38	819.91
516.835	837.11
517.29	813.21
517.745	810.21
518.2	796.21
518.655	791.31
519.109	789.11
519.564	778.41
520.019	763.81
520.474	763.11
520.928	754.21
521.383	753.11
521.838	746.41
522.292	747.71
522.747	746.21
523.201	738.41
523.656	731.91
524.11	717.11
524.565	729.31
525.019	719.61
525.474	728.21
525.928	732.81
526.382	731.11
526.837	738.61
527.291	739.11
527.745	733.81
528.2	727.71
528.654	724.41
529.108	720.01
529.562	724.01
530.016	720.71
530.47	721.61
530.925	727.41
531.379	721.61
531.833	735.71
532.287	734.81
532.741	738.31
533.195	742.91
533.649	746.71
534.103	753.31
534.556	743.31
535.01	751.01
535.464	732.91
535.918	752.81
536.372	759.31
536.826	750.41
537.279	747.01
537.733	737.61
538.187	757.71
538.64	746.61
539.094	757.41
539.548	757.11
540.001	754.11
540.455	755.51
540.908	767.31
541.362	777.31
541.815	780.01
542.269	794.21
542.722	799.71
543.175	791.11
543.629	801.31
544.082	838.41
544.536	826.81
544.989	825.71
545.442	829.01
545.895	822.81
546.349	847.81
546.802	831.61
547.255	846.41
547.708	849.91
548.161	874.21
548.614	861.81
549.067	869.71
549.52	852.11
549.973	855.01
550.426	846.61
550.879	836.01
551.332	849.21
551.785	855.11
552.238	854.01
552.691	850.11
553.144	876.41
553.596	885.11
554.049	902.41
554.502	933.51
554.955	948.41
555.407	959.51
555.86	953.31
556.313	948.11
556.765	937.81
557.218	935.91
557.67	924.11
558.123	915.31
558.576	916.11
559.028	926.71
559.48	923.81
559.933	927.11
560.385	895.51
560.838	855.81
561.29	830.01
561.742	828.71
562.195	805.81
562.647	795.91
563.099	813.41
563.551	816.91
564.004	815.81
564.456	808.11
564.908	801.21
565.36	775.91
565.812	771.41
566.264	759.31
566.716	747.51
567.168	742.51
567.62	741.51
568.072	733.41
568.524	732.81
568.976	726.91
569.428	712.61
569.88	704.61
570.332	723.31
570.784	719.21
571.235	722.71
571.687	724.01
572.139	740.21
572.59	741.21
573.042	746.61
573.494	756.71
573.945	737.21
574.397	731.01
574.849	725.11
575.3	729.21
575.752	715.11
576.203	716.81
576.655	722.41
577.106	715.21
577.557	693.71
578.009	711.71
578.46	698.21
578.912	696.51
579.363	707.21
579.814	699.41
580.265	699.51
580.717	697.21
581.168	700.61
581.619	709.91
582.07	716.91
582.521	712.21
582.972	704.61
583.423	718.21
583.875	724.41
584.326	714.41
584.777	737.11
585.227	743.41
585.678	759.51
586.129	774.01
586.58	810.51
587.031	815.51
587.482	850.41
587.933	891.51
588.384	858.41
588.834	819.91
589.285	803.41
589.736	807.71
590.186	801.91
590.637	802.41
591.088	776.31
591.538	770.41
591.989	770.71
592.439	760.71
592.89	745.11
593.34	736.51
593.791	733.71
594.241	736.11
594.692	737.11
595.142	726.81
595.593	729.81
596.043	739.61
596.493	739.11
596.943	723.71
597.394	754.81
597.844	742.71
598.294	770.81
598.744	791.51
599.195	814.11
599.645	852.91
600.095	898.41
600.545	961.41
600.995	1003.41
601.445	1064.11
601.895	1137.01
602.345	1184.31
602.795	1162.01
603.245	1117.71
603.695	1051.91
604.145	1005.71
604.594	949.51
605.044	895.91
605.494	843.71
605.944	794.81
606.393	768.51
606.843	756.91
607.293	758.11
607.743	762.61
608.192	768.51
608.642	782.91
609.091	790.61
609.541	786.41
609.99	793.81
610.44	777.51
610.889	743.71
611.339	724.51
611.788	713.51
612.238	712.11
612.687	729.81
613.136	714.71
613.586	734.61
614.035	727.61
614.484	736.81
614.933	733.01
615.383	735.51
615.832	736.51
616.281	729.41
616.73	692.01
617.179	672.91
617.628	668.71
618.077	659.01
618.526	640.91
618.975	641.71
619.424	645.71
619.873	644.91
620.322	637.41
620.771	627.61
621.22	624.01
621.669	619.21
622.118	611.41
622.567	605.31
623.015	589.61
623.464	594.21
623.913	583.01
624.361	570.91
624.81	575.81
625.259	576.11
625.707	577.41
626.156	579.31
626.604	597.41
627.053	581.41
627.501	579.91
627.95	588.61
628.398	596.91
628.847	590.81
629.295	594.31
629.744	600.41
630.192	583.21
630.64	587.51
631.089	562.81
631.537	556.41
631.985	548.01
632.433	553.01
632.881	544.41
633.33	550.01
633.778	548.11
634.226	534.41
634.674	558.01
635.122	561.21
635.57	567.81
636.018	582.71
636.466	575.71
636.914	584.71
637.362	594.21
637.81	596.01
638.258	599.71
638.705	602.81
639.153	633.21
639.601	634.31
640.049	660.71
640.497	689.91
640.944	715.71
641.392	661.61
641.84	636.91
642.287	607.71
642.735	580.91
643.182	584.81
643.63	581.71
644.078	586.01
644.525	589.41
644.973	600.71
645.42	608.61
645.867	635.71
646.315	644.21
646.762	672.01
647.21	698.71
647.657	721.51
648.104	755.61
648.551	780.21
648.999	835.31
649.446	902.51
649.893	988.31
650.34	1131.91
650.787	1341.71
651.234	1651.81
651.682	2114.91
652.129	2888.01
652.576	4083.31
653.023	5950.91
653.47	8100.61
653.917	10086.71
654.363	11575.71
654.81	12780.31
655.257	12117.71
655.704	8069.51
656.151	4847.91
656.598	3189.41
657.044	2273.61
657.491	1769.41
657.938	1428.51
658.385	1197.61
658.831	1050.21
659.278	949.11
659.724	851.71
660.171	792.01
660.618	725.21
661.064	692.21
661.511	680.01
661.957	673.01
662.404	656.61
662.85	669.01
663.296	635.51
663.743	572.91
664.189	547.01
664.635	545.21
665.082	541.31
665.528	535.81
665.974	537.11
666.42	519.51
666.867	525.91
667.313	504.41
667.759	485.31
668.205	468.71
668.651	468.71
669.097	458.81
669.543	461.01
669.989	458.11
670.435	463.31
670.881	456.71
671.327	461.61
671.773	490.11
672.219	514.11
672.665	574.31
673.11	609.41
673.556	653.11
674.002	698.71
674.448	678.81
674.893	571.51
675.339	490.91
675.785	461.41
676.23	433.41
676.676	403.01
677.122	404.31
677.567	390.01
678.013	390.51
678.458	367.81
678.904	369.81
679.349	358.61
679.794	367.91
680.24	369.31
680.685	365.41
681.131	355.91
681.576	361.91
682.021	374.91
682.466	355.61
682.912	358.01
683.357	367.11
683.802	397.91
684.247	424.71
684.692	468.11
685.137	509.51
685.583	556.01
686.028	590.81
686.473	544.61
686.918	472.21
687.363	430.21
687.807	402.81
688.252	381.01
688.697	373.81
689.142	350.91
689.587	342.61
690.032	336.01
690.477	357.91
690.921	364.71
691.366	401.11
691.811	422.11
692.255	450.61
692.7	479.71
693.145	534.31
693.589	735.81
694.034	1189.21
694.478	1630.51
694.923	1809.01
695.367	2384.91
695.812	1258.01
696.256	520.51
696.701	391.11
697.145	352.31
697.59	340.41
698.034	331.71
698.478	342.41
698.922	331.11
699.367	336.31
699.811	341.61
700.255	368.91
700.699	394.41
701.143	440.91
701.588	491.61
702.032	538.91
702.476	533.61
702.92	506.11
703.364	516.31
703.808	672.71
704.252	1083.31
704.696	1526.11
705.14	1744.21
705.584	2218.01
706.027	1110.91
706.471	547.01
706.915	407.81
707.359	368.61
707.803	333.01
708.246	321.91
708.69	321.51
709.134	331.91
709.577	325.31
710.021	333.11
710.465	315.01
710.908	309.71
711.352	300.71
711.795	315.61
712.239	360.31
712.682	397.71
713.126	429.51
713.569	473.81
714.012	373.81
714.456	313.61
714.899	303.51
715.342	280.61
715.786	275.31
716.229	273.81
716.672	266.41
717.115	255.31
717.558	255.21
718.002	266.71
718.445	274.91
718.888	299.61
719.331	302.21
719.774	319.81
720.217	314.01
720.66	296.41
721.103	276.91
721.546	267.31
721.989	254.91
722.432	240.61
722.874	249.61
723.317	234.51
723.76	247.21
724.203	265.11
724.645	338.11
725.088	466.21
725.531	597.51
725.974	672.21
726.416	571.01
726.859	310.41
727.301	253.21
727.744	242.81
728.187	244.81
728.629	252.41
729.071	251.71
729.514	266.31
729.956	279.41
730.399	295.81
730.841	299.31
731.283	294.71
731.726	279.81
732.168	264.61
732.61	277.41
733.053	301.21
733.495	333.71
733.937	361.41
734.379	409.81
734.821	461.01
735.263	576.41
735.705	880.81
736.148	1654.31
736.59	2719.51
737.032	3201.31
737.474	2605.91
737.916	851.01
738.357	452.91
738.799	343.01
739.241	312.61
739.683	295.91
740.125	302.31
740.567	317.11
741.008	325.91
741.45	327.71
741.892	324.91
742.334	371.31
742.775	384.31
743.217	363.61
743.658	280.91
744.1	264.11
744.542	273.61
744.983	335.11
745.425	366.71
745.866	361.61
746.307	298.81
746.749	292.11
747.19	334.61
747.632	482.21
748.073	934.51
748.514	1968.51
748.956	3006.01
749.397	3779.61
749.838	3140.91
750.279	3101.01
750.72	1580.11
751.162	580.71
751.603	341.51
752.044	262.01
752.485	227.31
752.926	211.81
753.367	212.41
753.808	205.81
754.249	198.71
754.69	196.51
755.131	191.11
755.572	186.31
756.013	184.81
756.453	189.51
756.894	198.31
757.335	200.51
757.776	207.81
758.216	206.01
758.657	205.41
759.098	213.41
759.538	234.31
759.979	281.01
760.42	400.41
760.86	755.21
761.301	1946.91
761.741	4669.31
762.182	6747.01
762.622	4767.11
763.063	1377.81
763.503	563.51
763.943	341.91
764.384	282.11
764.824	258.11
765.264	248.11
765.705	215.01
766.145	195.81
766.585	182.11
767.025	175.11
767.465	169.31
767.906	187.01
768.346	205.51
768.786	213.61
769.226	224.41
769.666	320.81
770.106	645.31
770.546	1628.31
770.986	2790.51
771.426	2485.31
771.866	835.51
772.306	345.71
772.745	209.71
773.185	172.01
773.625	160.21
774.065	151.21
774.505	170.21
774.944	216.51
775.384	368.21
775.824	621.71
776.263	600.71
776.703	287.71
777.142	165.61
777.582	139.71
778.021	129.01
778.461	130.91
778.9	125.41
779.34	118.91
779.779	114.31
780.219	115.11
780.658	110.71
781.097	112.01
781.537	110.31
781.976	117.91
782.415	111.41
782.855	109.41
783.294	105.31
783.733	105.71
784.172	110.31
784.611	106.11
785.05	114.51
785.489	112.31
785.928	122.01
786.367	127.51
786.806	125.81
787.245	138.11
787.684	144.61
788.123	156.61
788.562	136.21
789.001	135.91
789.44	122.11
789.879	121.81
790.317	129.61
790.756	138.71
791.195	133.01
791.634	155.21
792.072	208.11
792.511	389.11
792.95	1054.31
793.388	2213.11
793.827	1993.01
794.265	702.31
794.704	291.61
795.142	192.71
795.581	161.71
796.019	141.61
796.458	135.81
796.896	132.61
797.334	134.41
797.773	160.31
798.211	230.21
798.649	458.11
799.087	1075.11
799.526	1668.31
799.964	2109.51
800.402	2113.11
800.84	796.31
801.278	317.51
801.716	197.31
802.154	158.31
802.592	153.11
803.03	141.41
803.468	135.61
803.906	148.61
804.344	154.21
804.782	142.41
805.22	143.31
805.658	133.41
806.096	151.01
806.533	160.51
806.971	185.71
807.409	231.51
807.847	338.01
808.284	707.01
808.722	1978.11
809.16	3470.41
809.597	3315.81
810.035	5715.71
810.472	6070.71
810.91	2198.01
811.347	842.81
811.785	436.81
812.222	270.51
812.66	210.31
813.097	174.91
813.535	151.41
813.972	139.31
814.409	129.01
814.846	119.81
815.284	110.31
815.721	107.31
816.158	111.81
816.595	114.81
817.032	155.61
817.47	187.31
817.907	138.01
818.344	104.51
818.781	100.61
819.218	99.71
819.655	126.31
820.092	197.51
820.529	224.11
820.966	176.81
821.403	129.51
821.839	105.71
822.276	106.01
822.713	125.51
823.15	145.31
823.587	128.21
824.023	158.81
824.46	323.91
824.897	946.41
825.333	1410.01
825.77	614.61
826.206	237.11
826.643	143.91
827.08	108.71
827.516	88.01
827.953	76.11
828.389	83.91
828.825	74.21
829.262	75.91
829.698	63.21
830.135	70.81
830.571	64.11
831.007	69.21
831.443	72.11
831.88	66.71
832.316	67.51
832.752	60.41
833.188	65.21
833.624	69.51
834.06	69.41
834.497	71.51
834.933	72.11
835.369	83.61
835.805	74.21
836.241	78.01
836.677	79.91
837.112	97.21
837.548	110.01
837.984	142.11
838.42	208.61
838.856	527.51
839.292	1605.41
839.727	2412.91
840.163	1133.11
840.599	972.41
841.034	2140.01
841.47	2229.61
841.906	816.81
842.341	351.71
842.777	214.81
843.212	208.61
843.648	199.11
844.083	114.71
844.519	89.11
844.954	69.71
845.39	57.61
845.825	57.81
846.261	63.21
846.696	56.61
847.131	54.91
847.566	60.41
848.002	54.91
848.437	54.91
848.872	61.51
849.307	64.01
849.742	88.81
850.177	187.61
850.613	578.71
851.048	919.01
851.483	395.11
851.918	165.11
852.353	84.01
852.788	60.41
853.223	47.81
853.657	57.41
854.092	40.81
854.527	47.01
854.962	38.11
855.397	45.51
855.832	48.61
856.266	41.91
856.701	45.51
857.136	33.41
857.57	45.61
858.005	45.31
858.44	62.01
858.874	45.61
859.309	57.71
859.743	45.71
860.178	51.81
860.612	41.11
861.047	52.71
861.481	70.41
861.915	75.91
862.35	48.11
862.784	37.91
863.218	44.61
863.653	40.11
864.087	45.71
864.521	52.71
864.955	75.01
865.39	161.81
865.824	180.61
866.258	123.71
866.692	181.61
867.126	194.01
867.56	108.61
867.994	63.31
868.428	42.21
868.862	46.11
869.296	60.21
869.73	63.31
870.164	56.41
870.598	49.31
871.031	40.51
871.465	32.41
871.899	31.01
872.333	23.31
872.766	25.91
873.2	25.81
873.634	32.71
874.067	23.21
874.501	26.71
874.935	28.31
875.368	33.61
875.802	26.81
876.235	30.11
876.669	26.21
877.102	24.21
877.535	24.21
877.969	25.51
878.402	26.71
878.836	24.91
879.269	26.21
879.702	26.01
880.135	23.41
880.569	19.21
881.002	29.81
881.435	20.01
881.868	17.61
882.301	21.91
882.734	17.11
883.167	28.91
883.601	20.71
884.034	22.41
884.467	15.91
884.899	23.21
885.332	18.31
885.765	20.11
886.198	22.41
886.631	20.71
887.064	20.61
887.497	22.81
887.929	22.11
888.362	14.61
888.795	15.71
889.228	16.91
889.66	26.61
890.093	17.81
890.526	15.81
890.958	14.11
891.391	17.81
891.823	20.81
892.256	11.01
892.688	14.01
893.121	13.11
893.553	16.01
893.985	22.21
894.418	19.11
894.85	13.11
895.282	15.51
895.715	9.81
896.147	18.01
896.579	20.01
897.011	16.61
897.444	21.41
897.876	12.31
898.308	16.61
898.74	19.71
899.172	13.01
899.604	27.91
900.036	19.21
900.468	15.11
900.9	14.31
901.332	11.71
901.764	9.71
902.196	22.01
902.628	16.11
903.06	14.61
903.491	27.91
903.923	22.41
904.355	22.71
904.787	27.91
905.218	30.81
905.65	23.31
906.082	17.51
906.513	10.81
906.945	19.41
907.376	12.31
907.808	16.71
908.239	22.31
908.671	20.51
909.102	19.11
909.534	22.81
909.965	49.91
910.397	93.21
910.828	327.31
911.259	491.31
911.691	229.31
912.122	108.51
912.553	56.81
912.984	36.51
913.415	34.61
913.847	25.21
914.278	17.51
914.709	20.01
915.14	20.01
915.571	22.11
916.002	14.31
916.433	18.61
916.864	13.01
917.295	7.71
917.726	19.71
918.157	19.11
918.587	28.21
919.018	23.21
919.449	21.71
919.88	23.71
920.311	33.01
920.741	49.41
921.172	168.21
921.603	154.01
922.033	72.31
922.464	44.91
922.895	18.11
923.325	26.31
923.756	19.31
924.186	14.31
924.617	21.31
925.047	21.61
925.478	30.61
925.908	18.11
926.338	11.11
926.769	13.81
927.199	20.01
927.629	8.31
928.06	15.21
928.49	21.61
928.92	11.31
929.35	15.61
929.78	12.01
930.21	10.71
930.641	4.71
931.071	13.11
931.501	6.61
931.931	7.61
932.361	12.31
932.791	0.51
933.221	0.81
933.651	0.21
934.08	17.91
934.51	26.01
934.94	11.31
935.37	9.51
935.8	7.51
936.229	6.81
936.659	7.91
937.089	0.81
937.519	12.21
937.948	25.31
938.378	16.21
938.807	8.51
939.237	7.61
939.666	4.41
940.096	0.61
940.525	-0.89
940.955	-0.09
941.384	10.01
941.814	0.31
942.243	-7.49
942.672	2.31
943.102	-0.39
943.531	2.11
943.96	3.91
944.39	3.11
944.819	3.81
945.248	5.11
945.677	1.41
946.106	1.01
946.535	6.21
946.964	0.51
947.393	5.61
947.822	-2.39
948.251	-1.49
948.68	-0.19
949.109	5.91
949.538	7.21
949.967	-0.69
950.396	0.01
950.825	-2.29
951.254	-4.19
951.682	-12.09
952.111	3.11
952.54	4.81
952.969	-4.39
953.397	-6.49
953.826	-1.09
954.254	-7.59
954.683	1.51
955.112	-0.59
955.54	4.11
955.969	5.81
956.397	1.11
956.826	0.51
957.254	4.11
957.682	-0.29
958.111	7.51
958.539	0.01
958.967	4.11
959.396	-3.09
959.824	2.31
960.252	1.11
960.68	-0.79
961.109	-2.59
961.537	-3.09
961.965	-2.59
962.393	-4.59
962.821	-6.19
963.249	-0.29
963.677	5.61
964.105	4.91
964.533	48.01
964.961	43.81
965.389	18.51
965.817	7.21
966.245	3.61
966.672	1.81
967.1	-8.89
967.528	-0.09
967.956	2.91
968.383	0.11
968.811	-3.49
969.239	-4.39
969.666	-2.39
970.094	3.61
970.522	1.01
970.949	-1.19
971.377	-3.69
971.804	-4.99
972.232	-1.79
972.659	0.51
973.087	-1.69
973.514	-3.39
973.941	-5.29
974.369	1.61
974.796	-4.09
975.223	-0.89
975.651	1.51
976.078	-0.69
976.505	1.51
976.932	-0.49
977.359	14.11
977.786	9.91
978.214	3.11
978.641	-1.89
979.068	-5.69
979.495	2.21
979.922	3.01
980.349	-9.89
980.776	1.51
981.202	2.01
981.629	3.01
982.056	4.11
982.483	-5.29
982.91	2.91
983.337	-3.59
983.763	5.41
984.19	-5.69
984.617	-5.49
985.043	-0.59
985.47	-2.39
985.897	-1.59
986.323	-4.89
986.75	7.81
987.176	-1.49
987.603	4.01
988.029	-1.49
988.456	-2.99
988.882	4.71
989.308	0.31
989.735	-4.09
990.161	1.91
990.587	-10.39
991.014	-3.49
991.44	3.11
991.866	3.81
992.292	-2.69
992.719	-4.59
993.145	4.51
993.571	-10.59
993.997	-1.39
994.423	2.31
994.849	-5.19
995.275	5.41
995.701	0.61
996.127	-1.59
996.553	-1.29
996.979	-4.79
997.405	-6.99
997.83	-6.29
998.256	-6.49
998.682	-3.19
999.108	-8.59
999.534	0.01
999.959	-3.39
1000.385	1.31
1000.811	-1.49
1001.236	-8.69
1001.662	-9.89
1002.087	-6.39
1002.513	-0.19
1002.938	0.21
1003.364	-0.89
1003.789	3.11
1004.215	4.71
1004.64	1.41
1005.066	4.81
1005.491	2.51
1005.916	4.41
1006.342	-0.79
1006.767	-9.49
1007.192	3.81
1007.617	-7.19
1008.042	-1.79
1008.468	-4.29
1008.893	1.21
1009.318	-2.29
1009.743	-7.29
1010.168	2.41
1010.593	6.31
1011.018	-12.29
1011.443	-3.19
1011.868	2.41
1012.293	-5.79
1012.718	-7.69
1013.143	-6.39
1013.567	4.61
1013.992	1.11
1014.417	-10.49
1014.842	2.51
1015.267	-9.49
1015.691	-4.39
1016.116	3.81
1016.541	-0.59
1016.965	0.71
1017.39	3.01
1017.814	3.91
1018.239	-5.89
1018.663	-1.59
1019.088	-8.99
1019.512	-1.09
1019.937	7.21
1020.361	-1.99
1020.785	-11.19
1021.21	-2.69
1021.634	-3.09
1022.058	-3.99
1022.483	7.01
1022.907	-5.29
1023.331	-3.29
1023.755	0.21
1024.179	-0.29
1024.604	-11.19
1025.028	-4.89
1025.452	-1.39
1025.876	-1.29
1026.3	1.71
1026.724	-12.89
1027.148	-3.79
1027.572	-8.29
1027.996	1.21
1028.42	-5.09
1028.843	-3.49
1029.267	-7.49
1029.691	-2.99
1030.115	-9.79
1030.539	-10.09
1030.962	0.81
1031.386	-5.89
1031.81	2.31
1032.233	1.11
1032.657	2.51
1033.08	-3.39
1033.504	-2.39
1033.927	-7.19
1034.351	-5.99
1034.774	-5.09
1035.198	-2.19
1035.621	-4.19
1036.045	-7.69
1036.468	-2.79
1036.891	-3.79
1037.315	-8.39
1037.738	-11.39
1038.161	-0.69
1038.584	-8.79
1039.008	-6.09
1039.431	-7.39
1039.854	-3.99
1040.277	-9.39
1040.7	-9.29
1041.123	-3.19
1041.546	-6.89
1041.969	-2.99
1042.392	-4.39
1042.815	2.11
1043.238	2.41
1043.661	0.71
1044.084	-5.49
1044.507	-2.99
1044.93	-1.29
1045.352	-5.99
1045.775	4.51
1046.198	-4.49
1046.621	-1.59
1047.043	0.71
1047.466	4.31
1047.889	-10.59
1048.311	-6.19
1048.734	0.31
1049.156	-5.29
1049.579	-5.59
1050.001	-8.29
1050.424	2.61
1050.846	-1.19
1051.269	-4.99
1051.691	-4.09
1052.113	-4.59
1052.536	-2.99
1052.958	-1.49
1053.38	-8.19
1053.802	-13.09
1054.225	-6.09
1054.647	-8.79
1055.069	-6.89
1055.491	-0.89
1055.913	-5.79
1056.335	-2.79
1056.757	-5.89
1057.179	-4.19
1057.601	-5.79
1058.023	-2.59
1058.445	-1.69
1058.867	-5.09
1059.289	-6.99
1059.711	-10.19
1060.133	1.91
1060.555	-4.99
1060.976	-6.89
1061.398	-5.89
1061.82	-0.99
1062.241	-7.79
1062.663	-11.59
1063.085	-7.59
1063.506	1.01
1063.928	-2.49
1064.35	-7.79
1064.771	-8.99
1065.193	-2.99
1065.614	-4.79
1066.035	-2.09
1066.457	-7.79
1066.878	5.01
1067.3	-3.89
1067.721	-5.89
1068.142	-10.49
1068.564	-3.59
1068.985	-4.39
1069.406	-6.59
1069.827	-1.29
1070.248	-0.19
1070.67	-7.49
1071.091	-9.59
1071.512	0.81
1071.933	-11.79
1072.354	-5.79
1072.775	-11.09
1073.196	-4.99
1073.617	-0.79
1074.038	-5.79
1074.459	-1.29
1074.88	-6.89
1075.3	-1.69
1075.721	-0.39
1076.142	3.01
1076.563	-4.79
1076.983	-10.29
1077.404	-7.69
1077.825	-11.29
1078.246	-6.29
1078.666	-9.39
1079.087	-4.49
1079.507	-7.09
1079.928	5.81
1080.348	1.41
1080.769	-0.59
1081.189	-1.59
1081.61	-3.59
1082.03	-6.59
1082.451	-8.69
1082.871	-8.29
1083.291	-8.09
1083.711	-6.09
1084.132	-11.79
1084.552	-2.39
1084.972	-0.79
1085.392	-4.59
1085.813	-7.69
1086.233	-9.29
1086.653	-8.39
1087.073	-0.09
1087.493	-3.19
1087.913	-8.39
1088.333	-6.09
1088.753	-6.89
1089.173	-2.09
1089.593	-6.29
1090.013	-3.99
1090.433	-5.09
1090.852	-3.69
1091.272	2.41
1091.692	-1.69
1092.112	-3.89
1092.531	-9.79
1092.951	-9.69
1093.371	4.91
1093.79	-1.19
1094.21	-4.89
1094.63	-4.19
1095.049	-5.89
1095.469	0.41
1095.888	-3.59
1096.308	1.41
1096.727	6.51
1097.146	-5.29
1097.566	-0.29
1097.985	-2.09
1098.405	-0.19
1098.824	-1.59
1099.243	-6.99
1099.662	-7.39
1100.082	-7.09
1100.501	-0.69
1100.92	-8.39
1101.339	-6.39
1101.758	-4.59
