Data from 20171114-ORNL-Ar_H_NY_Subt18_08-07-46-175.txt Node
Date: Tue Nov 14 08:07:46 EST 2017
User: Ender
Spectrometer: HR+D1039
Trigger mode: 0
Integration Time (sec): 2.730000E-2
Scans to average: 10
Electric dark correction enabled: true
Nonlinearity correction enabled: false
Boxcar width: 0
XAxis mode: Wavelengths
Number of Pixels in Spectrum: 2048
>>>>>Begin Spectral Data<<<<<
187.836	-6.12
188.309	-6.12
188.782	-6.12
189.255	2.38
189.728	-5.72
190.201	7.08
190.674	0.88
191.147	7.27
191.619	-6.33
192.092	0.77
192.565	4.17
193.038	-3.73
193.511	1.67
193.984	2.27
194.456	-0.42
194.929	0.88
195.402	-5.33
195.874	0.27
196.347	-1.43
196.82	-11.62
197.292	4.67
197.765	-1.02
198.237	-7.73
198.71	-1.73
199.182	-3.62
199.655	0.57
200.127	-1.43
200.6	-4.12
201.072	2.97
201.544	-1.12
202.017	-1.12
202.489	1.67
202.961	-1.92
203.433	-7.33
203.906	-7.92
204.378	-5.32
204.85	-2.03
205.322	-11.23
205.794	-0.93
206.266	-3.62
206.739	-5.62
207.211	2.08
207.683	-6.12
208.155	-5.23
208.627	-2.23
209.099	-5.52
209.57	-9.02
210.042	-5.73
210.514	1.38
210.986	-1.62
211.458	-7.52
211.93	-5.62
212.402	3.57
212.873	-9.12
213.345	-12.73
213.817	-14.02
214.288	-2.33
214.76	-13.52
215.232	0.78
215.703	-3.32
216.175	-4.73
216.646	-8.42
217.118	-10.52
217.589	-5.22
218.061	-4.83
218.532	-4.92
219.004	-0.73
219.475	-4.02
219.946	-3.33
220.418	-10.32
220.889	3.77
221.36	1.28
221.832	1.48
222.303	-7.12
222.774	-2.73
223.245	-10.72
223.717	-7.12
224.188	-1.52
224.659	-7.53
225.13	-3.52
225.601	-3.43
226.072	-5.82
226.543	-2.23
227.014	1.07
227.485	2.98
227.956	-5.52
228.427	-6.73
228.898	-0.92
229.369	5.27
229.839	-3.73
230.31	-8.73
230.781	4.38
231.252	-4.52
231.722	-7.33
232.193	1.58
232.664	2.38
233.135	10.17
233.605	-4.32
234.076	-4.53
234.546	-0.12
235.017	3.77
235.487	-0.83
235.958	-0.82
236.428	-3.83
236.899	7.48
237.369	2.68
237.84	-4.33
238.31	3.77
238.78	2.48
239.251	-2.42
239.721	3.27
240.191	5.28
240.662	-0.82
241.132	-0.92
241.602	-5.33
242.072	-4.83
242.542	0.27
243.013	-2.52
243.483	1.27
243.953	5.28
244.423	-2.92
244.893	-2.93
245.363	0.77
245.833	2.77
246.303	-4.12
246.773	5.17
247.243	4.97
247.712	5.47
248.182	3.97
248.652	1.67
249.122	0.57
249.592	12.08
250.061	15.17
250.531	28.38
251.001	13.78
251.471	17.17
251.94	12.97
252.41	7.88
252.879	-2.23
253.349	11.27
253.818	7.08
254.288	7.18
254.757	3.78
255.227	3.58
255.696	-0.73
256.166	4.58
256.635	8.38
257.105	10.08
257.574	3.38
258.043	11.78
258.513	7.17
258.982	14.58
259.451	2.67
259.92	8.58
260.389	8.27
260.859	11.77
261.328	9.38
261.797	16.28
262.266	7.67
262.735	7.18
263.204	1.27
263.673	4.98
264.142	4.18
264.611	-0.93
265.08	-2.73
265.549	1.98
266.018	8.88
266.487	-0.53
266.955	-1.62
267.424	-2.92
267.893	2.48
268.362	-3.22
268.83	8.48
269.299	5.98
269.768	-2.12
270.236	-0.92
270.705	-0.92
271.174	0.88
271.642	5.38
272.111	7.18
272.579	13.97
273.048	19.77
273.516	23.88
273.985	27.08
274.453	22.88
274.922	15.98
275.39	9.38
275.858	2.88
276.327	13.17
276.795	17.98
277.263	11.17
277.731	30.88
278.2	47.07
278.668	56.38
279.136	43.67
279.604	15.77
280.072	6.38
280.54	8.18
281.008	10.77
281.477	15.27
281.945	6.08
282.413	10.88
282.881	12.38
283.348	7.08
283.816	5.57
284.284	8.88
284.752	17.97
285.22	9.98
285.688	13.07
286.156	16.58
286.623	39.88
287.091	49.58
287.559	26.88
288.026	14.18
288.494	17.17
288.962	8.98
289.429	1.47
289.897	17.98
290.364	7.38
290.832	13.88
291.3	11.58
291.767	16.68
292.234	14.27
292.702	9.38
293.169	14.08
293.637	18.08
294.104	18.27
294.571	8.27
295.039	15.77
295.506	13.48
295.973	9.67
296.44	14.58
296.908	18.88
297.375	15.08
297.842	15.98
298.309	12.58
298.776	16.88
299.243	17.57
299.71	9.77
300.177	17.58
300.644	20.68
301.111	18.68
301.578	21.88
302.045	13.68
302.512	18.27
302.979	21.48
303.446	19.38
303.913	11.78
304.379	18.77
304.846	23.78
305.313	17.58
305.78	16.38
306.246	24.77
306.713	25.97
307.18	21.58
307.646	25.77
308.113	25.57
308.579	25.38
309.046	20.88
309.512	18.58
309.979	13.27
310.445	21.98
310.912	24.97
311.378	23.98
311.845	22.18
312.311	24.88
312.777	29.17
313.244	32.08
313.71	34.77
314.176	31.18
314.642	25.38
315.109	26.17
315.575	30.48
316.041	31.68
316.507	29.27
316.973	39.67
317.439	30.88
317.905	30.88
318.371	32.48
318.837	35.78
319.303	31.27
319.769	36.38
320.235	26.57
320.701	26.67
321.167	34.38
321.633	29.28
322.099	35.77
322.564	37.48
323.03	40.07
323.496	35.08
323.962	35.28
324.427	29.98
324.893	37.07
325.359	31.88
325.824	36.48
326.29	37.38
326.755	38.77
327.221	38.67
327.686	39.58
328.152	37.18
328.617	38.58
329.083	41.27
329.548	47.67
330.014	47.27
330.479	36.67
330.944	33.88
331.41	38.48
331.875	35.98
332.34	42.48
332.805	43.57
333.271	44.77
333.736	39.48
334.201	50.58
334.666	42.27
335.131	50.57
335.596	49.47
336.061	42.07
336.526	38.38
336.991	45.08
337.456	52.78
337.921	48.47
338.386	37.08
338.851	41.07
339.316	35.17
339.781	38.27
340.246	47.38
340.711	42.48
341.175	44.38
341.64	39.27
342.105	49.18
342.569	51.38
343.034	57.47
343.499	49.48
343.963	45.28
344.428	52.88
344.893	57.17
345.357	57.98
345.822	58.07
346.286	64.08
346.751	61.98
347.215	64.08
347.679	67.27
348.144	78.38
348.608	74.27
349.073	63.58
349.537	71.77
350.001	67.58
350.465	82.77
350.93	71.88
351.394	74.18
351.858	67.18
352.322	74.68
352.786	77.08
353.25	87.77
353.715	95.18
354.179	94.67
354.643	108.08
355.107	120.08
355.571	94.48
356.035	93.58
356.498	108.38
356.962	120.17
357.426	123.77
357.89	111.68
358.354	87.07
358.818	81.58
359.281	76.88
359.745	69.08
360.209	72.58
360.673	65.88
361.136	64.58
361.6	79.67
362.064	78.98
362.527	78.88
362.991	81.38
363.454	76.38
363.918	67.08
364.381	68.17
364.845	77.77
365.308	83.48
365.772	79.48
366.235	71.77
366.698	71.38
367.162	80.97
367.625	76.48
368.088	86.07
368.552	80.07
369.015	86.38
369.478	88.88
369.941	95.88
370.404	89.38
370.867	100.07
371.331	104.17
371.794	109.97
372.257	101.08
372.72	105.67
373.183	105.58
373.646	97.77
374.109	92.38
374.572	100.27
375.035	99.38
375.497	102.17
375.96	101.38
376.423	98.38
376.886	105.78
377.349	102.38
377.811	96.68
378.274	103.28
378.737	95.38
379.199	108.78
379.662	107.08
380.125	104.08
380.587	111.58
381.05	119.18
381.512	122.67
381.975	122.98
382.437	119.48
382.9	120.07
383.362	123.98
383.825	137.88
384.287	140.48
384.75	135.38
385.212	129.88
385.674	138.07
386.136	131.78
386.599	119.67
387.061	123.18
387.523	123.88
387.985	135.57
388.447	144.98
388.91	139.08
389.372	156.68
389.834	151.67
390.296	140.88
390.758	152.58
391.22	170.58
391.682	204.07
392.144	290.57
392.606	228.58
393.068	165.78
393.529	163.17
393.991	143.48
394.453	143.07
394.915	143.67
395.377	186.48
395.838	213.07
396.3	151.48
396.762	138.78
397.224	126.27
397.685	123.27
398.147	125.28
398.608	130.48
399.07	127.27
399.531	128.58
399.993	138.68
400.454	151.98
400.916	141.07
401.377	135.58
401.839	141.57
402.3	147.57
402.762	160.67
403.223	172.57
403.684	162.57
404.145	151.57
404.607	158.67
405.068	152.67
405.529	164.88
405.99	178.77
406.451	168.17
406.913	159.98
407.374	159.67
407.835	151.18
408.296	164.18
408.757	165.98
409.218	183.38
409.679	177.38
410.14	176.08
410.601	169.08
411.062	174.98
411.522	183.48
411.983	187.57
412.444	169.27
412.905	176.08
413.366	183.27
413.826	186.77
414.287	211.27
414.748	256.18
415.208	234.08
415.669	202.47
416.13	198.57
416.59	191.67
417.051	203.78
417.511	205.47
417.972	229.58
418.432	237.38
418.893	274.57
419.353	237.67
419.814	193.07
420.274	176.07
420.734	170.27
421.195	191.47
421.655	190.38
422.115	184.67
422.576	186.97
423.036	191.38
423.496	200.48
423.956	209.48
424.416	225.97
424.876	256.97
425.336	253.67
425.797	251.78
426.257	243.97
426.717	230.38
427.177	225.88
427.637	213.47
428.097	225.17
428.556	238.27
429.016	266.27
429.476	259.97
429.936	270.48
430.396	270.87
430.856	284.38
431.315	309.58
431.775	340.88
432.235	373.87
432.694	345.67
433.154	360.77
433.614	380.77
434.073	333.97
434.533	273.97
434.993	261.98
435.452	277.98
435.912	274.58
436.371	267.17
436.83	275.88
437.29	262.08
437.749	238.38
438.209	242.98
438.668	269.37
439.127	285.18
439.587	255.98
440.046	237.48
440.505	253.98
440.964	270.17
441.424	319.47
441.883	301.67
442.342	250.58
442.801	222.68
443.26	215.98
443.719	221.48
444.178	215.77
444.637	207.48
445.096	217.08
445.555	218.98
446.014	223.17
446.473	218.48
446.932	229.17
447.391	224.57
447.849	222.88
448.308	209.68
448.767	213.78
449.226	224.28
449.685	221.57
450.143	245.57
450.602	231.47
451.061	216.18
451.519	224.67
451.978	220.68
452.436	227.07
452.895	236.48
453.353	246.17
453.812	229.67
454.27	235.87
454.729	237.48
455.187	235.18
455.646	243.58
456.104	236.68
456.562	262.47
457.021	263.07
457.479	258.37
457.937	272.78
458.395	260.17
458.854	245.48
459.312	248.38
459.77	270.18
460.228	252.08
460.686	239.87
461.144	247.57
461.602	240.47
462.06	232.38
462.518	248.08
462.976	245.08
463.434	254.57
463.892	259.07
464.35	260.97
464.808	279.68
465.266	254.68
465.724	261.28
466.181	267.98
466.639	265.87
467.097	287.27
467.555	289.77
468.012	300.27
468.47	291.98
468.928	323.08
469.385	344.08
469.843	337.57
470.3	343.98
470.758	348.57
471.215	378.48
471.673	398.48
472.13	403.58
472.588	401.27
473.045	364.38
473.503	371.17
473.96	377.68
474.417	390.07
474.875	425.88
475.332	463.68
475.789	446.17
476.246	463.38
476.704	481.28
477.161	506.68
477.618	512.68
478.075	541.98
478.532	602.38
478.989	674.38
479.446	783.17
479.903	762.08
480.36	800.87
480.817	850.08
481.274	955.18
481.731	1054.08
482.188	1151.57
482.645	1284.78
483.102	1388.78
483.558	1531.78
484.015	1572.88
484.472	1549.97
484.929	1505.28
485.385	1449.67
485.842	1404.97
486.299	1351.37
486.755	1270.58
487.212	1070.97
487.668	899.08
488.125	831.87
488.582	762.08
489.038	717.68
489.494	696.28
489.951	666.27
490.407	651.78
490.864	646.08
491.32	636.07
491.776	617.48
492.233	638.08
492.689	599.48
493.145	593.38
493.602	588.27
494.058	604.07
494.514	593.48
494.97	622.48
495.426	638.57
495.882	610.18
496.338	594.48
496.794	598.07
497.251	614.48
497.707	623.48
498.163	626.48
498.618	625.77
499.074	638.48
499.53	662.88
499.986	659.17
500.442	640.67
500.898	618.88
501.354	620.58
501.809	629.27
502.265	630.57
502.721	651.97
503.177	658.48
503.632	656.77
504.088	660.58
504.543	704.78
504.999	696.98
505.455	638.08
505.91	609.18
506.366	616.27
506.821	607.27
507.277	596.17
507.732	611.77
508.187	615.87
508.643	627.18
509.098	629.27
509.553	649.27
510.009	650.58
510.464	652.77
510.919	676.68
511.375	685.58
511.83	697.88
512.285	700.88
512.74	745.77
513.195	773.38
513.65	759.78
514.105	756.58
514.56	747.38
515.015	768.58
515.47	785.48
515.925	781.48
516.38	772.48
516.835	784.18
517.29	761.28
517.745	768.98
518.2	754.17
518.655	738.77
519.109	733.67
519.564	732.67
520.019	723.57
520.474	706.08
520.928	710.38
521.383	715.97
521.838	695.37
522.292	702.68
522.747	699.27
523.201	693.88
523.656	690.48
524.11	687.38
524.565	674.68
525.019	683.88
525.474	694.27
525.928	694.48
526.382	680.37
526.837	685.57
527.291	679.48
527.745	691.27
528.2	683.67
528.654	680.38
529.108	677.57
529.562	676.27
530.016	679.78
530.47	684.18
530.925	690.07
531.379	693.18
531.833	688.97
532.287	692.47
532.741	689.08
533.195	687.67
533.649	704.18
534.103	705.38
534.556	697.17
535.01	704.78
535.464	691.57
535.918	715.98
536.372	709.38
536.826	709.47
537.279	694.78
537.733	693.57
538.187	703.57
538.64	688.58
539.094	704.38
539.548	716.58
540.001	719.88
540.455	717.17
540.908	714.27
541.362	723.57
541.815	745.57
542.269	751.08
542.722	751.18
543.175	755.18
543.629	760.77
544.082	774.37
544.536	775.57
544.989	773.38
545.442	788.98
545.895	779.77
546.349	776.88
546.802	778.77
547.255	797.57
547.708	798.48
548.161	799.67
548.614	815.38
549.067	809.88
549.52	804.18
549.973	801.57
550.426	802.58
550.879	784.87
551.332	794.88
551.785	791.68
552.238	803.37
552.691	793.67
553.144	812.88
553.596	842.28
554.049	856.87
554.502	876.18
554.955	896.88
555.407	893.98
555.86	884.37
556.313	875.27
556.765	872.47
557.218	867.28
557.67	868.27
558.123	858.88
558.576	854.07
559.028	860.98
559.48	873.88
559.933	868.07
560.385	824.58
560.838	801.58
561.29	777.68
561.742	773.58
562.195	759.18
562.647	761.38
563.099	759.58
563.551	763.77
564.004	764.97
564.456	762.78
564.908	766.67
565.36	740.77
565.812	725.97
566.264	720.38
566.716	708.67
567.168	713.17
567.62	725.08
568.072	691.48
568.524	688.17
568.976	687.47
569.428	667.57
569.88	666.87
570.332	668.28
570.784	671.97
571.235	682.28
571.687	680.77
572.139	690.88
572.59	705.67
573.042	706.67
573.494	707.38
573.945	701.38
574.397	678.77
574.849	680.37
575.3	687.07
575.752	681.07
576.203	674.58
576.655	675.97
577.106	657.18
577.557	664.08
578.009	665.17
578.46	661.58
578.912	649.58
579.363	657.77
579.814	660.88
580.265	655.97
580.717	665.37
581.168	667.68
581.619	668.88
582.07	675.67
582.521	666.17
582.972	661.17
583.423	671.38
583.875	679.68
584.326	698.27
584.777	743.78
585.227	836.18
585.678	926.37
586.129	1009.67
586.58	1095.58
587.031	1178.47
587.482	1332.17
587.933	1529.57
588.384	1337.97
588.834	970.38
589.285	801.88
589.736	780.98
590.186	767.47
590.637	763.57
591.088	738.28
591.538	737.88
591.989	726.27
592.439	722.88
592.89	716.47
593.34	702.18
593.791	704.08
594.241	693.67
594.692	708.68
595.142	696.77
595.593	694.68
596.043	701.47
596.493	716.48
596.943	709.98
597.394	718.98
597.844	710.18
598.294	722.67
598.744	746.37
599.195	766.07
599.645	812.57
600.095	857.38
600.545	906.08
600.995	957.67
601.445	1023.77
601.895	1076.67
602.345	1117.28
602.795	1094.88
603.245	1063.67
603.695	996.97
604.145	948.18
604.594	901.48
605.044	843.27
605.494	789.67
605.944	747.77
606.393	734.58
606.843	719.87
607.293	730.58
607.743	732.18
608.192	743.17
608.642	748.98
609.091	760.17
609.541	762.87
609.99	768.58
610.44	762.48
610.889	720.58
611.339	704.58
611.788	688.08
612.238	691.88
612.687	706.08
613.136	707.07
613.586	744.67
614.035	737.88
614.484	749.48
614.933	756.48
615.383	743.77
615.832	731.38
616.281	714.48
616.73	688.68
617.179	662.47
617.628	646.27
618.077	634.48
618.526	627.97
618.975	622.17
619.424	613.38
619.873	598.58
620.322	623.18
620.771	598.88
621.22	601.47
621.669	599.08
622.118	579.08
622.567	574.88
623.015	565.77
623.464	569.48
623.913	555.38
624.361	548.88
624.81	548.68
625.259	550.78
625.707	545.88
626.156	560.07
626.604	564.67
627.053	557.47
627.501	562.38
627.95	573.58
628.398	568.27
628.847	565.88
629.295	554.48
629.744	570.17
630.192	563.58
630.64	571.27
631.089	565.88
631.537	582.57
631.985	593.77
632.433	602.18
632.881	608.48
633.33	652.67
633.778	651.48
634.226	558.78
634.674	569.78
635.122	585.67
635.57	602.58
636.018	628.48
636.466	595.68
636.914	552.57
637.362	565.08
637.81	567.38
638.258	569.38
638.705	572.68
639.153	601.57
639.601	619.77
640.049	637.47
640.497	672.97
640.944	690.78
641.392	644.57
641.84	618.58
642.287	589.07
642.735	570.47
643.182	563.28
643.63	571.98
644.078	569.08
644.525	593.38
644.973	591.87
645.42	593.97
645.867	622.07
646.315	637.48
646.762	665.58
647.21	687.78
647.657	716.08
648.104	750.07
648.551	773.38
648.999	837.27
649.446	922.07
649.893	1019.17
650.34	1172.38
650.787	1416.28
651.234	1760.28
651.682	2280.17
652.129	3135.07
652.576	4563.98
653.023	6710.57
653.47	9194.77
653.917	11435.57
654.363	13173.88
654.81	14454.77
655.257	13761.17
655.704	8973.37
656.151	5303.48
656.598	3433.78
657.044	2421.77
657.491	1870.28
657.938	1493.68
658.385	1251.58
658.831	1079.17
659.278	948.07
659.724	852.47
660.171	789.58
660.618	720.18
661.064	693.98
661.511	670.98
661.957	651.38
662.404	648.98
662.85	652.48
663.296	623.68
663.743	562.88
664.189	537.17
664.635	532.37
665.082	522.48
665.528	524.08
665.974	520.87
666.42	509.47
666.867	497.57
667.313	495.88
667.759	479.67
668.205	480.88
668.651	485.58
669.097	483.88
669.543	498.08
669.989	470.27
670.435	452.58
670.881	445.38
671.327	443.07
671.773	468.97
672.219	492.67
672.665	540.88
673.11	576.88
673.556	619.37
674.002	665.68
674.448	650.88
674.893	544.57
675.339	467.08
675.785	434.27
676.23	417.47
676.676	392.68
677.122	384.67
677.567	370.37
678.013	361.68
678.458	355.18
678.904	355.38
679.349	350.18
679.794	354.38
680.24	341.97
680.685	342.27
681.131	342.68
681.576	346.38
682.021	355.07
682.466	347.17
682.912	351.38
683.357	349.77
683.802	380.17
684.247	408.58
684.692	457.08
685.137	492.18
685.583	536.68
686.028	565.77
686.473	515.88
686.918	444.58
687.363	405.88
687.807	389.08
688.252	364.17
688.697	348.38
689.142	338.87
689.587	334.78
690.032	323.27
690.477	344.08
690.921	355.38
691.366	375.68
691.811	402.28
692.255	429.77
692.7	455.98
693.145	509.38
693.589	697.58
694.034	1135.57
694.478	1525.67
694.923	1713.78
695.367	2229.88
695.812	1174.78
696.256	489.88
696.701	361.17
697.145	336.88
697.59	326.67
698.034	317.77
698.478	326.88
698.922	321.67
699.367	325.38
699.811	336.77
700.255	354.67
700.699	382.98
701.143	425.67
701.588	479.08
702.032	509.48
702.476	508.38
702.92	482.08
703.364	494.38
703.808	645.27
704.252	1042.97
704.696	1448.27
705.14	1640.57
705.584	2101.38
706.027	1046.08
706.471	518.17
706.915	399.97
707.359	347.48
707.803	315.58
708.246	304.48
708.69	310.47
709.134	311.18
709.577	317.88
710.021	318.38
710.465	297.88
710.908	303.37
711.352	293.18
711.795	312.88
712.239	354.48
712.682	381.67
713.126	413.08
713.569	461.98
714.012	371.27
714.456	326.88
714.899	291.27
715.342	273.98
715.786	264.98
716.229	258.88
716.672	255.18
717.115	245.27
717.558	246.88
718.002	250.88
718.445	264.88
718.888	283.28
719.331	290.78
719.774	303.98
720.217	300.98
720.66	284.28
721.103	263.58
721.546	251.48
721.989	244.77
722.432	229.38
722.874	228.27
723.317	221.38
723.76	229.48
724.203	255.08
724.645	323.27
725.088	446.08
725.531	569.47
725.974	636.88
726.416	532.77
726.859	304.28
727.301	245.38
727.744	235.78
728.187	237.08
728.629	239.08
729.071	242.27
729.514	255.48
729.956	264.97
730.399	279.18
730.841	288.67
731.283	267.67
731.726	263.17
732.168	255.27
732.61	267.38
733.053	287.48
733.495	320.08
733.937	356.28
734.379	393.27
734.821	433.57
735.263	549.97
735.705	845.57
736.148	1601.18
736.59	2572.77
737.032	2983.07
737.474	2442.88
737.916	797.07
738.357	418.77
738.799	312.77
739.241	293.57
739.683	284.17
740.125	294.07
740.567	293.77
741.008	312.08
741.45	310.38
741.892	315.27
742.334	342.78
742.775	354.77
743.217	331.88
743.658	266.38
744.1	246.88
744.542	258.48
744.983	312.38
745.425	335.17
745.866	343.77
746.307	285.48
746.749	285.57
747.19	326.48
747.632	461.38
748.073	893.08
748.514	1890.58
748.956	2831.47
749.397	3540.88
749.838	2961.88
750.279	2917.38
750.72	1470.27
751.162	543.77
751.603	312.47
752.044	253.78
752.485	215.68
752.926	207.97
753.367	205.58
753.808	192.97
754.249	187.27
754.69	185.48
755.131	185.08
755.572	179.77
756.013	178.98
756.453	183.48
756.894	185.88
757.335	191.48
757.776	193.58
758.216	199.58
758.657	201.58
759.098	204.38
759.538	217.57
759.979	268.97
760.42	381.38
760.86	718.48
761.301	1876.17
761.741	4460.17
762.182	6300.88
762.622	4427.08
763.063	1296.88
763.503	538.08
763.943	352.58
764.384	347.28
764.824	416.88
765.264	448.37
765.705	310.58
766.145	214.77
766.585	191.27
767.025	183.47
767.465	188.07
767.906	252.38
768.346	321.47
768.786	347.78
769.226	268.77
769.666	327.47
770.106	639.58
770.546	1576.97
770.986	2600.27
771.426	2313.18
771.866	785.08
772.306	320.88
772.745	210.07
773.185	175.27
773.625	168.88
774.065	161.77
774.505	201.27
774.944	328.58
775.384	710.28
775.824	1261.98
776.263	1212.18
776.703	519.97
777.142	223.88
777.582	159.97
778.021	134.98
778.461	133.48
778.9	141.88
779.34	133.58
779.779	115.88
780.219	109.38
780.658	103.68
781.097	118.98
781.537	107.77
781.976	105.38
782.415	104.17
782.855	101.38
783.294	106.68
783.733	105.08
784.172	106.27
784.611	101.17
785.05	114.88
785.489	112.78
785.928	119.17
786.367	120.67
786.806	115.57
787.245	129.57
787.684	135.77
788.123	148.77
788.562	135.67
789.001	124.28
789.44	119.68
789.879	116.48
790.317	117.48
790.756	129.08
791.195	122.78
791.634	144.78
792.072	208.88
792.511	373.98
792.95	1037.17
793.388	2109.57
793.827	1898.97
794.265	673.18
794.704	279.68
795.142	182.38
795.581	158.77
796.019	139.58
796.458	132.38
796.896	124.18
797.334	126.08
797.773	150.58
798.211	219.07
798.649	438.58
799.087	1021.78
799.526	1584.68
799.964	2003.97
800.402	1968.58
800.84	745.88
801.278	297.88
801.716	184.17
802.154	156.88
802.592	144.18
803.03	132.18
803.468	132.38
803.906	145.27
804.344	145.58
804.782	135.88
805.22	134.17
805.658	127.38
806.096	148.28
806.533	148.27
806.971	167.67
807.409	214.17
807.847	313.78
808.284	671.97
808.722	1883.58
809.16	3241.97
809.597	3137.18
810.035	5404.88
810.472	5616.27
810.91	2039.88
811.347	783.28
811.785	402.38
812.222	247.97
812.66	188.58
813.097	161.57
813.535	144.27
813.972	125.27
814.409	113.88
814.846	101.98
815.284	106.27
815.721	96.88
816.158	105.48
816.595	125.78
817.032	172.97
817.47	191.98
817.907	160.88
818.344	147.07
818.781	113.78
819.218	103.18
819.655	127.18
820.092	183.98
820.529	203.47
820.966	173.18
821.403	135.88
821.839	105.58
822.276	102.48
822.713	118.47
823.15	131.38
823.587	118.48
824.023	148.98
824.46	311.38
824.897	906.38
825.333	1327.18
825.77	573.88
826.206	227.58
826.643	135.17
827.08	104.18
827.516	77.58
827.953	71.38
828.389	84.88
828.825	64.88
829.262	65.07
829.698	59.38
830.135	59.77
830.571	60.57
831.007	63.98
831.443	58.98
831.88	57.08
832.316	60.57
832.752	56.98
833.188	68.98
833.624	66.68
834.06	68.27
834.497	68.98
834.933	69.38
835.369	70.98
835.805	68.67
836.241	71.07
836.677	79.38
837.112	85.57
837.548	101.27
837.984	130.67
838.42	201.28
838.856	503.87
839.292	1522.47
839.727	2281.77
840.163	1051.28
840.599	929.57
841.034	2023.07
841.47	2060.57
841.906	766.38
842.341	325.87
842.777	225.58
843.212	324.08
843.648	313.67
844.083	152.88
844.519	94.18
844.954	83.28
845.39	61.98
845.825	57.48
846.261	52.08
846.696	49.98
847.131	49.27
847.566	58.57
848.002	53.48
848.437	52.88
848.872	63.38
849.307	64.18
849.742	82.98
850.177	188.38
850.613	562.48
851.048	859.17
851.483	375.97
851.918	153.67
852.353	89.27
852.788	68.27
853.223	62.38
853.657	55.67
854.092	47.27
854.527	37.88
854.962	36.17
855.397	40.38
855.832	46.88
856.266	43.78
856.701	32.68
857.136	33.38
857.57	37.08
858.005	48.58
858.44	55.08
858.874	42.18
859.309	51.58
859.743	40.38
860.178	47.38
860.612	39.07
861.047	54.67
861.481	73.98
861.915	64.68
862.35	49.67
862.784	29.38
863.218	32.17
863.653	31.77
864.087	40.88
864.521	52.27
864.955	69.48
865.39	158.88
865.824	181.08
866.258	108.38
866.692	162.68
867.126	166.88
867.56	101.67
867.994	52.07
868.428	37.88
868.862	44.58
869.296	51.38
869.73	53.77
870.164	54.57
870.598	46.28
871.031	30.98
871.465	30.67
871.899	27.58
872.333	23.48
872.766	26.27
873.2	25.57
873.634	26.48
874.067	29.27
874.501	28.47
874.935	35.57
875.368	29.47
875.802	26.67
876.235	22.57
876.669	25.48
877.102	22.08
877.535	18.68
877.969	22.48
878.402	24.77
878.836	22.17
879.269	19.48
879.702	23.38
880.135	15.97
880.569	19.57
881.002	27.98
881.435	24.88
881.868	17.88
882.301	20.27
882.734	17.77
883.167	23.48
883.601	17.58
884.034	17.17
884.467	9.78
884.899	22.98
885.332	13.08
885.765	16.38
886.198	14.88
886.631	17.88
887.064	14.38
887.497	19.77
887.929	18.77
888.362	11.67
888.795	10.48
889.228	16.08
889.66	24.57
890.093	19.97
890.526	13.67
890.958	9.28
891.391	19.68
891.823	17.48
892.256	15.38
892.688	12.17
893.121	12.18
893.553	9.77
893.985	19.47
894.418	19.77
894.85	13.58
895.282	16.77
895.715	11.48
896.147	16.88
896.579	11.48
897.011	6.58
897.444	16.77
897.876	16.78
898.308	19.17
898.74	18.38
899.172	12.88
899.604	25.78
900.036	19.27
900.468	13.48
900.9	15.67
901.332	16.27
901.764	18.58
902.196	18.98
902.628	12.48
903.06	12.97
903.491	26.67
903.923	26.58
904.355	18.78
904.787	18.57
905.218	20.48
905.65	21.88
906.082	7.57
906.513	10.38
906.945	19.27
907.376	12.77
907.808	25.67
908.239	15.68
908.671	18.98
909.102	18.27
909.534	20.48
909.965	48.27
910.397	88.67
910.828	320.77
911.259	466.78
911.691	217.37
912.122	109.38
912.553	52.48
912.984	31.98
913.415	29.68
913.847	26.48
914.278	13.98
914.709	16.27
915.14	21.28
915.571	20.58
916.002	14.98
916.433	17.08
916.864	12.57
917.295	8.38
917.726	21.67
918.157	11.77
918.587	24.58
919.018	20.28
919.449	22.08
919.88	26.57
920.311	32.08
920.741	49.38
921.172	168.58
921.603	148.57
922.033	67.07
922.464	48.18
922.895	21.97
923.325	19.58
923.756	11.88
924.186	10.38
924.617	30.18
925.047	47.58
925.478	48.08
925.908	42.98
926.338	23.08
926.769	19.28
927.199	21.28
927.629	11.68
928.06	16.48
928.49	14.08
928.92	8.67
929.35	12.28
929.78	12.38
930.21	8.38
930.641	1.58
931.071	11.27
931.501	3.98
931.931	8.18
932.361	12.18
932.791	3.17
933.221	3.27
933.651	2.48
934.08	19.88
934.51	25.08
934.94	11.08
935.37	9.58
935.8	15.57
936.229	7.77
936.659	13.07
937.089	3.98
937.519	13.67
937.948	24.48
938.378	9.27
938.807	-0.12
939.237	1.98
939.666	9.18
940.096	-6.33
940.525	3.17
940.955	5.38
941.384	-0.32
941.814	-7.02
942.243	1.58
942.672	10.08
943.102	-5.32
943.531	-1.23
943.96	5.27
944.39	-2.83
944.819	-1.12
945.248	-0.02
945.677	3.77
946.106	3.98
946.535	-0.62
946.964	0.77
947.393	7.77
947.822	1.08
948.251	-0.83
948.68	3.78
949.109	8.07
949.538	5.48
949.967	-3.92
950.396	-3.12
950.825	-0.23
951.254	-2.52
951.682	-12.73
952.111	1.48
952.54	0.38
952.969	-8.52
953.397	-5.62
953.826	-4.23
954.254	-5.23
954.683	-1.62
955.112	-1.42
955.54	-4.72
955.969	0.88
956.397	-3.42
956.826	-3.12
957.254	0.08
957.682	-3.33
958.111	9.27
958.539	-0.02
958.967	0.38
959.396	-1.43
959.824	-1.52
960.252	6.17
960.68	-7.33
961.109	-4.33
961.537	-7.42
961.965	0.38
962.393	0.38
962.821	-4.12
963.249	1.88
963.677	5.77
964.105	4.98
964.533	43.58
964.961	32.77
965.389	21.28
965.817	8.97
966.245	-1.93
966.672	-3.82
967.1	-8.42
967.528	3.47
967.956	1.68
968.383	-1.03
968.811	-5.23
969.239	-2.43
969.666	-6.73
970.094	-0.82
970.522	2.38
970.949	-2.62
971.377	-4.62
971.804	-1.62
972.232	-5.52
972.659	1.08
973.087	-3.43
973.514	-2.03
973.941	-1.52
974.369	-1.93
974.796	3.18
975.223	0.38
975.651	-1.32
976.078	0.68
976.505	0.98
976.932	0.38
977.359	6.77
977.786	10.98
978.214	-3.52
978.641	-6.43
979.068	-2.43
979.495	-5.12
979.922	-1.03
980.349	-7.12
980.776	0.77
981.202	-2.12
981.629	-0.33
982.056	1.57
982.483	-4.52
982.91	0.27
983.337	-10.73
983.763	3.17
984.19	-6.33
984.617	-4.52
985.043	-6.52
985.47	-4.52
985.897	-5.23
986.323	-7.02
986.75	3.38
987.176	0.07
987.603	-4.93
988.029	-6.23
988.456	-7.02
988.882	-0.32
989.308	-5.62
989.735	-2.12
990.161	-7.42
990.587	-3.62
991.014	-4.92
991.44	3.07
991.866	-0.02
992.292	-4.02
992.719	-1.12
993.145	-1.82
993.571	-7.52
993.997	-5.62
994.423	-3.33
994.849	-7.12
995.275	0.48
995.701	-5.23
996.127	-0.12
996.553	-1.32
996.979	-3.32
997.405	0.28
997.83	-4.83
998.256	-5.43
998.682	-1.32
999.108	-2.62
999.534	-5.23
999.959	-3.52
1000.385	-0.73
1000.811	0.38
1001.236	-10.62
1001.662	-8.23
1002.087	-11.52
1002.513	0.17
1002.938	3.58
1003.364	3.28
1003.789	-2.92
1004.215	5.58
1004.64	-4.23
1005.066	-1.52
1005.491	-1.52
1005.916	-2.33
1006.342	-4.22
1006.767	-6.62
1007.192	1.68
1007.617	-3.43
1008.042	-2.23
1008.468	-5.73
1008.893	-4.52
1009.318	-2.83
1009.743	-7.43
1010.168	-2.23
1010.593	-0.52
1011.018	-3.42
1011.443	-1.42
1011.868	-1.92
1012.293	-5.62
1012.718	-10.02
1013.143	-0.62
1013.567	6.27
1013.992	1.38
1014.417	-13.83
1014.842	6.07
1015.267	-9.33
1015.691	-5.32
1016.116	4.38
1016.541	0.27
1016.965	7.57
1017.39	1.67
1017.814	1.28
1018.239	-1.02
1018.663	-3.12
1019.088	-10.33
1019.512	-4.62
1019.937	-2.73
1020.361	-10.42
1020.785	-7.83
1021.21	-5.12
1021.634	-2.42
1022.058	-2.83
1022.483	-0.33
1022.907	-11.02
1023.331	-5.72
1023.755	-2.62
1024.179	-1.12
1024.604	-8.52
1025.028	-2.23
1025.452	-5.73
1025.876	-0.83
1026.3	4.67
1026.724	-9.33
1027.148	-5.12
1027.572	-12.02
1027.996	-4.33
1028.42	0.67
1028.843	-6.53
1029.267	-2.23
1029.691	-0.43
1030.115	-8.62
1030.539	-6.23
1030.962	-7.52
1031.386	-10.42
1031.81	0.78
1032.233	-3.52
1032.657	-0.82
1033.08	2.58
1033.504	-7.12
1033.927	-3.32
1034.351	-6.32
1034.774	-7.73
1035.198	-5.83
1035.621	-6.42
1036.045	-12.62
1036.468	1.17
1036.891	-17.43
1037.315	-9.12
1037.738	-9.52
1038.161	1.38
1038.584	-8.83
1039.008	-8.33
1039.431	-7.83
1039.854	-4.62
1040.277	-5.73
1040.7	-11.82
1041.123	3.98
1041.546	-8.82
1041.969	-4.73
1042.392	-4.83
1042.815	-9.53
1043.238	2.48
1043.661	2.07
1044.084	-9.32
1044.507	-6.42
1044.93	-7.83
1045.352	-5.33
1045.775	-1.83
1046.198	0.98
1046.621	-2.02
1047.043	-3.62
1047.466	6.68
1047.889	1.67
1048.311	-7.32
1048.734	-8.23
1049.156	-3.73
1049.579	-4.03
1050.001	-6.73
1050.424	1.17
1050.846	-10.33
1051.269	-2.92
1051.691	-2.12
1052.113	-5.62
1052.536	0.77
1052.958	-0.83
1053.38	-1.62
1053.802	-13.23
1054.225	-4.33
1054.647	-8.73
1055.069	-6.62
1055.491	1.98
1055.913	-15.23
1056.335	-1.12
1056.757	-10.12
1057.179	-6.12
1057.601	-6.42
1058.023	-5.22
1058.445	-5.23
1058.867	-4.83
1059.289	-6.23
1059.711	-12.42
1060.133	2.77
1060.555	-6.93
1060.976	-10.23
1061.398	-7.73
1061.82	-5.42
1062.241	-11.23
1062.663	-13.33
1063.085	-5.23
1063.506	3.08
1063.928	-3.12
1064.35	-3.52
1064.771	-11.43
1065.193	-4.33
1065.614	-8.33
1066.035	-2.82
1066.457	-0.33
1066.878	-0.23
1067.3	-10.52
1067.721	-3.33
1068.142	-4.73
1068.564	-7.93
1068.985	-7.73
1069.406	-8.42
1069.827	-15.73
1070.248	-5.42
1070.67	-3.23
1071.091	-6.12
1071.512	-2.43
1071.933	-8.02
1072.354	-7.62
1072.775	-5.23
1073.196	-9.73
1073.617	-10.12
1074.038	-11.42
1074.459	-9.02
1074.88	-8.02
1075.3	1.67
1075.721	-11.03
1076.142	-2.52
1076.563	-9.93
1076.983	-7.92
1077.404	-2.32
1077.825	-11.12
1078.246	-4.52
1078.666	-7.53
1079.087	-6.52
1079.507	-6.62
1079.928	0.77
1080.348	-5.02
1080.769	-5.02
1081.189	-2.22
1081.61	-4.73
1082.03	-6.42
1082.451	-9.83
1082.871	-4.42
1083.291	-8.12
1083.711	-14.12
1084.132	-11.52
1084.552	-4.12
1084.972	-5.62
1085.392	-13.23
1085.813	-6.02
1086.233	-1.92
1086.653	-4.02
1087.073	-5.73
1087.493	-11.02
1087.913	-7.73
1088.333	-8.23
1088.753	-2.12
1089.173	0.27
1089.593	-3.52
1090.013	-1.93
1090.433	0.48
1090.852	-6.23
1091.272	-3.73
1091.692	-1.23
1092.112	-4.52
1092.531	-10.93
1092.951	-14.12
1093.371	-5.62
1093.79	-5.72
1094.21	-7.12
1094.63	-8.73
1095.049	-6.73
1095.469	-4.92
1095.888	-8.43
1096.308	1.77
1096.727	-0.42
1097.146	-9.42
1097.566	-3.12
1097.985	-9.52
1098.405	0.78
1098.824	-1.12
1099.243	-9.42
1099.662	-6.62
1100.082	-3.62
1100.501	-0.52
1100.92	-9.62
1101.339	-11.53
1101.758	-7.32
