Data from 20171114-ORNL-Ar_H_NY_Subt18_08-05-45-247.txt Node
Date: Tue Nov 14 08:05:45 EST 2017
User: Ender
Spectrometer: HR+D1039
Trigger mode: 0
Integration Time (sec): 2.730000E-2
Scans to average: 10
Electric dark correction enabled: true
Nonlinearity correction enabled: false
Boxcar width: 0
XAxis mode: Wavelengths
Number of Pixels in Spectrum: 2048
>>>>>Begin Spectral Data<<<<<
187.836	-6.61
188.309	-6.61
188.782	-6.61
189.255	0.39
189.728	0.49
190.201	8.19
190.674	-0.51
191.147	0.49
191.619	-6.41
192.092	-3.11
192.565	7.99
193.038	2.59
193.511	3.59
193.984	-1.11
194.456	-0.91
194.929	-1.71
195.402	-1.11
195.874	-2.21
196.347	-1.11
196.82	-6.91
197.292	2.69
197.765	1.39
198.237	-7.31
198.71	-1.51
199.182	-3.81
199.655	-1.01
200.127	4.99
200.6	-0.11
201.072	-3.21
201.544	-0.91
202.017	-0.41
202.489	7.29
202.961	-3.51
203.433	-0.21
203.906	0.19
204.378	-0.01
204.85	-1.31
205.322	-10.21
205.794	-1.51
206.266	-0.71
206.739	-11.31
207.211	7.59
207.683	-6.61
208.155	-8.91
208.627	-6.11
209.099	-6.01
209.57	-7.11
210.042	-4.51
210.514	0.99
210.986	-3.21
211.458	-4.31
211.93	-6.41
212.402	3.29
212.873	-8.11
213.345	-10.21
213.817	-9.11
214.288	-4.21
214.76	-8.21
215.232	3.09
215.703	-2.41
216.175	-2.51
216.646	-7.01
217.118	-5.71
217.589	-3.51
218.061	-0.11
218.532	-1.61
219.004	-6.61
219.475	-7.41
219.946	-1.11
220.418	-5.21
220.889	1.89
221.36	0.39
221.832	-0.71
222.303	-4.51
222.774	-2.11
223.245	-10.51
223.717	1.19
224.188	-2.81
224.659	-12.51
225.13	-6.01
225.601	-1.51
226.072	0.29
226.543	-3.91
227.014	-1.41
227.485	1.79
227.956	-7.01
228.427	-1.41
228.898	2.09
229.369	3.49
229.839	-4.31
230.31	-8.91
230.781	-0.51
231.252	1.19
231.722	-3.91
232.193	-2.51
232.664	1.69
233.135	-2.11
233.605	-3.41
234.076	-1.01
234.546	-0.71
235.017	-2.61
235.487	-1.11
235.958	-4.81
236.428	-2.81
236.899	5.19
237.369	-1.71
237.84	-6.41
238.31	9.49
238.78	3.89
239.251	2.79
239.721	7.49
240.191	3.49
240.662	-0.91
241.132	5.49
241.602	-3.11
242.072	6.59
242.542	9.09
243.013	4.89
243.483	5.19
243.953	6.59
244.423	-1.31
244.893	0.19
245.363	6.89
245.833	-3.01
246.303	-1.11
246.773	9.99
247.243	6.59
247.712	3.69
248.182	13.19
248.652	8.69
249.122	2.19
249.592	16.29
250.061	22.19
250.531	34.19
251.001	20.19
251.471	22.49
251.94	20.29
252.41	8.99
252.879	4.49
253.349	8.29
253.818	6.79
254.288	5.49
254.757	-1.51
255.227	-0.11
255.696	8.09
256.166	8.69
256.635	6.89
257.105	9.79
257.574	8.59
258.043	12.89
258.513	8.99
258.982	21.49
259.451	8.09
259.92	13.29
260.389	15.49
260.859	21.79
261.328	10.59
261.797	19.59
262.266	9.69
262.735	9.89
263.204	10.19
263.673	2.99
264.142	6.69
264.611	3.59
265.08	7.19
265.549	2.49
266.018	8.99
266.487	-10.41
266.955	3.39
267.424	0.39
267.893	5.89
268.362	-0.61
268.83	8.49
269.299	11.99
269.768	6.09
270.236	5.99
270.705	2.59
271.174	11.09
271.642	5.19
272.111	8.39
272.579	14.09
273.048	24.49
273.516	30.99
273.985	31.49
274.453	29.79
274.922	19.49
275.39	15.09
275.858	9.99
276.327	11.69
276.795	20.69
277.263	14.49
277.731	36.59
278.2	56.19
278.668	61.49
279.136	48.99
279.604	18.79
280.072	17.69
280.54	10.69
281.008	12.89
281.477	12.89
281.945	12.19
282.413	13.49
282.881	21.19
283.348	4.89
283.816	25.09
284.284	20.39
284.752	22.49
285.22	16.29
285.688	16.79
286.156	18.79
286.623	48.49
287.091	56.39
287.559	29.89
288.026	23.69
288.494	15.79
288.962	5.79
289.429	5.89
289.897	22.89
290.364	17.39
290.832	18.19
291.3	13.09
291.767	20.29
292.234	19.29
292.702	19.09
293.169	21.69
293.637	24.99
294.104	19.39
294.571	6.39
295.039	13.99
295.506	18.89
295.973	18.39
296.44	21.09
296.908	20.29
297.375	16.09
297.842	24.99
298.309	17.99
298.776	14.49
299.243	24.79
299.71	25.19
300.177	17.19
300.644	17.59
301.111	26.29
301.578	22.39
302.045	14.19
302.512	22.49
302.979	26.99
303.446	26.79
303.913	20.59
304.379	16.39
304.846	33.69
305.313	23.49
305.78	25.89
306.246	28.29
306.713	27.19
307.18	25.09
307.646	28.69
308.113	32.89
308.579	27.29
309.046	28.39
309.512	29.19
309.979	26.89
310.445	31.29
310.912	31.99
311.378	37.59
311.845	36.89
312.311	39.09
312.777	37.29
313.244	31.49
313.71	35.79
314.176	29.19
314.642	32.09
315.109	39.89
315.575	40.59
316.041	41.89
316.507	40.09
316.973	41.19
317.439	38.89
317.905	38.69
318.371	38.79
318.837	38.69
319.303	32.89
319.769	36.09
320.235	37.39
320.701	40.49
321.167	37.29
321.633	39.19
322.099	39.69
322.564	45.49
323.03	45.59
323.496	38.99
323.962	42.69
324.427	36.09
324.893	46.69
325.359	38.69
325.824	39.89
326.29	39.79
326.755	41.49
327.221	39.39
327.686	41.49
328.152	50.89
328.617	45.09
329.083	44.79
329.548	54.79
330.014	55.39
330.479	44.39
330.944	43.89
331.41	43.19
331.875	50.89
332.34	44.39
332.805	49.59
333.271	43.69
333.736	47.29
334.201	52.19
334.666	51.99
335.131	57.79
335.596	50.79
336.061	50.69
336.526	43.59
336.991	55.99
337.456	56.99
337.921	47.29
338.386	44.79
338.851	48.29
339.316	48.59
339.781	54.49
340.246	48.59
340.711	46.19
341.175	53.69
341.64	49.49
342.105	53.29
342.569	59.69
343.034	54.79
343.499	60.39
343.963	50.19
344.428	64.59
344.893	62.89
345.357	63.99
345.822	61.89
346.286	73.39
346.751	74.79
347.215	69.99
347.679	74.99
348.144	97.49
348.608	88.69
349.073	70.19
349.537	73.99
350.001	79.19
350.465	88.59
350.93	80.69
351.394	80.99
351.858	79.79
352.322	96.19
352.786	79.49
353.25	102.89
353.715	115.69
354.179	98.79
354.643	120.89
355.107	131.09
355.571	107.59
356.035	105.09
356.498	119.89
356.962	121.39
357.426	135.39
357.89	117.19
358.354	94.99
358.818	86.39
359.281	81.39
359.745	80.79
360.209	80.19
360.673	76.89
361.136	88.19
361.6	83.29
362.064	82.19
362.527	85.09
362.991	86.99
363.454	91.99
363.918	78.19
364.381	90.39
364.845	85.39
365.308	83.89
365.772	86.59
366.235	90.79
366.698	87.39
367.162	86.39
367.625	93.29
368.088	83.69
368.552	93.79
369.015	89.89
369.478	98.39
369.941	105.99
370.404	100.09
370.867	102.69
371.331	109.29
371.794	121.69
372.257	109.89
372.72	116.99
373.183	112.49
373.646	104.19
374.109	103.79
374.572	109.29
375.035	110.79
375.497	114.89
375.96	110.19
376.423	100.69
376.886	115.39
377.349	113.09
377.811	104.19
378.274	111.79
378.737	106.39
379.199	117.89
379.662	119.99
380.125	124.09
380.587	126.69
381.05	121.29
381.512	125.79
381.975	135.29
382.437	124.79
382.9	134.79
383.362	137.79
383.825	144.89
384.287	149.19
384.75	144.59
385.212	143.09
385.674	143.89
386.136	138.99
386.599	129.89
387.061	130.49
387.523	131.59
387.985	139.39
388.447	151.99
388.91	143.69
389.372	158.89
389.834	150.09
390.296	146.49
390.758	160.39
391.22	172.09
391.682	211.99
392.144	292.29
392.606	233.79
393.068	169.09
393.529	177.79
393.991	156.69
394.453	149.69
394.915	154.89
395.377	194.39
395.838	210.19
396.3	160.89
396.762	141.99
397.224	140.09
397.685	136.39
398.147	131.79
398.608	133.89
399.07	128.29
399.531	134.09
399.993	148.79
400.454	152.79
400.916	150.59
401.377	145.49
401.839	156.89
402.3	148.89
402.762	174.89
403.223	185.89
403.684	172.59
404.145	162.39
404.607	171.79
405.068	161.09
405.529	173.69
405.99	185.69
406.451	182.49
406.913	174.49
407.374	164.19
407.835	165.99
408.296	168.89
408.757	179.39
409.218	180.49
409.679	176.19
410.14	173.59
410.601	182.09
411.062	182.59
411.522	190.29
411.983	195.29
412.444	187.29
412.905	184.39
413.366	183.99
413.826	202.29
414.287	216.49
414.748	264.79
415.208	250.09
415.669	214.19
416.13	211.39
416.59	209.29
417.051	214.59
417.511	220.09
417.972	233.19
418.432	249.29
418.893	287.49
419.353	247.69
419.814	197.99
420.274	184.69
420.734	186.69
421.195	200.49
421.655	197.49
422.115	193.89
422.576	194.89
423.036	192.69
423.496	212.09
423.956	216.59
424.416	234.89
424.876	264.99
425.336	266.69
425.797	263.99
426.257	264.49
426.717	244.99
427.177	233.49
427.637	226.19
428.097	244.19
428.556	245.79
429.016	280.89
429.476	270.49
429.936	273.19
430.396	294.39
430.856	296.29
431.315	316.59
431.775	357.49
432.235	386.69
432.694	356.99
433.154	363.29
433.614	399.99
434.073	340.89
434.533	289.09
434.993	276.39
435.452	288.79
435.912	293.59
436.371	290.69
436.83	300.99
437.29	276.09
437.749	255.99
438.209	249.69
438.668	278.69
439.127	294.79
439.587	261.49
440.046	242.69
440.505	264.09
440.964	282.89
441.424	324.59
441.883	319.29
442.342	264.79
442.801	229.49
443.26	224.19
443.719	224.09
444.178	213.59
444.637	213.99
445.096	225.09
445.555	226.99
446.014	226.09
446.473	226.09
446.932	234.39
447.391	228.09
447.849	232.19
448.308	223.49
448.767	223.49
449.226	235.29
449.685	244.59
450.143	251.09
450.602	237.99
451.061	237.69
451.519	233.89
451.978	238.49
452.436	234.39
452.895	245.19
453.353	260.59
453.812	247.89
454.27	243.09
454.729	240.49
455.187	245.19
455.646	253.49
456.104	259.29
456.562	269.49
457.021	276.49
457.479	266.49
457.937	279.69
458.395	271.59
458.854	254.59
459.312	257.09
459.77	279.79
460.228	260.29
460.686	244.09
461.144	248.59
461.602	249.69
462.06	246.79
462.518	252.39
462.976	255.59
463.434	259.09
463.892	262.69
464.35	272.79
464.808	292.09
465.266	268.29
465.724	266.99
466.181	267.99
466.639	274.59
467.097	294.79
467.555	300.49
468.012	302.89
468.47	308.69
468.928	330.09
469.385	341.79
469.843	355.79
470.3	353.19
470.758	368.09
471.215	380.99
471.673	419.59
472.13	400.89
472.588	421.99
473.045	380.39
473.503	377.29
473.96	400.19
474.417	396.09
474.875	437.59
475.332	484.49
475.789	464.49
476.246	469.09
476.704	480.99
477.161	513.49
477.618	528.69
478.075	579.19
478.532	625.99
478.989	701.79
479.446	821.99
479.903	783.29
480.36	817.39
480.817	876.59
481.274	991.59
481.731	1083.99
482.188	1195.89
482.645	1328.09
483.102	1426.79
483.558	1578.49
484.015	1625.79
484.472	1610.49
484.929	1548.59
485.385	1493.09
485.842	1454.39
486.299	1394.49
486.755	1326.79
487.212	1119.99
487.668	939.29
488.125	864.89
488.582	790.09
489.038	762.09
489.494	737.89
489.951	702.99
490.407	674.79
490.864	657.49
491.32	652.99
491.776	656.59
492.233	655.09
492.689	620.49
493.145	616.39
493.602	611.49
494.058	627.79
494.514	628.29
494.97	656.09
495.426	654.19
495.882	627.89
496.338	618.19
496.794	625.49
497.251	626.29
497.707	647.09
498.163	642.09
498.618	659.09
499.074	654.69
499.53	696.39
499.986	694.09
500.442	667.29
500.898	646.89
501.354	634.09
501.809	640.29
502.265	651.09
502.721	664.39
503.177	670.69
503.632	667.29
504.088	686.59
504.543	717.29
504.999	717.79
505.455	672.69
505.91	637.79
506.366	645.49
506.821	637.79
507.277	632.69
507.732	627.29
508.187	624.09
508.643	647.99
509.098	645.29
509.553	661.59
510.009	681.69
510.464	689.99
510.919	686.89
511.375	699.19
511.83	712.99
512.285	733.19
512.74	770.49
513.195	805.09
513.65	774.49
514.105	783.89
514.56	774.89
515.015	799.39
515.47	821.29
515.925	797.49
516.38	807.59
516.835	804.09
517.29	792.39
517.745	791.39
518.2	772.19
518.655	763.79
519.109	752.19
519.564	755.49
520.019	744.39
520.474	731.79
520.928	728.89
521.383	731.59
521.838	718.39
522.292	714.89
522.747	722.79
523.201	712.39
523.656	706.69
524.11	699.29
524.565	701.29
525.019	702.49
525.474	699.79
525.928	710.99
526.382	710.19
526.837	711.19
527.291	708.29
527.745	699.69
528.2	701.79
528.654	700.89
529.108	690.59
529.562	696.09
530.016	703.89
530.47	685.29
530.925	712.79
531.379	704.09
531.833	708.39
532.287	720.99
532.741	705.29
533.195	715.19
533.649	719.99
534.103	738.19
534.556	727.39
535.01	725.99
535.464	713.09
535.918	743.59
536.372	729.29
536.826	723.39
537.279	706.99
537.733	725.59
538.187	723.19
538.64	720.49
539.094	729.69
539.548	735.49
540.001	729.69
540.455	730.19
540.908	736.69
541.362	755.39
541.815	746.39
542.269	765.29
542.722	760.39
543.175	778.89
543.629	778.59
544.082	800.99
544.536	787.49
544.989	800.89
545.442	801.99
545.895	795.29
546.349	799.39
546.802	792.49
547.255	810.89
547.708	810.99
548.161	825.19
548.614	824.59
549.067	838.49
549.52	826.89
549.973	818.49
550.426	812.79
550.879	802.89
551.332	808.39
551.785	801.99
552.238	811.99
552.691	816.89
553.144	833.49
553.596	848.99
554.049	866.29
554.502	893.09
554.955	906.99
555.407	919.29
555.86	914.29
556.313	904.79
556.765	884.79
557.218	895.29
557.67	898.69
558.123	877.19
558.576	883.69
559.028	874.59
559.48	892.99
559.933	860.89
560.385	856.79
560.838	818.29
561.29	785.99
561.742	786.39
562.195	774.79
562.647	774.59
563.099	763.39
563.551	781.49
564.004	796.09
564.456	777.79
564.908	771.19
565.36	757.49
565.812	741.69
566.264	731.49
566.716	725.59
567.168	712.29
567.62	729.59
568.072	701.19
568.524	691.39
568.976	678.89
569.428	682.29
569.88	680.89
570.332	683.69
570.784	683.19
571.235	693.29
571.687	697.49
572.139	708.59
572.59	721.59
573.042	706.49
573.494	713.69
573.945	710.89
574.397	691.19
574.849	692.99
575.3	692.49
575.752	687.29
576.203	683.19
576.655	688.49
577.106	678.09
577.557	667.49
578.009	667.79
578.46	671.19
578.912	664.99
579.363	661.19
579.814	674.79
580.265	658.59
580.717	669.09
581.168	667.69
581.619	676.09
582.07	682.49
582.521	665.99
582.972	680.39
583.423	680.09
583.875	689.79
584.326	708.59
584.777	737.99
585.227	825.19
585.678	918.09
586.129	998.29
586.58	1060.69
587.031	1151.89
587.482	1307.79
587.933	1493.29
588.384	1309.59
588.834	978.49
589.285	801.09
589.736	791.19
590.186	770.99
590.637	770.09
591.088	738.19
591.538	727.99
591.989	734.99
592.439	720.49
592.89	720.19
593.34	705.79
593.791	703.09
594.241	697.19
594.692	702.29
595.142	696.59
595.593	703.79
596.043	707.99
596.493	708.49
596.943	718.49
597.394	722.99
597.844	711.79
598.294	722.89
598.744	752.59
599.195	762.29
599.645	807.29
600.095	864.59
600.545	911.49
600.995	951.89
601.445	1012.79
601.895	1078.59
602.345	1120.19
602.795	1111.09
603.245	1057.19
603.695	1010.59
604.145	962.09
604.594	905.29
605.044	853.49
605.494	791.79
605.944	749.29
606.393	738.79
606.843	723.49
607.293	718.89
607.743	728.39
608.192	741.59
608.642	757.49
609.091	765.39
609.541	760.59
609.99	759.79
610.44	752.29
610.889	719.49
611.339	695.89
611.788	692.59
612.238	697.79
612.687	714.59
613.136	707.89
613.586	737.69
614.035	729.99
614.484	758.29
614.933	754.59
615.383	741.09
615.832	736.29
616.281	723.09
616.73	686.79
617.179	658.89
617.628	646.09
618.077	629.19
618.526	618.49
618.975	609.29
619.424	611.79
619.873	608.19
620.322	605.39
620.771	596.29
621.22	600.19
621.669	586.99
622.118	585.79
622.567	570.59
623.015	568.59
623.464	563.09
623.913	555.29
624.361	552.79
624.81	547.89
625.259	551.29
625.707	543.19
626.156	547.19
626.604	559.59
627.053	553.29
627.501	551.59
627.95	564.49
628.398	565.29
628.847	558.29
629.295	563.69
629.744	579.49
630.192	561.69
630.64	562.79
631.089	552.29
631.537	566.29
631.985	570.39
632.433	593.19
632.881	601.49
633.33	648.99
633.778	624.19
634.226	547.89
634.674	565.19
635.122	572.59
635.57	594.29
636.018	617.29
636.466	570.19
636.914	548.09
637.362	564.19
637.81	569.59
638.258	574.59
638.705	571.69
639.153	597.39
639.601	606.89
640.049	634.79
640.497	658.09
640.944	674.29
641.392	622.29
641.84	599.89
642.287	573.79
642.735	555.99
643.182	559.99
643.63	562.89
644.078	575.89
644.525	586.79
644.973	593.99
645.42	599.09
645.867	607.99
646.315	628.89
646.762	650.59
647.21	683.59
647.657	699.59
648.104	734.99
648.551	762.59
648.999	814.89
649.446	897.19
649.893	991.89
650.34	1140.69
650.787	1370.89
651.234	1689.19
651.682	2205.89
652.129	3010.69
652.576	4383.19
653.023	6478.89
653.47	8867.39
653.917	11080.09
654.363	12861.49
654.81	14262.29
655.257	13589.69
655.704	8902.99
656.151	5268.79
656.598	3403.69
657.044	2407.79
657.491	1834.39
657.938	1470.39
658.385	1233.09
658.831	1058.59
659.278	953.39
659.724	827.09
660.171	779.09
660.618	716.69
661.064	678.19
661.511	652.19
661.957	639.49
662.404	640.79
662.85	635.59
663.296	613.99
663.743	538.29
664.189	531.69
664.635	517.39
665.082	515.49
665.528	515.29
665.974	506.09
666.42	502.09
666.867	494.29
667.313	488.39
667.759	475.29
668.205	472.59
668.651	475.89
669.097	472.79
669.543	492.49
669.989	466.99
670.435	440.09
670.881	424.59
671.327	434.09
671.773	456.19
672.219	480.79
672.665	536.19
673.11	569.89
673.556	612.09
674.002	660.99
674.448	636.09
674.893	538.29
675.339	462.49
675.785	426.99
676.23	409.99
676.676	385.09
677.122	370.79
677.567	363.39
678.013	359.69
678.458	348.89
678.904	348.39
679.349	335.09
679.794	348.59
680.24	344.19
680.685	346.19
681.131	338.59
681.576	345.89
682.021	343.89
682.466	337.99
682.912	335.69
683.357	339.79
683.802	369.09
684.247	400.19
684.692	439.99
685.137	476.69
685.583	522.19
686.028	545.19
686.473	511.79
686.918	426.69
687.363	404.09
687.807	383.29
688.252	358.09
688.697	344.29
689.142	329.39
689.587	324.39
690.032	319.89
690.477	339.49
690.921	345.99
691.366	375.29
691.811	393.59
692.255	423.99
692.7	443.39
693.145	493.19
693.589	664.79
694.034	1080.79
694.478	1488.29
694.923	1675.69
695.367	2207.89
695.812	1162.49
696.256	483.89
696.701	357.19
697.145	332.59
697.59	320.69
698.034	316.19
698.478	323.89
698.922	313.09
699.367	315.69
699.811	335.19
700.255	339.09
700.699	366.79
701.143	411.69
701.588	463.09
702.032	505.89
702.476	496.69
702.92	474.29
703.364	465.99
703.808	605.89
704.252	975.69
704.696	1397.29
705.14	1626.09
705.584	2072.89
706.027	1031.69
706.471	504.49
706.915	382.69
707.359	338.59
707.803	305.99
708.246	300.49
708.69	313.29
709.134	308.19
709.577	297.49
710.021	313.39
710.465	292.69
710.908	296.79
711.352	286.59
711.795	301.69
712.239	334.79
712.682	368.59
713.126	406.19
713.569	454.39
714.012	365.19
714.456	310.19
714.899	292.99
715.342	268.89
715.786	245.89
716.229	246.19
716.672	242.09
717.115	250.49
717.558	244.19
718.002	246.69
718.445	252.59
718.888	279.09
719.331	287.39
719.774	300.29
720.217	292.19
720.66	265.89
721.103	253.69
721.546	252.89
721.989	242.89
722.432	227.89
722.874	226.99
723.317	214.79
723.76	230.79
724.203	248.39
724.645	308.59
725.088	425.79
725.531	561.49
725.974	634.79
726.416	529.39
726.859	294.69
727.301	233.89
727.744	233.39
728.187	222.49
728.629	227.89
729.071	232.69
729.514	257.49
729.956	261.19
730.399	270.49
730.841	275.39
731.283	266.39
731.726	266.69
732.168	249.89
732.61	259.79
733.053	275.69
733.495	303.19
733.937	336.89
734.379	383.49
734.821	422.59
735.263	516.59
735.705	790.29
736.148	1487.29
736.59	2456.99
737.032	2961.59
737.474	2402.69
737.916	772.99
738.357	414.99
738.799	313.89
739.241	282.89
739.683	278.99
740.125	278.39
740.567	280.89
741.008	305.89
741.45	307.19
741.892	303.29
742.334	333.79
742.775	345.49
743.217	325.89
743.658	257.79
744.1	241.99
744.542	251.39
744.983	295.59
745.425	335.29
745.866	335.79
746.307	271.49
746.749	274.99
747.19	308.49
747.632	433.09
748.073	826.99
748.514	1769.89
748.956	2742.19
749.397	3432.69
749.838	2844.79
750.279	2860.99
750.72	1448.49
751.162	515.89
751.603	310.09
752.044	237.09
752.485	207.19
752.926	201.59
753.367	198.19
753.808	191.49
754.249	181.39
754.69	176.59
755.131	179.09
755.572	178.69
756.013	174.29
756.453	180.99
756.894	176.19
757.335	182.29
757.776	186.69
758.216	189.39
758.657	194.39
759.098	192.79
759.538	218.89
759.979	245.59
760.42	360.59
760.86	659.69
761.301	1710.09
761.741	4210.09
762.182	6238.79
762.622	4404.89
763.063	1261.09
763.503	514.49
763.943	331.69
764.384	327.29
764.824	383.09
765.264	426.19
765.705	294.59
766.145	204.29
766.585	187.79
767.025	171.69
767.465	175.79
767.906	230.99
768.346	309.79
768.786	333.39
769.226	251.29
769.666	301.89
770.106	573.49
770.546	1467.19
770.986	2543.09
771.426	2316.89
771.866	764.29
772.306	315.69
772.745	202.09
773.185	168.39
773.625	171.29
774.065	148.69
774.505	187.69
774.944	287.49
775.384	641.19
775.824	1183.59
776.263	1169.19
776.703	492.19
777.142	214.59
777.582	151.79
778.021	132.29
778.461	136.49
778.9	133.59
779.34	129.39
779.779	111.59
780.219	112.69
780.658	103.99
781.097	105.99
781.537	105.59
781.976	106.69
782.415	102.59
782.855	96.19
783.294	96.09
783.733	106.69
784.172	104.69
784.611	100.69
785.05	108.19
785.489	103.09
785.928	118.19
786.367	113.79
786.806	116.09
787.245	127.89
787.684	139.79
788.123	142.29
788.562	135.99
789.001	124.39
789.44	118.79
789.879	114.29
790.317	108.89
790.756	124.69
791.195	122.39
791.634	144.59
792.072	189.99
792.511	344.49
792.95	949.79
793.388	2068.69
793.827	1882.69
794.265	652.69
794.704	267.49
795.142	171.09
795.581	146.19
796.019	131.89
796.458	123.19
796.896	118.09
797.334	118.29
797.773	150.29
798.211	203.09
798.649	402.69
799.087	970.59
799.526	1512.09
799.964	1925.29
800.402	1953.79
800.84	735.69
801.278	300.39
801.716	179.59
802.154	149.69
802.592	141.79
803.03	141.79
803.468	121.79
803.906	141.59
804.344	143.19
804.782	139.39
805.22	130.59
805.658	130.49
806.096	145.69
806.533	154.59
806.971	165.49
807.409	207.29
807.847	298.19
808.284	621.29
808.722	1772.09
809.16	3154.99
809.597	2966.29
810.035	5172.59
810.472	5612.39
810.91	2013.99
811.347	759.99
811.785	391.69
812.222	241.69
812.66	192.79
813.097	157.39
813.535	142.19
813.972	126.89
814.409	107.79
814.846	105.89
815.284	106.79
815.721	105.09
816.158	102.79
816.595	118.59
817.032	166.69
817.47	192.79
817.907	162.99
818.344	149.19
818.781	113.69
819.218	91.29
819.655	125.89
820.092	176.49
820.529	211.59
820.966	169.59
821.403	136.99
821.839	103.79
822.276	99.49
822.713	113.89
823.15	130.39
823.587	113.79
824.023	136.19
824.46	280.79
824.897	843.49
825.333	1306.59
825.77	569.39
826.206	213.09
826.643	125.89
827.08	104.19
827.516	77.79
827.953	75.39
828.389	81.99
828.825	64.99
829.262	61.49
829.698	64.99
830.135	57.39
830.571	62.89
831.007	64.19
831.443	66.09
831.88	60.29
832.316	61.09
832.752	66.79
833.188	60.99
833.624	60.19
834.06	65.49
834.497	65.29
834.933	67.99
835.369	70.09
835.805	60.79
836.241	77.49
836.677	75.99
837.112	89.29
837.548	95.19
837.984	130.29
838.42	192.39
838.856	468.69
839.292	1430.39
839.727	2227.79
840.163	1034.19
840.599	865.59
841.034	1924.79
841.47	2069.49
841.906	749.69
842.341	326.19
842.777	226.69
843.212	302.89
843.648	305.39
844.083	152.09
844.519	90.19
844.954	72.89
845.39	62.59
845.825	59.69
846.261	54.09
846.696	50.59
847.131	51.89
847.566	59.59
848.002	48.99
848.437	47.59
848.872	59.49
849.307	60.79
849.742	84.19
850.177	171.99
850.613	527.09
851.048	843.69
851.483	367.89
851.918	147.59
852.353	84.19
852.788	58.09
853.223	54.69
853.657	56.69
854.092	42.29
854.527	44.09
854.962	34.59
855.397	35.19
855.832	50.09
856.266	34.19
856.701	40.69
857.136	34.39
857.57	37.79
858.005	35.49
858.44	62.39
858.874	36.49
859.309	49.39
859.743	41.39
860.178	35.49
860.612	36.79
861.047	50.29
861.481	62.99
861.915	70.69
862.35	51.69
862.784	34.79
863.218	38.69
863.653	30.19
864.087	41.29
864.521	59.09
864.955	60.09
865.39	148.79
865.824	173.19
866.258	106.39
866.692	155.89
867.126	172.59
867.56	106.99
867.994	51.29
868.428	41.79
868.862	42.09
869.296	49.09
869.73	51.89
870.164	55.09
870.598	42.69
871.031	37.29
871.465	35.79
871.899	28.39
872.333	28.89
872.766	27.69
873.2	23.99
873.634	28.59
874.067	23.39
874.501	25.59
874.935	36.09
875.368	25.39
875.802	27.99
876.235	23.59
876.669	18.39
877.102	16.09
877.535	26.59
877.969	24.89
878.402	26.19
878.836	20.19
879.269	17.59
879.702	25.29
880.135	27.79
880.569	17.99
881.002	31.09
881.435	20.69
881.868	20.09
882.301	23.49
882.734	18.69
883.167	19.89
883.601	16.59
884.034	16.39
884.467	12.49
884.899	22.29
885.332	16.09
885.765	19.19
886.198	9.09
886.631	14.69
887.064	19.39
887.497	19.19
887.929	21.49
888.362	15.49
888.795	10.59
889.228	14.79
889.66	22.39
890.093	15.39
890.526	18.39
890.958	11.69
891.391	18.59
891.823	22.29
892.256	18.39
892.688	11.79
893.121	14.59
893.553	18.29
893.985	22.69
894.418	20.89
894.85	10.19
895.282	14.69
895.715	21.19
896.147	15.99
896.579	20.89
897.011	17.39
897.444	18.99
897.876	13.19
898.308	18.39
898.74	19.39
899.172	16.79
899.604	23.29
900.036	19.99
900.468	12.79
900.9	10.79
901.332	14.49
901.764	15.89
902.196	24.99
902.628	15.49
903.06	16.99
903.491	27.99
903.923	24.29
904.355	17.09
904.787	18.29
905.218	21.19
905.65	21.59
906.082	10.99
906.513	3.19
906.945	14.89
907.376	10.69
907.808	21.29
908.239	16.49
908.671	16.99
909.102	19.29
909.534	24.69
909.965	50.19
910.397	89.69
910.828	296.49
911.259	452.59
911.691	201.29
912.122	106.19
912.553	57.69
912.984	35.19
913.415	24.69
913.847	24.29
914.278	13.09
914.709	11.49
915.14	18.39
915.571	15.39
916.002	15.89
916.433	21.29
916.864	17.69
917.295	6.99
917.726	20.99
918.157	20.39
918.587	25.79
919.018	25.09
919.449	18.69
919.88	21.29
920.311	33.39
920.741	47.29
921.172	158.79
921.603	149.39
922.033	68.99
922.464	47.19
922.895	21.39
923.325	17.59
923.756	10.99
924.186	14.39
924.617	29.79
925.047	40.99
925.478	52.19
925.908	42.99
926.338	23.59
926.769	18.79
927.199	22.19
927.629	9.09
928.06	17.59
928.49	18.79
928.92	9.49
929.35	12.09
929.78	7.19
930.21	11.49
930.641	8.79
931.071	9.09
931.501	2.39
931.931	7.59
932.361	6.89
932.791	-0.41
933.221	2.99
933.651	3.29
934.08	13.49
934.51	25.39
934.94	11.59
935.37	10.39
935.8	5.79
936.229	7.89
936.659	11.29
937.089	4.69
937.519	15.69
937.948	19.49
938.378	19.39
938.807	12.19
939.237	0.59
939.666	8.49
940.096	-8.41
940.525	2.89
940.955	4.19
941.384	7.99
941.814	2.69
942.243	-2.61
942.672	2.99
943.102	-5.31
943.531	2.19
943.96	0.39
944.39	7.69
944.819	2.79
945.248	1.69
945.677	1.49
946.106	1.99
946.535	6.89
946.964	2.59
947.393	2.49
947.822	5.09
948.251	-5.31
948.68	6.39
949.109	6.39
949.538	4.49
949.967	3.49
950.396	2.39
950.825	0.29
951.254	9.09
951.682	-3.21
952.111	-0.01
952.54	5.69
952.969	-5.51
953.397	-7.61
953.826	-0.11
954.254	-7.31
954.683	0.69
955.112	-0.01
955.54	-2.21
955.969	-0.61
956.397	-6.91
956.826	-9.41
957.254	3.59
957.682	0.89
958.111	5.29
958.539	-2.51
958.967	-1.41
959.396	-0.01
959.824	2.69
960.252	-3.01
960.68	-10.41
961.109	-5.41
961.537	-6.81
961.965	3.29
962.393	0.79
962.821	-4.11
963.249	0.69
963.677	7.89
964.105	1.19
964.533	43.79
964.961	44.19
965.389	20.99
965.817	12.29
966.245	-2.21
966.672	-3.51
967.1	-11.21
967.528	-4.11
967.956	-1.21
968.383	-1.21
968.811	2.89
969.239	-2.41
969.666	-5.01
970.094	-0.81
970.522	6.69
970.949	-5.31
971.377	-4.41
971.804	-2.61
972.232	-7.51
972.659	-0.81
973.087	-8.21
973.514	0.29
973.941	-6.71
974.369	7.69
974.796	2.49
975.223	3.39
975.651	-2.31
976.078	4.39
976.505	5.29
976.932	6.19
977.359	9.09
977.786	8.39
978.214	-0.21
978.641	-3.31
979.068	3.19
979.495	-1.61
979.922	3.19
980.349	-1.61
980.776	3.69
981.202	0.29
981.629	6.49
982.056	8.19
982.483	5.59
982.91	1.59
983.337	-5.01
983.763	7.09
984.19	-3.11
984.617	-3.71
985.043	-3.81
985.47	-2.71
985.897	-1.81
986.323	-6.11
986.75	4.89
987.176	4.09
987.603	1.99
988.029	-0.91
988.456	-3.81
988.882	-0.21
989.308	-6.91
989.735	-4.11
990.161	-1.11
990.587	-2.81
991.014	-6.31
991.44	3.79
991.866	-3.51
992.292	-13.01
992.719	-2.61
993.145	-1.81
993.571	-7.11
993.997	-6.41
994.423	-2.31
994.849	-9.21
995.275	2.79
995.701	-2.91
996.127	-2.71
996.553	2.59
996.979	-7.11
997.405	1.99
997.83	-6.21
998.256	-5.51
998.682	-9.91
999.108	-8.91
999.534	-0.61
999.959	-1.91
1000.385	-5.91
1000.811	3.49
1001.236	-12.51
1001.662	-9.51
1002.087	-7.61
1002.513	-0.21
1002.938	3.59
1003.364	1.29
1003.789	-6.41
1004.215	-0.31
1004.64	-0.41
1005.066	5.49
1005.491	-0.51
1005.916	0.79
1006.342	-3.51
1006.767	-5.51
1007.192	5.19
1007.617	-6.91
1008.042	-10.21
1008.468	-6.41
1008.893	4.09
1009.318	0.39
1009.743	0.19
1010.168	1.69
1010.593	7.59
1011.018	-10.11
1011.443	-6.31
1011.868	1.79
1012.293	-0.31
1012.718	-9.31
1013.143	-1.11
1013.567	7.79
1013.992	0.29
1014.417	-9.91
1014.842	-5.01
1015.267	-8.01
1015.691	-1.21
1016.116	1.59
1016.541	2.69
1016.965	3.49
1017.39	2.49
1017.814	-3.71
1018.239	-0.31
1018.663	-5.41
1019.088	-12.71
1019.512	-1.41
1019.937	-2.81
1020.361	-5.71
1020.785	-12.51
1021.21	-2.01
1021.634	-6.81
1022.058	-2.01
1022.483	2.99
1022.907	-7.41
1023.331	1.29
1023.755	-0.11
1024.179	-0.71
1024.604	-1.21
1025.028	-3.71
1025.452	-7.51
1025.876	-0.41
1026.3	1.79
1026.724	-8.81
1027.148	-6.31
1027.572	-7.91
1027.996	-3.81
1028.42	-6.51
1028.843	2.09
1029.267	-8.01
1029.691	-2.01
1030.115	-9.51
1030.539	-6.51
1030.962	-9.51
1031.386	-11.31
1031.81	-1.91
1032.233	-1.71
1032.657	-2.51
1033.08	-1.31
1033.504	-0.61
1033.927	-0.31
1034.351	-5.21
1034.774	-7.01
1035.198	1.69
1035.621	-6.71
1036.045	-10.11
1036.468	1.19
1036.891	-3.91
1037.315	-7.81
1037.738	-7.81
1038.161	-2.21
1038.584	-2.01
1039.008	-6.41
1039.431	-4.71
1039.854	-1.81
1040.277	-10.51
1040.7	-13.21
1041.123	-3.61
1041.546	-9.91
1041.969	-9.31
1042.392	-4.61
1042.815	-5.81
1043.238	-0.41
1043.661	0.99
1044.084	-2.41
1044.507	-5.21
1044.93	-4.71
1045.352	-0.31
1045.775	-4.41
1046.198	0.89
1046.621	-2.21
1047.043	2.09
1047.466	0.09
1047.889	-4.41
1048.311	-6.81
1048.734	-1.71
1049.156	-2.81
1049.579	-1.91
1050.001	-4.21
1050.424	4.09
1050.846	-3.51
1051.269	-6.11
1051.691	-4.51
1052.113	-3.61
1052.536	3.29
1052.958	0.99
1053.38	-6.11
1053.802	-2.21
1054.225	-1.91
1054.647	-11.31
1055.069	-0.81
1055.491	3.09
1055.913	-6.61
1056.335	-1.81
1056.757	-5.61
1057.179	-10.01
1057.601	-5.61
1058.023	-6.31
1058.445	-4.21
1058.867	-5.61
1059.289	-2.91
1059.711	-4.61
1060.133	-0.71
1060.555	-5.71
1060.976	-2.11
1061.398	-6.61
1061.82	-5.91
1062.241	-4.11
1062.663	-10.81
1063.085	-1.91
1063.506	-5.71
1063.928	-8.71
1064.35	-7.31
1064.771	-9.01
1065.193	-5.01
1065.614	-9.41
1066.035	-5.41
1066.457	-1.11
1066.878	2.59
1067.3	-3.51
1067.721	-2.41
1068.142	-8.21
1068.564	-2.61
1068.985	-4.11
1069.406	1.59
1069.827	-2.81
1070.248	-0.31
1070.67	-8.01
1071.091	-3.31
1071.512	0.79
1071.933	-6.81
1072.354	0.79
1072.775	-1.41
1073.196	-5.71
1073.617	-5.81
1074.038	-7.71
1074.459	-3.91
1074.88	-11.11
1075.3	1.89
1075.721	-6.01
1076.142	1.59
1076.563	-5.21
1076.983	-8.31
1077.404	-2.11
1077.825	-8.41
1078.246	-3.51
1078.666	-15.01
1079.087	-6.31
1079.507	-6.21
1079.928	-1.91
1080.348	-2.21
1080.769	-7.71
1081.189	-3.91
1081.61	-7.21
1082.03	-5.01
1082.451	-3.21
1082.871	-6.31
1083.291	-5.51
1083.711	-4.21
1084.132	-6.91
1084.552	-4.21
1084.972	-4.81
1085.392	-4.51
1085.813	-6.71
1086.233	-9.41
1086.653	-3.91
1087.073	-2.11
1087.493	-6.91
1087.913	-2.81
1088.333	-4.61
1088.753	-5.91
1089.173	1.19
1089.593	-6.41
1090.013	4.19
1090.433	0.69
1090.852	-8.31
1091.272	-5.71
1091.692	-6.21
1092.112	-1.11
1092.531	-7.51
1092.951	-7.51
1093.371	-6.31
1093.79	1.79
1094.21	-4.61
1094.63	-5.11
1095.049	-4.01
1095.469	-9.51
1095.888	-2.71
1096.308	-1.31
1096.727	0.89
1097.146	-6.61
1097.566	-2.21
1097.985	-7.31
1098.405	0.49
1098.824	-2.21
1099.243	-7.21
1099.662	-10.91
1100.082	-5.81
1100.501	-2.91
1100.92	-3.01
1101.339	-1.61
1101.758	-4.71
