Data from 20171114-ORNL-Ar_H_NY_Subt18_08-05-44-155.txt Node
Date: Tue Nov 14 08:05:44 EST 2017
User: Ender
Spectrometer: HR+D1039
Trigger mode: 0
Integration Time (sec): 2.730000E-2
Scans to average: 10
Electric dark correction enabled: true
Nonlinearity correction enabled: false
Boxcar width: 0
XAxis mode: Wavelengths
Number of Pixels in Spectrum: 2048
>>>>>Begin Spectral Data<<<<<
187.836	-5.27
188.309	-5.27
188.782	-5.27
189.255	-3.58
189.728	-1.57
190.201	8.52
190.674	-2.58
191.147	5.32
191.619	-7.08
192.092	-0.07
192.565	6.92
193.038	0.02
193.511	2.52
193.984	-4.38
194.456	-0.38
194.929	2.83
195.402	-1.58
195.874	0.33
196.347	0.02
196.82	-3.67
197.292	10.83
197.765	-0.77
198.237	-8.38
198.71	5.52
199.182	0.83
199.655	9.62
200.127	7.73
200.6	-2.48
201.072	-6.58
201.544	-4.07
202.017	0.93
202.489	2.23
202.961	-0.87
203.433	-1.98
203.906	-3.87
204.378	-3.77
204.85	0.73
205.322	-6.58
205.794	-1.58
206.266	-2.38
206.739	-10.67
207.211	2.23
207.683	-9.67
208.155	-3.58
208.627	-7.57
209.099	-2.27
209.57	-8.67
210.042	-8.27
210.514	-2.77
210.986	-0.88
211.458	-9.27
211.93	-0.77
212.402	-0.67
212.873	-6.67
213.345	-2.88
213.817	-11.88
214.288	-5.18
214.76	-6.58
215.232	-7.47
215.703	-0.47
216.175	-3.38
216.646	1.23
217.118	-5.98
217.589	-2.27
218.061	-3.08
218.532	-4.67
219.004	-1.27
219.475	-1.77
219.946	-5.58
220.418	-7.57
220.889	6.52
221.36	5.43
221.832	-3.58
222.303	-5.97
222.774	0.93
223.245	-5.57
223.717	-9.17
224.188	-3.07
224.659	-10.77
225.13	-5.17
225.601	-1.48
226.072	2.03
226.543	-2.58
227.014	1.33
227.485	-2.08
227.956	-5.38
228.427	-0.38
228.898	-0.17
229.369	6.12
229.839	4.02
230.31	-5.98
230.781	0.93
231.252	-4.38
231.722	-4.18
232.193	-2.47
232.664	1.83
233.135	4.23
233.605	-1.17
234.076	-3.48
234.546	1.12
235.017	0.62
235.487	3.33
235.958	-3.57
236.428	-3.57
236.899	7.33
237.369	6.63
237.84	1.33
238.31	4.92
238.78	0.63
239.251	-3.47
239.721	-2.17
240.191	3.53
240.662	-0.17
241.132	5.62
241.602	-3.27
242.072	-1.17
242.542	12.03
243.013	0.92
243.483	5.83
243.953	1.73
244.423	1.93
244.893	-1.27
245.363	5.12
245.833	4.12
246.303	1.52
246.773	9.23
247.243	4.23
247.712	3.92
248.182	14.92
248.652	8.92
249.122	1.92
249.592	18.93
250.061	19.73
250.531	33.33
251.001	16.43
251.471	28.12
251.94	18.52
252.41	6.03
252.879	1.03
253.349	11.73
253.818	11.02
254.288	8.03
254.757	4.73
255.227	6.43
255.696	0.83
256.166	9.43
256.635	13.83
257.105	11.23
257.574	12.02
258.043	9.13
258.513	12.33
258.982	16.23
259.451	5.62
259.92	13.93
260.389	10.03
260.859	22.52
261.328	12.33
261.797	19.03
262.266	9.83
262.735	13.63
263.204	8.52
263.673	0.33
264.142	3.93
264.611	-5.27
265.08	3.02
265.549	-0.87
266.018	10.23
266.487	3.73
266.955	-0.17
267.424	7.12
267.893	3.73
268.362	3.13
268.83	8.23
269.299	14.23
269.768	11.42
270.236	12.23
270.705	9.33
271.174	11.13
271.642	15.02
272.111	12.83
272.579	22.82
273.048	24.62
273.516	32.62
273.985	26.43
274.453	30.43
274.922	27.33
275.39	9.12
275.858	10.12
276.327	12.62
276.795	22.12
277.263	12.42
277.731	35.73
278.2	56.62
278.668	65.62
279.136	46.73
279.604	13.73
280.072	20.33
280.54	15.33
281.008	12.02
281.477	13.33
281.945	16.23
282.413	13.23
282.881	13.23
283.348	12.63
283.816	16.12
284.284	17.62
284.752	23.82
285.22	18.12
285.688	14.73
286.156	20.53
286.623	41.73
287.091	51.03
287.559	25.83
288.026	21.23
288.494	17.62
288.962	7.62
289.429	13.82
289.897	20.13
290.364	14.23
290.832	16.23
291.3	18.53
291.767	9.43
292.234	25.02
292.702	19.03
293.169	18.03
293.637	26.93
294.104	19.62
294.571	14.73
295.039	15.42
295.506	15.62
295.973	23.12
296.44	18.23
296.908	22.13
297.375	21.83
297.842	22.02
298.309	18.23
298.776	16.63
299.243	18.62
299.71	18.12
300.177	24.43
300.644	25.33
301.111	27.93
301.578	30.02
302.045	21.83
302.512	27.23
302.979	24.43
303.446	26.02
303.913	21.03
304.379	18.43
304.846	32.33
305.313	27.23
305.78	21.73
306.246	28.02
306.713	30.32
307.18	29.63
307.646	25.82
308.113	29.83
308.579	25.12
309.046	28.83
309.512	32.33
309.979	20.32
310.445	29.73
310.912	28.62
311.378	36.62
311.845	33.23
312.311	29.43
312.777	38.12
313.244	33.23
313.71	41.73
314.176	31.73
314.642	31.83
315.109	30.73
315.575	38.33
316.041	39.53
316.507	36.92
316.973	43.42
317.439	34.12
317.905	40.23
318.371	36.33
318.837	38.43
319.303	35.33
319.769	33.23
320.235	47.33
320.701	38.52
321.167	39.32
321.633	33.33
322.099	42.32
322.564	53.33
323.03	39.52
323.496	44.62
323.962	47.83
324.427	39.52
324.893	44.23
325.359	39.23
325.824	44.62
326.29	38.02
326.755	41.02
327.221	48.73
327.686	37.33
328.152	47.23
328.617	40.62
329.083	50.92
329.548	49.52
330.014	48.62
330.479	37.92
330.944	45.82
331.41	46.33
331.875	48.53
332.34	45.62
332.805	43.82
333.271	47.33
333.736	44.93
334.201	54.33
334.666	52.73
335.131	59.73
335.596	54.42
336.061	57.62
336.526	45.52
336.991	55.53
337.456	62.23
337.921	51.12
338.386	46.02
338.851	50.12
339.316	48.12
339.781	47.33
340.246	45.43
340.711	47.12
341.175	53.83
341.64	46.93
342.105	56.73
342.569	60.42
343.034	55.92
343.499	59.33
343.963	58.53
344.428	65.73
344.893	59.92
345.357	59.73
345.822	61.52
346.286	65.83
346.751	79.13
347.215	72.62
347.679	77.12
348.144	98.23
348.608	83.53
349.073	71.83
349.537	83.03
350.001	80.12
350.465	87.23
350.93	86.23
351.394	87.93
351.858	78.93
352.322	85.03
352.786	87.43
353.25	99.83
353.715	115.03
354.179	105.62
354.643	124.93
355.107	131.43
355.571	111.83
356.035	104.43
356.498	123.62
356.962	131.23
357.426	131.73
357.89	125.62
358.354	98.33
358.818	83.52
359.281	93.93
359.745	81.73
360.209	83.53
360.673	81.53
361.136	90.03
361.6	88.73
362.064	84.73
362.527	91.02
362.991	93.12
363.454	83.02
363.918	80.52
364.381	85.62
364.845	86.33
365.308	89.12
365.772	88.83
366.235	88.83
366.698	87.42
367.162	90.82
367.625	88.23
368.088	88.33
368.552	93.33
369.015	89.73
369.478	100.62
369.941	103.23
370.404	96.42
370.867	101.83
371.331	107.12
371.794	118.42
372.257	112.73
372.72	123.73
373.183	110.53
373.646	104.83
374.109	102.93
374.572	108.92
375.035	115.02
375.497	110.12
375.96	106.73
376.423	98.42
376.886	113.33
377.349	108.23
377.811	102.23
378.274	106.03
378.737	110.23
379.199	112.73
379.662	108.93
380.125	119.83
380.587	119.93
381.05	123.53
381.512	126.52
381.975	135.83
382.437	132.03
382.9	132.73
383.362	138.73
383.825	145.03
384.287	149.62
384.75	142.02
385.212	137.12
385.674	139.82
386.136	138.83
386.599	131.33
387.061	132.83
387.523	127.62
387.985	133.82
388.447	147.83
388.91	144.33
389.372	159.53
389.834	156.12
390.296	150.52
390.758	152.02
391.22	173.43
391.682	208.33
392.144	289.62
392.606	217.12
393.068	167.63
393.529	169.02
393.991	150.43
394.453	156.83
394.915	159.62
395.377	196.12
395.838	214.62
396.3	158.52
396.762	144.73
397.224	140.52
397.685	128.02
398.147	133.23
398.608	133.43
399.07	134.43
399.531	138.73
399.993	142.73
400.454	151.83
400.916	147.62
401.377	139.53
401.839	160.02
402.3	154.73
402.762	169.12
403.223	174.83
403.684	173.62
404.145	158.23
404.607	168.83
405.068	165.62
405.529	168.93
405.99	188.03
406.451	167.42
406.913	176.73
407.374	164.73
407.835	159.93
408.296	166.73
408.757	169.83
409.218	190.33
409.679	180.33
410.14	176.83
410.601	173.12
411.062	181.73
411.522	186.62
411.983	188.62
412.444	181.33
412.905	180.53
413.366	183.52
413.826	196.73
414.287	215.62
414.748	267.92
415.208	249.93
415.669	208.52
416.13	205.43
416.59	203.02
417.051	211.73
417.511	219.73
417.972	239.02
418.432	245.23
418.893	288.23
419.353	251.73
419.814	204.12
420.274	182.02
420.734	182.32
421.195	204.12
421.655	197.73
422.115	197.23
422.576	191.82
423.036	197.13
423.496	215.52
423.956	217.02
424.416	235.23
424.876	269.32
425.336	255.43
425.797	259.23
426.257	260.52
426.717	244.83
427.177	238.23
427.637	228.52
428.097	235.82
428.556	248.33
429.016	268.42
429.476	267.13
429.936	282.83
430.396	277.03
430.856	288.93
431.315	311.62
431.775	356.93
432.235	379.53
432.694	354.82
433.154	364.12
433.614	391.62
434.073	342.13
434.533	284.73
434.993	278.73
435.452	280.72
435.912	294.93
436.371	292.02
436.83	287.93
437.29	277.82
437.749	253.42
438.209	242.12
438.668	278.22
439.127	284.53
439.587	262.33
440.046	250.23
440.505	268.83
440.964	281.02
441.424	326.52
441.883	314.93
442.342	257.43
442.801	229.53
443.26	219.22
443.719	215.62
444.178	218.12
444.637	209.23
445.096	223.32
445.555	228.62
446.014	227.32
446.473	225.62
446.932	231.73
447.391	226.62
447.849	228.23
448.308	225.03
448.767	221.02
449.226	241.02
449.685	235.62
450.143	247.83
450.602	240.73
451.061	231.33
451.519	235.73
451.978	238.83
452.436	235.53
452.895	240.33
453.353	256.82
453.812	240.43
454.27	240.33
454.729	236.52
455.187	235.33
455.646	247.02
456.104	246.03
456.562	265.93
457.021	272.72
457.479	264.53
457.937	272.43
458.395	263.93
458.854	251.62
459.312	254.23
459.77	284.42
460.228	261.43
460.686	244.12
461.144	240.72
461.602	248.32
462.06	240.02
462.518	255.43
462.976	262.43
463.434	264.83
463.892	266.03
464.35	274.02
464.808	294.53
465.266	269.03
465.724	271.33
466.181	274.92
466.639	271.53
467.097	290.33
467.555	309.03
468.012	306.33
468.47	311.53
468.928	333.73
469.385	344.93
469.843	351.92
470.3	357.93
470.758	361.73
471.215	384.12
471.673	416.83
472.13	408.73
472.588	421.92
473.045	371.52
473.503	371.33
473.96	398.42
474.417	410.22
474.875	441.62
475.332	485.12
475.789	476.02
476.246	464.82
476.704	488.93
477.161	511.53
477.618	532.53
478.075	559.73
478.532	624.53
478.989	703.62
479.446	819.73
479.903	789.63
480.36	836.72
480.817	878.93
481.274	982.22
481.731	1084.93
482.188	1181.42
482.645	1321.53
483.102	1421.72
483.558	1557.42
484.015	1610.22
484.472	1580.12
484.929	1524.12
485.385	1484.12
485.842	1447.62
486.299	1367.02
486.755	1308.22
487.212	1108.82
487.668	934.33
488.125	854.22
488.582	784.73
489.038	753.03
489.494	712.32
489.951	694.53
490.407	668.83
490.864	645.73
491.32	656.62
491.776	648.73
492.233	658.82
492.689	621.42
493.145	616.43
493.602	607.33
494.058	621.53
494.514	622.83
494.97	643.63
495.426	653.23
495.882	632.53
496.338	627.33
496.794	635.83
497.251	630.33
497.707	642.73
498.163	651.12
498.618	656.02
499.074	658.62
499.53	683.32
499.986	680.43
500.442	663.43
500.898	643.52
501.354	625.73
501.809	638.02
502.265	635.62
502.721	660.32
503.177	678.13
503.632	669.42
504.088	677.02
504.543	712.32
504.999	714.73
505.455	674.32
505.91	638.33
506.366	639.03
506.821	633.12
507.277	624.62
507.732	625.43
508.187	629.53
508.643	642.42
509.098	644.03
509.553	654.02
510.009	671.73
510.464	680.72
510.919	697.53
511.375	706.82
511.83	707.73
512.285	725.73
512.74	778.42
513.195	801.03
513.65	780.63
514.105	782.62
514.56	783.93
515.015	800.43
515.47	818.23
515.925	802.33
516.38	802.33
516.835	800.72
517.29	788.52
517.745	787.23
518.2	763.73
518.655	753.32
519.109	749.83
519.564	754.52
520.019	731.12
520.474	726.02
520.928	734.93
521.383	720.43
521.838	721.62
522.292	715.12
522.747	713.42
523.201	708.62
523.656	706.53
524.11	702.63
524.565	697.33
525.019	698.23
525.474	702.42
525.928	708.52
526.382	701.92
526.837	698.53
527.291	700.53
527.745	695.12
528.2	708.93
528.654	695.73
529.108	688.53
529.562	688.72
530.016	685.33
530.47	695.83
530.925	694.62
531.379	696.53
531.833	714.63
532.287	703.73
532.741	708.93
533.195	716.73
533.649	716.62
534.103	723.53
534.556	712.12
535.01	720.13
535.464	715.03
535.918	725.93
536.372	725.93
536.826	723.13
537.279	723.02
537.733	717.23
538.187	727.83
538.64	721.23
539.094	739.83
539.548	730.13
540.001	726.32
540.455	730.82
540.908	738.92
541.362	741.33
541.815	751.83
542.269	756.02
542.722	755.83
543.175	781.53
543.629	773.82
544.082	794.03
544.536	784.62
544.989	798.73
545.442	793.22
545.895	801.93
546.349	791.52
546.802	787.62
547.255	808.53
547.708	816.03
548.161	817.23
548.614	824.52
549.067	836.92
549.52	827.03
549.973	821.12
550.426	814.43
550.879	803.42
551.332	811.63
551.785	804.92
552.238	811.12
552.691	817.02
553.144	831.62
553.596	848.83
554.049	872.03
554.502	905.22
554.955	910.23
555.407	925.42
555.86	906.42
556.313	903.92
556.765	880.82
557.218	894.43
557.67	886.52
558.123	885.93
558.576	869.92
559.028	871.63
559.48	888.23
559.933	873.53
560.385	846.02
560.838	817.23
561.29	784.12
561.742	784.63
562.195	774.92
562.647	773.63
563.099	782.52
563.551	769.23
564.004	790.73
564.456	767.73
564.908	770.23
565.36	757.33
565.812	737.82
566.264	724.52
566.716	720.33
567.168	725.93
567.62	717.23
568.072	702.53
568.524	699.33
568.976	689.62
569.428	670.03
569.88	684.33
570.332	681.63
570.784	683.43
571.235	690.02
571.687	697.33
572.139	704.23
572.59	710.43
573.042	710.52
573.494	703.52
573.945	712.02
574.397	699.42
574.849	683.33
575.3	690.92
575.752	686.22
576.203	676.82
576.655	684.12
577.106	659.03
577.557	664.63
578.009	665.23
578.46	659.73
578.912	664.52
579.363	662.23
579.814	658.32
580.265	661.43
580.717	661.92
581.168	668.03
581.619	681.83
582.07	680.52
582.521	676.02
582.972	672.02
583.423	681.93
583.875	681.73
584.326	696.62
584.777	730.63
585.227	809.22
585.678	910.03
586.129	981.82
586.58	1057.42
587.031	1130.03
587.482	1298.12
587.933	1461.62
588.384	1282.82
588.834	962.92
589.285	803.23
589.736	784.92
590.186	772.73
590.637	761.12
591.088	736.52
591.538	730.73
591.989	727.53
592.439	723.63
592.89	714.43
593.34	704.33
593.791	709.32
594.241	695.63
594.692	709.33
595.142	699.73
595.593	699.92
596.043	712.02
596.493	706.12
596.943	713.63
597.394	715.62
597.844	713.12
598.294	716.52
598.744	747.53
599.195	776.42
599.645	808.12
600.095	843.32
600.545	905.63
600.995	954.03
601.445	1020.52
601.895	1077.13
602.345	1123.72
602.795	1112.93
603.245	1060.03
603.695	1003.12
604.145	951.03
604.594	904.23
605.044	853.03
605.494	785.23
605.944	742.92
606.393	738.23
606.843	714.83
607.293	722.73
607.743	728.42
608.192	735.12
608.642	753.83
609.091	771.23
609.541	763.42
609.99	762.52
610.44	761.93
610.889	720.52
611.339	697.62
611.788	687.23
612.238	691.43
612.687	702.43
613.136	710.62
613.586	721.82
614.035	732.73
614.484	752.12
614.933	743.92
615.383	732.12
615.832	729.83
616.281	721.43
616.73	682.73
617.179	653.32
617.628	637.12
618.077	622.92
618.526	614.62
618.975	606.43
619.424	601.52
619.873	602.73
620.322	615.92
620.771	599.03
621.22	594.93
621.669	584.52
622.118	580.52
622.567	573.73
623.015	566.53
623.464	569.83
623.913	559.23
624.361	541.23
624.81	544.53
625.259	550.23
625.707	547.13
626.156	548.62
626.604	557.73
627.053	555.73
627.501	560.32
627.95	568.13
628.398	569.43
628.847	560.63
629.295	568.53
629.744	560.23
630.192	556.23
630.64	551.43
631.089	550.93
631.537	562.12
631.985	576.23
632.433	576.42
632.881	595.33
633.33	641.93
633.778	622.83
634.226	551.13
634.674	562.43
635.122	567.63
635.57	574.62
636.018	613.62
636.466	572.83
636.914	544.83
637.362	560.63
637.81	556.02
638.258	568.52
638.705	565.22
639.153	595.53
639.601	595.53
640.049	625.23
640.497	657.52
640.944	683.13
641.392	635.92
641.84	611.02
642.287	576.73
642.735	563.73
643.182	565.83
643.63	565.42
644.078	566.23
644.525	578.32
644.973	580.83
645.42	598.13
645.867	600.03
646.315	632.43
646.762	658.63
647.21	684.63
647.657	684.23
648.104	733.12
648.551	751.53
648.999	813.03
649.446	889.23
649.893	986.22
650.34	1132.82
650.787	1350.52
651.234	1679.93
651.682	2193.02
652.129	2998.32
652.576	4280.82
653.023	6342.22
653.47	8758.73
653.917	10954.32
654.363	12712.53
654.81	14082.93
655.257	13438.02
655.704	8786.22
656.151	5186.62
656.598	3363.82
657.044	2382.62
657.491	1831.82
657.938	1478.62
658.385	1228.92
658.831	1057.63
659.278	939.53
659.724	835.43
660.171	771.62
660.618	699.53
661.064	674.73
661.511	649.83
661.957	646.82
662.404	636.12
662.85	630.52
663.296	607.53
663.743	548.12
664.189	524.32
664.635	526.42
665.082	513.03
665.528	518.93
665.974	500.12
666.42	498.13
666.867	495.53
667.313	486.12
667.759	475.02
668.205	461.73
668.651	469.43
669.097	464.23
669.543	487.02
669.989	456.33
670.435	432.63
670.881	428.83
671.327	438.42
671.773	452.82
672.219	475.52
672.665	529.02
673.11	563.32
673.556	615.22
674.002	639.62
674.448	634.32
674.893	532.62
675.339	463.63
675.785	436.33
676.23	409.23
676.676	381.23
677.122	369.32
677.567	365.22
678.013	360.12
678.458	354.92
678.904	350.83
679.349	341.33
679.794	339.62
680.24	344.23
680.685	344.72
681.131	334.53
681.576	338.52
682.021	345.12
682.466	335.52
682.912	338.73
683.357	335.73
683.802	367.83
684.247	398.73
684.692	443.73
685.137	478.53
685.583	523.12
686.028	544.12
686.473	498.02
686.918	437.23
687.363	404.32
687.807	378.73
688.252	350.93
688.697	347.93
689.142	331.03
689.587	321.82
690.032	321.73
690.477	331.93
690.921	338.63
691.366	367.92
691.811	389.82
692.255	407.42
692.7	447.83
693.145	486.73
693.589	660.32
694.034	1079.12
694.478	1484.02
694.923	1683.43
695.367	2207.03
695.812	1156.53
696.256	490.73
696.701	356.43
697.145	339.62
697.59	319.43
698.034	317.52
698.478	323.93
698.922	311.43
699.367	319.92
699.811	327.83
700.255	346.23
700.699	371.92
701.143	409.52
701.588	457.63
702.032	506.53
702.476	499.63
702.92	475.13
703.364	467.23
703.808	605.62
704.252	981.43
704.696	1386.02
705.14	1624.32
705.584	2065.22
706.027	1021.62
706.471	505.12
706.915	380.13
707.359	344.03
707.803	314.52
708.246	303.13
708.69	308.23
709.134	303.22
709.577	301.62
710.021	305.43
710.465	293.13
710.908	293.33
711.352	284.03
711.795	295.32
712.239	344.73
712.682	364.73
713.126	401.62
713.569	449.03
714.012	360.92
714.456	310.93
714.899	280.33
715.342	270.63
715.786	248.73
716.229	247.32
716.672	248.83
717.115	236.83
717.558	246.33
718.002	245.23
718.445	249.42
718.888	277.82
719.331	286.33
719.774	295.22
720.217	290.62
720.66	273.13
721.103	259.82
721.546	242.52
721.989	239.52
722.432	225.03
722.874	232.12
723.317	220.33
723.76	229.33
724.203	247.62
724.645	301.92
725.088	425.62
725.531	541.82
725.974	623.32
726.416	532.52
726.859	302.32
727.301	235.73
727.744	232.33
728.187	220.83
728.629	232.23
729.071	233.73
729.514	253.33
729.956	266.63
730.399	268.33
730.841	280.73
731.283	266.83
731.726	263.83
732.168	249.12
732.61	257.82
733.053	276.43
733.495	303.33
733.937	333.23
734.379	380.32
734.821	415.33
735.263	513.93
735.705	780.33
736.148	1480.82
736.59	2459.43
737.032	2970.72
737.474	2419.12
737.916	778.62
738.357	408.12
738.799	315.92
739.241	287.53
739.683	271.82
740.125	282.33
740.567	287.83
741.008	300.23
741.45	308.03
741.892	302.23
742.334	333.93
742.775	347.43
743.217	321.43
743.658	262.32
744.1	248.13
744.542	248.62
744.983	299.12
745.425	339.32
745.866	336.12
746.307	276.92
746.749	276.33
747.19	304.43
747.632	429.73
748.073	813.63
748.514	1746.02
748.956	2739.53
749.397	3395.53
749.838	2840.23
750.279	2865.92
750.72	1453.52
751.162	531.33
751.603	317.93
752.044	243.73
752.485	207.12
752.926	201.82
753.367	193.82
753.808	185.32
754.249	176.83
754.69	176.93
755.131	171.93
755.572	174.23
756.013	169.83
756.453	178.33
756.894	181.83
757.335	183.13
757.776	188.12
758.216	187.62
758.657	186.43
759.098	198.12
759.538	219.62
759.979	252.12
760.42	350.92
760.86	661.12
761.301	1709.92
761.741	4180.62
762.182	6199.42
762.622	4401.73
763.063	1261.42
763.503	524.73
763.943	329.93
764.384	330.02
764.824	387.93
765.264	417.92
765.705	289.93
766.145	209.42
766.585	177.52
767.025	174.02
767.465	180.73
767.906	229.62
768.346	302.52
768.786	323.52
769.226	249.33
769.666	302.32
770.106	583.02
770.546	1463.43
770.986	2538.93
771.426	2287.32
771.866	763.83
772.306	317.23
772.745	197.83
773.185	168.12
773.625	169.83
774.065	162.93
774.505	189.32
774.944	279.73
775.384	625.93
775.824	1139.83
776.263	1140.03
776.703	486.82
777.142	215.23
777.582	154.52
778.021	133.12
778.461	132.83
778.9	137.83
779.34	125.53
779.779	113.12
780.219	112.43
780.658	108.03
781.097	106.62
781.537	108.73
781.976	99.82
782.415	99.42
782.855	98.52
783.294	101.63
783.733	110.83
784.172	106.42
784.611	104.62
785.05	106.62
785.489	105.53
785.928	113.93
786.367	121.83
786.806	118.62
787.245	125.62
787.684	130.12
788.123	145.43
788.562	130.52
789.001	124.23
789.44	117.73
789.879	108.92
790.317	113.62
790.756	122.23
791.195	123.43
791.634	133.83
792.072	199.23
792.511	345.93
792.95	942.62
793.388	2040.22
793.827	1875.03
794.265	647.83
794.704	267.62
795.142	172.13
795.581	147.23
796.019	131.62
796.458	121.03
796.896	120.53
797.334	121.62
797.773	145.93
798.211	213.33
798.649	409.62
799.087	973.23
799.526	1521.72
799.964	1910.22
800.402	1954.03
800.84	735.43
801.278	285.42
801.716	183.52
802.154	144.73
802.592	137.53
803.03	135.53
803.468	131.53
803.906	140.03
804.344	153.43
804.782	139.62
805.22	132.73
805.658	128.23
806.096	144.93
806.533	145.73
806.971	165.42
807.409	201.12
807.847	299.63
808.284	616.93
808.722	1759.72
809.16	3141.12
809.597	2948.23
810.035	5168.32
810.472	5620.73
810.91	2017.03
811.347	758.93
811.785	387.83
812.222	245.93
812.66	190.03
813.097	153.12
813.535	134.12
813.972	123.73
814.409	118.23
814.846	108.13
815.284	106.12
815.721	102.73
816.158	102.63
816.595	113.73
817.032	166.92
817.47	189.83
817.907	164.53
818.344	142.42
818.781	111.03
819.218	95.62
819.655	115.03
820.092	176.73
820.529	204.23
820.966	169.63
821.403	127.33
821.839	100.03
822.276	98.03
822.713	114.82
823.15	127.03
823.587	113.23
824.023	141.83
824.46	286.63
824.897	839.83
825.333	1310.62
825.77	559.93
826.206	225.23
826.643	128.92
827.08	98.93
827.516	74.33
827.953	74.23
828.389	86.42
828.825	68.93
829.262	66.33
829.698	57.02
830.135	63.03
830.571	56.82
831.007	59.43
831.443	61.83
831.88	59.13
832.316	60.23
832.752	61.12
833.188	61.03
833.624	62.53
834.06	66.23
834.497	71.23
834.933	78.03
835.369	77.52
835.805	63.12
836.241	72.73
836.677	78.93
837.112	83.23
837.548	99.33
837.984	123.43
838.42	187.52
838.856	464.33
839.292	1433.03
839.727	2228.23
840.163	1028.72
840.599	860.62
841.034	1919.32
841.47	2056.12
841.906	755.52
842.341	318.42
842.777	227.23
843.212	299.93
843.648	297.12
844.083	148.23
844.519	93.43
844.954	73.43
845.39	54.73
845.825	61.93
846.261	55.73
846.696	54.33
847.131	55.03
847.566	58.23
848.002	48.53
848.437	51.93
848.872	51.62
849.307	57.03
849.742	83.23
850.177	165.73
850.613	526.93
851.048	852.32
851.483	361.13
851.918	145.42
852.353	85.62
852.788	56.62
853.223	51.92
853.657	58.52
854.092	48.43
854.527	39.42
854.962	39.02
855.397	41.73
855.832	50.23
856.266	42.53
856.701	37.13
857.136	33.83
857.57	41.13
858.005	48.33
858.44	58.62
858.874	44.73
859.309	48.23
859.743	40.62
860.178	43.52
860.612	44.73
861.047	47.83
861.481	65.12
861.915	67.23
862.35	46.33
862.784	36.12
863.218	37.33
863.653	35.62
864.087	44.62
864.521	55.03
864.955	72.03
865.39	149.02
865.824	171.63
866.258	111.13
866.692	160.33
867.126	171.92
867.56	102.23
867.994	51.32
868.428	38.93
868.862	46.33
869.296	58.63
869.73	54.73
870.164	56.52
870.598	47.73
871.031	34.62
871.465	27.12
871.899	30.63
872.333	23.83
872.766	23.43
873.2	20.02
873.634	29.43
874.067	25.33
874.501	29.62
874.935	35.02
875.368	32.12
875.802	28.23
876.235	28.73
876.669	24.73
877.102	25.62
877.535	26.83
877.969	21.43
878.402	21.02
878.836	15.83
879.269	21.53
879.702	21.33
880.135	21.12
880.569	24.23
881.002	29.73
881.435	21.12
881.868	14.73
882.301	26.43
882.734	11.73
883.167	24.73
883.601	19.43
884.034	15.02
884.467	12.93
884.899	21.33
885.332	16.12
885.765	15.93
886.198	17.42
886.631	14.82
887.064	14.83
887.497	22.62
887.929	20.62
888.362	17.12
888.795	14.73
889.228	20.93
889.66	21.02
890.093	15.32
890.526	12.02
890.958	19.23
891.391	23.03
891.823	23.12
892.256	15.12
892.688	11.42
893.121	17.33
893.553	14.83
893.985	26.73
894.418	18.42
894.85	13.73
895.282	16.52
895.715	16.43
896.147	16.43
896.579	13.33
897.011	16.03
897.444	16.62
897.876	10.23
898.308	18.52
898.74	12.73
899.172	17.43
899.604	28.43
900.036	19.62
900.468	17.83
900.9	13.83
901.332	22.12
901.764	21.62
902.196	17.43
902.628	11.02
903.06	17.52
903.491	31.33
903.923	23.02
904.355	16.13
904.787	25.42
905.218	24.53
905.65	20.23
906.082	12.92
906.513	11.92
906.945	11.23
907.376	8.62
907.808	17.02
908.239	21.83
908.671	17.83
909.102	15.93
909.534	20.03
909.965	51.93
910.397	87.73
910.828	308.62
911.259	457.63
911.691	207.33
912.122	102.33
912.553	55.12
912.984	33.33
913.415	28.53
913.847	22.73
914.278	20.83
914.709	10.73
915.14	18.23
915.571	16.93
916.002	14.73
916.433	17.93
916.864	17.83
917.295	12.52
917.726	22.33
918.157	13.82
918.587	30.02
919.018	19.03
919.449	14.63
919.88	20.42
920.311	29.62
920.741	47.02
921.172	159.43
921.603	145.12
922.033	71.62
922.464	45.03
922.895	17.62
923.325	24.03
923.756	19.12
924.186	16.13
924.617	27.53
925.047	45.62
925.478	55.12
925.908	41.33
926.338	25.83
926.769	16.73
927.199	21.83
927.629	3.53
928.06	17.33
928.49	13.73
928.92	16.73
929.35	11.03
929.78	9.42
930.21	8.92
930.641	0.83
931.071	7.12
931.501	6.53
931.931	9.63
932.361	6.73
932.791	3.83
933.221	7.83
933.651	1.43
934.08	18.83
934.51	28.73
934.94	9.12
935.37	9.03
935.8	9.33
936.229	9.92
936.659	4.92
937.089	5.03
937.519	12.43
937.948	22.33
938.378	17.43
938.807	8.32
939.237	7.73
939.666	6.73
940.096	-6.57
940.525	5.52
940.955	-0.47
941.384	7.83
941.814	-1.98
942.243	-1.77
942.672	2.62
943.102	2.23
943.531	-1.97
943.96	6.83
944.39	8.02
944.819	2.12
945.248	4.52
945.677	1.23
946.106	9.33
946.535	8.32
946.964	5.73
947.393	3.93
947.822	6.43
948.251	-6.27
948.68	3.43
949.109	7.42
949.538	8.33
949.967	0.02
950.396	4.12
950.825	5.12
951.254	6.23
951.682	0.92
952.111	1.23
952.54	7.93
952.969	3.43
953.397	-5.38
953.826	4.92
954.254	-1.57
954.683	0.52
955.112	-5.07
955.54	2.23
955.969	-0.57
956.397	-2.27
956.826	-4.07
957.254	4.93
957.682	-0.17
958.111	5.73
958.539	-3.47
958.967	-1.38
959.396	-4.58
959.824	2.43
960.252	3.92
960.68	-2.38
961.109	-4.98
961.537	2.03
961.965	-1.58
962.393	2.43
962.821	-5.77
963.249	-1.58
963.677	5.83
964.105	7.83
964.533	40.53
964.961	44.32
965.389	20.33
965.817	11.02
966.245	3.52
966.672	0.73
967.1	-5.27
967.528	3.82
967.956	2.73
968.383	1.62
968.811	-3.77
969.239	-3.68
969.666	-2.47
970.094	-1.57
970.522	3.43
970.949	-4.77
971.377	-7.97
971.804	-1.88
972.232	-1.77
972.659	2.33
973.087	2.82
973.514	-2.77
973.941	-5.67
974.369	8.33
974.796	-1.87
975.223	2.02
975.651	-6.27
976.078	-3.17
976.505	7.83
976.932	0.73
977.359	15.42
977.786	14.02
978.214	0.02
978.641	-3.67
979.068	-0.67
979.495	-4.08
979.922	-2.38
980.349	-0.88
980.776	3.92
981.202	0.52
981.629	2.12
982.056	2.52
982.483	-2.97
982.91	-0.67
983.337	-5.98
983.763	3.23
984.19	0.42
984.617	-0.57
985.043	-4.57
985.47	0.93
985.897	-3.97
986.323	-6.67
986.75	4.93
987.176	-1.38
987.603	-4.58
988.029	1.92
988.456	-4.77
988.882	5.43
989.308	-4.18
989.735	-2.88
990.161	2.52
990.587	-1.88
991.014	0.62
991.44	6.02
991.866	-4.77
992.292	-4.67
992.719	-3.08
993.145	8.53
993.571	-6.17
993.997	-4.98
994.423	2.02
994.849	-7.68
995.275	-1.37
995.701	0.83
996.127	-1.48
996.553	7.12
996.979	-0.97
997.405	-4.37
997.83	0.23
998.256	3.73
998.682	-7.47
999.108	-3.88
999.534	3.02
999.959	-1.07
1000.385	-5.57
1000.811	3.52
1001.236	-0.77
1001.662	-8.17
1002.087	-4.67
1002.513	-0.18
1002.938	-1.97
1003.364	0.23
1003.789	-3.67
1004.215	0.03
1004.64	-0.17
1005.066	1.73
1005.491	-0.87
1005.916	0.02
1006.342	-5.77
1006.767	-5.77
1007.192	4.03
1007.617	-4.88
1008.042	-5.88
1008.468	-6.88
1008.893	-5.27
1009.318	-4.48
1009.743	-3.08
1010.168	6.92
1010.593	9.02
1011.018	-1.17
1011.443	-1.77
1011.868	1.93
1012.293	-1.97
1012.718	-5.77
1013.143	0.32
1013.567	0.73
1013.992	-5.88
1014.417	-11.17
1014.842	1.32
1015.267	-4.27
1015.691	-3.67
1016.116	6.12
1016.541	-0.67
1016.965	-4.58
1017.39	1.33
1017.814	4.93
1018.239	1.02
1018.663	-6.98
1019.088	-10.58
1019.512	-0.17
1019.937	1.62
1020.361	-2.17
1020.785	-3.98
1021.21	-3.77
1021.634	1.53
1022.058	-0.27
1022.483	4.93
1022.907	-2.38
1023.331	-1.47
1023.755	1.02
1024.179	-3.57
1024.604	-8.17
1025.028	-5.18
1025.452	-6.17
1025.876	4.92
1026.3	1.73
1026.724	-9.98
1027.148	-4.97
1027.572	-6.88
1027.996	0.33
1028.42	-3.98
1028.843	-2.68
1029.267	-9.98
1029.691	-0.88
1030.115	-10.17
1030.539	-7.88
1030.962	-3.08
1031.386	-8.77
1031.81	1.33
1032.233	-0.88
1032.657	1.93
1033.08	-4.07
1033.504	-7.58
1033.927	-5.07
1034.351	-4.97
1034.774	-7.17
1035.198	-5.17
1035.621	-5.37
1036.045	-6.67
1036.468	4.92
1036.891	-5.08
1037.315	-10.48
1037.738	-3.77
1038.161	-1.77
1038.584	-10.17
1039.008	-4.07
1039.431	-3.88
1039.854	-3.48
1040.277	-6.57
1040.7	-10.17
1041.123	1.62
1041.546	-2.57
1041.969	0.53
1042.392	-7.67
1042.815	-2.68
1043.238	-1.08
1043.661	4.33
1044.084	-2.27
1044.507	-7.57
1044.93	-3.07
1045.352	-4.77
1045.775	1.23
1046.198	-1.67
1046.621	-0.57
1047.043	-2.57
1047.466	3.12
1047.889	0.42
1048.311	1.73
1048.734	-2.88
1049.156	2.12
1049.579	-6.48
1050.001	-5.47
1050.424	-3.68
1050.846	-6.67
1051.269	-7.97
1051.691	-8.47
1052.113	-4.98
1052.536	0.83
1052.958	-1.77
1053.38	0.23
1053.802	-10.88
1054.225	0.73
1054.647	-6.98
1055.069	-3.77
1055.491	2.93
1055.913	-9.88
1056.335	-0.88
1056.757	0.83
1057.179	-2.38
1057.601	-0.77
1058.023	-4.57
1058.445	4.12
1058.867	-3.27
1059.289	-2.77
1059.711	-8.67
1060.133	2.23
1060.555	-5.48
1060.976	-3.38
1061.398	1.62
1061.82	-2.57
1062.241	-8.38
1062.663	-7.77
1063.085	-6.57
1063.506	-2.07
1063.928	-2.68
1064.35	-2.47
1064.771	-7.38
1065.193	-3.58
1065.614	-12.38
1066.035	-5.97
1066.457	-6.38
1066.878	-4.77
1067.3	-5.17
1067.721	-2.77
1068.142	-6.27
1068.564	-5.67
1068.985	-1.08
1069.406	2.43
1069.827	-3.67
1070.248	-8.38
1070.67	-4.48
1071.091	-9.47
1071.512	-5.58
1071.933	-0.98
1072.354	-3.67
1072.775	-2.38
1073.196	-7.77
1073.617	-1.48
1074.038	-4.47
1074.459	-0.57
1074.88	-5.38
1075.3	-1.27
1075.721	-1.98
1076.142	6.23
1076.563	-0.77
1076.983	-9.98
1077.404	-9.97
1077.825	-6.57
1078.246	-6.17
1078.666	-7.68
1079.087	-6.57
1079.507	-5.98
1079.928	-2.48
1080.348	-2.27
1080.769	-2.98
1081.189	-3.27
1081.61	-0.88
1082.03	-4.67
1082.451	-6.27
1082.871	-4.17
1083.291	-13.48
1083.711	-6.07
1084.132	-2.07
1084.552	-6.27
1084.972	-4.07
1085.392	-14.27
1085.813	-8.57
1086.233	-10.07
1086.653	-3.47
1087.073	-2.67
1087.493	-8.58
1087.913	-4.38
1088.333	-1.88
1088.753	-4.08
1089.173	6.23
1089.593	3.33
1090.013	0.52
1090.433	4.73
1090.852	-2.88
1091.272	-2.67
1091.692	-1.67
1092.112	-4.67
1092.531	-8.58
1092.951	-14.38
1093.371	-0.18
1093.79	1.53
1094.21	-6.67
1094.63	-7.38
1095.049	-8.17
1095.469	-5.27
1095.888	2.83
1096.308	6.12
1096.727	2.62
1097.146	-6.67
1097.566	0.43
1097.985	-7.98
1098.405	-2.17
1098.824	-10.27
1099.243	-6.57
1099.662	-13.08
1100.082	-6.07
1100.501	-1.17
1100.92	-6.38
1101.339	-2.98
1101.758	-1.27
