Data from 20171114-ORNL-Ar_H_NY_Subt18_08-06-39-842.txt Node
Date: Tue Nov 14 08:06:39 EST 2017
User: Ender
Spectrometer: HR+D1039
Trigger mode: 0
Integration Time (sec): 2.730000E-2
Scans to average: 10
Electric dark correction enabled: true
Nonlinearity correction enabled: false
Boxcar width: 0
XAxis mode: Wavelengths
Number of Pixels in Spectrum: 2048
>>>>>Begin Spectral Data<<<<<
187.836	-6.66
188.309	-6.66
188.782	-6.66
189.255	-0.16
189.728	-5.86
190.201	6.14
190.674	7.04
191.147	-1.76
191.619	-6.26
192.092	-1.66
192.565	4.84
193.038	3.34
193.511	4.24
193.984	2.14
194.456	0.04
194.929	3.24
195.402	0.04
195.874	-8.76
196.347	-0.16
196.82	-1.56
197.292	7.64
197.765	1.94
198.237	-4.76
198.71	0.94
199.182	1.94
199.655	4.24
200.127	3.54
200.6	0.24
201.072	3.74
201.544	-5.56
202.017	0.54
202.489	2.14
202.961	-8.56
203.433	-3.36
203.906	-5.36
204.378	-3.76
204.85	4.24
205.322	-7.96
205.794	-1.76
206.266	-0.26
206.739	-8.76
207.211	2.84
207.683	-7.46
208.155	-6.16
208.627	-2.26
209.099	-5.96
209.57	-8.26
210.042	-4.96
210.514	-4.56
210.986	-2.86
211.458	-9.96
211.93	-1.86
212.402	3.44
212.873	-3.26
213.345	-8.26
213.817	-8.56
214.288	-3.56
214.76	-9.96
215.232	-0.76
215.703	-4.16
216.175	0.54
216.646	-2.56
217.118	-3.06
217.589	0.24
218.061	-3.86
218.532	2.14
219.004	-3.56
219.475	-1.66
219.946	-4.06
220.418	-4.96
220.889	4.24
221.36	-1.26
221.832	2.54
222.303	-6.66
222.774	-1.76
223.245	-5.16
223.717	-2.86
224.188	0.04
224.659	-2.36
225.13	-5.76
225.601	-2.86
226.072	4.34
226.543	-1.86
227.014	1.54
227.485	1.34
227.956	-3.56
228.427	-2.16
228.898	-1.96
229.369	4.84
229.839	-2.96
230.31	-6.26
230.781	-2.76
231.252	-4.16
231.722	-10.36
232.193	-3.36
232.664	-2.76
233.135	-6.66
233.605	-3.76
234.076	-2.86
234.546	-1.76
235.017	4.14
235.487	2.04
235.958	2.14
236.428	-6.76
236.899	-5.46
237.369	-0.96
237.84	-7.16
238.31	-0.06
238.78	1.44
239.251	-5.76
239.721	1.84
240.191	-4.96
240.662	-0.86
241.132	-0.06
241.602	-4.56
242.072	-3.96
242.542	6.14
243.013	-3.56
243.483	6.74
243.953	3.94
244.423	-3.66
244.893	-8.56
245.363	-2.06
245.833	4.54
246.303	-2.86
246.773	5.04
247.243	1.74
247.712	4.04
248.182	4.14
248.652	2.94
249.122	-6.56
249.592	-0.46
250.061	0.04
250.531	14.04
251.001	-1.16
251.471	8.54
251.94	11.04
252.41	4.34
252.879	-4.96
253.349	8.24
253.818	9.04
254.288	0.94
254.757	6.44
255.227	-4.66
255.696	2.24
256.166	4.14
256.635	3.44
257.105	4.74
257.574	0.44
258.043	6.24
258.513	0.34
258.982	2.64
259.451	-4.66
259.92	6.44
260.389	1.04
260.859	9.54
261.328	9.04
261.797	5.24
262.266	-1.46
262.735	14.04
263.204	2.64
263.673	-0.56
264.142	5.84
264.611	1.24
265.08	6.34
265.549	0.24
266.018	9.24
266.487	-0.96
266.955	-1.66
267.424	1.74
267.893	4.64
268.362	2.34
268.83	1.34
269.299	12.74
269.768	7.34
270.236	2.84
270.705	5.44
271.174	6.04
271.642	10.24
272.111	4.04
272.579	15.44
273.048	6.84
273.516	6.24
273.985	7.04
274.453	14.44
274.922	11.64
275.39	8.34
275.858	2.84
276.327	7.44
276.795	15.64
277.263	8.84
277.731	14.14
278.2	15.34
278.668	11.94
279.136	14.34
279.604	7.14
280.072	13.94
280.54	9.94
281.008	2.14
281.477	11.04
281.945	11.84
282.413	17.24
282.881	17.04
283.348	4.34
283.816	10.84
284.284	14.74
284.752	18.84
285.22	13.44
285.688	18.54
286.156	8.04
286.623	21.34
287.091	10.44
287.559	17.34
288.026	14.54
288.494	17.74
288.962	8.94
289.429	10.14
289.897	19.54
290.364	14.94
290.832	14.64
291.3	13.74
291.767	14.04
292.234	17.84
292.702	16.14
293.169	15.24
293.637	20.34
294.104	20.84
294.571	16.84
295.039	6.24
295.506	16.34
295.973	23.44
296.44	12.74
296.908	24.74
297.375	14.94
297.842	11.34
298.309	20.14
298.776	11.44
299.243	19.44
299.71	12.14
300.177	24.34
300.644	24.74
301.111	16.44
301.578	24.34
302.045	19.24
302.512	24.44
302.979	30.14
303.446	28.64
303.913	22.84
304.379	20.64
304.846	31.84
305.313	30.24
305.78	21.04
306.246	20.24
306.713	28.14
307.18	29.64
307.646	22.34
308.113	24.14
308.579	23.94
309.046	30.64
309.512	27.64
309.979	26.94
310.445	28.34
310.912	28.94
311.378	34.84
311.845	36.94
312.311	33.24
312.777	33.24
313.244	29.74
313.71	35.94
314.176	31.04
314.642	27.54
315.109	25.44
315.575	30.64
316.041	39.44
316.507	29.54
316.973	35.34
317.439	30.74
317.905	42.14
318.371	41.44
318.837	35.84
319.303	31.54
319.769	34.84
320.235	33.74
320.701	28.34
321.167	40.94
321.633	36.24
322.099	36.14
322.564	41.04
323.03	38.84
323.496	35.64
323.962	39.64
324.427	34.04
324.893	47.44
325.359	42.14
325.824	40.54
326.29	36.84
326.755	38.24
327.221	41.14
327.686	39.34
328.152	50.84
328.617	47.14
329.083	48.04
329.548	51.74
330.014	45.54
330.479	40.84
330.944	36.74
331.41	44.24
331.875	45.64
332.34	43.94
332.805	45.54
333.271	44.34
333.736	41.74
334.201	49.44
334.666	57.54
335.131	50.64
335.596	51.04
336.061	55.54
336.526	43.04
336.991	48.14
337.456	57.64
337.921	56.44
338.386	51.34
338.851	47.34
339.316	43.44
339.781	48.34
340.246	51.44
340.711	52.94
341.175	57.44
341.64	44.54
342.105	53.34
342.569	59.24
343.034	61.24
343.499	62.04
343.963	55.14
344.428	70.44
344.893	69.54
345.357	65.44
345.822	64.14
346.286	71.64
346.751	72.24
347.215	73.44
347.679	78.34
348.144	100.84
348.608	84.44
349.073	69.84
349.537	75.34
350.001	80.04
350.465	88.94
350.93	81.74
351.394	87.24
351.858	72.54
352.322	92.44
352.786	92.64
353.25	101.24
353.715	113.94
354.179	102.94
354.643	123.54
355.107	118.24
355.571	101.64
356.035	98.54
356.498	120.14
356.962	120.14
357.426	133.64
357.89	118.24
358.354	95.14
358.818	88.54
359.281	78.74
359.745	81.64
360.209	76.24
360.673	81.04
361.136	80.04
361.6	83.24
362.064	85.44
362.527	90.74
362.991	86.64
363.454	88.84
363.918	80.44
364.381	84.64
364.845	89.44
365.308	88.64
365.772	91.44
366.235	95.54
366.698	86.34
367.162	90.64
367.625	88.04
368.088	91.84
368.552	87.14
369.015	96.34
369.478	103.34
369.941	101.64
370.404	93.84
370.867	101.24
371.331	106.54
371.794	116.64
372.257	105.64
372.72	120.14
373.183	108.24
373.646	92.54
374.109	97.04
374.572	102.84
375.035	106.74
375.497	110.24
375.96	114.44
376.423	108.04
376.886	113.04
377.349	117.94
377.811	106.44
378.274	112.94
378.737	104.44
379.199	117.44
379.662	112.24
380.125	115.34
380.587	111.74
381.05	118.74
381.512	120.64
381.975	132.54
382.437	123.24
382.9	119.34
383.362	127.24
383.825	136.44
384.287	133.84
384.75	126.94
385.212	124.34
385.674	146.04
386.136	134.84
386.599	126.34
387.061	127.84
387.523	124.54
387.985	129.44
388.447	135.24
388.91	134.84
389.372	136.04
389.834	133.84
390.296	137.94
390.758	140.34
391.22	142.54
391.682	151.74
392.144	166.44
392.606	162.34
393.068	151.34
393.529	160.54
393.991	152.84
394.453	142.24
394.915	151.84
395.377	147.64
395.838	146.44
396.3	145.94
396.762	154.34
397.224	150.54
397.685	136.94
398.147	145.84
398.608	137.74
399.07	142.54
399.531	139.44
399.993	153.54
400.454	164.74
400.916	153.14
401.377	157.44
401.839	161.24
402.3	160.74
402.762	181.34
403.223	195.54
403.684	181.84
404.145	176.44
404.607	177.94
405.068	169.94
405.529	180.94
405.99	190.74
406.451	186.94
406.913	181.14
407.374	178.34
407.835	172.64
408.296	177.64
408.757	181.44
409.218	198.14
409.679	190.34
410.14	179.44
410.601	189.54
411.062	190.34
411.522	196.24
411.983	185.54
412.444	184.54
412.905	192.54
413.366	200.04
413.826	209.74
414.287	234.24
414.748	277.74
415.208	271.14
415.669	231.34
416.13	220.04
416.59	221.04
417.051	230.94
417.511	237.64
417.972	261.64
418.432	265.04
418.893	312.84
419.353	272.74
419.814	214.64
420.274	199.64
420.734	198.44
421.195	208.84
421.655	206.24
422.115	209.14
422.576	208.24
423.036	219.44
423.496	230.64
423.956	230.44
424.416	248.84
424.876	285.74
425.336	277.44
425.797	286.04
426.257	271.54
426.717	258.74
427.177	249.74
427.637	239.44
428.097	253.14
428.556	257.04
429.016	283.04
429.476	279.24
429.936	290.64
430.396	293.84
430.856	307.84
431.315	322.64
431.775	362.74
432.235	396.24
432.694	380.64
433.154	381.84
433.614	408.04
434.073	358.34
434.533	294.54
434.993	282.04
435.452	291.54
435.912	311.34
436.371	305.94
436.83	293.34
437.29	279.94
437.749	257.14
438.209	269.14
438.668	288.54
439.127	305.74
439.587	286.04
440.046	264.94
440.505	281.64
440.964	301.04
441.424	351.04
441.883	326.64
442.342	286.84
442.801	250.44
443.26	239.14
443.719	243.24
444.178	239.14
444.637	232.84
445.096	242.64
445.555	236.84
446.014	238.64
446.473	249.64
446.932	257.34
447.391	244.94
447.849	251.74
448.308	237.64
448.767	243.44
449.226	258.04
449.685	259.24
450.143	272.94
450.602	265.14
451.061	246.64
451.519	257.94
451.978	249.34
452.436	259.94
452.895	267.24
453.353	272.94
453.812	261.54
454.27	254.64
454.729	262.34
455.187	270.44
455.646	266.24
456.104	271.44
456.562	278.04
457.021	295.34
457.479	279.44
457.937	300.84
458.395	284.64
458.854	278.54
459.312	278.24
459.77	306.84
460.228	281.14
460.686	272.14
461.144	272.84
461.602	267.84
462.06	269.54
462.518	271.34
462.976	273.34
463.434	276.14
463.892	287.64
464.35	306.84
464.808	317.84
465.266	296.64
465.724	292.54
466.181	302.14
466.639	294.64
467.097	322.44
467.555	330.34
468.012	330.54
468.47	340.74
468.928	359.84
469.385	370.34
469.843	385.14
470.3	387.34
470.758	394.74
471.215	426.04
471.673	440.74
472.13	438.74
472.588	450.44
473.045	407.64
473.503	413.74
473.96	431.64
474.417	440.94
474.875	477.74
475.332	519.84
475.789	495.24
476.246	502.54
476.704	520.04
477.161	542.54
477.618	568.44
478.075	604.74
478.532	658.24
478.989	727.24
479.446	850.14
479.903	799.94
480.36	836.44
480.817	878.64
481.274	988.94
481.731	1067.54
482.188	1160.74
482.645	1288.74
483.102	1380.64
483.558	1513.84
484.015	1539.84
484.472	1516.34
484.929	1476.14
485.385	1440.94
485.842	1395.94
486.299	1365.74
486.755	1319.64
487.212	1109.84
487.668	967.14
488.125	884.64
488.582	828.34
489.038	781.64
489.494	755.04
489.951	724.34
490.407	710.74
490.864	699.44
491.32	691.64
491.776	701.74
492.233	693.04
492.689	662.34
493.145	644.44
493.602	644.64
494.058	653.24
494.514	660.84
494.97	684.54
495.426	693.04
495.882	666.74
496.338	658.84
496.794	668.54
497.251	663.54
497.707	685.14
498.163	685.04
498.618	694.54
499.074	685.84
499.53	720.74
499.986	727.74
500.442	693.24
500.898	669.54
501.354	665.34
501.809	665.44
502.265	671.14
502.721	686.24
503.177	692.34
503.632	701.64
504.088	695.04
504.543	726.84
504.999	748.94
505.455	709.64
505.91	680.34
506.366	685.44
506.821	694.54
507.277	677.34
507.732	674.34
508.187	678.64
508.643	692.94
509.098	691.24
509.553	706.24
510.009	715.64
510.464	729.94
510.919	749.94
511.375	752.04
511.83	773.64
512.285	778.64
512.74	823.94
513.195	845.54
513.65	831.54
514.105	837.24
514.56	827.44
515.015	840.84
515.47	850.74
515.925	837.44
516.38	844.94
516.835	853.94
517.29	831.84
517.745	834.54
518.2	820.94
518.655	808.84
519.109	809.84
519.564	800.64
520.019	787.64
520.474	782.24
520.928	775.14
521.383	780.04
521.838	759.34
522.292	768.94
522.747	770.24
523.201	768.74
523.656	755.14
524.11	748.44
524.565	757.74
525.019	748.34
525.474	747.04
525.928	749.24
526.382	752.04
526.837	765.04
527.291	762.34
527.745	761.24
528.2	752.44
528.654	737.54
529.108	749.94
529.562	747.34
530.016	742.64
530.47	752.24
530.925	740.94
531.379	745.94
531.833	746.64
532.287	747.14
532.741	753.94
533.195	756.14
533.649	767.14
534.103	771.74
534.556	766.04
535.01	754.34
535.464	764.64
535.918	779.24
536.372	776.04
536.826	776.44
537.279	760.54
537.733	773.64
538.187	769.34
538.64	775.84
539.094	785.84
539.548	785.64
540.001	786.24
540.455	787.24
540.908	780.74
541.362	804.64
541.815	802.54
542.269	804.84
542.722	819.54
543.175	829.84
543.629	816.04
544.082	851.04
544.536	846.34
544.989	840.64
545.442	856.74
545.895	851.44
546.349	849.84
546.802	858.74
547.255	852.74
547.708	869.64
548.161	879.54
548.614	875.44
549.067	897.04
549.52	879.84
549.973	882.24
550.426	872.84
550.879	860.24
551.332	866.84
551.785	877.14
552.238	874.94
552.691	888.14
553.144	895.74
553.596	910.94
554.049	941.54
554.502	954.74
554.955	983.24
555.407	978.34
555.86	975.04
556.313	956.64
556.765	960.04
557.218	954.34
557.67	952.54
558.123	942.54
558.576	937.44
559.028	941.94
559.48	956.54
559.933	939.14
560.385	904.64
560.838	880.74
561.29	852.04
561.742	844.84
562.195	830.14
562.647	830.04
563.099	847.34
563.551	838.84
564.004	851.74
564.456	819.44
564.908	819.44
565.36	797.74
565.812	783.54
566.264	771.14
566.716	763.44
567.168	757.44
567.62	760.94
568.072	749.24
568.524	756.24
568.976	738.14
569.428	723.14
569.88	737.04
570.332	733.44
570.784	729.94
571.235	746.74
571.687	752.04
572.139	764.94
572.59	774.44
573.042	773.24
573.494	756.44
573.945	751.94
574.397	741.04
574.849	736.84
575.3	744.74
575.752	737.64
576.203	738.04
576.655	740.14
577.106	715.54
577.557	714.24
578.009	715.64
578.46	715.74
578.912	716.44
579.363	708.24
579.814	709.44
580.265	708.64
580.717	720.44
581.168	723.04
581.619	726.84
582.07	731.04
582.521	724.44
582.972	719.24
583.423	717.24
583.875	724.54
584.326	735.24
584.777	745.34
585.227	768.14
585.678	781.64
586.129	806.44
586.58	833.14
587.031	856.84
587.482	893.64
587.933	924.04
588.384	916.14
588.834	856.94
589.285	830.24
589.736	826.34
590.186	833.84
590.637	818.14
591.088	792.24
591.538	798.94
591.989	785.04
592.439	776.94
592.89	760.14
593.34	760.54
593.791	754.14
594.241	746.04
594.692	746.84
595.142	743.54
595.593	747.74
596.043	746.04
596.493	756.14
596.943	739.04
597.394	765.54
597.844	767.54
598.294	772.94
598.744	796.34
599.195	832.64
599.645	877.44
600.095	919.34
600.545	967.64
600.995	1030.74
601.445	1097.14
601.895	1151.04
602.345	1202.74
602.795	1187.44
603.245	1141.64
603.695	1077.14
604.145	1018.04
604.594	982.64
605.044	916.64
605.494	855.34
605.944	799.64
606.393	793.64
606.843	773.74
607.293	781.04
607.743	775.34
608.192	790.24
608.642	796.64
609.091	800.64
609.541	804.14
609.99	814.94
610.44	806.54
610.889	767.74
611.339	735.64
611.788	713.74
612.238	732.54
612.687	743.64
613.136	734.84
613.586	746.44
614.035	741.04
614.484	756.34
614.933	755.84
615.383	742.64
615.832	754.34
616.281	737.14
616.73	712.74
617.179	685.04
617.628	684.04
618.077	661.94
618.526	659.24
618.975	654.74
619.424	657.84
619.873	648.94
620.322	667.74
620.771	626.64
621.22	639.74
621.669	636.84
622.118	622.74
622.567	619.14
623.015	594.34
623.464	601.74
623.913	594.74
624.361	584.74
624.81	587.44
625.259	590.64
625.707	591.84
626.156	589.54
626.604	604.64
627.053	598.14
627.501	596.04
627.95	608.14
628.398	623.14
628.847	597.34
629.295	599.44
629.744	613.94
630.192	598.64
630.64	593.34
631.089	575.94
631.537	574.84
631.985	564.84
632.433	567.24
632.881	547.94
633.33	565.54
633.778	561.04
634.226	557.34
634.674	562.04
635.122	572.54
635.57	583.04
636.018	591.34
636.466	593.14
636.914	590.74
637.362	595.04
637.81	601.84
638.258	616.64
638.705	616.44
639.153	651.04
639.601	658.64
640.049	684.14
640.497	704.74
640.944	733.04
641.392	686.34
641.84	662.04
642.287	610.14
642.735	598.74
643.182	595.24
643.63	596.14
644.078	597.94
644.525	616.14
644.973	611.54
645.42	627.04
645.867	653.14
646.315	666.34
646.762	679.24
647.21	712.84
647.657	741.44
648.104	771.44
648.551	783.54
648.999	852.24
649.446	921.44
649.893	1025.94
650.34	1154.04
650.787	1363.24
651.234	1681.64
651.682	2175.34
652.129	2922.14
652.576	4165.34
653.023	6085.34
653.47	8216.24
653.917	10211.14
654.363	11747.04
654.81	13010.44
655.257	12260.74
655.704	8157.04
656.151	4939.04
656.598	3244.44
657.044	2345.44
657.491	1814.94
657.938	1465.04
658.385	1226.94
658.831	1075.54
659.278	963.04
659.724	863.94
660.171	805.14
660.618	742.84
661.064	704.64
661.511	681.54
661.957	682.34
662.404	665.34
662.85	665.74
663.296	651.64
663.743	583.84
664.189	573.64
664.635	555.14
665.082	540.74
665.528	551.94
665.974	541.44
666.42	527.54
666.867	528.44
667.313	503.84
667.759	488.74
668.205	476.44
668.651	478.94
669.097	470.34
669.543	461.64
669.989	464.04
670.435	468.74
670.881	461.34
671.327	473.14
671.773	495.84
672.219	510.64
672.665	575.74
673.11	618.44
673.556	666.44
674.002	702.54
674.448	689.94
674.893	575.34
675.339	504.14
675.785	471.44
676.23	436.34
676.676	413.94
677.122	409.54
677.567	399.74
678.013	392.54
678.458	384.24
678.904	383.84
679.349	366.84
679.794	378.14
680.24	373.84
680.685	366.84
681.131	369.94
681.576	361.14
682.021	377.74
682.466	369.94
682.912	372.44
683.357	375.64
683.802	396.64
684.247	426.84
684.692	476.64
685.137	523.74
685.583	563.34
686.028	583.34
686.473	548.04
686.918	473.14
687.363	446.24
687.807	417.34
688.252	386.94
688.697	376.84
689.142	362.14
689.587	353.64
690.032	344.94
690.477	369.04
690.921	367.64
691.366	403.24
691.811	421.74
692.255	445.04
692.7	482.14
693.145	532.24
693.589	737.24
694.034	1194.04
694.478	1644.14
694.923	1844.34
695.367	2389.54
695.812	1272.94
696.256	527.44
696.701	394.04
697.145	360.34
697.59	346.44
698.034	334.24
698.478	349.74
698.922	343.64
699.367	345.74
699.811	343.74
700.255	367.24
700.699	402.74
701.143	446.34
701.588	490.84
702.032	533.04
702.476	547.24
702.92	515.94
703.364	526.94
703.808	677.94
704.252	1086.24
704.696	1534.24
705.14	1771.04
705.584	2257.44
706.027	1122.74
706.471	548.64
706.915	429.24
707.359	376.44
707.803	344.74
708.246	336.74
708.69	334.64
709.134	336.54
709.577	332.14
710.021	331.84
710.465	328.44
710.908	320.34
711.352	310.54
711.795	326.84
712.239	365.94
712.682	411.54
713.126	437.94
713.569	486.54
714.012	384.14
714.456	320.34
714.899	302.34
715.342	292.24
715.786	276.54
716.229	277.54
716.672	265.54
717.115	260.74
717.558	265.24
718.002	265.14
718.445	278.54
718.888	293.34
719.331	305.14
719.774	316.34
720.217	312.74
720.66	298.24
721.103	278.74
721.546	274.24
721.989	260.44
722.432	249.14
722.874	256.74
723.317	239.64
723.76	249.54
724.203	267.34
724.645	324.44
725.088	467.24
725.531	607.14
725.974	673.04
726.416	573.74
726.859	328.34
727.301	263.44
727.744	242.04
728.187	238.34
728.629	251.64
729.071	263.04
729.514	269.74
729.956	282.84
730.399	296.54
730.841	306.54
731.283	294.54
731.726	281.14
732.168	277.44
732.61	280.94
733.053	297.34
733.495	337.84
733.937	375.64
734.379	422.84
734.821	465.14
735.263	576.54
735.705	888.14
736.148	1677.64
736.59	2741.34
737.032	3256.64
737.474	2629.04
737.916	862.44
738.357	456.94
738.799	354.14
739.241	318.34
739.683	297.34
740.125	306.24
740.567	314.84
741.008	335.14
741.45	330.04
741.892	343.94
742.334	375.94
742.775	376.14
743.217	367.64
743.658	290.14
744.1	269.84
744.542	281.94
744.983	338.94
745.425	378.44
745.866	368.54
746.307	297.74
746.749	299.54
747.19	348.34
747.632	484.44
748.073	935.14
748.514	1970.84
748.956	3021.34
749.397	3787.14
749.838	3144.74
750.279	3121.54
750.72	1596.44
751.162	588.34
751.603	348.94
752.044	267.94
752.485	227.44
752.926	217.34
753.367	219.04
753.808	209.34
754.249	198.74
754.69	195.64
755.131	197.44
755.572	189.24
756.013	196.34
756.453	190.04
756.894	201.24
757.335	206.14
757.776	205.94
758.216	210.04
758.657	209.04
759.098	217.04
759.538	240.84
759.979	285.44
760.42	405.74
760.86	754.94
761.301	1928.04
761.741	4676.34
762.182	6805.14
762.622	4800.84
763.063	1390.54
763.503	566.54
763.943	350.94
764.384	296.84
764.824	280.74
765.264	266.94
765.705	224.34
766.145	200.44
766.585	185.74
767.025	177.14
767.465	177.74
767.906	195.84
768.346	218.34
768.786	225.84
769.226	236.04
769.666	330.14
770.106	652.94
770.546	1637.94
770.986	2779.34
771.426	2497.14
771.866	837.84
772.306	340.14
772.745	212.14
773.185	176.24
773.625	166.94
774.065	156.14
774.505	172.04
774.944	221.54
775.384	381.14
775.824	632.34
776.263	610.84
776.703	294.64
777.142	166.34
777.582	138.74
778.021	131.14
778.461	121.64
778.9	131.14
779.34	134.34
779.779	120.54
780.219	117.44
780.658	114.14
781.097	119.74
781.537	116.44
781.976	118.64
782.415	115.24
782.855	113.64
783.294	102.74
783.733	113.44
784.172	115.04
784.611	112.24
785.05	109.94
785.489	115.84
785.928	120.24
786.367	120.54
786.806	122.84
787.245	134.14
787.684	141.94
788.123	150.94
788.562	144.64
789.001	133.04
789.44	128.94
789.879	124.44
790.317	118.54
790.756	135.54
791.195	137.44
791.634	151.94
792.072	204.14
792.511	382.44
792.95	1043.34
793.388	2212.44
793.827	2016.24
794.265	710.64
794.704	296.34
795.142	194.24
795.581	162.24
796.019	146.84
796.458	137.34
796.896	130.04
797.334	143.34
797.773	164.44
798.211	234.94
798.649	469.54
799.087	1070.04
799.526	1685.44
799.964	2118.24
800.402	2131.14
800.84	796.04
801.278	321.94
801.716	200.74
802.154	166.24
802.592	153.44
803.03	148.34
803.468	143.04
803.906	152.44
804.344	163.64
804.782	144.54
805.22	141.74
805.658	137.04
806.096	153.64
806.533	175.24
806.971	188.84
807.409	232.74
807.847	341.94
808.284	703.44
808.722	1982.64
809.16	3484.34
809.597	3321.14
810.035	5701.84
810.472	6089.64
810.91	2214.34
811.347	850.94
811.785	430.54
812.222	277.54
812.66	208.44
813.097	176.74
813.535	150.54
813.972	126.74
814.409	126.64
814.846	120.04
815.284	122.34
815.721	101.54
816.158	111.04
816.595	112.84
817.032	164.14
817.47	192.54
817.907	149.74
818.344	110.54
818.781	103.94
819.218	102.54
819.655	125.94
820.092	204.84
820.529	239.24
820.966	181.94
821.403	133.74
821.839	113.14
822.276	102.64
822.713	129.14
823.15	147.54
823.587	126.34
824.023	156.94
824.46	318.24
824.897	936.04
825.333	1437.34
825.77	618.94
826.206	242.14
826.643	149.34
827.08	105.54
827.516	90.34
827.953	86.74
828.389	92.94
828.825	73.74
829.262	67.04
829.698	69.84
830.135	67.94
830.571	70.94
831.007	64.74
831.443	64.14
831.88	64.74
832.316	62.54
832.752	72.04
833.188	67.34
833.624	64.84
834.06	71.64
834.497	67.94
834.933	77.84
835.369	77.24
835.805	75.44
836.241	85.44
836.677	85.04
837.112	98.04
837.548	115.34
837.984	142.14
838.42	214.24
838.856	526.54
839.292	1586.64
839.727	2437.54
840.163	1142.14
840.599	978.14
841.034	2134.34
841.47	2248.14
841.906	815.54
842.341	346.44
842.777	202.34
843.212	217.64
843.648	199.14
844.083	116.24
844.519	87.04
844.954	73.74
845.39	58.24
845.825	62.14
846.261	63.94
846.696	53.04
847.131	57.14
847.566	56.64
848.002	55.64
848.437	52.04
848.872	62.84
849.307	66.84
849.742	83.34
850.177	193.04
850.613	588.94
851.048	926.14
851.483	401.94
851.918	161.84
852.353	88.64
852.788	56.34
853.223	50.94
853.657	58.14
854.092	53.64
854.527	51.24
854.962	41.14
855.397	50.74
855.832	47.44
856.266	46.54
856.701	37.84
857.136	41.34
857.57	46.34
858.005	59.54
858.44	60.54
858.874	45.94
859.309	61.34
859.743	44.44
860.178	50.04
860.612	43.04
861.047	61.04
861.481	71.54
861.915	77.64
862.35	53.04
862.784	32.84
863.218	39.24
863.653	34.34
864.087	48.24
864.521	58.14
864.955	72.34
865.39	157.54
865.824	186.04
866.258	126.84
866.692	183.74
867.126	200.94
867.56	115.64
867.994	63.44
868.428	37.84
868.862	52.74
869.296	56.44
869.73	64.84
870.164	65.64
870.598	48.84
871.031	40.34
871.465	33.04
871.899	36.24
872.333	28.04
872.766	29.34
873.2	21.34
873.634	31.74
874.067	32.24
874.501	29.64
874.935	34.64
875.368	30.34
875.802	35.24
876.235	29.74
876.669	27.44
877.102	21.54
877.535	31.14
877.969	19.84
878.402	26.84
878.836	19.14
879.269	19.64
879.702	26.34
880.135	21.64
880.569	24.84
881.002	21.74
881.435	24.64
881.868	18.44
882.301	24.84
882.734	16.54
883.167	27.24
883.601	18.64
884.034	25.14
884.467	21.94
884.899	24.74
885.332	24.34
885.765	15.04
886.198	20.74
886.631	21.64
887.064	23.94
887.497	18.34
887.929	24.74
888.362	18.34
888.795	14.94
889.228	16.64
889.66	19.04
890.093	17.94
890.526	19.84
890.958	15.44
891.391	19.44
891.823	26.54
892.256	19.24
892.688	13.64
893.121	19.54
893.553	12.24
893.985	21.34
894.418	21.84
894.85	10.94
895.282	17.94
895.715	18.34
896.147	22.04
896.579	21.04
897.011	17.04
897.444	15.84
897.876	14.44
898.308	15.14
898.74	16.74
899.172	13.64
899.604	18.14
900.036	19.64
900.468	11.94
900.9	16.34
901.332	14.84
901.764	19.44
902.196	19.74
902.628	22.44
903.06	19.84
903.491	29.14
903.923	23.94
904.355	17.64
904.787	28.74
905.218	23.24
905.65	26.84
906.082	15.34
906.513	12.84
906.945	10.34
907.376	14.54
907.808	11.94
908.239	17.14
908.671	20.74
909.102	23.04
909.534	29.04
909.965	47.64
910.397	98.94
910.828	324.64
911.259	497.74
911.691	225.74
912.122	111.04
912.553	50.24
912.984	31.54
913.415	29.74
913.847	26.44
914.278	21.64
914.709	14.24
915.14	14.54
915.571	23.24
916.002	12.54
916.433	25.74
916.864	17.34
917.295	23.34
917.726	23.04
918.157	23.84
918.587	31.44
919.018	25.74
919.449	24.34
919.88	24.34
920.311	36.64
920.741	48.74
921.172	171.44
921.603	165.04
922.033	81.14
922.464	46.24
922.895	25.74
923.325	24.24
923.756	21.64
924.186	19.74
924.617	23.64
925.047	25.24
925.478	27.04
925.908	24.24
926.338	17.04
926.769	14.14
927.199	18.24
927.629	6.54
928.06	14.44
928.49	13.84
928.92	16.54
929.35	10.24
929.78	14.24
930.21	9.44
930.641	11.84
931.071	7.44
931.501	1.14
931.931	4.54
932.361	9.94
932.791	6.64
933.221	6.94
933.651	6.94
934.08	17.04
934.51	28.84
934.94	11.34
935.37	0.84
935.8	7.74
936.229	9.14
936.659	7.14
937.089	4.64
937.519	15.14
937.948	24.34
938.378	15.94
938.807	4.34
939.237	7.74
939.666	10.34
940.096	-4.66
940.525	5.14
940.955	5.94
941.384	5.14
941.814	-6.86
942.243	-1.96
942.672	0.84
943.102	-0.06
943.531	2.44
943.96	10.24
944.39	4.84
944.819	1.64
945.248	5.74
945.677	1.84
946.106	8.34
946.535	3.44
946.964	1.64
947.393	4.84
947.822	0.64
948.251	-0.16
948.68	-0.16
949.109	5.94
949.538	4.04
949.967	0.74
950.396	3.14
950.825	3.24
951.254	1.54
951.682	-3.06
952.111	7.44
952.54	5.54
952.969	-3.66
953.397	-2.26
953.826	9.04
954.254	-6.26
954.683	-0.96
955.112	-8.56
955.54	-4.16
955.969	0.14
956.397	-0.76
956.826	2.04
957.254	2.84
957.682	4.04
958.111	0.14
958.539	-0.26
958.967	2.04
959.396	-0.76
959.824	2.94
960.252	2.74
960.68	-4.36
961.109	1.34
961.537	-3.66
961.965	4.44
962.393	2.84
962.821	-1.16
963.249	-0.56
963.677	8.74
964.105	2.14
964.533	47.24
964.961	40.34
965.389	21.84
965.817	7.54
966.245	2.14
966.672	2.04
967.1	-4.66
967.528	0.24
967.956	-2.66
968.383	3.54
968.811	-1.86
969.239	-2.76
969.666	-7.06
970.094	2.14
970.522	4.34
970.949	2.34
971.377	2.64
971.804	-2.56
972.232	2.44
972.659	-9.96
973.087	-3.46
973.514	0.44
973.941	-4.96
974.369	4.74
974.796	-6.76
975.223	2.54
975.651	-1.46
976.078	4.64
976.505	1.44
976.932	5.04
977.359	18.24
977.786	20.54
978.214	-1.86
978.641	-0.76
979.068	-4.46
979.495	-7.26
979.922	2.54
980.349	-2.16
980.776	6.74
981.202	-0.06
981.629	6.34
982.056	1.94
982.483	0.74
982.91	2.94
983.337	-4.56
983.763	1.74
984.19	-3.56
984.617	-1.56
985.043	-9.06
985.47	-4.06
985.897	-1.96
986.323	-5.86
986.75	8.84
987.176	-3.46
987.603	0.14
988.029	1.44
988.456	2.24
988.882	4.34
989.308	-4.66
989.735	-8.56
990.161	5.04
990.587	-4.96
991.014	1.64
991.44	5.84
991.866	-0.46
992.292	-7.16
992.719	-0.66
993.145	4.54
993.571	-8.46
993.997	-3.66
994.423	-1.76
994.849	-4.86
995.275	-0.06
995.701	-4.56
996.127	-4.06
996.553	7.44
996.979	2.24
997.405	-2.26
997.83	-4.76
998.256	-6.06
998.682	1.54
999.108	-13.16
999.534	-2.76
999.959	0.44
1000.385	-5.76
1000.811	2.34
1001.236	-7.36
1001.662	-3.96
1002.087	-8.06
1002.513	6.64
1002.938	1.54
1003.364	-1.46
1003.789	3.64
1004.215	7.24
1004.64	6.54
1005.066	8.34
1005.491	7.54
1005.916	-3.26
1006.342	-4.46
1006.767	-3.36
1007.192	9.34
1007.617	-7.36
1008.042	0.34
1008.468	-2.46
1008.893	-6.26
1009.318	-1.66
1009.743	-0.36
1010.168	4.64
1010.593	4.94
1011.018	-10.66
1011.443	-0.56
1011.868	9.64
1012.293	-5.26
1012.718	-6.06
1013.143	2.24
1013.567	0.04
1013.992	-1.96
1014.417	-14.56
1014.842	3.94
1015.267	-3.46
1015.691	-11.76
1016.116	3.14
1016.541	-1.36
1016.965	4.84
1017.39	4.04
1017.814	3.64
1018.239	4.74
1018.663	-1.06
1019.088	-5.06
1019.512	-0.86
1019.937	-0.46
1020.361	-10.06
1020.785	-7.96
1021.21	-7.06
1021.634	-3.76
1022.058	1.34
1022.483	1.34
1022.907	-2.26
1023.331	-0.46
1023.755	-2.86
1024.179	0.24
1024.604	-0.86
1025.028	-7.06
1025.452	-7.76
1025.876	0.14
1026.3	-1.26
1026.724	-13.06
1027.148	-2.96
1027.572	-6.46
1027.996	-2.86
1028.42	3.74
1028.843	-0.06
1029.267	-9.76
1029.691	-4.86
1030.115	-8.36
1030.539	-6.36
1030.962	-6.66
1031.386	-10.46
1031.81	-0.16
1032.233	-3.36
1032.657	-2.66
1033.08	-2.66
1033.504	-2.96
1033.927	0.84
1034.351	0.24
1034.774	-3.26
1035.198	0.54
1035.621	-3.46
1036.045	-1.26
1036.468	3.44
1036.891	-6.66
1037.315	-16.06
1037.738	-9.26
1038.161	0.84
1038.584	-5.86
1039.008	-3.16
1039.431	-3.56
1039.854	-0.06
1040.277	-8.46
1040.7	-7.56
1041.123	-3.86
1041.546	-9.86
1041.969	-0.46
1042.392	-8.66
1042.815	5.14
1043.238	3.84
1043.661	4.44
1044.084	-8.06
1044.507	-6.16
1044.93	-12.36
1045.352	-2.16
1045.775	-1.06
1046.198	2.54
1046.621	2.54
1047.043	0.14
1047.466	2.84
1047.889	-4.06
1048.311	-4.56
1048.734	-2.36
1049.156	-1.46
1049.579	-0.36
1050.001	-2.66
1050.424	-2.06
1050.846	-5.56
1051.269	-1.66
1051.691	-6.06
1052.113	-2.06
1052.536	-3.56
1052.958	-7.86
1053.38	-3.26
1053.802	-7.76
1054.225	4.84
1054.647	-5.76
1055.069	-3.16
1055.491	0.94
1055.913	-6.16
1056.335	-2.36
1056.757	-2.86
1057.179	-11.46
1057.601	-7.76
1058.023	-3.36
1058.445	-4.66
1058.867	-1.26
1059.289	1.14
1059.711	-5.06
1060.133	-0.36
1060.555	-2.46
1060.976	-11.16
1061.398	-7.26
1061.82	-4.36
1062.241	-7.26
1062.663	-5.66
1063.085	-5.06
1063.506	3.24
1063.928	2.84
1064.35	-1.26
1064.771	-12.86
1065.193	-7.16
1065.614	-5.56
1066.035	-3.96
1066.457	-4.16
1066.878	3.04
1067.3	-4.86
1067.721	-5.36
1068.142	-2.36
1068.564	-1.06
1068.985	-4.66
1069.406	-9.86
1069.827	-3.26
1070.248	2.14
1070.67	-5.56
1071.091	2.14
1071.512	-2.06
1071.933	-1.26
1072.354	-7.06
1072.775	-2.96
1073.196	-4.76
1073.617	-5.26
1074.038	-3.26
1074.459	-5.46
1074.88	-9.56
1075.3	-4.06
1075.721	-6.86
1076.142	3.64
1076.563	1.64
1076.983	-8.96
1077.404	-3.36
1077.825	-10.96
1078.246	-3.06
1078.666	-7.16
1079.087	-1.36
1079.507	-2.26
1079.928	-2.06
1080.348	4.24
1080.769	-4.66
1081.189	-0.96
1081.61	-2.66
1082.03	-1.96
1082.451	-4.56
1082.871	-5.36
1083.291	-1.86
1083.711	-8.16
1084.132	-5.26
1084.552	-10.06
1084.972	0.14
1085.392	-5.06
1085.813	-14.06
1086.233	-7.66
1086.653	-2.46
1087.073	3.84
1087.493	-6.96
1087.913	-8.56
1088.333	-7.06
1088.753	-7.86
1089.173	3.14
1089.593	0.04
1090.013	0.74
1090.433	2.84
1090.852	1.94
1091.272	-2.06
1091.692	1.64
1092.112	-0.86
1092.531	-4.26
1092.951	-10.66
1093.371	-8.36
1093.79	0.74
1094.21	-12.16
1094.63	-8.56
1095.049	-2.36
1095.469	0.64
1095.888	-2.66
1096.308	3.94
1096.727	3.84
1097.146	-11.56
1097.566	0.74
1097.985	-7.26
1098.405	-2.96
1098.824	-4.46
1099.243	-9.86
1099.662	-7.06
1100.082	0.74
1100.501	-5.26
1100.92	-10.86
1101.339	-4.06
1101.758	-8.76
