Data from 20171114-ORNL-Ar_H_NY_Subt18_08-07-13-145.txt Node
Date: Tue Nov 14 08:07:13 EST 2017
User: Ender
Spectrometer: HR+D1039
Trigger mode: 0
Integration Time (sec): 2.730000E-2
Scans to average: 10
Electric dark correction enabled: true
Nonlinearity correction enabled: false
Boxcar width: 0
XAxis mode: Wavelengths
Number of Pixels in Spectrum: 2048
>>>>>Begin Spectral Data<<<<<
187.836	-5.21
188.309	-5.21
188.782	-5.21
189.255	2.39
189.728	-0.91
190.201	4.69
190.674	2.79
191.147	2.59
191.619	-3.51
192.092	3.29
192.565	1.89
193.038	-1.41
193.511	0.99
193.984	-3.81
194.456	-4.81
194.929	-0.21
195.402	-2.21
195.874	3.49
196.347	0.19
196.82	-6.71
197.292	8.89
197.765	-2.11
198.237	-11.41
198.71	3.59
199.182	-0.61
199.655	1.49
200.127	-0.61
200.6	-4.81
201.072	-3.31
201.544	-8.61
202.017	-3.11
202.489	4.69
202.961	-0.71
203.433	-0.61
203.906	-6.81
204.378	-3.51
204.85	-7.21
205.322	-2.71
205.794	-5.71
206.266	-3.61
206.739	-6.71
207.211	-1.01
207.683	-3.91
208.155	-9.51
208.627	-4.91
209.099	-5.71
209.57	-11.61
210.042	-10.51
210.514	2.59
210.986	-0.21
211.458	-13.11
211.93	-3.51
212.402	0.99
212.873	-2.81
213.345	-10.71
213.817	-14.01
214.288	-1.41
214.76	-11.71
215.232	-1.51
215.703	-2.01
216.175	-5.91
216.646	-2.91
217.118	-5.71
217.589	-6.71
218.061	-0.91
218.532	-4.61
219.004	-0.61
219.475	-7.51
219.946	-6.01
220.418	-10.91
220.889	1.59
221.36	6.29
221.832	-6.61
222.303	-7.31
222.774	1.19
223.245	-5.71
223.717	-5.01
224.188	-6.91
224.659	-10.01
225.13	-5.81
225.601	0.59
226.072	0.59
226.543	2.59
227.014	-5.31
227.485	-4.91
227.956	-7.31
228.427	-3.91
228.898	1.49
229.369	-3.91
229.839	-6.61
230.31	-8.21
230.781	2.59
231.252	-5.01
231.722	-5.51
232.193	-10.71
232.664	-4.01
233.135	-3.71
233.605	-1.01
234.076	-5.91
234.546	-0.91
235.017	-1.21
235.487	1.99
235.958	0.59
236.428	-4.01
236.899	-5.11
237.369	-0.21
237.84	-6.41
238.31	1.19
238.78	-3.31
239.251	-8.01
239.721	-5.51
240.191	-2.61
240.662	0.19
241.132	-2.81
241.602	-7.21
242.072	-7.51
242.542	6.39
243.013	-1.71
243.483	0.59
243.953	3.99
244.423	-4.91
244.893	-11.41
245.363	-5.11
245.833	1.69
246.303	-6.01
246.773	2.89
247.243	-4.91
247.712	-4.01
248.182	-3.01
248.652	3.19
249.122	-11.81
249.592	0.39
250.061	1.29
250.531	7.99
251.001	-2.81
251.471	3.79
251.94	0.49
252.41	-4.11
252.879	-5.41
253.349	4.19
253.818	2.09
254.288	-0.81
254.757	-2.71
255.227	-3.71
255.696	-4.61
256.166	7.39
256.635	-0.01
257.105	-1.61
257.574	-7.81
258.043	1.79
258.513	-4.21
258.982	3.49
259.451	-2.21
259.92	5.99
260.389	5.89
260.859	9.79
261.328	1.39
261.797	5.39
262.266	2.59
262.735	4.29
263.204	1.79
263.673	4.59
264.142	4.49
264.611	-3.91
265.08	-6.71
265.549	-4.91
266.018	2.89
266.487	-2.11
266.955	1.19
267.424	0.39
267.893	0.29
268.362	-5.11
268.83	0.49
269.299	6.89
269.768	-0.01
270.236	0.79
270.705	0.09
271.174	-1.31
271.642	-0.91
272.111	-1.51
272.579	0.99
273.048	6.99
273.516	5.19
273.985	3.89
274.453	3.59
274.922	14.39
275.39	8.19
275.858	-4.51
276.327	2.39
276.795	12.39
277.263	4.99
277.731	7.79
278.2	1.69
278.668	2.39
279.136	1.29
279.604	0.69
280.072	4.79
280.54	8.89
281.008	1.09
281.477	11.99
281.945	4.09
282.413	5.99
282.881	12.69
283.348	0.89
283.816	3.29
284.284	11.19
284.752	9.49
285.22	8.59
285.688	8.19
286.156	8.09
286.623	15.69
287.091	4.79
287.559	10.89
288.026	4.59
288.494	10.79
288.962	-0.61
289.429	4.19
289.897	10.69
290.364	3.59
290.832	10.99
291.3	10.39
291.767	12.39
292.234	9.49
292.702	6.39
293.169	8.09
293.637	17.69
294.104	8.49
294.571	-1.11
295.039	1.39
295.506	9.09
295.973	16.49
296.44	6.59
296.908	12.09
297.375	7.69
297.842	8.89
298.309	10.89
298.776	10.29
299.243	19.09
299.71	8.59
300.177	16.19
300.644	5.89
301.111	14.19
301.578	17.09
302.045	11.49
302.512	17.19
302.979	17.59
303.446	15.09
303.913	14.79
304.379	14.19
304.846	21.19
305.313	25.09
305.78	15.19
306.246	16.99
306.713	15.59
307.18	18.29
307.646	17.89
308.113	25.29
308.579	14.89
309.046	18.19
309.512	18.99
309.979	9.59
310.445	25.39
310.912	19.69
311.378	24.19
311.845	25.59
312.311	25.79
312.777	23.79
313.244	22.29
313.71	23.19
314.176	19.09
314.642	27.09
315.109	20.69
315.575	20.89
316.041	30.39
316.507	19.09
316.973	30.49
317.439	15.99
317.905	30.99
318.371	30.09
318.837	32.79
319.303	33.39
319.769	24.89
320.235	29.09
320.701	20.59
321.167	30.49
321.633	24.69
322.099	29.49
322.564	34.09
323.03	28.69
323.496	28.99
323.962	27.29
324.427	29.39
324.893	30.59
325.359	31.99
325.824	27.89
326.29	30.49
326.755	28.79
327.221	36.59
327.686	33.89
328.152	40.39
328.617	35.69
329.083	35.39
329.548	42.49
330.014	41.09
330.479	38.99
330.944	38.59
331.41	37.99
331.875	36.59
332.34	35.99
332.805	32.39
333.271	39.99
333.736	31.89
334.201	44.19
334.666	36.59
335.131	39.99
335.596	41.59
336.061	38.69
336.526	31.29
336.991	40.69
337.456	41.89
337.921	40.49
338.386	38.29
338.851	44.79
339.316	39.19
339.781	38.89
340.246	44.29
340.711	40.89
341.175	48.99
341.64	38.29
342.105	42.19
342.569	41.99
343.034	43.79
343.499	41.89
343.963	42.29
344.428	52.69
344.893	53.49
345.357	49.79
345.822	52.99
346.286	52.19
346.751	60.39
347.215	59.79
347.679	58.59
348.144	72.09
348.608	66.69
349.073	57.79
349.537	63.39
350.001	62.69
350.465	71.49
350.93	68.29
351.394	72.19
351.858	62.39
352.322	79.39
352.786	72.19
353.25	83.79
353.715	87.89
354.179	83.49
354.643	96.79
355.107	101.09
355.571	91.79
356.035	85.39
356.498	94.39
356.962	93.19
357.426	104.29
357.89	94.59
358.354	78.29
358.818	71.69
359.281	71.09
359.745	70.09
360.209	66.09
360.673	64.99
361.136	67.39
361.6	75.89
362.064	69.49
362.527	71.39
362.991	81.99
363.454	65.09
363.918	68.99
364.381	66.19
364.845	73.79
365.308	77.69
365.772	80.99
366.235	79.39
366.698	68.79
367.162	75.49
367.625	75.79
368.088	73.59
368.552	78.29
369.015	83.39
369.478	83.09
369.941	91.79
370.404	80.69
370.867	88.89
371.331	91.99
371.794	95.29
372.257	97.99
372.72	103.29
373.183	89.19
373.646	88.39
374.109	80.89
374.572	81.89
375.035	85.99
375.497	93.79
375.96	98.09
376.423	95.69
376.886	103.79
377.349	100.09
377.811	90.49
378.274	97.49
378.737	96.19
379.199	99.99
379.662	99.49
380.125	97.39
380.587	98.09
381.05	96.79
381.512	98.09
381.975	110.69
382.437	109.39
382.9	107.19
383.362	112.99
383.825	113.99
384.287	111.39
384.75	109.49
385.212	118.29
385.674	127.19
386.136	126.69
386.599	114.59
387.061	113.09
387.523	115.49
387.985	111.49
388.447	119.29
388.91	116.59
389.372	121.99
389.834	120.59
390.296	117.79
390.758	123.19
391.22	129.59
391.682	132.39
392.144	135.89
392.606	134.39
393.068	128.99
393.529	146.29
393.991	131.19
394.453	122.29
394.915	124.49
395.377	131.49
395.838	128.59
396.3	133.39
396.762	132.09
397.224	131.69
397.685	130.99
398.147	128.09
398.608	130.19
399.07	128.89
399.531	126.49
399.993	132.19
400.454	150.59
400.916	140.89
401.377	136.49
401.839	144.29
402.3	151.59
402.762	158.49
403.223	164.39
403.684	159.19
404.145	150.59
404.607	152.19
405.068	157.39
405.529	162.79
405.99	173.59
406.451	164.39
406.913	170.59
407.374	155.59
407.835	158.39
408.296	168.59
408.757	164.89
409.218	176.79
409.679	169.49
410.14	175.09
410.601	179.69
411.062	173.99
411.522	182.59
411.983	175.49
412.444	170.59
412.905	178.49
413.366	178.99
413.826	195.59
414.287	212.99
414.748	265.59
415.208	254.79
415.669	211.89
416.13	207.79
416.59	202.39
417.051	217.99
417.511	214.79
417.972	238.29
418.432	251.99
418.893	291.79
419.353	252.39
419.814	201.79
420.274	185.49
420.734	178.29
421.195	196.29
421.655	196.19
422.115	193.29
422.576	191.79
423.036	200.79
423.496	208.19
423.956	218.99
424.416	232.29
424.876	271.19
425.336	268.69
425.797	265.09
426.257	256.79
426.717	230.49
427.177	227.29
427.637	214.99
428.097	230.19
428.556	232.99
429.016	260.89
429.476	257.59
429.936	266.69
430.396	261.09
430.856	276.99
431.315	307.09
431.775	332.09
432.235	369.09
432.694	343.69
433.154	341.29
433.614	371.69
434.073	326.29
434.533	282.09
434.993	264.49
435.452	276.39
435.912	292.79
436.371	281.79
436.83	279.49
437.29	261.39
437.749	246.39
438.209	252.99
438.668	275.29
439.127	282.19
439.587	266.69
440.046	243.59
440.505	269.49
440.964	274.09
441.424	311.69
441.883	305.79
442.342	264.49
442.801	231.49
443.26	219.69
443.719	223.09
444.178	219.79
444.637	218.39
445.096	228.59
445.555	232.89
446.014	237.69
446.473	236.49
446.932	236.79
447.391	236.99
447.849	231.29
448.308	234.79
448.767	233.99
449.226	240.69
449.685	246.49
450.143	256.69
450.602	254.89
451.061	228.29
451.519	243.29
451.978	236.89
452.436	246.49
452.895	248.19
453.353	254.49
453.812	251.69
454.27	250.89
454.729	248.69
455.187	252.39
455.646	256.79
456.104	253.69
456.562	262.09
457.021	270.29
457.479	270.89
457.937	279.99
458.395	275.49
458.854	249.99
459.312	258.89
459.77	276.29
460.228	264.59
460.686	259.29
461.144	259.49
461.602	252.19
462.06	253.69
462.518	266.99
462.976	265.89
463.434	271.39
463.892	269.79
464.35	283.79
464.808	302.99
465.266	274.09
465.724	281.19
466.181	285.29
466.639	282.49
467.097	296.09
467.555	309.69
468.012	317.39
468.47	323.19
468.928	342.89
469.385	356.69
469.843	365.79
470.3	364.29
470.758	371.79
471.215	393.79
471.673	416.29
472.13	411.09
472.588	420.99
473.045	382.99
473.503	391.49
473.96	409.19
474.417	413.99
474.875	450.69
475.332	493.29
475.789	481.89
476.246	477.79
476.704	487.49
477.161	516.59
477.618	542.09
478.075	570.89
478.532	625.59
478.989	696.49
479.446	799.19
479.903	770.49
480.36	793.49
480.817	841.49
481.274	935.09
481.731	1019.49
482.188	1110.29
482.645	1213.29
483.102	1317.99
483.558	1432.19
484.015	1466.79
484.472	1434.59
484.929	1393.99
485.385	1360.29
485.842	1334.09
486.299	1282.39
486.755	1246.39
487.212	1061.59
487.668	910.69
488.125	839.69
488.582	774.89
489.038	746.89
489.494	714.39
489.951	696.79
490.407	678.29
490.864	651.89
491.32	653.09
491.776	649.99
492.233	655.59
492.689	639.19
493.145	624.59
493.602	612.99
494.058	632.99
494.514	621.29
494.97	651.49
495.426	659.79
495.882	633.89
496.338	636.59
496.794	633.19
497.251	621.79
497.707	650.59
498.163	654.79
498.618	641.99
499.074	654.09
499.53	692.79
499.986	683.49
500.442	664.49
500.898	633.49
501.354	634.39
501.809	644.99
502.265	644.59
502.721	643.69
503.177	652.99
503.632	663.19
504.088	666.29
504.543	680.99
504.999	708.39
505.455	682.19
505.91	655.29
506.366	667.19
506.821	652.89
507.277	658.29
507.732	665.69
508.187	655.99
508.643	654.49
509.098	669.49
509.553	673.69
510.009	689.89
510.464	689.49
510.919	720.39
511.375	718.39
511.83	740.09
512.285	751.39
512.74	786.09
513.195	807.89
513.65	797.89
514.105	799.39
514.56	786.69
515.015	814.39
515.47	823.39
515.925	808.69
516.38	814.09
516.835	810.19
517.29	800.59
517.745	800.49
518.2	797.49
518.655	778.99
519.109	776.69
519.564	770.09
520.019	757.89
520.474	740.99
520.928	754.59
521.383	749.59
521.838	736.79
522.292	748.19
522.747	738.39
523.201	736.39
523.656	721.39
524.11	719.79
524.565	718.59
525.019	708.99
525.474	715.69
525.928	723.99
526.382	722.09
526.837	724.99
527.291	725.69
527.745	725.69
528.2	727.59
528.654	724.19
529.108	716.79
529.562	716.49
530.016	712.09
530.47	711.69
530.925	708.59
531.379	717.29
531.833	717.99
532.287	722.29
532.741	722.49
533.195	723.39
533.649	730.19
534.103	744.69
534.556	739.49
535.01	728.99
535.464	739.49
535.918	732.99
536.372	741.89
536.826	744.89
537.279	732.09
537.733	739.89
538.187	732.09
538.64	736.09
539.094	743.59
539.548	758.59
540.001	747.49
540.455	743.79
540.908	761.29
541.362	759.79
541.815	761.89
542.269	792.79
542.722	789.19
543.175	790.19
543.629	796.09
544.082	813.79
544.536	811.59
544.989	814.19
545.442	826.09
545.895	823.49
546.349	822.59
546.802	822.59
547.255	826.59
547.708	840.59
548.161	844.99
548.614	858.49
549.067	859.59
549.52	856.89
549.973	849.99
550.426	841.89
550.879	819.99
551.332	837.59
551.785	840.79
552.238	841.69
552.691	854.29
553.144	862.89
553.596	888.29
554.049	897.09
554.502	928.59
554.955	950.69
555.407	939.89
555.86	929.89
556.313	929.59
556.765	914.89
557.218	917.79
557.67	922.89
558.123	908.49
558.576	908.79
559.028	913.79
559.48	924.39
559.933	907.89
560.385	879.19
560.838	854.29
561.29	820.59
561.742	817.99
562.195	798.99
562.647	797.09
563.099	804.09
563.551	808.29
564.004	815.29
564.456	790.99
564.908	776.89
565.36	782.49
565.812	763.09
566.264	754.49
566.716	744.19
567.168	730.69
567.62	733.59
568.072	737.49
568.524	718.49
568.976	717.99
569.428	711.79
569.88	713.79
570.332	708.29
570.784	711.29
571.235	711.59
571.687	724.19
572.139	734.79
572.59	737.89
573.042	739.29
573.494	741.49
573.945	726.49
574.397	714.39
574.849	721.19
575.3	722.09
575.752	710.19
576.203	711.59
576.655	709.39
577.106	710.49
577.557	688.69
578.009	695.69
578.46	693.89
578.912	689.59
579.363	693.09
579.814	689.99
580.265	698.59
580.717	701.99
581.168	696.39
581.619	695.59
582.07	717.69
582.521	690.49
582.972	694.49
583.423	707.89
583.875	692.89
584.326	707.79
584.777	715.69
585.227	735.09
585.678	748.19
586.129	752.49
586.58	771.59
587.031	788.29
587.482	819.79
587.933	832.49
588.384	816.89
588.834	802.59
589.285	785.69
589.736	806.89
590.186	807.59
590.637	787.79
591.088	780.09
591.538	758.19
591.989	752.39
592.439	741.29
592.89	736.19
593.34	724.49
593.791	725.19
594.241	719.19
594.692	721.29
595.142	707.49
595.593	717.19
596.043	717.69
596.493	728.19
596.943	738.19
597.394	739.39
597.844	740.29
598.294	758.99
598.744	779.69
599.195	813.19
599.645	847.89
600.095	882.59
600.545	952.89
600.995	998.79
601.445	1063.19
601.895	1123.09
602.345	1178.59
602.795	1145.69
603.245	1095.39
603.695	1050.99
604.145	994.69
604.594	943.49
605.044	894.79
605.494	826.79
605.944	773.39
606.393	768.39
606.843	745.79
607.293	756.09
607.743	745.79
608.192	762.29
608.642	776.49
609.091	775.69
609.541	780.69
609.99	779.49
610.44	782.89
610.889	732.19
611.339	719.99
611.788	705.99
612.238	702.49
612.687	729.39
613.136	714.29
613.586	723.49
614.035	720.19
614.484	734.89
614.933	731.79
615.383	727.79
615.832	720.99
616.281	713.99
616.73	685.99
617.179	670.29
617.628	658.99
618.077	638.99
618.526	633.49
618.975	634.39
619.424	632.49
619.873	623.09
620.322	630.69
620.771	617.59
621.22	621.59
621.669	614.79
622.118	599.29
622.567	595.99
623.015	580.49
623.464	584.79
623.913	582.69
624.361	576.19
624.81	573.59
625.259	561.89
625.707	568.79
626.156	570.59
626.604	584.29
627.053	568.99
627.501	581.29
627.95	589.39
628.398	605.59
628.847	587.79
629.295	583.69
629.744	593.29
630.192	585.69
630.64	575.79
631.089	557.39
631.537	553.59
631.985	544.29
632.433	541.89
632.881	536.99
633.33	527.59
633.778	527.09
634.226	541.89
634.674	543.19
635.122	554.09
635.57	555.59
636.018	560.59
636.466	571.89
636.914	566.19
637.362	581.29
637.81	594.19
638.258	593.19
638.705	591.59
639.153	627.69
639.601	625.79
640.049	653.99
640.497	692.79
640.944	706.79
641.392	654.59
641.84	627.49
642.287	599.09
642.735	575.59
643.182	577.49
643.63	580.49
644.078	575.69
644.525	588.59
644.973	586.89
645.42	610.79
645.867	618.79
646.315	650.29
646.762	669.19
647.21	699.29
647.657	716.99
648.104	749.99
648.551	760.19
648.999	817.69
649.446	897.39
649.893	983.99
650.34	1108.49
650.787	1330.29
651.234	1636.99
651.682	2112.99
652.129	2839.89
652.576	4035.49
653.023	5890.99
653.47	7965.39
653.917	9881.49
654.363	11375.79
654.81	12568.99
655.257	11926.59
655.704	7892.79
656.151	4761.39
656.598	3133.89
657.044	2253.49
657.491	1745.59
657.938	1418.99
658.385	1194.59
658.831	1039.49
659.278	939.99
659.724	840.39
660.171	769.79
660.618	714.49
661.064	682.59
661.511	669.19
661.957	658.69
662.404	646.49
662.85	649.69
663.296	623.09
663.743	562.49
664.189	547.09
664.635	543.19
665.082	540.79
665.528	533.49
665.974	532.49
666.42	522.79
666.867	517.69
667.313	497.69
667.759	478.59
668.205	456.99
668.651	455.99
669.097	458.19
669.543	459.29
669.989	457.99
670.435	450.99
670.881	449.99
671.327	461.29
671.773	478.69
672.219	502.79
672.665	557.19
673.11	594.59
673.556	646.99
674.002	687.39
674.448	678.59
674.893	568.49
675.339	493.49
675.785	454.09
676.23	435.29
676.676	411.19
677.122	396.69
677.567	382.49
678.013	375.09
678.458	365.09
678.904	375.39
679.349	362.19
679.794	359.79
680.24	352.79
680.685	356.09
681.131	358.79
681.576	359.39
682.021	359.19
682.466	361.09
682.912	357.69
683.357	365.29
683.802	397.19
684.247	426.49
684.692	476.49
685.137	512.59
685.583	555.99
686.028	583.69
686.473	537.19
686.918	457.89
687.363	428.59
687.807	401.29
688.252	382.89
688.697	373.79
689.142	346.49
689.587	348.79
690.032	337.59
690.477	355.59
690.921	367.89
691.366	398.69
691.811	419.99
692.255	431.59
692.7	476.39
693.145	516.49
693.589	730.39
694.034	1189.69
694.478	1605.09
694.923	1800.29
695.367	2351.79
695.812	1242.39
696.256	516.49
696.701	385.59
697.145	354.59
697.59	336.89
698.034	327.99
698.478	342.09
698.922	329.59
699.367	326.99
699.811	341.79
700.255	366.79
700.699	385.39
701.143	442.79
701.588	479.49
702.032	530.09
702.476	528.49
702.92	506.19
703.364	512.89
703.808	665.19
704.252	1085.89
704.696	1521.09
705.14	1726.79
705.584	2202.89
706.027	1115.79
706.471	545.39
706.915	416.39
707.359	369.69
707.803	334.89
708.246	321.59
708.69	329.39
709.134	327.29
709.577	317.49
710.021	328.69
710.465	320.69
710.908	307.39
711.352	305.99
711.795	322.19
712.239	358.49
712.682	390.79
713.126	419.99
713.569	472.09
714.012	367.69
714.456	302.39
714.899	288.79
715.342	281.99
715.786	273.89
716.229	262.99
716.672	265.29
717.115	249.79
717.558	263.39
718.002	262.49
718.445	270.89
718.888	291.09
719.331	303.99
719.774	313.79
720.217	309.99
720.66	294.69
721.103	272.89
721.546	264.09
721.989	261.59
722.432	237.39
722.874	244.09
723.317	235.19
723.76	235.49
724.203	263.69
724.645	327.79
725.088	465.89
725.531	581.69
725.974	659.19
726.416	570.09
726.859	322.19
727.301	255.69
727.744	246.39
728.187	233.69
728.629	246.69
729.071	247.19
729.514	264.69
729.956	275.49
730.399	288.19
730.841	295.89
731.283	295.69
731.726	276.29
732.168	271.59
732.61	280.99
733.053	295.59
733.495	326.29
733.937	358.19
734.379	406.39
734.821	456.09
735.263	571.99
735.705	873.59
736.148	1656.59
736.59	2706.09
737.032	3170.79
737.474	2585.99
737.916	851.19
738.357	453.59
738.799	345.29
739.241	315.79
739.683	294.69
740.125	306.79
740.567	310.19
741.008	327.79
741.45	330.89
741.892	324.09
742.334	351.59
742.775	374.79
743.217	351.19
743.658	278.89
744.1	258.19
744.542	277.39
744.983	323.69
745.425	361.99
745.866	362.49
746.307	291.49
746.749	290.59
747.19	332.99
747.632	474.29
748.073	929.99
748.514	1950.79
748.956	2969.99
749.397	3769.59
749.838	3119.89
750.279	3081.09
750.72	1564.59
751.162	576.39
751.603	335.09
752.044	257.39
752.485	227.29
752.926	214.59
753.367	208.59
753.808	203.99
754.249	198.19
754.69	190.49
755.131	188.39
755.572	179.89
756.013	179.59
756.453	184.89
756.894	196.99
757.335	201.79
757.776	200.49
758.216	203.39
758.657	200.69
759.098	209.39
759.538	243.49
759.979	273.19
760.42	391.29
760.86	742.09
761.301	1948.09
761.741	4674.39
762.182	6703.79
762.622	4720.59
763.063	1367.59
763.503	560.39
763.943	337.79
764.384	269.59
764.824	245.19
765.264	222.69
765.705	206.29
766.145	185.69
766.585	177.09
767.025	174.59
767.465	172.69
767.906	174.89
768.346	190.69
768.786	198.29
769.226	222.29
769.666	314.49
770.106	648.89
770.546	1627.49
770.986	2740.49
771.426	2461.39
771.866	831.49
772.306	334.59
772.745	208.89
773.185	173.69
773.625	163.09
774.065	160.49
774.505	167.99
774.944	210.79
775.384	361.79
775.824	583.39
776.263	558.09
776.703	277.99
777.142	165.19
777.582	133.49
778.021	129.69
778.461	121.69
778.9	126.19
779.34	128.09
779.779	111.89
780.219	109.99
780.658	109.69
781.097	108.69
781.537	119.89
781.976	116.19
782.415	107.89
782.855	104.29
783.294	110.59
783.733	108.59
784.172	112.89
784.611	112.19
785.05	109.19
785.489	119.29
785.928	118.09
786.367	122.09
786.806	125.69
787.245	134.59
787.684	133.99
788.123	148.59
788.562	141.89
789.001	128.29
789.44	122.99
789.879	120.29
790.317	125.29
790.756	135.69
791.195	128.49
791.634	150.99
792.072	208.79
792.511	376.59
792.95	1048.19
793.388	2205.49
793.827	1984.99
794.265	688.49
794.704	285.69
795.142	191.79
795.581	159.19
796.019	145.69
796.458	134.19
796.896	129.79
797.334	135.29
797.773	162.69
798.211	231.79
798.649	456.39
799.087	1069.99
799.526	1668.29
799.964	2114.89
800.402	2092.79
800.84	796.99
801.278	314.39
801.716	198.59
802.154	157.39
802.592	150.59
803.03	149.49
803.468	138.89
803.906	147.29
804.344	154.09
804.782	143.79
805.22	134.29
805.658	137.19
806.096	148.29
806.533	160.39
806.971	176.89
807.409	233.39
807.847	337.39
808.284	701.39
808.722	1976.19
809.16	3432.29
809.597	3296.39
810.035	5673.39
810.472	6017.59
810.91	2178.89
811.347	841.59
811.785	419.09
812.222	269.89
812.66	209.89
813.097	173.29
813.535	150.89
813.972	137.69
814.409	120.19
814.846	116.49
815.284	112.49
815.721	101.19
816.158	104.79
816.595	113.29
817.032	152.79
817.47	186.89
817.907	141.99
818.344	108.99
818.781	98.89
819.218	99.49
819.655	129.69
820.092	191.09
820.529	227.59
820.966	172.59
821.403	126.19
821.839	101.59
822.276	102.99
822.713	125.79
823.15	140.39
823.587	121.89
824.023	152.19
824.46	316.19
824.897	945.79
825.333	1402.59
825.77	605.49
826.206	236.99
826.643	139.99
827.08	108.59
827.516	86.99
827.953	80.29
828.389	88.69
828.825	77.19
829.262	71.49
829.698	64.39
830.135	70.39
830.571	64.59
831.007	63.79
831.443	66.19
831.88	65.29
832.316	62.59
832.752	66.29
833.188	71.19
833.624	69.69
834.06	70.59
834.497	73.19
834.933	69.39
835.369	81.19
835.805	71.79
836.241	81.29
836.677	86.29
837.112	98.49
837.548	109.79
837.984	138.39
838.42	213.09
838.856	527.79
839.292	1608.29
839.727	2393.29
840.163	1117.99
840.599	980.59
841.034	2118.29
841.47	2192.59
841.906	811.39
842.341	345.29
842.777	207.39
843.212	207.69
843.648	190.69
844.083	111.29
844.519	84.99
844.954	70.19
845.39	59.69
845.825	58.79
846.261	57.19
846.696	59.19
847.131	56.49
847.566	58.29
848.002	53.79
848.437	58.19
848.872	58.09
849.307	65.29
849.742	93.49
850.177	190.89
850.613	588.99
851.048	914.79
851.483	393.59
851.918	164.29
852.353	90.19
852.788	61.29
853.223	48.29
853.657	48.29
854.092	43.39
854.527	41.79
854.962	42.09
855.397	48.39
855.832	48.39
856.266	39.89
856.701	41.59
857.136	44.89
857.57	41.59
858.005	48.89
858.44	61.99
858.874	43.69
859.309	55.19
859.743	41.19
860.178	54.69
860.612	47.89
861.047	52.69
861.481	71.99
861.915	82.79
862.35	53.49
862.784	37.69
863.218	42.49
863.653	35.49
864.087	48.69
864.521	56.09
864.955	65.89
865.39	157.19
865.824	178.89
866.258	119.99
866.692	174.39
867.126	194.19
867.56	114.99
867.994	58.69
868.428	40.59
868.862	49.49
869.296	55.79
869.73	59.89
870.164	53.99
870.598	49.89
871.031	40.69
871.465	30.99
871.899	34.09
872.333	26.59
872.766	26.49
873.2	28.39
873.634	33.59
874.067	33.99
874.501	28.39
874.935	41.29
875.368	25.89
875.802	24.29
876.235	22.89
876.669	18.69
877.102	20.59
877.535	23.59
877.969	22.09
878.402	24.29
878.836	18.39
879.269	23.19
879.702	24.09
880.135	21.09
880.569	24.29
881.002	21.69
881.435	19.29
881.868	16.79
882.301	20.89
882.734	19.19
883.167	21.09
883.601	19.99
884.034	22.79
884.467	12.89
884.899	21.79
885.332	16.09
885.765	19.69
886.198	22.09
886.631	23.99
887.064	21.39
887.497	19.99
887.929	22.19
888.362	11.59
888.795	17.09
889.228	22.19
889.66	18.39
890.093	16.19
890.526	15.39
890.958	15.99
891.391	17.59
891.823	30.29
892.256	14.89
892.688	16.39
893.121	16.39
893.553	16.29
893.985	17.59
894.418	19.89
894.85	12.39
895.282	12.89
895.715	15.09
896.147	16.39
896.579	18.99
897.011	13.29
897.444	18.99
897.876	18.89
898.308	24.79
898.74	11.59
899.172	16.89
899.604	22.19
900.036	26.19
900.468	17.69
900.9	19.09
901.332	15.89
901.764	10.19
902.196	21.29
902.628	21.49
903.06	14.39
903.491	30.09
903.923	22.49
904.355	25.59
904.787	26.29
905.218	23.09
905.65	18.89
906.082	17.79
906.513	15.59
906.945	19.19
907.376	11.09
907.808	16.59
908.239	23.69
908.671	13.89
909.102	26.49
909.534	27.89
909.965	47.19
910.397	93.39
910.828	337.29
911.259	490.89
911.691	226.39
912.122	106.69
912.553	53.99
912.984	31.59
913.415	33.49
913.847	22.59
914.278	9.69
914.709	14.99
915.14	18.99
915.571	15.09
916.002	16.29
916.433	18.79
916.864	16.59
917.295	16.99
917.726	22.89
918.157	19.69
918.587	30.89
919.018	21.49
919.449	23.69
919.88	25.19
920.311	32.49
920.741	48.39
921.172	172.49
921.603	159.79
922.033	75.39
922.464	47.39
922.895	20.69
923.325	20.99
923.756	15.19
924.186	15.39
924.617	16.09
925.047	25.19
925.478	24.09
925.908	26.79
926.338	18.39
926.769	12.59
927.199	17.99
927.629	6.29
928.06	16.49
928.49	12.79
928.92	14.29
929.35	14.19
929.78	12.69
930.21	10.19
930.641	9.89
931.071	11.19
931.501	2.49
931.931	9.19
932.361	11.69
932.791	5.69
933.221	13.39
933.651	3.39
934.08	17.89
934.51	30.69
934.94	8.89
935.37	3.69
935.8	12.19
936.229	3.09
936.659	11.59
937.089	4.39
937.519	15.49
937.948	22.89
938.378	14.09
938.807	5.09
939.237	5.89
939.666	4.59
940.096	-7.01
940.525	5.39
940.955	2.89
941.384	7.49
941.814	-4.31
942.243	-1.21
942.672	5.69
943.102	-6.11
943.531	4.39
943.96	4.89
944.39	1.99
944.819	3.99
945.248	4.89
945.677	8.49
946.106	7.59
946.535	7.89
946.964	-0.61
947.393	0.69
947.822	3.59
948.251	-4.81
948.68	0.69
949.109	1.29
949.538	5.49
949.967	2.69
950.396	4.29
950.825	-3.21
951.254	6.59
951.682	-9.91
952.111	3.99
952.54	5.19
952.969	-8.11
953.397	-4.71
953.826	2.79
954.254	-5.91
954.683	-1.31
955.112	4.79
955.54	2.99
955.969	1.39
956.397	0.69
956.826	-3.71
957.254	3.89
957.682	4.69
958.111	6.19
958.539	-1.21
958.967	4.79
959.396	-1.51
959.824	1.99
960.252	-0.01
960.68	-2.61
961.109	2.59
961.537	-2.01
961.965	-7.11
962.393	-2.91
962.821	-1.51
963.249	5.09
963.677	9.89
964.105	-0.81
964.533	49.99
964.961	41.59
965.389	24.49
965.817	3.89
966.245	5.19
966.672	5.79
967.1	-1.41
967.528	2.09
967.956	-4.71
968.383	-0.51
968.811	-0.71
969.239	1.99
969.666	-3.31
970.094	5.09
970.522	5.89
970.949	1.29
971.377	-8.61
971.804	-2.81
972.232	0.09
972.659	0.29
973.087	-3.31
973.514	-4.21
973.941	-3.31
974.369	-0.01
974.796	-0.71
975.223	0.79
975.651	-5.61
976.078	2.69
976.505	0.49
976.932	1.99
977.359	15.39
977.786	12.59
978.214	4.89
978.641	-5.51
979.068	-9.61
979.495	-8.61
979.922	2.59
980.349	7.39
980.776	-0.21
981.202	0.09
981.629	6.99
982.056	6.49
982.483	2.19
982.91	8.99
983.337	-3.21
983.763	1.09
984.19	-4.01
984.617	-3.91
985.043	-6.61
985.47	1.49
985.897	-3.61
986.323	-1.61
986.75	7.29
987.176	-4.01
987.603	0.39
988.029	0.59
988.456	-4.71
988.882	7.39
989.308	-3.61
989.735	-3.41
990.161	-0.71
990.587	-0.61
991.014	1.69
991.44	4.19
991.866	-5.81
992.292	-6.11
992.719	-0.01
993.145	-1.81
993.571	-10.21
993.997	-6.41
994.423	-2.41
994.849	-9.11
995.275	-4.41
995.701	-0.91
996.127	-0.81
996.553	3.19
996.979	-4.91
997.405	0.99
997.83	-1.71
998.256	-7.61
998.682	-4.01
999.108	-11.21
999.534	-1.21
999.959	-5.91
1000.385	-3.01
1000.811	-4.51
1001.236	-9.71
1001.662	-2.61
1002.087	-8.91
1002.513	-5.01
1002.938	4.09
1003.364	-3.71
1003.789	2.29
1004.215	4.79
1004.64	3.09
1005.066	1.29
1005.491	-6.51
1005.916	-1.91
1006.342	-3.91
1006.767	-10.41
1007.192	0.89
1007.617	-4.21
1008.042	-8.31
1008.468	-4.91
1008.893	-0.51
1009.318	-2.51
1009.743	-3.01
1010.168	11.79
1010.593	1.79
1011.018	-7.81
1011.443	-2.11
1011.868	-0.21
1012.293	-2.41
1012.718	-5.41
1013.143	-2.51
1013.567	1.69
1013.992	-4.31
1014.417	-8.21
1014.842	-1.51
1015.267	-2.61
1015.691	-3.51
1016.116	2.19
1016.541	1.29
1016.965	-1.71
1017.39	1.19
1017.814	-6.11
1018.239	1.19
1018.663	-3.81
1019.088	-7.91
1019.512	-6.51
1019.937	-5.21
1020.361	-2.71
1020.785	-9.31
1021.21	-0.61
1021.634	-3.31
1022.058	-2.31
1022.483	2.39
1022.907	-1.81
1023.331	-8.11
1023.755	-2.91
1024.179	-7.11
1024.604	-13.91
1025.028	-3.81
1025.452	-9.21
1025.876	2.79
1026.3	-2.01
1026.724	-15.21
1027.148	-4.91
1027.572	-4.71
1027.996	-1.31
1028.42	-0.11
1028.843	-7.61
1029.267	-4.71
1029.691	-7.11
1030.115	-11.31
1030.539	-5.71
1030.962	-7.31
1031.386	-8.91
1031.81	1.39
1032.233	-2.21
1032.657	-1.21
1033.08	0.79
1033.504	-3.21
1033.927	4.49
1034.351	-2.11
1034.774	-6.31
1035.198	-5.51
1035.621	-8.21
1036.045	-6.31
1036.468	5.79
1036.891	-12.51
1037.315	-7.81
1037.738	-10.81
1038.161	0.09
1038.584	-6.41
1039.008	-3.81
1039.431	-5.61
1039.854	-3.41
1040.277	-6.51
1040.7	-11.31
1041.123	0.39
1041.546	-12.51
1041.969	-7.71
1042.392	-4.71
1042.815	8.39
1043.238	3.79
1043.661	4.69
1044.084	-12.61
1044.507	0.59
1044.93	-1.51
1045.352	-9.61
1045.775	-2.31
1046.198	0.79
1046.621	4.99
1047.043	0.29
1047.466	1.99
1047.889	-0.41
1048.311	-3.21
1048.734	-1.41
1049.156	-1.91
1049.579	-4.71
1050.001	-4.11
1050.424	-0.41
1050.846	-6.61
1051.269	-5.81
1051.691	-10.91
1052.113	-9.31
1052.536	-2.51
1052.958	-2.91
1053.38	-1.41
1053.802	-13.91
1054.225	0.69
1054.647	-14.51
1055.069	-5.61
1055.491	-1.41
1055.913	-8.91
1056.335	-4.11
1056.757	-5.21
1057.179	-5.81
1057.601	-3.71
1058.023	-5.81
1058.445	-2.21
1058.867	-2.81
1059.289	-4.51
1059.711	-11.81
1060.133	-2.31
1060.555	-4.61
1060.976	-3.31
1061.398	-6.01
1061.82	-6.31
1062.241	-0.81
1062.663	-3.01
1063.085	-6.11
1063.506	2.49
1063.928	2.89
1064.35	2.89
1064.771	-10.61
1065.193	-1.21
1065.614	-6.31
1066.035	-1.71
1066.457	-3.31
1066.878	1.29
1067.3	-9.21
1067.721	-4.51
1068.142	-11.51
1068.564	-0.91
1068.985	-0.41
1069.406	-0.41
1069.827	-5.71
1070.248	-2.21
1070.67	-5.51
1071.091	-9.71
1071.512	-10.11
1071.933	-7.71
1072.354	-4.01
1072.775	-3.21
1073.196	-10.21
1073.617	-2.81
1074.038	-10.81
1074.459	-4.11
1074.88	-11.71
1075.3	1.49
1075.721	-7.51
1076.142	-3.61
1076.563	-2.91
1076.983	-7.41
1077.404	-7.01
1077.825	-6.51
1078.246	-6.71
1078.666	-7.41
1079.087	0.79
1079.507	-4.61
1079.928	-3.61
1080.348	-3.91
1080.769	-7.71
1081.189	3.99
1081.61	-5.41
1082.03	-7.41
1082.451	-8.51
1082.871	0.49
1083.291	-6.81
1083.711	-8.01
1084.132	-5.21
1084.552	-2.11
1084.972	-3.71
1085.392	-6.51
1085.813	-9.81
1086.233	-11.81
1086.653	-5.21
1087.073	-4.61
1087.493	-3.81
1087.913	-10.91
1088.333	-7.31
1088.753	-6.21
1089.173	5.29
1089.593	-4.41
1090.013	-4.81
1090.433	-0.01
1090.852	-3.51
1091.272	-0.61
1091.692	2.79
1092.112	2.19
1092.531	-5.71
1092.951	-7.51
1093.371	-3.01
1093.79	4.39
1094.21	-1.71
1094.63	-4.61
1095.049	-0.71
1095.469	-0.61
1095.888	-4.21
1096.308	0.39
1096.727	1.89
1097.146	-5.21
1097.566	-2.91
1097.985	-9.31
1098.405	-2.21
1098.824	-5.01
1099.243	-8.91
1099.662	-9.61
1100.082	-8.31
1100.501	-5.61
1100.92	-6.61
1101.339	-5.61
1101.758	-4.91
