Data from 20171114-ORNL-Ar_H_NY_Subt18_08-05-15-766.txt Node
Date: Tue Nov 14 08:05:15 EST 2017
User: Ender
Spectrometer: HR+D1039
Trigger mode: 0
Integration Time (sec): 2.730000E-2
Scans to average: 10
Electric dark correction enabled: true
Nonlinearity correction enabled: false
Boxcar width: 0
XAxis mode: Wavelengths
Number of Pixels in Spectrum: 2048
>>>>>Begin Spectral Data<<<<<
187.836	-1.01
188.309	-1.01
188.782	-1.01
189.255	-3.01
189.728	-0.81
190.201	4.19
190.674	-1.71
191.147	-0.31
191.619	-10.31
192.092	3.09
192.565	4.49
193.038	3.99
193.511	0.79
193.984	6.29
194.456	-2.21
194.929	1.59
195.402	-4.91
195.874	-0.21
196.347	-6.01
196.82	-12.61
197.292	7.09
197.765	5.39
198.237	-9.31
198.71	-4.51
199.182	-1.01
199.655	5.29
200.127	0.29
200.6	1.19
201.072	-1.41
201.544	-0.31
202.017	-4.51
202.489	7.69
202.961	-1.81
203.433	-1.91
203.906	-10.21
204.378	-1.31
204.85	-1.41
205.322	-6.81
205.794	-5.41
206.266	-4.91
206.739	-8.41
207.211	1.39
207.683	-4.41
208.155	-6.11
208.627	-1.21
209.099	-3.81
209.57	-8.31
210.042	-2.91
210.514	-4.11
210.986	-0.71
211.458	-7.21
211.93	-1.11
212.402	4.29
212.873	-2.21
213.345	-12.61
213.817	-9.31
214.288	-6.11
214.76	-16.21
215.232	-4.41
215.703	-6.41
216.175	-8.11
216.646	-9.41
217.118	-8.61
217.589	-0.01
218.061	-5.11
218.532	-5.61
219.004	-5.51
219.475	-4.51
219.946	-1.41
220.418	-2.01
220.889	4.59
221.36	3.59
221.832	-2.41
222.303	-8.81
222.774	6.29
223.245	-10.01
223.717	-4.81
224.188	-5.51
224.659	-6.81
225.13	-3.81
225.601	-1.01
226.072	-1.31
226.543	1.69
227.014	-2.01
227.485	1.09
227.956	-8.11
228.427	-6.21
228.898	2.09
229.369	0.29
229.839	-0.71
230.31	-8.31
230.781	-3.71
231.252	1.79
231.722	0.89
232.193	-3.91
232.664	1.19
233.135	-0.01
233.605	0.69
234.076	-3.01
234.546	7.19
235.017	3.79
235.487	-2.01
235.958	-6.31
236.428	0.69
236.899	3.79
237.369	2.69
237.84	-3.21
238.31	11.59
238.78	4.19
239.251	-4.21
239.721	3.79
240.191	-0.31
240.662	2.59
241.132	0.89
241.602	0.69
242.072	4.79
242.542	8.79
243.013	0.69
243.483	1.59
243.953	2.99
244.423	1.29
244.893	-1.11
245.363	-1.21
245.833	2.49
246.303	-0.91
246.773	11.39
247.243	2.19
247.712	4.59
248.182	14.29
248.652	12.49
249.122	1.79
249.592	10.19
250.061	18.59
250.531	37.39
251.001	18.19
251.471	27.89
251.94	22.29
252.41	2.49
252.879	-0.71
253.349	8.89
253.818	5.79
254.288	6.79
254.757	5.09
255.227	-3.21
255.696	3.19
256.166	7.19
256.635	6.69
257.105	8.19
257.574	12.79
258.043	6.69
258.513	19.09
258.982	16.49
259.451	8.49
259.92	13.89
260.389	13.09
260.859	16.09
261.328	17.29
261.797	16.59
262.266	12.29
262.735	15.69
263.204	3.49
263.673	2.79
264.142	4.59
264.611	-1.61
265.08	-2.41
265.549	3.19
266.018	9.29
266.487	-0.91
266.955	7.29
267.424	6.59
267.893	10.19
268.362	4.49
268.83	5.99
269.299	13.49
269.768	8.19
270.236	8.39
270.705	1.59
271.174	6.09
271.642	6.99
272.111	7.39
272.579	16.19
273.048	25.29
273.516	32.19
273.985	34.89
274.453	24.09
274.922	15.39
275.39	12.29
275.858	5.29
276.327	18.99
276.795	20.89
277.263	11.29
277.731	25.69
278.2	56.59
278.668	70.19
279.136	51.29
279.604	17.39
280.072	12.69
280.54	16.39
281.008	11.49
281.477	14.29
281.945	12.79
282.413	13.39
282.881	14.59
283.348	9.29
283.816	17.69
284.284	13.29
284.752	27.29
285.22	18.89
285.688	19.59
286.156	20.69
286.623	51.09
287.091	57.59
287.559	30.29
288.026	21.39
288.494	19.29
288.962	10.19
289.429	11.69
289.897	24.39
290.364	12.29
290.832	18.39
291.3	15.39
291.767	21.29
292.234	22.29
292.702	17.89
293.169	16.49
293.637	23.39
294.104	20.79
294.571	10.29
295.039	16.99
295.506	16.89
295.973	20.69
296.44	21.79
296.908	19.89
297.375	23.49
297.842	23.69
298.309	20.69
298.776	13.49
299.243	25.99
299.71	13.39
300.177	20.39
300.644	21.99
301.111	20.69
301.578	27.59
302.045	19.69
302.512	25.19
302.979	18.69
303.446	29.19
303.913	18.89
304.379	23.69
304.846	29.19
305.313	23.29
305.78	28.49
306.246	25.99
306.713	26.59
307.18	28.39
307.646	33.09
308.113	24.69
308.579	24.39
309.046	22.59
309.512	30.99
309.979	19.29
310.445	27.19
310.912	31.69
311.378	32.39
311.845	32.79
312.311	32.79
312.777	33.19
313.244	33.79
313.71	36.89
314.176	35.89
314.642	29.89
315.109	35.09
315.575	37.39
316.041	39.99
316.507	34.39
316.973	41.59
317.439	33.39
317.905	35.09
318.371	34.89
318.837	33.69
319.303	34.69
319.769	40.19
320.235	35.59
320.701	36.69
321.167	41.69
321.633	41.39
322.099	42.99
322.564	49.29
323.03	41.39
323.496	45.19
323.962	42.69
324.427	37.79
324.893	42.09
325.359	36.79
325.824	33.59
326.29	34.59
326.755	39.89
327.221	40.19
327.686	42.09
328.152	50.39
328.617	45.89
329.083	48.89
329.548	50.29
330.014	49.59
330.479	42.29
330.944	41.19
331.41	42.49
331.875	52.29
332.34	46.79
332.805	49.19
333.271	52.69
333.736	50.09
334.201	52.79
334.666	53.39
335.131	56.49
335.596	57.39
336.061	51.09
336.526	45.19
336.991	51.09
337.456	55.89
337.921	51.89
338.386	38.89
338.851	49.49
339.316	51.89
339.781	48.49
340.246	52.59
340.711	46.99
341.175	53.49
341.64	47.49
342.105	55.09
342.569	55.59
343.034	60.19
343.499	56.29
343.963	55.89
344.428	73.09
344.893	57.29
345.357	61.19
345.822	55.89
346.286	71.09
346.751	73.59
347.215	67.29
347.679	78.49
348.144	94.49
348.608	79.69
349.073	74.79
349.537	77.39
350.001	75.39
350.465	91.79
350.93	75.49
351.394	86.99
351.858	77.79
352.322	86.29
352.786	82.79
353.25	109.79
353.715	110.79
354.179	102.49
354.643	122.49
355.107	131.39
355.571	111.09
356.035	105.89
356.498	121.19
356.962	123.79
357.426	135.59
357.89	117.39
358.354	94.09
358.818	83.89
359.281	78.79
359.745	79.29
360.209	79.89
360.673	77.29
361.136	81.29
361.6	86.79
362.064	80.29
362.527	81.29
362.991	91.79
363.454	81.09
363.918	80.09
364.381	82.59
364.845	86.59
365.308	85.39
365.772	84.89
366.235	86.69
366.698	82.09
367.162	91.99
367.625	86.19
368.088	92.29
368.552	90.29
369.015	96.89
369.478	94.39
369.941	98.49
370.404	101.59
370.867	101.59
371.331	117.69
371.794	116.49
372.257	108.39
372.72	113.09
373.183	113.69
373.646	105.49
374.109	101.99
374.572	110.19
375.035	102.19
375.497	109.39
375.96	105.09
376.423	98.99
376.886	112.49
377.349	109.59
377.811	104.69
378.274	106.19
378.737	108.39
379.199	117.09
379.662	113.49
380.125	113.39
380.587	117.19
381.05	120.79
381.512	132.39
381.975	134.59
382.437	125.09
382.9	129.29
383.362	132.89
383.825	141.99
384.287	146.89
384.75	148.49
385.212	144.19
385.674	145.89
386.136	132.09
386.599	127.69
387.061	130.19
387.523	131.39
387.985	128.09
388.447	144.29
388.91	143.39
389.372	151.79
389.834	147.59
390.296	143.19
390.758	153.09
391.22	160.69
391.682	210.39
392.144	296.39
392.606	222.59
393.068	164.69
393.529	166.69
393.991	161.39
394.453	142.79
394.915	153.59
395.377	192.19
395.838	212.89
396.3	150.29
396.762	137.69
397.224	132.99
397.685	129.29
398.147	124.29
398.608	120.19
399.07	125.09
399.531	126.19
399.993	140.29
400.454	147.99
400.916	143.79
401.377	140.89
401.839	151.19
402.3	152.79
402.762	160.99
403.223	175.49
403.684	166.39
404.145	154.39
404.607	165.99
405.068	164.89
405.529	169.09
405.99	184.09
406.451	180.09
406.913	172.59
407.374	161.99
407.835	161.79
408.296	164.39
408.757	168.59
409.218	183.09
409.679	177.09
410.14	170.99
410.601	184.49
411.062	179.89
411.522	191.09
411.983	186.39
412.444	168.69
412.905	181.69
413.366	175.89
413.826	185.99
414.287	211.39
414.748	258.39
415.208	243.69
415.669	215.29
416.13	197.39
416.59	197.39
417.051	208.79
417.511	214.99
417.972	235.99
418.432	235.59
418.893	287.29
419.353	241.59
419.814	189.39
420.274	178.99
420.734	177.89
421.195	197.39
421.655	195.29
422.115	195.49
422.576	190.19
423.036	193.79
423.496	204.79
423.956	216.29
424.416	223.19
424.876	264.89
425.336	252.99
425.797	258.69
426.257	248.99
426.717	235.79
427.177	231.79
427.637	217.19
428.097	231.09
428.556	241.69
429.016	263.19
429.476	263.09
429.936	272.59
430.396	278.89
430.856	281.79
431.315	310.29
431.775	339.59
432.235	373.29
432.694	341.29
433.154	362.89
433.614	387.79
434.073	330.79
434.533	282.79
434.993	267.99
435.452	288.49
435.912	297.89
436.371	287.69
436.83	275.29
437.29	259.79
437.749	241.09
438.209	241.69
438.668	263.39
439.127	282.59
439.587	260.19
440.046	246.59
440.505	260.59
440.964	273.69
441.424	314.99
441.883	312.89
442.342	258.19
442.801	224.19
443.26	216.79
443.719	214.59
444.178	217.39
444.637	209.89
445.096	210.99
445.555	218.19
446.014	216.29
446.473	221.49
446.932	220.39
447.391	221.09
447.849	221.49
448.308	212.39
448.767	219.89
449.226	226.69
449.685	232.29
450.143	250.39
450.602	240.39
451.061	226.89
451.519	226.99
451.978	232.79
452.436	237.49
452.895	239.79
453.353	250.69
453.812	242.59
454.27	230.69
454.729	232.99
455.187	242.89
455.646	235.39
456.104	239.59
456.562	255.49
457.021	256.39
457.479	250.29
457.937	265.09
458.395	255.19
458.854	243.29
459.312	256.29
459.77	265.99
460.228	242.69
460.686	229.79
461.144	244.49
461.602	242.89
462.06	241.19
462.518	241.99
462.976	253.29
463.434	258.69
463.892	256.89
464.35	283.29
464.808	286.19
465.266	261.29
465.724	268.89
466.181	271.99
466.639	267.99
467.097	287.09
467.555	295.59
468.012	300.39
468.47	311.69
468.928	321.59
469.385	334.49
469.843	347.69
470.3	342.99
470.758	354.09
471.215	381.19
471.673	407.59
472.13	396.59
472.588	407.29
473.045	366.89
473.503	377.09
473.96	390.29
474.417	404.59
474.875	425.99
475.332	474.49
475.789	460.29
476.246	465.79
476.704	490.59
477.161	498.79
477.618	523.39
478.075	550.19
478.532	611.99
478.989	687.09
479.446	805.29
479.903	771.79
480.36	807.89
480.817	862.79
481.274	964.19
481.731	1077.09
482.188	1162.59
482.645	1305.19
483.102	1412.39
483.558	1548.59
484.015	1609.79
484.472	1580.09
484.929	1531.69
485.385	1472.69
485.842	1446.19
486.299	1370.19
486.755	1288.39
487.212	1098.29
487.668	933.79
488.125	844.89
488.582	776.09
489.038	734.09
489.494	710.49
489.951	679.09
490.407	657.19
490.864	644.29
491.32	638.79
491.776	631.69
492.233	634.39
492.689	603.69
493.145	595.59
493.602	595.29
494.058	613.39
494.514	602.89
494.97	631.09
495.426	643.29
495.882	628.49
496.338	604.69
496.794	620.89
497.251	622.99
497.707	629.69
498.163	634.29
498.618	638.99
499.074	638.09
499.53	677.09
499.986	669.89
500.442	643.69
500.898	625.29
501.354	620.89
501.809	631.89
502.265	629.89
502.721	648.19
503.177	664.99
503.632	651.29
504.088	669.79
504.543	703.49
504.999	707.79
505.455	654.69
505.91	618.59
506.366	626.89
506.821	625.69
507.277	617.29
507.732	621.79
508.187	616.79
508.643	619.69
509.098	628.39
509.553	638.59
510.009	659.79
510.464	668.69
510.919	686.99
511.375	687.99
511.83	692.09
512.285	713.99
512.74	758.09
513.195	781.39
513.65	766.49
514.105	765.99
514.56	763.99
515.015	785.49
515.47	802.09
515.925	787.39
516.38	777.79
516.835	782.09
517.29	776.49
517.745	765.09
518.2	761.49
518.655	729.89
519.109	731.19
519.564	734.89
520.019	733.19
520.474	716.79
520.928	721.89
521.383	722.19
521.838	708.29
522.292	712.29
522.747	704.79
523.201	700.39
523.656	687.09
524.11	681.09
524.565	685.79
525.019	676.19
525.474	684.29
525.928	697.99
526.382	684.09
526.837	694.39
527.291	696.69
527.745	687.99
528.2	687.49
528.654	683.99
529.108	678.09
529.562	691.19
530.016	688.89
530.47	682.99
530.925	681.99
531.379	698.59
531.833	698.69
532.287	690.09
532.741	701.69
533.195	702.59
533.649	716.79
534.103	716.89
534.556	700.49
535.01	700.99
535.464	700.99
535.918	713.99
536.372	709.59
536.826	715.89
537.279	696.19
537.733	714.99
538.187	703.29
538.64	714.59
539.094	716.19
539.548	722.59
540.001	718.19
540.455	715.59
540.908	722.49
541.362	725.49
541.815	737.29
542.269	739.69
542.722	746.69
543.175	759.79
543.629	765.19
544.082	776.19
544.536	761.99
544.989	767.39
545.442	779.39
545.895	773.39
546.349	776.29
546.802	773.99
547.255	786.99
547.708	790.29
548.161	805.89
548.614	804.89
549.067	812.99
549.52	804.59
549.973	791.89
550.426	790.39
550.879	783.49
551.332	773.89
551.785	792.49
552.238	793.79
552.691	805.39
553.144	820.69
553.596	830.89
554.049	846.49
554.502	877.29
554.955	901.09
555.407	894.69
555.86	888.59
556.313	883.09
556.765	867.79
557.218	871.79
557.67	875.59
558.123	866.39
558.576	864.69
559.028	869.79
559.48	870.09
559.933	858.09
560.385	830.09
560.838	793.99
561.29	765.99
561.742	763.39
562.195	744.69
562.647	741.49
563.099	748.69
563.551	752.19
564.004	761.89
564.456	748.49
564.908	751.99
565.36	736.79
565.812	719.49
566.264	723.39
566.716	707.29
567.168	698.09
567.62	705.69
568.072	691.19
568.524	672.69
568.976	671.89
569.428	655.09
569.88	661.69
570.332	668.89
570.784	666.69
571.235	664.79
571.687	669.39
572.139	690.99
572.59	692.29
573.042	691.59
573.494	691.89
573.945	690.99
574.397	670.59
574.849	674.49
575.3	677.89
575.752	661.39
576.203	664.89
576.655	667.39
577.106	648.69
577.557	634.99
578.009	654.79
578.46	652.29
578.912	650.99
579.363	652.29
579.814	644.69
580.265	648.59
580.717	654.79
581.168	649.89
581.619	658.89
582.07	668.59
582.521	658.09
582.972	652.59
583.423	653.59
583.875	658.29
584.326	685.99
584.777	727.79
585.227	799.29
585.678	886.09
586.129	990.29
586.58	1062.89
587.031	1140.39
587.482	1305.89
587.933	1504.79
588.384	1287.59
588.834	959.39
589.285	786.19
589.736	756.19
590.186	737.99
590.637	745.29
591.088	719.09
591.538	717.79
591.989	709.99
592.439	697.99
592.89	694.09
593.34	694.19
593.791	692.29
594.241	684.49
594.692	686.39
595.142	681.29
595.593	680.29
596.043	683.79
596.493	691.69
596.943	692.09
597.394	693.09
597.844	687.79
598.294	712.69
598.744	724.49
599.195	734.99
599.645	785.29
600.095	818.39
600.545	879.79
600.995	932.79
601.445	978.39
601.895	1047.39
602.345	1092.99
602.795	1071.89
603.245	1024.79
603.695	977.29
604.145	926.79
604.594	885.49
605.044	830.39
605.494	772.99
605.944	734.69
606.393	721.59
606.843	705.39
607.293	707.49
607.743	696.49
608.192	714.19
608.642	731.89
609.091	740.09
609.541	738.89
609.99	747.39
610.44	745.09
610.889	691.69
611.339	672.39
611.788	666.29
612.238	677.49
612.687	681.69
613.136	696.59
613.586	711.19
614.035	708.79
614.484	728.49
614.933	731.39
615.383	716.19
615.832	707.59
616.281	696.89
616.73	650.29
617.179	638.99
617.628	622.29
618.077	598.89
618.526	598.59
618.975	584.69
619.424	591.29
619.873	589.29
620.322	587.19
620.771	573.29
621.22	575.59
621.669	564.89
622.118	559.89
622.567	550.09
623.015	540.99
623.464	539.99
623.913	536.39
624.361	528.19
624.81	523.09
625.259	519.29
625.707	530.39
626.156	531.99
626.604	543.59
627.053	538.09
627.501	532.79
627.95	538.89
628.398	551.09
628.847	542.09
629.295	540.29
629.744	545.89
630.192	543.99
630.64	545.29
631.089	543.69
631.537	546.79
631.985	554.69
632.433	566.09
632.881	580.79
633.33	628.69
633.778	611.79
634.226	536.99
634.674	543.79
635.122	551.39
635.57	563.19
636.018	592.79
636.466	553.49
636.914	523.19
637.362	542.59
637.81	551.99
638.258	550.39
638.705	549.79
639.153	574.59
639.601	578.39
640.049	600.89
640.497	643.79
640.944	657.69
641.392	615.39
641.84	582.29
642.287	550.39
642.735	541.39
643.182	542.09
643.63	547.99
644.078	545.49
644.525	561.69
644.973	564.99
645.42	569.19
645.867	582.69
646.315	613.09
646.762	622.79
647.21	655.89
647.657	674.39
648.104	707.79
648.551	730.49
648.999	792.59
649.446	864.49
649.893	954.59
650.34	1098.39
650.787	1322.19
651.234	1628.09
651.682	2112.39
652.129	2903.29
652.576	4212.29
653.023	6243.19
653.47	8570.69
653.917	10814.89
654.363	12548.49
654.81	13946.79
655.257	13317.79
655.704	8663.09
656.151	5097.89
656.598	3296.19
657.044	2327.59
657.491	1796.09
657.938	1417.79
658.385	1194.99
658.831	1026.79
659.278	914.19
659.724	818.99
660.171	740.19
660.618	686.39
661.064	647.19
661.511	629.59
661.957	622.59
662.404	600.09
662.85	616.59
663.296	599.49
663.743	533.79
664.189	513.19
664.635	500.49
665.082	490.29
665.528	499.49
665.974	482.79
666.42	475.89
666.867	477.19
667.313	456.99
667.759	447.39
668.205	451.79
668.651	463.89
669.097	453.89
669.543	470.49
669.989	449.79
670.435	428.09
670.881	415.19
671.327	422.89
671.773	437.39
672.219	457.49
672.665	505.79
673.11	543.09
673.556	593.09
674.002	618.19
674.448	620.39
674.893	509.99
675.339	443.19
675.785	408.89
676.23	402.59
676.676	362.99
677.122	356.09
677.567	350.29
678.013	347.39
678.458	338.99
678.904	337.69
679.349	318.09
679.794	325.19
680.24	329.19
680.685	329.39
681.131	322.09
681.576	321.49
682.021	330.29
682.466	321.59
682.912	319.29
683.357	327.19
683.802	361.49
684.247	372.69
684.692	417.89
685.137	458.89
685.583	506.39
686.028	521.69
686.473	484.59
686.918	410.09
687.363	384.49
687.807	371.69
688.252	342.19
688.697	324.29
689.142	304.69
689.587	322.89
690.032	307.89
690.477	319.69
690.921	322.49
691.366	356.99
691.811	371.79
692.255	392.89
692.7	442.29
693.145	461.89
693.589	634.79
694.034	1035.79
694.478	1415.39
694.923	1622.69
695.367	2139.49
695.812	1117.69
696.256	471.69
696.701	345.09
697.145	318.99
697.59	299.09
698.034	289.39
698.478	308.59
698.922	298.59
699.367	304.59
699.811	315.59
700.255	327.09
700.699	360.09
701.143	397.39
701.588	447.69
702.032	485.99
702.476	475.39
702.92	455.79
703.364	452.29
703.808	576.19
704.252	929.99
704.696	1330.99
705.14	1549.99
705.584	1986.59
706.027	990.59
706.471	482.19
706.915	366.29
707.359	324.69
707.803	299.49
708.246	288.29
708.69	293.99
709.134	285.09
709.577	289.49
710.021	284.09
710.465	283.29
710.908	280.09
711.352	269.89
711.795	294.19
712.239	312.29
712.682	358.49
713.126	382.69
713.569	442.29
714.012	345.39
714.456	304.59
714.899	278.69
715.342	255.19
715.786	240.99
716.229	239.09
716.672	229.39
717.115	227.09
717.558	229.99
718.002	232.99
718.445	237.59
718.888	267.39
719.331	270.79
719.774	287.29
720.217	280.79
720.66	261.39
721.103	250.09
721.546	242.59
721.989	233.39
722.432	222.79
722.874	217.09
723.317	217.69
723.76	218.29
724.203	238.09
724.645	285.49
725.088	403.79
725.531	515.49
725.974	598.59
726.416	507.39
726.859	274.59
727.301	223.89
727.744	218.39
728.187	214.99
728.629	223.49
729.071	215.69
729.514	233.69
729.956	255.79
730.399	258.79
730.841	265.59
731.283	255.99
731.726	241.59
732.168	237.79
732.61	239.79
733.053	266.29
733.495	293.29
733.937	313.59
734.379	365.49
734.821	396.59
735.263	491.99
735.705	749.79
736.148	1420.69
736.59	2354.49
737.032	2863.79
737.474	2311.09
737.916	756.79
738.357	395.99
738.799	303.09
739.241	277.89
739.683	255.79
740.125	270.19
740.567	271.29
741.008	285.79
741.45	292.09
741.892	289.59
742.334	319.69
742.775	326.39
743.217	313.89
743.658	252.79
744.1	235.39
744.542	242.99
744.983	291.69
745.425	310.39
745.866	313.39
746.307	265.09
746.749	256.09
747.19	296.29
747.632	402.29
748.073	777.89
748.514	1678.09
748.956	2637.39
749.397	3271.19
749.838	2741.19
750.279	2786.09
750.72	1394.29
751.162	506.99
751.603	293.39
752.044	231.19
752.485	199.09
752.926	188.49
753.367	182.59
753.808	184.79
754.249	177.79
754.69	163.49
755.131	168.19
755.572	160.09
756.013	170.89
756.453	161.99
756.894	173.79
757.335	170.59
757.776	180.69
758.216	184.89
758.657	181.99
759.098	182.69
759.538	203.29
759.979	243.59
760.42	340.29
760.86	630.19
761.301	1624.59
761.741	4000.29
762.182	6041.29
762.622	4246.69
763.063	1207.99
763.503	491.09
763.943	319.89
764.384	307.09
764.824	378.89
765.264	419.59
765.705	286.39
766.145	195.59
766.585	167.99
767.025	165.49
767.465	163.79
767.906	222.29
768.346	297.29
768.786	327.99
769.226	244.69
769.666	283.69
770.106	551.39
770.546	1402.09
770.986	2430.59
771.426	2209.99
771.866	743.99
772.306	296.49
772.745	192.39
773.185	157.19
773.625	159.29
774.065	149.59
774.505	177.29
774.944	278.99
775.384	624.59
775.824	1177.79
776.263	1167.89
776.703	493.59
777.142	207.19
777.582	154.29
778.021	121.79
778.461	133.09
778.9	131.09
779.34	120.89
779.779	108.29
780.219	101.49
780.658	96.19
781.097	99.49
781.537	104.09
781.976	94.09
782.415	95.59
782.855	96.49
783.294	94.09
783.733	97.99
784.172	98.19
784.611	93.49
785.05	100.99
785.489	104.69
785.928	110.99
786.367	105.99
786.806	105.79
787.245	122.39
787.684	125.59
788.123	130.89
788.562	124.89
789.001	115.49
789.44	116.69
789.879	104.69
790.317	110.79
790.756	124.69
791.195	117.49
791.634	130.59
792.072	188.19
792.511	323.39
792.95	893.39
793.388	1964.79
793.827	1823.69
794.265	617.09
794.704	258.49
795.142	165.29
795.581	142.09
796.019	125.29
796.458	117.29
796.896	114.29
797.334	125.39
797.773	146.89
798.211	201.89
798.649	389.59
799.087	918.29
799.526	1453.99
799.964	1843.29
800.402	1893.39
800.84	707.29
801.278	271.29
801.716	170.59
802.154	143.89
802.592	138.59
803.03	126.19
803.468	122.69
803.906	124.99
804.344	137.79
804.782	126.79
805.22	123.69
805.658	118.59
806.096	137.39
806.533	143.69
806.971	163.39
807.409	204.59
807.847	282.79
808.284	589.49
808.722	1683.79
809.16	3041.79
809.597	2823.59
810.035	4957.79
810.472	5457.89
810.91	1945.69
811.347	732.09
811.785	366.99
812.222	236.69
812.66	181.69
813.097	146.69
813.535	125.59
813.972	119.59
814.409	109.59
814.846	103.89
815.284	105.59
815.721	88.29
816.158	102.89
816.595	111.79
817.032	172.19
817.47	194.69
817.907	154.79
818.344	138.19
818.781	103.59
819.218	91.99
819.655	108.49
820.092	169.99
820.529	195.39
820.966	156.99
821.403	124.39
821.839	100.99
822.276	100.59
822.713	113.99
823.15	125.09
823.587	107.19
824.023	138.49
824.46	260.89
824.897	802.89
825.333	1264.59
825.77	539.29
826.206	209.39
826.643	121.49
827.08	94.69
827.516	78.69
827.953	68.69
828.389	75.39
828.825	68.69
829.262	60.99
829.698	62.29
830.135	54.29
830.571	56.69
831.007	54.29
831.443	60.89
831.88	55.99
832.316	57.89
832.752	62.29
833.188	55.69
833.624	54.19
834.06	59.39
834.497	64.39
834.933	65.69
835.369	69.59
835.805	68.59
836.241	67.99
836.677	74.89
837.112	83.69
837.548	99.89
837.984	122.69
838.42	186.09
838.856	443.09
839.292	1364.79
839.727	2154.19
840.163	990.79
840.599	821.19
841.034	1863.09
841.47	1999.09
841.906	718.69
842.341	304.19
842.777	212.69
843.212	300.19
843.648	293.19
844.083	153.99
844.519	89.99
844.954	71.39
845.39	58.29
845.825	57.09
846.261	52.79
846.696	52.29
847.131	45.79
847.566	54.79
848.002	46.99
848.437	52.79
848.872	56.09
849.307	60.39
849.742	68.69
850.177	158.39
850.613	505.59
851.048	813.89
851.483	339.99
851.918	137.49
852.353	85.89
852.788	53.49
853.223	47.69
853.657	49.69
854.092	46.09
854.527	34.69
854.962	33.89
855.397	35.89
855.832	45.79
856.266	40.89
856.701	37.49
857.136	33.29
857.57	35.89
858.005	46.89
858.44	54.69
858.874	45.39
859.309	45.79
859.743	36.79
860.178	43.59
860.612	37.79
861.047	47.39
861.481	62.19
861.915	66.29
862.35	42.19
862.784	30.69
863.218	36.09
863.653	28.59
864.087	40.99
864.521	51.59
864.955	67.49
865.39	144.09
865.824	164.99
866.258	112.99
866.692	156.19
867.126	158.19
867.56	90.99
867.994	50.19
868.428	32.29
868.862	45.89
869.296	49.89
869.73	54.09
870.164	43.59
870.598	42.09
871.031	40.39
871.465	31.69
871.899	28.39
872.333	25.19
872.766	19.09
873.2	27.79
873.634	25.19
874.067	19.29
874.501	27.89
874.935	30.49
875.368	32.19
875.802	23.19
876.235	24.29
876.669	23.49
877.102	18.79
877.535	24.29
877.969	17.19
878.402	25.39
878.836	22.39
879.269	19.49
879.702	24.59
880.135	16.09
880.569	19.39
881.002	23.29
881.435	18.39
881.868	11.79
882.301	21.09
882.734	14.89
883.167	22.49
883.601	22.09
884.034	17.39
884.467	8.09
884.899	16.29
885.332	14.29
885.765	13.09
886.198	21.59
886.631	15.49
887.064	20.19
887.497	18.79
887.929	21.19
888.362	10.59
888.795	10.79
889.228	14.29
889.66	19.99
890.093	14.29
890.526	16.99
890.958	15.99
891.391	14.69
891.823	21.09
892.256	16.29
892.688	9.89
893.121	16.29
893.553	13.49
893.985	17.09
894.418	9.49
894.85	11.49
895.282	12.69
895.715	16.29
896.147	10.49
896.579	16.89
897.011	10.09
897.444	10.99
897.876	13.39
898.308	17.69
898.74	14.19
899.172	13.19
899.604	22.09
900.036	13.89
900.468	7.79
900.9	14.49
901.332	18.19
901.764	14.39
902.196	14.89
902.628	9.59
903.06	20.99
903.491	27.09
903.923	18.19
904.355	17.29
904.787	24.99
905.218	18.69
905.65	24.39
906.082	10.99
906.513	9.89
906.945	13.89
907.376	16.59
907.808	24.69
908.239	23.99
908.671	15.89
909.102	18.29
909.534	23.89
909.965	37.79
910.397	84.99
910.828	292.99
911.259	444.29
911.691	196.69
912.122	96.79
912.553	46.09
912.984	30.19
913.415	21.59
913.847	21.19
914.278	12.89
914.709	12.39
915.14	14.99
915.571	14.09
916.002	12.69
916.433	15.99
916.864	15.09
917.295	12.29
917.726	23.09
918.157	14.99
918.587	23.59
919.018	20.39
919.449	21.89
919.88	22.99
920.311	28.79
920.741	38.89
921.172	152.09
921.603	128.09
922.033	66.49
922.464	43.39
922.895	22.99
923.325	19.89
923.756	14.19
924.186	19.69
924.617	27.49
925.047	39.39
925.478	51.09
925.908	43.09
926.338	19.89
926.769	17.39
927.199	20.49
927.629	10.29
928.06	12.59
928.49	12.19
928.92	13.59
929.35	13.99
929.78	5.89
930.21	5.59
930.641	6.29
931.071	7.89
931.501	7.79
931.931	3.19
932.361	5.59
932.791	5.69
933.221	4.39
933.651	4.69
934.08	11.49
934.51	24.09
934.94	5.09
935.37	7.39
935.8	9.79
936.229	4.19
936.659	9.19
937.089	0.99
937.519	11.49
937.948	21.49
938.378	14.29
938.807	8.89
939.237	5.89
939.666	11.99
940.096	-7.11
940.525	1.09
940.955	-2.21
941.384	-0.41
941.814	-6.81
942.243	-2.11
942.672	1.19
943.102	0.09
943.531	0.59
943.96	-1.01
944.39	2.29
944.819	-1.11
945.248	-1.21
945.677	5.69
946.106	6.39
946.535	6.49
946.964	2.99
947.393	2.89
947.822	5.39
948.251	-8.21
948.68	2.99
949.109	5.09
949.538	11.49
949.967	-3.21
950.396	0.39
950.825	-2.31
951.254	-2.11
951.682	-2.41
952.111	1.29
952.54	3.59
952.969	0.69
953.397	-6.51
953.826	-2.21
954.254	-7.61
954.683	1.79
955.112	-3.01
955.54	-0.31
955.969	-1.31
956.397	-4.81
956.826	-3.11
957.254	2.69
957.682	8.89
958.111	3.79
958.539	-0.81
958.967	3.89
959.396	-6.41
959.824	-2.61
960.252	1.39
960.68	-8.01
961.109	-5.71
961.537	-3.41
961.965	0.79
962.393	7.99
962.821	-0.11
963.249	-1.31
963.677	0.89
964.105	1.29
964.533	42.19
964.961	38.49
965.389	19.79
965.817	4.59
966.245	6.39
966.672	-7.71
967.1	-7.31
967.528	-0.91
967.956	0.49
968.383	3.59
968.811	-2.71
969.239	-2.21
969.666	-1.11
970.094	-0.31
970.522	-0.71
970.949	-0.21
971.377	-6.51
971.804	1.49
972.232	-3.71
972.659	-3.21
973.087	-2.11
973.514	-6.31
973.941	-7.01
974.369	3.49
974.796	5.79
975.223	-0.41
975.651	-0.61
976.078	0.99
976.505	-2.21
976.932	1.19
977.359	3.39
977.786	13.19
978.214	1.69
978.641	-4.11
979.068	-2.91
979.495	-1.81
979.922	-5.11
980.349	-4.31
980.776	2.49
981.202	-4.71
981.629	1.39
982.056	-0.41
982.483	-4.51
982.91	3.29
983.337	-7.51
983.763	0.09
984.19	-5.61
984.617	-1.61
985.043	-9.11
985.47	-1.91
985.897	-7.11
986.323	-5.61
986.75	0.49
987.176	1.49
987.603	2.59
988.029	-5.41
988.456	-0.41
988.882	-0.11
989.308	-4.51
989.735	-4.71
990.161	-2.71
990.587	-2.61
991.014	-0.41
991.44	8.49
991.866	-3.31
992.292	-7.21
992.719	-8.11
993.145	1.99
993.571	-5.01
993.997	-7.51
994.423	-3.81
994.849	-6.41
995.275	-2.31
995.701	0.59
996.127	-5.01
996.553	4.59
996.979	-1.11
997.405	-3.01
997.83	-6.21
998.256	-3.11
998.682	-3.01
999.108	-10.51
999.534	-2.71
999.959	-2.51
1000.385	-1.41
1000.811	-2.91
1001.236	-11.31
1001.662	-2.11
1002.087	-5.81
1002.513	0.79
1002.938	2.19
1003.364	-1.51
1003.789	-3.61
1004.215	3.89
1004.64	-0.31
1005.066	6.39
1005.491	3.19
1005.916	3.49
1006.342	-5.01
1006.767	-9.81
1007.192	4.59
1007.617	-7.11
1008.042	-7.01
1008.468	-9.71
1008.893	-5.41
1009.318	0.69
1009.743	-6.11
1010.168	2.79
1010.593	-3.81
1011.018	-13.31
1011.443	-3.11
1011.868	-0.51
1012.293	-3.61
1012.718	-6.01
1013.143	-0.91
1013.567	-0.81
1013.992	3.59
1014.417	-14.51
1014.842	2.89
1015.267	-7.21
1015.691	-0.61
1016.116	6.49
1016.541	-1.21
1016.965	1.39
1017.39	0.09
1017.814	0.69
1018.239	-3.21
1018.663	-8.41
1019.088	-6.41
1019.512	0.49
1019.937	0.69
1020.361	-9.81
1020.785	-3.61
1021.21	-2.51
1021.634	-3.31
1022.058	3.29
1022.483	-0.31
1022.907	-2.01
1023.331	-7.41
1023.755	-10.41
1024.179	-5.21
1024.604	-1.21
1025.028	-7.31
1025.452	-2.31
1025.876	-4.51
1026.3	5.19
1026.724	-10.81
1027.148	-3.51
1027.572	-11.61
1027.996	-6.21
1028.42	-3.41
1028.843	-10.11
1029.267	-4.91
1029.691	-1.81
1030.115	-9.21
1030.539	-10.71
1030.962	-4.11
1031.386	-9.81
1031.81	1.69
1032.233	-2.61
1032.657	-10.31
1033.08	-4.61
1033.504	-1.71
1033.927	-7.41
1034.351	-0.11
1034.774	-4.31
1035.198	-2.61
1035.621	-4.61
1036.045	-9.11
1036.468	-6.11
1036.891	-11.61
1037.315	-9.41
1037.738	-5.81
1038.161	-4.41
1038.584	-9.11
1039.008	-6.51
1039.431	-10.21
1039.854	-7.21
1040.277	-12.81
1040.7	-13.41
1041.123	-2.41
1041.546	-9.31
1041.969	-6.01
1042.392	-2.51
1042.815	-0.81
1043.238	2.69
1043.661	2.29
1044.084	-3.11
1044.507	-3.11
1044.93	-5.11
1045.352	-0.61
1045.775	-1.61
1046.198	-3.51
1046.621	-7.01
1047.043	-1.61
1047.466	4.89
1047.889	-7.81
1048.311	1.29
1048.734	-1.71
1049.156	-5.51
1049.579	2.19
1050.001	0.49
1050.424	-3.51
1050.846	-0.21
1051.269	-7.91
1051.691	-6.91
1052.113	-5.21
1052.536	-0.01
1052.958	-3.11
1053.38	-6.81
1053.802	-9.51
1054.225	-0.31
1054.647	-4.71
1055.069	-6.71
1055.491	0.49
1055.913	-11.81
1056.335	-2.11
1056.757	-5.31
1057.179	-6.81
1057.601	-2.41
1058.023	-6.31
1058.445	-5.81
1058.867	-5.91
1059.289	-4.51
1059.711	-4.91
1060.133	-5.01
1060.555	-2.51
1060.976	-9.91
1061.398	-0.21
1061.82	-6.81
1062.241	-6.21
1062.663	-6.01
1063.085	-8.21
1063.506	-5.81
1063.928	-9.41
1064.35	1.69
1064.771	-15.81
1065.193	-5.21
1065.614	-8.71
1066.035	-0.91
1066.457	-7.01
1066.878	-2.01
1067.3	-9.31
1067.721	-10.01
1068.142	-5.81
1068.564	-5.91
1068.985	-7.21
1069.406	-4.51
1069.827	-7.91
1070.248	-0.71
1070.67	-6.41
1071.091	-7.91
1071.512	-6.41
1071.933	-5.31
1072.354	-10.21
1072.775	-7.11
1073.196	-7.51
1073.617	-1.21
1074.038	-9.21
1074.459	-2.11
1074.88	-3.31
1075.3	-3.41
1075.721	-4.11
1076.142	-4.61
1076.563	-4.71
1076.983	-11.31
1077.404	-7.41
1077.825	-8.61
1078.246	-5.01
1078.666	-8.11
1079.087	-9.01
1079.507	-7.51
1079.928	1.89
1080.348	0.09
1080.769	-8.91
1081.189	-2.91
1081.61	-6.91
1082.03	-11.31
1082.451	-6.31
1082.871	-6.21
1083.291	-6.11
1083.711	-12.71
1084.132	-2.91
1084.552	-4.51
1084.972	-0.91
1085.392	-13.41
1085.813	-11.61
1086.233	-10.81
1086.653	-0.71
1087.073	-5.01
1087.493	-10.81
1087.913	-7.61
1088.333	-9.71
1088.753	-1.61
1089.173	4.09
1089.593	-2.81
1090.013	-3.01
1090.433	-3.81
1090.852	2.29
1091.272	-3.01
1091.692	-2.51
1092.112	-7.31
1092.531	-4.21
1092.951	-9.51
1093.371	0.49
1093.79	-1.91
1094.21	-4.61
1094.63	-7.81
1095.049	-6.41
1095.469	-4.51
1095.888	-0.41
1096.308	6.79
1096.727	0.19
1097.146	-9.01
1097.566	-6.61
1097.985	-8.11
1098.405	-2.91
1098.824	-7.81
1099.243	-5.11
1099.662	-4.41
1100.082	-5.71
1100.501	-5.21
1100.92	-3.81
1101.339	-4.81
1101.758	-7.71
