Data from 20171114-ORNL-Ar_H_NY_Subt18_08-05-35-966.txt Node
Date: Tue Nov 14 08:05:35 EST 2017
User: Ender
Spectrometer: HR+D1039
Trigger mode: 0
Integration Time (sec): 2.730000E-2
Scans to average: 10
Electric dark correction enabled: true
Nonlinearity correction enabled: false
Boxcar width: 0
XAxis mode: Wavelengths
Number of Pixels in Spectrum: 2048
>>>>>Begin Spectral Data<<<<<
187.836	-3.47
188.309	-3.47
188.782	-3.47
189.255	-0.37
189.728	-2.17
190.201	7.13
190.674	0.23
191.147	-1.77
191.619	-7.87
192.092	-0.57
192.565	3.53
193.038	-3.87
193.511	5.13
193.984	1.33
194.456	0.33
194.929	2.93
195.402	1.13
195.874	-1.67
196.347	-2.47
196.82	-11.07
197.292	6.53
197.765	0.13
198.237	-9.17
198.71	2.43
199.182	-3.97
199.655	7.33
200.127	1.73
200.6	-1.37
201.072	-3.47
201.544	-6.27
202.017	1.43
202.489	4.73
202.961	0.43
203.433	-0.47
203.906	-5.17
204.378	-8.37
204.85	-2.87
205.322	-2.47
205.794	-3.77
206.266	-2.47
206.739	-4.77
207.211	8.43
207.683	-5.87
208.155	-3.37
208.627	-3.07
209.099	-1.57
209.57	-13.27
210.042	0.83
210.514	-2.97
210.986	0.13
211.458	-9.87
211.93	4.93
212.402	1.83
212.873	-6.97
213.345	-6.97
213.817	-11.27
214.288	-5.37
214.76	-10.47
215.232	-4.87
215.703	-3.17
216.175	-2.87
216.646	-1.57
217.118	-5.67
217.589	-4.47
218.061	-0.17
218.532	-0.07
219.004	-4.67
219.475	3.73
219.946	-5.97
220.418	-3.27
220.889	2.93
221.36	0.23
221.832	-3.27
222.303	-6.87
222.774	-0.17
223.245	-9.17
223.717	-4.07
224.188	-1.77
224.659	-5.17
225.13	-6.67
225.601	-4.17
226.072	1.23
226.543	-2.67
227.014	1.43
227.485	-2.57
227.956	-6.57
228.427	-4.97
228.898	2.63
229.369	4.03
229.839	-0.27
230.31	-8.47
230.781	2.13
231.252	4.33
231.722	-3.77
232.193	-1.87
232.664	0.13
233.135	2.13
233.605	-4.97
234.076	-5.87
234.546	-1.97
235.017	7.43
235.487	1.73
235.958	-0.97
236.428	-3.67
236.899	2.03
237.369	0.83
237.84	9.03
238.31	11.83
238.78	3.73
239.251	1.63
239.721	3.33
240.191	-3.47
240.662	3.23
241.132	1.63
241.602	-3.17
242.072	3.23
242.542	6.03
243.013	-1.87
243.483	4.43
243.953	8.13
244.423	-3.37
244.893	0.53
245.363	4.23
245.833	3.13
246.303	0.73
246.773	6.93
247.243	3.53
247.712	-0.37
248.182	9.93
248.652	11.33
249.122	2.33
249.592	10.33
250.061	20.83
250.531	31.13
251.001	14.83
251.471	20.33
251.94	18.33
252.41	4.93
252.879	-0.37
253.349	15.53
253.818	9.73
254.288	4.93
254.757	7.33
255.227	-1.57
255.696	6.83
256.166	6.13
256.635	6.93
257.105	7.33
257.574	1.23
258.043	10.83
258.513	8.53
258.982	16.13
259.451	12.63
259.92	13.23
260.389	14.43
260.859	20.53
261.328	14.93
261.797	20.93
262.266	10.43
262.735	12.13
263.204	0.53
263.673	-3.27
264.142	8.43
264.611	0.53
265.08	9.43
265.549	2.13
266.018	10.13
266.487	-0.77
266.955	-0.37
267.424	4.43
267.893	11.63
268.362	-2.47
268.83	3.33
269.299	17.93
269.768	10.63
270.236	9.93
270.705	8.43
271.174	12.23
271.642	16.43
272.111	10.93
272.579	17.93
273.048	26.33
273.516	25.43
273.985	26.33
274.453	22.83
274.922	21.23
275.39	12.13
275.858	3.73
276.327	11.83
276.795	19.73
277.263	16.93
277.731	35.83
278.2	58.63
278.668	62.43
279.136	57.23
279.604	18.23
280.072	16.93
280.54	10.83
281.008	12.83
281.477	15.93
281.945	16.13
282.413	8.33
282.881	15.83
283.348	7.43
283.816	17.63
284.284	15.23
284.752	22.63
285.22	12.03
285.688	14.93
286.156	21.53
286.623	48.63
287.091	54.43
287.559	33.13
288.026	20.43
288.494	16.83
288.962	3.93
289.429	6.83
289.897	20.53
290.364	16.53
290.832	18.73
291.3	15.03
291.767	16.43
292.234	26.83
292.702	24.83
293.169	24.63
293.637	24.23
294.104	24.53
294.571	9.03
295.039	13.83
295.506	12.93
295.973	21.03
296.44	17.23
296.908	19.73
297.375	18.13
297.842	20.33
298.309	10.83
298.776	20.23
299.243	18.93
299.71	15.23
300.177	23.53
300.644	26.63
301.111	22.83
301.578	27.13
302.045	22.73
302.512	28.83
302.979	29.03
303.446	22.23
303.913	23.23
304.379	21.43
304.846	25.13
305.313	27.33
305.78	27.43
306.246	26.63
306.713	31.23
307.18	32.03
307.646	33.53
308.113	30.03
308.579	24.63
309.046	29.53
309.512	28.03
309.979	25.23
310.445	27.33
310.912	38.13
311.378	31.23
311.845	27.93
312.311	29.43
312.777	35.13
313.244	27.73
313.71	41.43
314.176	32.63
314.642	32.83
315.109	38.63
315.575	41.33
316.041	37.63
316.507	41.13
316.973	42.53
317.439	41.13
317.905	38.93
318.371	40.33
318.837	40.23
319.303	33.83
319.769	35.33
320.235	32.53
320.701	40.43
321.167	43.83
321.633	36.13
322.099	43.13
322.564	48.93
323.03	44.43
323.496	41.93
323.962	38.83
324.427	42.83
324.893	49.43
325.359	45.23
325.824	45.23
326.29	43.53
326.755	41.23
327.221	40.13
327.686	38.23
328.152	48.53
328.617	44.13
329.083	51.93
329.548	57.53
330.014	55.93
330.479	47.53
330.944	44.63
331.41	47.53
331.875	48.23
332.34	44.13
332.805	49.23
333.271	50.43
333.736	50.23
334.201	55.93
334.666	53.23
335.131	54.33
335.596	55.53
336.061	54.43
336.526	52.63
336.991	50.53
337.456	65.43
337.921	55.33
338.386	50.53
338.851	47.53
339.316	46.63
339.781	51.23
340.246	51.83
340.711	52.63
341.175	58.03
341.64	46.83
342.105	58.83
342.569	63.73
343.034	61.63
343.499	58.23
343.963	57.53
344.428	68.53
344.893	64.73
345.357	70.93
345.822	70.63
346.286	68.43
346.751	69.03
347.215	70.73
347.679	84.83
348.144	102.93
348.608	90.43
349.073	76.63
349.537	78.23
350.001	84.93
350.465	93.53
350.93	80.53
351.394	87.43
351.858	68.43
352.322	89.43
352.786	89.43
353.25	106.23
353.715	120.23
354.179	104.23
354.643	122.83
355.107	127.13
355.571	106.63
356.035	105.83
356.498	127.13
356.962	127.03
357.426	137.63
357.89	119.43
358.354	91.93
358.818	86.63
359.281	85.23
359.745	83.73
360.209	77.93
360.673	82.53
361.136	86.33
361.6	84.63
362.064	86.53
362.527	83.93
362.991	97.13
363.454	84.43
363.918	79.33
364.381	82.13
364.845	90.03
365.308	94.83
365.772	89.93
366.235	89.83
366.698	82.93
367.162	89.83
367.625	93.13
368.088	93.73
368.552	91.63
369.015	85.03
369.478	94.63
369.941	104.63
370.404	100.43
370.867	112.43
371.331	107.13
371.794	114.83
372.257	119.53
372.72	120.73
373.183	108.93
373.646	104.63
374.109	110.33
374.572	112.23
375.035	111.23
375.497	113.13
375.96	110.03
376.423	108.73
376.886	120.43
377.349	117.43
377.811	110.23
378.274	106.83
378.737	113.13
379.199	110.53
379.662	111.93
380.125	120.53
380.587	118.33
381.05	132.13
381.512	140.43
381.975	129.83
382.437	125.23
382.9	123.93
383.362	131.23
383.825	143.63
384.287	148.93
384.75	143.83
385.212	143.43
385.674	140.73
386.136	145.33
386.599	122.43
387.061	129.63
387.523	132.23
387.985	141.63
388.447	153.43
388.91	149.93
389.372	155.03
389.834	157.23
390.296	155.03
390.758	158.03
391.22	169.13
391.682	207.43
392.144	293.53
392.606	233.63
393.068	173.63
393.529	174.53
393.991	157.43
394.453	153.53
394.915	165.13
395.377	190.33
395.838	212.13
396.3	155.13
396.762	141.13
397.224	130.63
397.685	135.43
398.147	135.83
398.608	137.93
399.07	135.33
399.531	130.93
399.993	145.33
400.454	160.83
400.916	148.33
401.377	148.73
401.839	149.43
402.3	160.73
402.762	167.73
403.223	186.83
403.684	177.23
404.145	164.63
404.607	157.93
405.068	163.83
405.529	177.93
405.99	195.53
406.451	173.93
406.913	175.03
407.374	171.53
407.835	170.03
408.296	168.53
408.757	178.03
409.218	192.73
409.679	185.23
410.14	177.03
410.601	189.63
411.062	189.53
411.522	193.13
411.983	187.93
412.444	177.93
412.905	179.83
413.366	186.83
413.826	202.73
414.287	230.03
414.748	266.83
415.208	255.63
415.669	213.43
416.13	208.63
416.59	210.23
417.051	213.23
417.511	222.83
417.972	248.13
418.432	248.93
418.893	293.23
419.353	252.43
419.814	207.63
420.274	184.23
420.734	189.33
421.195	202.93
421.655	204.03
422.115	199.73
422.576	201.23
423.036	199.63
423.496	207.13
423.956	218.83
424.416	238.83
424.876	265.63
425.336	266.53
425.797	273.63
426.257	260.43
426.717	251.93
427.177	240.13
427.637	230.93
428.097	240.73
428.556	256.73
429.016	268.53
429.476	272.83
429.936	286.53
430.396	282.13
430.856	294.53
431.315	327.83
431.775	354.43
432.235	388.63
432.694	361.73
433.154	369.33
433.614	399.73
434.073	343.63
434.533	291.03
434.993	278.73
435.452	289.63
435.912	303.83
436.371	301.03
436.83	294.13
437.29	270.03
437.749	256.13
438.209	251.83
438.668	283.63
439.127	301.13
439.587	267.23
440.046	251.73
440.505	270.43
440.964	284.23
441.424	336.03
441.883	327.83
442.342	262.83
442.801	228.93
443.26	229.73
443.719	226.23
444.178	226.03
444.637	216.83
445.096	225.63
445.555	226.33
446.014	227.93
446.473	229.43
446.932	243.53
447.391	227.53
447.849	232.63
448.308	219.03
448.767	232.13
449.226	239.53
449.685	239.23
450.143	256.53
450.602	247.73
451.061	235.63
451.519	234.03
451.978	246.93
452.436	238.03
452.895	249.03
453.353	262.83
453.812	251.43
454.27	244.13
454.729	249.53
455.187	248.23
455.646	252.83
456.104	257.63
456.562	269.93
457.021	276.83
457.479	265.53
457.937	276.93
458.395	264.93
458.854	254.63
459.312	260.73
459.77	283.63
460.228	260.23
460.686	252.73
461.144	258.43
461.602	254.13
462.06	249.83
462.518	259.93
462.976	263.53
463.434	271.33
463.892	266.53
464.35	280.43
464.808	300.13
465.266	275.63
465.724	277.03
466.181	279.43
466.639	283.43
467.097	293.43
467.555	311.03
468.012	308.53
468.47	322.53
468.928	330.23
469.385	344.73
469.843	355.43
470.3	355.93
470.758	375.03
471.215	401.73
471.673	416.93
472.13	410.63
472.588	430.73
473.045	385.53
473.503	387.03
473.96	407.23
474.417	417.03
474.875	445.43
475.332	483.93
475.789	465.73
476.246	475.33
476.704	495.73
477.161	513.93
477.618	534.73
478.075	581.23
478.532	626.23
478.989	714.73
479.446	821.23
479.903	790.53
480.36	835.53
480.817	880.83
481.274	991.83
481.731	1090.63
482.188	1184.73
482.645	1328.53
483.102	1441.83
483.558	1580.13
484.015	1627.53
484.472	1613.83
484.929	1545.33
485.385	1501.03
485.842	1452.53
486.299	1401.03
486.755	1336.03
487.212	1127.93
487.668	957.03
488.125	863.63
488.582	791.73
489.038	762.43
489.494	728.33
489.951	690.23
490.407	686.73
490.864	671.53
491.32	669.03
491.776	656.33
492.233	663.13
492.689	626.93
493.145	612.33
493.602	615.53
494.058	627.73
494.514	632.93
494.97	660.53
495.426	667.33
495.882	646.33
496.338	638.93
496.794	640.73
497.251	628.23
497.707	652.03
498.163	657.73
498.618	659.63
499.074	669.53
499.53	708.23
499.986	700.23
500.442	668.53
500.898	652.73
501.354	638.93
501.809	643.23
502.265	652.43
502.721	676.63
503.177	683.13
503.632	665.93
504.088	690.53
504.543	725.23
504.999	716.73
505.455	678.83
505.91	650.93
506.366	650.33
506.821	645.03
507.277	643.33
507.732	643.83
508.187	640.03
508.643	648.33
509.098	658.23
509.553	673.73
510.009	680.23
510.464	692.63
510.919	701.23
511.375	712.93
511.83	724.73
512.285	738.63
512.74	782.23
513.195	810.13
513.65	789.33
514.105	786.33
514.56	784.73
515.015	804.43
515.47	817.63
515.925	806.93
516.38	809.93
516.835	808.23
517.29	795.93
517.745	793.73
518.2	779.73
518.655	765.63
519.109	760.43
519.564	757.93
520.019	748.73
520.474	744.23
520.928	742.03
521.383	743.53
521.838	730.03
522.292	733.13
522.747	721.63
523.201	712.03
523.656	707.83
524.11	713.13
524.565	711.23
525.019	702.53
525.474	717.63
525.928	725.73
526.382	711.53
526.837	719.73
527.291	717.93
527.745	716.13
528.2	705.13
528.654	715.03
529.108	709.53
529.562	711.03
530.016	705.03
530.47	702.13
530.925	709.43
531.379	703.33
531.833	716.73
532.287	711.93
532.741	722.23
533.195	720.13
533.649	735.33
534.103	743.63
534.556	738.03
535.01	738.43
535.464	722.83
535.918	740.13
536.372	734.73
536.826	731.53
537.279	722.53
537.733	726.83
538.187	727.13
538.64	731.73
539.094	734.03
539.548	739.83
540.001	734.23
540.455	739.63
540.908	748.43
541.362	749.13
541.815	760.23
542.269	774.83
542.722	773.43
543.175	788.63
543.629	785.13
544.082	793.43
544.536	788.43
544.989	790.83
545.442	804.13
545.895	804.93
546.349	799.83
546.802	796.83
547.255	811.93
547.708	812.33
548.161	824.33
548.614	823.03
549.067	846.23
549.52	826.63
549.973	821.83
550.426	821.53
550.879	811.23
551.332	809.63
551.785	819.73
552.238	824.63
552.691	829.13
553.144	846.73
553.596	860.63
554.049	880.03
554.502	920.53
554.955	926.53
555.407	922.63
555.86	909.33
556.313	898.83
556.765	896.33
557.218	894.43
557.67	891.03
558.123	892.13
558.576	891.23
559.028	888.83
559.48	904.43
559.933	886.93
560.385	841.33
560.838	814.73
561.29	791.83
561.742	788.63
562.195	770.83
562.647	766.23
563.099	783.03
563.551	786.13
564.004	787.73
564.456	787.33
564.908	776.83
565.36	752.33
565.812	742.63
566.264	730.73
566.716	721.53
567.168	715.43
567.62	731.73
568.072	708.23
568.524	706.93
568.976	697.63
569.428	671.93
569.88	681.13
570.332	687.33
570.784	686.23
571.235	693.33
571.687	698.73
572.139	710.73
572.59	717.53
573.042	726.83
573.494	719.93
573.945	704.83
574.397	688.53
574.849	692.03
575.3	697.43
575.752	696.83
576.203	695.13
576.655	692.83
577.106	684.93
577.557	672.73
578.009	673.23
578.46	668.23
578.912	665.33
579.363	666.73
579.814	675.23
580.265	672.13
580.717	678.13
581.168	675.63
581.619	677.43
582.07	691.03
582.521	681.03
582.972	670.83
583.423	685.13
583.875	676.63
584.326	697.33
584.777	741.93
585.227	817.23
585.678	894.03
586.129	989.73
586.58	1043.43
587.031	1127.73
587.482	1271.33
587.933	1447.83
588.384	1265.63
588.834	954.83
589.285	797.73
589.736	774.43
590.186	772.13
590.637	768.93
591.088	745.53
591.538	740.23
591.989	737.43
592.439	730.93
592.89	725.43
593.34	706.23
593.791	704.83
594.241	697.23
594.692	705.43
595.142	700.93
595.593	708.03
596.043	712.63
596.493	709.33
596.943	719.03
597.394	730.43
597.844	714.63
598.294	728.83
598.744	741.43
599.195	770.73
599.645	814.23
600.095	864.93
600.545	905.43
600.995	961.33
601.445	1010.73
601.895	1083.33
602.345	1123.33
602.795	1106.13
603.245	1059.13
603.695	1003.63
604.145	962.93
604.594	910.43
605.044	862.83
605.494	803.13
605.944	756.63
606.393	742.73
606.843	717.13
607.293	725.23
607.743	718.43
608.192	753.73
608.642	759.53
609.091	761.03
609.541	762.33
609.99	768.33
610.44	763.63
610.889	715.73
611.339	698.43
611.788	680.03
612.238	686.23
612.687	716.63
613.136	714.03
613.586	736.23
614.035	717.93
614.484	749.63
614.933	746.83
615.383	735.23
615.832	725.83
616.281	712.73
616.73	683.23
617.179	657.33
617.628	640.53
618.077	632.83
618.526	621.83
618.975	615.33
619.424	613.93
619.873	612.43
620.322	611.13
620.771	598.33
621.22	591.33
621.669	586.03
622.118	584.53
622.567	574.33
623.015	559.43
623.464	556.73
623.913	559.63
624.361	552.23
624.81	548.43
625.259	551.43
625.707	554.23
626.156	553.53
626.604	562.23
627.053	562.33
627.501	558.23
627.95	560.73
628.398	576.23
628.847	571.23
629.295	553.43
629.744	568.93
630.192	552.73
630.64	566.83
631.089	553.43
631.537	572.03
631.985	577.53
632.433	580.63
632.881	584.73
633.33	641.83
633.778	628.13
634.226	552.23
634.674	562.03
635.122	566.53
635.57	580.03
636.018	614.63
636.466	572.03
636.914	556.53
637.362	559.73
637.81	567.43
638.258	564.63
638.705	566.03
639.153	587.33
639.601	608.63
640.049	637.53
640.497	657.93
640.944	687.13
641.392	633.93
641.84	602.33
642.287	571.43
642.735	553.93
643.182	556.23
643.63	559.93
644.078	555.03
644.525	573.03
644.973	586.43
645.42	587.63
645.867	616.13
646.315	631.43
646.762	646.43
647.21	679.13
647.657	705.63
648.104	729.83
648.551	759.13
648.999	823.13
649.446	895.13
649.893	989.93
650.34	1142.23
650.787	1352.33
651.234	1676.73
651.682	2178.53
652.129	2966.63
652.576	4300.63
653.023	6325.13
653.47	8693.83
653.917	10920.93
654.363	12637.73
654.81	14040.03
655.257	13341.43
655.704	8754.63
656.151	5152.13
656.598	3347.93
657.044	2386.83
657.491	1835.73
657.938	1469.53
658.385	1222.93
658.831	1064.03
659.278	942.83
659.724	841.23
660.171	770.03
660.618	721.73
661.064	677.93
661.511	643.43
661.957	641.83
662.404	626.53
662.85	645.23
663.296	605.43
663.743	543.03
664.189	528.43
664.635	524.33
665.082	518.03
665.528	511.63
665.974	508.23
666.42	509.43
666.867	480.23
667.313	482.03
667.759	471.13
668.205	465.63
668.651	465.93
669.097	462.13
669.543	481.63
669.989	460.33
670.435	444.23
670.881	442.83
671.327	435.03
671.773	460.23
672.219	479.43
672.665	527.23
673.11	565.03
673.556	610.13
674.002	645.03
674.448	644.53
674.893	535.23
675.339	465.53
675.785	436.83
676.23	411.43
676.676	379.83
677.122	379.43
677.567	365.03
678.013	360.93
678.458	342.23
678.904	343.13
679.349	337.63
679.794	338.33
680.24	341.53
680.685	334.43
681.131	333.93
681.576	339.43
682.021	343.93
682.466	335.93
682.912	337.33
683.357	339.13
683.802	367.83
684.247	405.03
684.692	440.13
685.137	482.83
685.583	519.83
686.028	554.33
686.473	509.53
686.918	432.23
687.363	400.43
687.807	386.93
688.252	363.53
688.697	345.93
689.142	327.93
689.587	323.53
690.032	313.63
690.477	330.03
690.921	340.63
691.366	369.33
691.811	389.63
692.255	423.53
692.7	442.03
693.145	484.23
693.589	661.03
694.034	1071.43
694.478	1471.03
694.923	1677.43
695.367	2203.53
695.812	1167.03
696.256	480.13
696.701	352.63
697.145	329.73
697.59	312.23
698.034	307.33
698.478	314.63
698.922	308.33
699.367	318.63
699.811	327.63
700.255	347.23
700.699	374.93
701.143	404.43
701.588	463.33
702.032	497.33
702.476	507.73
702.92	476.43
703.364	475.13
703.808	608.83
704.252	983.73
704.696	1404.13
705.14	1631.03
705.584	2077.23
706.027	1033.53
706.471	504.63
706.915	381.63
707.359	334.93
707.803	305.73
708.246	300.73
708.69	304.93
709.134	301.03
709.577	293.83
710.021	304.13
710.465	295.83
710.908	295.03
711.352	286.63
711.795	299.83
712.239	342.63
712.682	376.23
713.126	406.03
713.569	449.83
714.012	352.13
714.456	306.63
714.899	292.53
715.342	266.03
715.786	246.43
716.229	247.43
716.672	246.93
717.115	235.63
717.558	239.03
718.002	238.73
718.445	248.83
718.888	275.63
719.331	281.03
719.774	296.93
720.217	295.33
720.66	271.13
721.103	257.23
721.546	251.33
721.989	241.43
722.432	224.03
722.874	224.03
723.317	222.03
723.76	234.33
724.203	246.73
724.645	306.43
725.088	430.23
725.531	554.53
725.974	628.73
726.416	532.53
726.859	296.83
727.301	239.13
727.744	223.73
728.187	225.13
728.629	232.43
729.071	236.53
729.514	242.13
729.956	263.33
730.399	280.33
730.841	279.63
731.283	261.43
731.726	252.63
732.168	254.63
732.61	258.33
733.053	275.63
733.495	293.43
733.937	344.53
734.379	377.03
734.821	416.23
735.263	511.83
735.705	787.63
736.148	1482.63
736.59	2456.73
737.032	2967.13
737.474	2423.73
737.916	786.13
738.357	419.73
738.799	311.63
739.241	290.13
739.683	269.13
740.125	285.13
740.567	297.83
741.008	303.03
741.45	303.83
741.892	307.53
742.334	338.33
742.775	347.33
743.217	325.43
743.658	263.43
744.1	240.13
744.542	253.23
744.983	299.93
745.425	339.63
745.866	334.03
746.307	273.73
746.749	270.73
747.19	305.53
747.632	434.03
748.073	822.93
748.514	1758.03
748.956	2740.43
749.397	3446.83
749.838	2866.63
750.279	2893.33
750.72	1449.63
751.162	535.93
751.603	305.23
752.044	238.63
752.485	216.03
752.926	204.23
753.367	200.83
753.808	186.23
754.249	183.63
754.69	184.33
755.131	178.23
755.572	172.73
756.013	170.23
756.453	174.63
756.894	179.93
757.335	178.73
757.776	180.23
758.216	187.23
758.657	192.73
759.098	194.53
759.538	223.53
759.979	257.93
760.42	351.03
760.86	660.23
761.301	1703.73
761.741	4203.03
762.182	6245.93
762.622	4411.03
763.063	1268.73
763.503	520.03
763.943	332.03
764.384	320.43
764.824	373.73
765.264	410.53
765.705	289.33
766.145	203.33
766.585	182.73
767.025	178.93
767.465	184.63
767.906	225.03
768.346	297.53
768.786	324.83
769.226	246.13
769.666	299.33
770.106	582.73
770.546	1450.73
770.986	2563.43
771.426	2304.43
771.866	754.63
772.306	314.83
772.745	203.53
773.185	174.03
773.625	168.23
774.065	155.33
774.505	186.03
774.944	282.13
775.384	611.53
775.824	1130.83
776.263	1114.83
776.703	470.63
777.142	211.03
777.582	154.03
778.021	131.03
778.461	132.03
778.9	135.03
779.34	129.73
779.779	112.13
780.219	100.93
780.658	103.03
781.097	108.13
781.537	115.63
781.976	102.23
782.415	100.93
782.855	99.13
783.294	95.63
783.733	103.33
784.172	108.43
784.611	98.63
785.05	108.03
785.489	106.73
785.928	115.93
786.367	115.33
786.806	112.43
787.245	118.93
787.684	131.83
788.123	134.73
788.562	134.03
789.001	121.03
789.44	116.03
789.879	116.23
790.317	112.93
790.756	126.93
791.195	122.83
791.634	134.13
792.072	195.83
792.511	343.83
792.95	934.93
793.388	2041.03
793.827	1893.43
794.265	648.13
794.704	274.93
795.142	177.13
795.581	143.13
796.019	127.33
796.458	120.43
796.896	119.53
797.334	119.13
797.773	142.43
798.211	210.13
798.649	413.93
799.087	962.13
799.526	1524.93
799.964	1923.43
800.402	1963.83
800.84	728.63
801.278	285.93
801.716	184.63
802.154	149.03
802.592	139.03
803.03	132.53
803.468	124.63
803.906	133.93
804.344	143.43
804.782	136.93
805.22	127.03
805.658	118.33
806.096	144.43
806.533	154.13
806.971	166.73
807.409	205.13
807.847	300.43
808.284	625.63
808.722	1744.03
809.16	3180.23
809.597	2948.43
810.035	5147.23
810.472	5622.73
810.91	2019.23
811.347	758.03
811.785	390.03
812.222	249.33
812.66	190.53
813.097	154.03
813.535	138.03
813.972	119.83
814.409	117.63
814.846	96.03
815.284	100.63
815.721	93.63
816.158	101.13
816.595	113.33
817.032	168.73
817.47	195.53
817.907	163.23
818.344	144.63
818.781	111.03
819.218	98.53
819.655	117.33
820.092	178.83
820.529	210.83
820.966	173.13
821.403	129.43
821.839	103.73
822.276	94.43
822.713	116.63
823.15	125.93
823.587	108.63
824.023	139.13
824.46	284.63
824.897	851.03
825.333	1314.13
825.77	564.43
826.206	223.03
826.643	126.13
827.08	95.23
827.516	74.63
827.953	66.73
828.389	74.83
828.825	71.73
829.262	65.63
829.698	62.23
830.135	62.63
830.571	65.43
831.007	67.23
831.443	62.43
831.88	62.33
832.316	64.13
832.752	62.93
833.188	66.53
833.624	65.73
834.06	68.23
834.497	63.23
834.933	70.83
835.369	70.63
835.805	68.53
836.241	74.73
836.677	77.93
837.112	85.43
837.548	92.93
837.984	128.33
838.42	189.23
838.856	466.33
839.292	1431.93
839.727	2250.93
840.163	1037.73
840.599	871.73
841.034	1930.93
841.47	2077.13
841.906	745.73
842.341	316.03
842.777	218.63
843.212	288.53
843.648	297.83
844.083	149.03
844.519	93.43
844.954	81.43
845.39	62.63
845.825	58.13
846.261	56.53
846.696	56.03
847.131	50.23
847.566	61.83
848.002	53.43
848.437	51.73
848.872	57.63
849.307	62.03
849.742	80.73
850.177	171.93
850.613	521.73
851.048	850.83
851.483	369.13
851.918	147.13
852.353	83.53
852.788	59.03
853.223	55.43
853.657	55.33
854.092	49.93
854.527	40.53
854.962	44.23
855.397	42.43
855.832	48.63
856.266	44.13
856.701	28.13
857.136	31.93
857.57	34.83
858.005	46.63
858.44	56.33
858.874	41.43
859.309	47.03
859.743	30.53
860.178	47.83
860.612	35.63
861.047	50.13
861.481	61.43
861.915	66.33
862.35	51.03
862.784	33.83
863.218	42.43
863.653	35.93
864.087	47.33
864.521	49.43
864.955	61.33
865.39	154.23
865.824	172.03
866.258	110.93
866.692	156.13
867.126	170.13
867.56	100.23
867.994	54.53
868.428	36.93
868.862	47.63
869.296	56.03
869.73	57.53
870.164	55.83
870.598	44.53
871.031	35.73
871.465	32.43
871.899	32.63
872.333	23.83
872.766	18.73
873.2	21.93
873.634	30.43
874.067	27.63
874.501	22.43
874.935	31.63
875.368	29.73
875.802	26.53
876.235	23.33
876.669	27.33
877.102	24.63
877.535	27.13
877.969	19.63
878.402	18.63
878.836	13.93
879.269	23.43
879.702	23.03
880.135	19.73
880.569	20.83
881.002	29.13
881.435	20.63
881.868	19.73
882.301	24.73
882.734	19.93
883.167	18.83
883.601	21.13
884.034	21.43
884.467	16.63
884.899	13.83
885.332	13.83
885.765	15.63
886.198	14.63
886.631	20.33
887.064	18.33
887.497	21.43
887.929	29.73
888.362	14.13
888.795	15.13
889.228	18.03
889.66	17.53
890.093	16.13
890.526	18.03
890.958	18.83
891.391	15.33
891.823	19.53
892.256	19.23
892.688	9.13
893.121	15.33
893.553	11.73
893.985	19.53
894.418	17.43
894.85	12.83
895.282	11.33
895.715	12.63
896.147	20.93
896.579	20.43
897.011	11.33
897.444	17.53
897.876	11.73
898.308	17.63
898.74	10.53
899.172	12.23
899.604	24.23
900.036	17.03
900.468	9.83
900.9	15.13
901.332	24.73
901.764	13.03
902.196	19.03
902.628	14.73
903.06	15.33
903.491	31.63
903.923	18.43
904.355	16.93
904.787	22.83
905.218	16.53
905.65	17.53
906.082	14.83
906.513	9.03
906.945	14.93
907.376	20.43
907.808	15.23
908.239	23.03
908.671	12.43
909.102	26.63
909.534	25.13
909.965	45.53
910.397	84.13
910.828	294.83
911.259	457.83
911.691	213.73
912.122	102.23
912.553	48.03
912.984	31.23
913.415	29.33
913.847	25.03
914.278	14.03
914.709	15.63
915.14	19.43
915.571	18.63
916.002	15.23
916.433	22.33
916.864	15.83
917.295	18.13
917.726	22.73
918.157	13.83
918.587	28.23
919.018	19.13
919.449	31.63
919.88	24.53
920.311	28.43
920.741	45.83
921.172	163.83
921.603	144.83
922.033	64.43
922.464	46.23
922.895	22.23
923.325	22.23
923.756	17.23
924.186	19.03
924.617	20.73
925.047	40.53
925.478	47.93
925.908	39.13
926.338	23.93
926.769	16.83
927.199	14.43
927.629	9.03
928.06	12.33
928.49	9.53
928.92	15.73
929.35	4.33
929.78	10.53
930.21	7.03
930.641	8.63
931.071	12.73
931.501	6.13
931.931	6.63
932.361	11.73
932.791	6.13
933.221	-1.97
933.651	1.43
934.08	17.13
934.51	30.13
934.94	9.83
935.37	8.23
935.8	14.33
936.229	12.33
936.659	13.23
937.089	-1.27
937.519	17.23
937.948	24.03
938.378	15.23
938.807	5.43
939.237	5.93
939.666	8.33
940.096	-0.17
940.525	9.53
940.955	3.73
941.384	2.33
941.814	-1.87
942.243	1.23
942.672	4.23
943.102	2.13
943.531	2.73
943.96	4.03
944.39	6.63
944.819	-0.47
945.248	4.13
945.677	2.93
946.106	-0.17
946.535	9.53
946.964	4.13
947.393	1.73
947.822	0.43
948.251	-0.57
948.68	6.23
949.109	9.43
949.538	8.03
949.967	1.13
950.396	1.63
950.825	-9.47
951.254	-4.27
951.682	-9.17
952.111	6.73
952.54	9.53
952.969	-2.57
953.397	-7.27
953.826	-3.27
954.254	-7.77
954.683	1.23
955.112	-1.67
955.54	-1.77
955.969	0.93
956.397	-6.47
956.826	-4.87
957.254	4.73
957.682	-4.47
958.111	0.83
958.539	-0.17
958.967	8.13
959.396	-2.27
959.824	0.93
960.252	6.23
960.68	-2.67
961.109	-0.47
961.537	-0.87
961.965	0.83
962.393	-0.27
962.821	-3.17
963.249	1.63
963.677	8.53
964.105	2.73
964.533	44.23
964.961	42.63
965.389	24.23
965.817	10.13
966.245	2.33
966.672	2.53
967.1	-0.07
967.528	-0.07
967.956	-1.17
968.383	0.63
968.811	0.73
969.239	-2.27
969.666	-6.37
970.094	-3.77
970.522	-1.27
970.949	-5.97
971.377	-2.17
971.804	-6.17
972.232	-4.37
972.659	-2.77
973.087	-4.97
973.514	0.33
973.941	-5.47
974.369	6.23
974.796	0.03
975.223	-2.37
975.651	-1.17
976.078	-4.37
976.505	0.43
976.932	4.03
977.359	17.03
977.786	16.83
978.214	1.43
978.641	1.73
979.068	-2.07
979.495	-1.57
979.922	4.43
980.349	-1.47
980.776	0.23
981.202	-5.67
981.629	4.63
982.056	5.53
982.483	-0.17
982.91	0.63
983.337	-6.27
983.763	3.33
984.19	-8.47
984.617	-2.27
985.043	-5.27
985.47	2.93
985.897	-1.77
986.323	-9.67
986.75	5.93
987.176	3.73
987.603	-0.07
988.029	-2.87
988.456	-7.67
988.882	-2.07
989.308	-1.47
989.735	0.53
990.161	-7.57
990.587	-6.27
991.014	0.43
991.44	7.83
991.866	-1.77
992.292	-4.17
992.719	-8.67
993.145	1.73
993.571	-12.07
993.997	-3.37
994.423	-1.87
994.849	-8.57
995.275	10.83
995.701	5.03
996.127	-6.37
996.553	0.33
996.979	-1.67
997.405	3.13
997.83	-4.57
998.256	-7.07
998.682	-6.77
999.108	-6.47
999.534	-5.77
999.959	-2.77
1000.385	-5.67
1000.811	1.43
1001.236	-8.77
1001.662	-3.27
1002.087	-10.67
1002.513	5.23
1002.938	4.13
1003.364	-1.07
1003.789	-0.77
1004.215	3.63
1004.64	-4.87
1005.066	5.43
1005.491	-3.77
1005.916	-2.67
1006.342	-4.37
1006.767	-9.87
1007.192	3.53
1007.617	0.03
1008.042	2.63
1008.468	-4.87
1008.893	-3.47
1009.318	-1.47
1009.743	-0.87
1010.168	4.93
1010.593	1.83
1011.018	-8.47
1011.443	-4.87
1011.868	-1.47
1012.293	-4.67
1012.718	-3.47
1013.143	0.43
1013.567	-2.47
1013.992	-0.47
1014.417	-17.57
1014.842	0.73
1015.267	-4.47
1015.691	-1.27
1016.116	9.53
1016.541	-5.87
1016.965	2.53
1017.39	2.13
1017.814	4.23
1018.239	-7.47
1018.663	-1.77
1019.088	-5.67
1019.512	-2.27
1019.937	-6.47
1020.361	-4.27
1020.785	-9.77
1021.21	-2.87
1021.634	-6.07
1022.058	-0.87
1022.483	11.13
1022.907	-2.27
1023.331	-6.97
1023.755	-0.27
1024.179	-5.97
1024.604	-8.17
1025.028	-2.57
1025.452	-7.37
1025.876	-5.27
1026.3	-3.67
1026.724	-11.07
1027.148	-5.87
1027.572	-4.27
1027.996	-2.97
1028.42	-0.07
1028.843	-1.17
1029.267	-7.77
1029.691	1.33
1030.115	2.13
1030.539	-4.37
1030.962	-1.67
1031.386	-7.27
1031.81	-1.07
1032.233	-1.57
1032.657	-0.37
1033.08	-4.37
1033.504	-1.87
1033.927	0.33
1034.351	2.03
1034.774	-4.37
1035.198	-2.17
1035.621	-6.27
1036.045	-7.37
1036.468	3.03
1036.891	-11.47
1037.315	-5.67
1037.738	-4.17
1038.161	4.23
1038.584	-5.67
1039.008	-6.57
1039.431	-5.17
1039.854	-5.57
1040.277	-9.77
1040.7	-5.77
1041.123	5.23
1041.546	-8.77
1041.969	-2.87
1042.392	-8.47
1042.815	-6.37
1043.238	1.73
1043.661	-0.67
1044.084	-7.47
1044.507	-7.47
1044.93	-6.47
1045.352	-7.27
1045.775	-0.07
1046.198	0.23
1046.621	-1.67
1047.043	-8.17
1047.466	4.23
1047.889	-1.07
1048.311	-0.97
1048.734	-2.97
1049.156	1.03
1049.579	-0.27
1050.001	-4.37
1050.424	-0.07
1050.846	-0.77
1051.269	-5.17
1051.691	-11.47
1052.113	-1.97
1052.536	0.93
1052.958	-0.47
1053.38	-6.47
1053.802	-6.07
1054.225	1.03
1054.647	-1.07
1055.069	-1.97
1055.491	2.73
1055.913	-5.17
1056.335	-3.27
1056.757	2.23
1057.179	-4.67
1057.601	-2.17
1058.023	-2.77
1058.445	-3.47
1058.867	-2.47
1059.289	-0.77
1059.711	-6.57
1060.133	-0.77
1060.555	-3.17
1060.976	-2.47
1061.398	-8.97
1061.82	-3.57
1062.241	-3.57
1062.663	-3.87
1063.085	-10.77
1063.506	0.53
1063.928	-4.57
1064.35	-3.77
1064.771	-9.17
1065.193	-6.67
1065.614	-8.97
1066.035	-1.67
1066.457	2.73
1066.878	-1.97
1067.3	-3.87
1067.721	-3.07
1068.142	-2.37
1068.564	-4.27
1068.985	-4.57
1069.406	-1.67
1069.827	-7.17
1070.248	-5.67
1070.67	-4.97
1071.091	-1.37
1071.512	-1.97
1071.933	-4.67
1072.354	-4.27
1072.775	-3.17
1073.196	-3.57
1073.617	2.93
1074.038	-3.97
1074.459	-0.57
1074.88	-7.07
1075.3	0.03
1075.721	-6.67
1076.142	-1.57
1076.563	-2.17
1076.983	-11.97
1077.404	-4.67
1077.825	-9.87
1078.246	-1.87
1078.666	-13.97
1079.087	-5.17
1079.507	-10.57
1079.928	0.73
1080.348	0.33
1080.769	-1.17
1081.189	-3.57
1081.61	-3.97
1082.03	-8.07
1082.451	-6.67
1082.871	-3.27
1083.291	-8.07
1083.711	-7.97
1084.132	-9.57
1084.552	-5.47
1084.972	-1.07
1085.392	-14.07
1085.813	-14.57
1086.233	-12.97
1086.653	-2.97
1087.073	-8.07
1087.493	-10.37
1087.913	-7.37
1088.333	-6.97
1088.753	-1.37
1089.173	4.93
1089.593	-3.87
1090.013	1.03
1090.433	6.53
1090.852	-0.17
1091.272	-1.77
1091.692	-4.57
1092.112	-8.27
1092.531	-5.57
1092.951	-14.67
1093.371	-2.27
1093.79	1.53
1094.21	-4.77
1094.63	-7.67
1095.049	-6.47
1095.469	0.13
1095.888	-4.77
1096.308	-0.77
1096.727	1.33
1097.146	-9.77
1097.566	-2.37
1097.985	-2.07
1098.405	-5.27
1098.824	-8.47
1099.243	-8.97
1099.662	-6.77
1100.082	-2.57
1100.501	-1.67
1100.92	-7.97
1101.339	0.03
1101.758	-4.97
