Data from 20171114-ORNL-Ar_H_NY_Subt18_08-05-43-882.txt Node
Date: Tue Nov 14 08:05:43 EST 2017
User: Ender
Spectrometer: HR+D1039
Trigger mode: 0
Integration Time (sec): 2.730000E-2
Scans to average: 10
Electric dark correction enabled: true
Nonlinearity correction enabled: false
Boxcar width: 0
XAxis mode: Wavelengths
Number of Pixels in Spectrum: 2048
>>>>>Begin Spectral Data<<<<<
187.836	-4.54
188.309	-4.54
188.782	-4.54
189.255	0.16
189.728	-5.54
190.201	5.96
190.674	5.46
191.147	3.36
191.619	-6.04
192.092	2.86
192.565	0.66
193.038	0.86
193.511	1.06
193.984	-0.34
194.456	-1.54
194.929	0.66
195.402	-4.94
195.874	1.96
196.347	-6.04
196.82	-5.74
197.292	3.66
197.765	0.46
198.237	-5.34
198.71	7.66
199.182	-3.54
199.655	6.26
200.127	4.26
200.6	2.56
201.072	-6.34
201.544	-4.14
202.017	-5.54
202.489	0.86
202.961	-0.34
203.433	-0.94
203.906	-7.54
204.378	-9.74
204.85	-1.94
205.322	-9.74
205.794	-5.34
206.266	-6.64
206.739	-6.74
207.211	2.26
207.683	-1.94
208.155	-4.04
208.627	-7.04
209.099	-0.74
209.57	-5.14
210.042	-2.84
210.514	2.86
210.986	1.76
211.458	-11.84
211.93	-2.34
212.402	2.76
212.873	-6.24
213.345	-11.54
213.817	-10.14
214.288	-6.14
214.76	-7.14
215.232	-2.04
215.703	-1.74
216.175	-3.34
216.646	-4.14
217.118	-1.84
217.589	-2.44
218.061	-2.74
218.532	-7.04
219.004	1.66
219.475	-2.84
219.946	-1.34
220.418	-3.54
220.889	6.66
221.36	0.06
221.832	-0.54
222.303	-1.04
222.774	0.86
223.245	-7.04
223.717	-7.04
224.188	-0.84
224.659	-9.24
225.13	-4.94
225.601	-4.94
226.072	-0.44
226.543	-0.54
227.014	-3.14
227.485	1.06
227.956	-10.14
228.427	-2.24
228.898	2.76
229.369	-0.14
229.839	-2.24
230.31	-6.94
230.781	0.76
231.252	-4.14
231.722	-4.54
232.193	-6.84
232.664	1.66
233.135	-2.54
233.605	-2.54
234.076	-1.54
234.546	1.96
235.017	6.76
235.487	-0.14
235.958	-2.74
236.428	-7.34
236.899	2.86
237.369	4.46
237.84	0.76
238.31	6.36
238.78	2.96
239.251	4.56
239.721	4.26
240.191	3.56
240.662	-1.44
241.132	3.16
241.602	-6.24
242.072	2.06
242.542	11.26
243.013	5.26
243.483	2.76
243.953	5.46
244.423	1.96
244.893	-1.54
245.363	4.96
245.833	2.86
246.303	2.16
246.773	8.46
247.243	4.16
247.712	1.36
248.182	7.46
248.652	7.56
249.122	-0.74
249.592	12.06
250.061	23.36
250.531	38.36
251.001	16.66
251.471	24.76
251.94	18.36
252.41	12.96
252.879	1.26
253.349	14.66
253.818	8.36
254.288	8.76
254.757	4.16
255.227	-2.14
255.696	5.06
256.166	5.06
256.635	12.16
257.105	12.36
257.574	5.56
258.043	7.46
258.513	9.56
258.982	17.46
259.451	6.96
259.92	11.26
260.389	13.26
260.859	14.16
261.328	12.76
261.797	18.06
262.266	4.96
262.735	5.26
263.204	3.46
263.673	1.96
264.142	8.96
264.611	-3.84
265.08	-2.14
265.549	2.06
266.018	9.66
266.487	2.56
266.955	3.76
267.424	5.56
267.893	7.56
268.362	4.86
268.83	10.06
269.299	6.66
269.768	6.16
270.236	11.66
270.705	10.26
271.174	8.36
271.642	5.26
272.111	6.96
272.579	16.96
273.048	23.76
273.516	31.86
273.985	31.76
274.453	24.16
274.922	18.26
275.39	12.76
275.858	4.56
276.327	9.16
276.795	20.96
277.263	11.46
277.731	29.96
278.2	62.66
278.668	62.96
279.136	57.06
279.604	16.76
280.072	16.56
280.54	14.76
281.008	10.16
281.477	11.76
281.945	10.96
282.413	11.06
282.881	17.16
283.348	12.36
283.816	18.26
284.284	11.26
284.752	23.16
285.22	14.96
285.688	14.96
286.156	19.26
286.623	45.86
287.091	56.76
287.559	30.76
288.026	23.46
288.494	21.26
288.962	6.06
289.429	12.46
289.897	24.36
290.364	25.06
290.832	17.36
291.3	19.66
291.767	22.26
292.234	23.66
292.702	11.26
293.169	20.66
293.637	23.56
294.104	22.16
294.571	12.26
295.039	22.36
295.506	10.76
295.973	20.46
296.44	16.36
296.908	24.16
297.375	21.66
297.842	18.46
298.309	22.36
298.776	11.06
299.243	22.66
299.71	15.66
300.177	18.86
300.644	23.56
301.111	22.46
301.578	33.26
302.045	18.16
302.512	25.76
302.979	29.96
303.446	28.16
303.913	22.76
304.379	23.46
304.846	30.46
305.313	26.16
305.78	23.96
306.246	25.46
306.713	31.56
307.18	31.56
307.646	27.86
308.113	29.66
308.579	28.06
309.046	27.46
309.512	24.96
309.979	17.86
310.445	26.36
310.912	27.66
311.378	40.56
311.845	20.06
312.311	33.96
312.777	37.46
313.244	30.36
313.71	45.96
314.176	29.66
314.642	35.16
315.109	34.66
315.575	34.86
316.041	39.06
316.507	36.76
316.973	42.06
317.439	42.36
317.905	36.46
318.371	34.06
318.837	39.46
319.303	32.46
319.769	32.26
320.235	35.86
320.701	39.16
321.167	43.36
321.633	36.56
322.099	44.66
322.564	43.96
323.03	41.76
323.496	40.36
323.962	49.06
324.427	34.96
324.893	44.16
325.359	42.06
325.824	37.06
326.29	37.76
326.755	45.46
327.221	40.66
327.686	44.56
328.152	51.16
328.617	41.26
329.083	50.36
329.548	50.46
330.014	48.16
330.479	41.06
330.944	52.96
331.41	44.76
331.875	50.06
332.34	42.56
332.805	48.76
333.271	49.46
333.736	43.66
334.201	57.96
334.666	53.86
335.131	60.76
335.596	57.46
336.061	54.06
336.526	41.86
336.991	44.66
337.456	55.46
337.921	48.96
338.386	44.56
338.851	45.86
339.316	51.66
339.781	53.76
340.246	52.26
340.711	51.56
341.175	52.86
341.64	49.96
342.105	57.66
342.569	58.76
343.034	62.36
343.499	51.96
343.963	51.66
344.428	62.26
344.893	63.96
345.357	60.36
345.822	64.96
346.286	66.46
346.751	76.76
347.215	69.76
347.679	80.66
348.144	102.26
348.608	79.56
349.073	70.36
349.537	74.16
350.001	75.46
350.465	91.96
350.93	89.56
351.394	81.46
351.858	81.86
352.322	90.56
352.786	87.96
353.25	109.16
353.715	113.26
354.179	103.36
354.643	123.56
355.107	130.06
355.571	109.86
356.035	105.86
356.498	122.46
356.962	127.36
357.426	132.46
357.89	128.36
358.354	89.66
358.818	84.56
359.281	80.26
359.745	78.66
360.209	80.06
360.673	75.16
361.136	88.86
361.6	86.16
362.064	85.76
362.527	88.36
362.991	96.36
363.454	83.56
363.918	77.06
364.381	79.76
364.845	84.86
365.308	83.66
365.772	91.26
366.235	85.06
366.698	83.16
367.162	87.56
367.625	92.56
368.088	89.16
368.552	90.06
369.015	93.06
369.478	98.76
369.941	102.86
370.404	94.76
370.867	104.36
371.331	105.56
371.794	119.16
372.257	112.66
372.72	117.36
373.183	109.16
373.646	104.66
374.109	104.86
374.572	110.16
375.035	113.46
375.497	111.26
375.96	107.56
376.423	106.56
376.886	116.86
377.349	113.96
377.811	106.66
378.274	115.26
378.737	112.56
379.199	117.46
379.662	115.86
380.125	120.86
380.587	113.86
381.05	124.46
381.512	130.36
381.975	133.16
382.437	127.16
382.9	118.86
383.362	130.66
383.825	143.16
384.287	147.36
384.75	141.26
385.212	141.56
385.674	143.46
386.136	136.46
386.599	121.86
387.061	131.76
387.523	134.26
387.985	132.66
388.447	147.46
388.91	141.26
389.372	163.46
389.834	149.76
390.296	146.96
390.758	158.66
391.22	166.06
391.682	216.26
392.144	289.46
392.606	226.26
393.068	167.66
393.529	167.26
393.991	154.96
394.453	155.66
394.915	152.66
395.377	192.86
395.838	218.16
396.3	157.46
396.762	138.96
397.224	132.46
397.685	134.66
398.147	131.36
398.608	134.46
399.07	127.56
399.531	135.26
399.993	141.66
400.454	158.46
400.916	149.56
401.377	147.26
401.839	154.96
402.3	153.46
402.762	163.76
403.223	178.06
403.684	171.86
404.145	156.46
404.607	165.86
405.068	172.96
405.529	174.16
405.99	192.26
406.451	170.16
406.913	172.36
407.374	160.76
407.835	157.36
408.296	172.86
408.757	172.76
409.218	188.56
409.679	177.16
410.14	175.86
410.601	169.76
411.062	180.86
411.522	182.26
411.983	184.56
412.444	172.36
412.905	185.96
413.366	181.86
413.826	194.86
414.287	220.56
414.748	268.16
415.208	252.76
415.669	215.56
416.13	210.26
416.59	206.26
417.051	214.36
417.511	216.06
417.972	234.06
418.432	245.06
418.893	284.66
419.353	254.66
419.814	200.16
420.274	191.36
420.734	187.96
421.195	201.76
421.655	200.36
422.115	193.66
422.576	192.36
423.036	204.36
423.496	204.76
423.956	215.06
424.416	229.36
424.876	272.46
425.336	266.06
425.797	263.76
426.257	253.76
426.717	246.26
427.177	232.16
427.637	229.96
428.097	239.66
428.556	251.06
429.016	273.76
429.476	263.66
429.936	274.56
430.396	275.36
430.856	293.86
431.315	327.96
431.775	352.96
432.235	378.86
432.694	355.06
433.154	367.56
433.614	395.06
434.073	341.06
434.533	287.16
434.993	274.06
435.452	292.46
435.912	290.96
436.371	287.36
436.83	288.06
437.29	274.16
437.749	251.46
438.209	245.86
438.668	271.56
439.127	289.76
439.587	276.16
440.046	248.56
440.505	260.66
440.964	288.76
441.424	323.36
441.883	318.56
442.342	262.36
442.801	227.36
443.26	220.36
443.719	227.36
444.178	216.86
444.637	208.26
445.096	220.96
445.555	228.96
446.014	233.76
446.473	225.96
446.932	230.76
447.391	230.76
447.849	228.86
448.308	219.16
448.767	226.76
449.226	232.26
449.685	234.96
450.143	247.36
450.602	244.36
451.061	229.36
451.519	239.96
451.978	231.06
452.436	238.96
452.895	246.46
453.353	260.86
453.812	237.76
454.27	242.26
454.729	238.46
455.187	240.76
455.646	243.66
456.104	247.46
456.562	256.16
457.021	267.66
457.479	263.86
457.937	276.46
458.395	261.06
458.854	240.96
459.312	255.96
459.77	271.96
460.228	258.26
460.686	243.96
461.144	244.66
461.602	246.66
462.06	238.06
462.518	256.26
462.976	256.66
463.434	258.86
463.892	262.36
464.35	282.16
464.808	293.96
465.266	263.56
465.724	271.26
466.181	273.56
466.639	271.46
467.097	289.66
467.555	293.56
468.012	302.76
468.47	311.16
468.928	325.96
469.385	344.86
469.843	350.76
470.3	355.76
470.758	368.66
471.215	386.16
471.673	411.76
472.13	407.26
472.588	423.46
473.045	382.86
473.503	381.86
473.96	393.16
474.417	405.96
474.875	436.56
475.332	476.76
475.789	466.26
476.246	472.36
476.704	492.16
477.161	508.16
477.618	528.76
478.075	567.36
478.532	620.26
478.989	705.06
479.446	810.46
479.903	775.46
480.36	809.36
480.817	869.96
481.274	974.66
481.731	1085.36
482.188	1179.96
482.645	1316.96
483.102	1429.46
483.558	1560.46
484.015	1624.86
484.472	1593.36
484.929	1539.96
485.385	1489.66
485.842	1448.16
486.299	1390.86
486.755	1316.66
487.212	1092.56
487.668	933.96
488.125	855.36
488.582	781.26
489.038	758.96
489.494	720.96
489.951	693.76
490.407	675.86
490.864	651.16
491.32	654.86
491.776	643.96
492.233	654.76
492.689	618.96
493.145	609.56
493.602	609.86
494.058	613.26
494.514	619.26
494.97	648.26
495.426	656.36
495.882	628.46
496.338	609.76
496.794	631.66
497.251	622.06
497.707	642.06
498.163	643.86
498.618	663.56
499.074	652.56
499.53	686.36
499.986	682.96
500.442	653.96
500.898	637.96
501.354	637.36
501.809	638.86
502.265	641.26
502.721	671.16
503.177	671.96
503.632	675.06
504.088	677.96
504.543	712.96
504.999	718.76
505.455	659.16
505.91	638.16
506.366	646.86
506.821	634.86
507.277	629.76
507.732	629.76
508.187	625.76
508.643	644.96
509.098	649.96
509.553	658.66
510.009	677.66
510.464	677.66
510.919	696.86
511.375	705.36
511.83	720.86
512.285	733.46
512.74	768.86
513.195	788.06
513.65	779.96
514.105	769.16
514.56	776.96
515.015	806.96
515.47	820.06
515.925	801.36
516.38	813.16
516.835	786.66
517.29	786.66
517.745	794.36
518.2	780.76
518.655	759.06
519.109	752.36
519.564	752.56
520.019	743.56
520.474	727.96
520.928	735.96
521.383	730.66
521.838	719.36
522.292	721.46
522.747	715.16
523.201	712.66
523.656	705.76
524.11	704.56
524.565	693.56
525.019	707.16
525.474	706.86
525.928	710.06
526.382	699.66
526.837	697.86
527.291	704.76
527.745	701.16
528.2	695.36
528.654	691.66
529.108	686.76
529.562	696.36
530.016	689.46
530.47	695.76
530.925	701.96
531.379	697.76
531.833	709.86
532.287	716.26
532.741	715.96
533.195	715.16
533.649	714.46
534.103	732.76
534.556	718.56
535.01	719.16
535.464	714.76
535.918	715.06
536.372	732.36
536.826	718.66
537.279	711.36
537.733	716.46
538.187	728.76
538.64	718.46
539.094	729.86
539.548	751.66
540.001	731.96
540.455	735.16
540.908	742.06
541.362	748.66
541.815	753.76
542.269	762.86
542.722	766.16
543.175	776.26
543.629	777.06
544.082	781.46
544.536	789.46
544.989	793.56
545.442	795.06
545.895	792.16
546.349	798.66
546.802	792.96
547.255	802.26
547.708	811.86
548.161	816.06
548.614	826.26
549.067	822.56
549.52	821.86
549.973	821.26
550.426	820.76
550.879	810.06
551.332	804.06
551.785	803.76
552.238	810.76
552.691	824.26
553.144	822.36
553.596	858.26
554.049	866.66
554.502	898.76
554.955	912.16
555.407	913.96
555.86	905.26
556.313	897.06
556.765	884.76
557.218	894.16
557.67	880.36
558.123	884.86
558.576	886.36
559.028	873.26
559.48	891.46
559.933	882.86
560.385	848.46
560.838	805.86
561.29	783.66
561.742	784.16
562.195	766.56
562.647	766.96
563.099	774.86
563.551	776.86
564.004	789.76
564.456	766.76
564.908	777.16
565.36	751.56
565.812	741.16
566.264	731.06
566.716	729.16
567.168	711.76
567.62	725.16
568.072	703.76
568.524	696.66
568.976	700.86
569.428	678.26
569.88	678.66
570.332	681.26
570.784	681.76
571.235	688.96
571.687	693.46
572.139	702.86
572.59	718.36
573.042	710.66
573.494	701.46
573.945	704.36
574.397	688.56
574.849	683.96
575.3	700.56
575.752	678.06
576.203	683.06
576.655	685.76
577.106	680.86
577.557	666.56
578.009	667.26
578.46	660.76
578.912	669.06
579.363	664.46
579.814	670.86
580.265	665.06
580.717	676.26
581.168	672.26
581.619	682.66
582.07	680.86
582.521	678.36
582.972	671.76
583.423	675.86
583.875	684.36
584.326	692.96
584.777	748.56
585.227	816.56
585.678	909.36
586.129	990.86
586.58	1064.66
587.031	1134.66
587.482	1286.96
587.933	1468.36
588.384	1279.36
588.834	962.76
589.285	808.96
589.736	783.06
590.186	764.96
590.637	760.26
591.088	739.36
591.538	736.56
591.989	725.46
592.439	724.86
592.89	722.16
593.34	704.06
593.791	702.06
594.241	699.66
594.692	700.36
595.142	705.36
595.593	704.26
596.043	702.66
596.493	717.56
596.943	711.56
597.394	721.96
597.844	715.86
598.294	721.56
598.744	745.16
599.195	765.66
599.645	817.16
600.095	840.56
600.545	914.36
600.995	957.66
601.445	1013.36
601.895	1082.56
602.345	1127.16
602.795	1107.66
603.245	1070.36
603.695	1001.76
604.145	947.26
604.594	905.96
605.044	849.06
605.494	795.96
605.944	742.76
606.393	739.46
606.843	722.46
607.293	727.76
607.743	725.36
608.192	733.06
608.642	749.76
609.091	757.86
609.541	764.56
609.99	760.36
610.44	759.66
610.889	707.36
611.339	698.56
611.788	676.66
612.238	700.56
612.687	710.96
613.136	715.96
613.586	729.26
614.035	726.16
614.484	751.16
614.933	744.96
615.383	736.76
615.832	736.76
616.281	722.96
616.73	680.56
617.179	656.26
617.628	641.46
618.077	620.16
618.526	616.26
618.975	609.66
619.424	602.96
619.873	598.76
620.322	611.86
620.771	602.46
621.22	598.06
621.669	582.46
622.118	578.86
622.567	576.06
623.015	564.16
623.464	558.66
623.913	557.46
624.361	544.66
624.81	542.66
625.259	549.66
625.707	552.06
626.156	551.26
626.604	555.86
627.053	554.36
627.501	561.66
627.95	564.56
628.398	577.26
628.847	558.36
629.295	553.46
629.744	557.76
630.192	566.66
630.64	559.86
631.089	557.96
631.537	569.66
631.985	579.96
632.433	595.46
632.881	596.36
633.33	648.26
633.778	624.06
634.226	563.76
634.674	564.96
635.122	568.26
635.57	572.66
636.018	617.56
636.466	574.16
636.914	541.76
637.362	561.26
637.81	566.96
638.258	570.66
638.705	569.26
639.153	600.26
639.601	602.36
640.049	632.36
640.497	664.66
640.944	685.46
641.392	633.66
641.84	603.36
642.287	572.86
642.735	559.56
643.182	562.26
643.63	569.56
644.078	564.16
644.525	578.16
644.973	591.76
645.42	588.36
645.867	609.56
646.315	626.26
646.762	648.46
647.21	689.06
647.657	702.86
648.104	738.56
648.551	762.36
648.999	815.06
649.446	895.16
649.893	985.46
650.34	1141.96
650.787	1372.86
651.234	1681.96
651.682	2195.06
652.129	3014.16
652.576	4334.16
653.023	6406.56
653.47	8809.76
653.917	11028.66
654.363	12826.06
654.81	14203.56
655.257	13506.36
655.704	8825.46
656.151	5232.06
656.598	3385.36
657.044	2392.36
657.491	1835.66
657.938	1481.26
658.385	1232.06
658.831	1074.26
659.278	954.36
659.724	831.86
660.171	781.36
660.618	709.36
661.064	674.36
661.511	658.36
661.957	640.96
662.404	631.36
662.85	640.56
663.296	611.86
663.743	556.16
664.189	533.16
664.635	519.96
665.082	507.76
665.528	519.16
665.974	513.26
666.42	501.76
666.867	495.56
667.313	475.76
667.759	465.66
668.205	464.86
668.651	475.96
669.097	478.56
669.543	494.56
669.989	460.86
670.435	438.66
670.881	423.76
671.327	443.16
671.773	461.46
672.219	472.36
672.665	529.56
673.11	561.76
673.556	607.86
674.002	654.06
674.448	639.06
674.893	532.66
675.339	465.46
675.785	428.56
676.23	407.46
676.676	389.06
677.122	375.06
677.567	369.96
678.013	358.46
678.458	353.86
678.904	348.56
679.349	336.26
679.794	339.76
680.24	344.36
680.685	337.16
681.131	337.96
681.576	336.56
682.021	349.26
682.466	338.86
682.912	336.96
683.357	342.66
683.802	370.96
684.247	399.26
684.692	433.46
685.137	473.76
685.583	507.76
686.028	547.36
686.473	502.36
686.918	435.36
687.363	405.76
687.807	377.56
688.252	347.16
688.697	347.16
689.142	330.46
689.587	317.06
690.032	309.26
690.477	338.26
690.921	344.36
691.366	370.76
691.811	382.06
692.255	416.86
692.7	441.86
693.145	486.56
693.589	662.46
694.034	1078.26
694.478	1472.76
694.923	1681.96
695.367	2204.86
695.812	1157.86
696.256	486.56
696.701	366.46
697.145	335.56
697.59	318.76
698.034	309.56
698.478	316.36
698.922	313.06
699.367	324.16
699.811	332.16
700.255	342.96
700.699	372.06
701.143	413.86
701.588	465.16
702.032	497.56
702.476	496.76
702.92	480.56
703.364	476.26
703.808	614.26
704.252	981.16
704.696	1384.86
705.14	1632.06
705.584	2078.86
706.027	1034.56
706.471	507.66
706.915	380.36
707.359	332.56
707.803	306.66
708.246	304.96
708.69	296.16
709.134	305.56
709.577	301.16
710.021	307.86
710.465	295.66
710.908	285.66
711.352	286.16
711.795	302.06
712.239	346.56
712.682	371.16
713.126	404.26
713.569	447.36
714.012	361.56
714.456	311.66
714.899	290.66
715.342	269.16
715.786	250.46
716.229	245.76
716.672	243.96
717.115	243.46
717.558	240.26
718.002	244.36
718.445	254.16
718.888	273.16
719.331	288.26
719.774	298.46
720.217	296.86
720.66	273.56
721.103	257.96
721.546	244.06
721.989	244.76
722.432	224.06
722.874	230.86
723.317	226.56
723.76	227.66
724.203	254.06
724.645	306.26
725.088	424.56
725.531	543.46
725.974	621.06
726.416	526.86
726.859	296.86
727.301	237.56
727.744	230.36
728.187	225.56
728.629	237.66
729.071	235.36
729.514	254.46
729.956	268.06
730.399	271.96
730.841	273.16
731.283	269.76
731.726	255.66
732.168	248.26
732.61	257.76
733.053	275.76
733.495	294.86
733.937	342.96
734.379	381.76
734.821	410.66
735.263	521.56
735.705	792.86
736.148	1491.96
736.59	2467.56
737.032	2966.26
737.474	2416.46
737.916	785.36
738.357	407.66
738.799	315.56
739.241	291.86
739.683	276.26
740.125	281.66
740.567	284.16
741.008	304.56
741.45	299.86
741.892	303.86
742.334	333.86
742.775	349.06
743.217	321.76
743.658	263.26
744.1	239.86
744.542	249.96
744.983	297.76
745.425	328.66
745.866	331.96
746.307	275.46
746.749	274.06
747.19	313.26
747.632	436.76
748.073	825.56
748.514	1756.96
748.956	2722.96
749.397	3406.06
749.838	2851.16
750.279	2872.86
750.72	1454.06
751.162	522.06
751.603	311.26
752.044	246.56
752.485	210.36
752.926	197.06
753.367	202.86
753.808	189.06
754.249	184.26
754.69	187.26
755.131	178.06
755.572	175.36
756.013	177.46
756.453	177.76
756.894	183.16
757.335	181.76
757.776	186.56
758.216	185.46
758.657	191.36
759.098	190.46
759.538	213.66
759.979	251.06
760.42	351.16
760.86	661.96
761.301	1694.46
761.741	4179.16
762.182	6249.46
762.622	4412.36
763.063	1269.76
763.503	526.36
763.943	337.66
764.384	322.06
764.824	382.06
765.264	417.66
765.705	288.56
766.145	200.26
766.585	178.86
767.025	168.06
767.465	182.86
767.906	227.26
768.346	293.76
768.786	326.96
769.226	247.26
769.666	304.86
770.106	580.06
770.546	1461.96
770.986	2552.86
771.426	2301.66
771.866	767.86
772.306	315.96
772.745	207.86
773.185	171.66
773.625	162.56
774.065	159.66
774.505	186.16
774.944	286.96
775.384	638.96
775.824	1181.66
776.263	1163.06
776.703	483.46
777.142	210.36
777.582	158.26
778.021	128.96
778.461	133.16
778.9	135.16
779.34	123.56
779.779	112.36
780.219	111.86
780.658	109.56
781.097	107.46
781.537	108.06
781.976	104.66
782.415	107.36
782.855	106.36
783.294	104.06
783.733	102.16
784.172	112.46
784.611	100.46
785.05	106.76
785.489	103.36
785.928	117.06
786.367	117.56
786.806	113.16
787.245	127.26
787.684	128.26
788.123	143.56
788.562	127.76
789.001	130.66
789.44	116.86
789.879	118.46
790.317	116.96
790.756	125.96
791.195	123.76
791.634	133.16
792.072	196.76
792.511	340.66
792.95	936.56
793.388	2055.46
793.827	1885.16
794.265	648.66
794.704	271.96
795.142	175.86
795.581	152.26
796.019	134.56
796.458	119.76
796.896	120.96
797.334	129.96
797.773	156.96
798.211	201.76
798.649	412.76
799.087	968.86
799.526	1525.26
799.964	1913.16
800.402	1951.86
800.84	727.66
801.278	291.16
801.716	180.16
802.154	149.06
802.592	141.36
803.03	134.86
803.468	130.96
803.906	135.76
804.344	136.76
804.782	141.36
805.22	133.96
805.658	121.46
806.096	136.36
806.533	151.26
806.971	164.96
807.409	202.36
807.847	303.46
808.284	619.26
808.722	1755.86
809.16	3151.56
809.597	2954.46
810.035	5140.56
810.472	5608.06
810.91	2026.86
811.347	759.66
811.785	391.46
812.222	249.86
812.66	186.26
813.097	156.46
813.535	137.56
813.972	123.36
814.409	110.06
814.846	102.36
815.284	107.76
815.721	98.76
816.158	101.06
816.595	114.86
817.032	169.56
817.47	191.36
817.907	164.16
818.344	143.86
818.781	106.86
819.218	100.16
819.655	117.76
820.092	167.86
820.529	205.66
820.966	171.36
821.403	127.06
821.839	103.86
822.276	100.36
822.713	111.96
823.15	126.66
823.587	118.26
824.023	138.26
824.46	280.86
824.897	840.16
825.333	1303.36
825.77	566.96
826.206	222.96
826.643	132.66
827.08	103.66
827.516	83.86
827.953	70.06
828.389	79.16
828.825	69.86
829.262	59.86
829.698	61.46
830.135	65.86
830.571	63.26
831.007	55.16
831.443	61.26
831.88	61.26
832.316	59.06
832.752	64.96
833.188	60.26
833.624	56.56
834.06	64.26
834.497	62.66
834.933	69.86
835.369	69.16
835.805	67.56
836.241	76.76
836.677	74.86
837.112	84.46
837.548	99.06
837.984	125.16
838.42	193.26
838.856	460.76
839.292	1434.66
839.727	2228.66
840.163	1044.26
840.599	871.96
841.034	1922.76
841.47	2063.26
841.906	749.26
842.341	319.06
842.777	222.86
843.212	308.36
843.648	302.76
844.083	147.86
844.519	93.56
844.954	72.56
845.39	47.76
845.825	51.76
846.261	51.76
846.696	57.86
847.131	49.16
847.566	54.76
848.002	48.36
848.437	57.16
848.872	57.46
849.307	58.16
849.742	77.56
850.177	169.66
850.613	523.16
851.048	851.06
851.483	372.16
851.918	143.56
852.353	82.06
852.788	55.96
853.223	51.66
853.657	55.06
854.092	46.06
854.527	43.46
854.962	47.46
855.397	40.76
855.832	47.96
856.266	37.96
856.701	39.56
857.136	33.96
857.57	41.76
858.005	52.16
858.44	56.76
858.874	42.76
859.309	52.26
859.743	39.56
860.178	43.96
860.612	38.26
861.047	50.16
861.481	66.36
861.915	64.56
862.35	52.06
862.784	32.86
863.218	39.86
863.653	36.06
864.087	45.26
864.521	47.96
864.955	65.16
865.39	147.06
865.824	166.56
866.258	113.06
866.692	155.36
867.126	170.16
867.56	106.96
867.994	52.76
868.428	31.66
868.862	43.86
869.296	58.96
869.73	54.86
870.164	55.16
870.598	48.86
871.031	36.36
871.465	28.06
871.899	29.46
872.333	23.56
872.766	25.66
873.2	25.66
873.634	29.46
874.067	27.86
874.501	25.66
874.935	29.76
875.368	33.86
875.802	29.76
876.235	22.76
876.669	25.76
877.102	22.46
877.535	27.36
877.969	27.26
878.402	17.26
878.836	20.06
879.269	21.66
879.702	26.06
880.135	21.66
880.569	21.66
881.002	29.56
881.435	18.26
881.868	16.66
882.301	22.46
882.734	15.26
883.167	19.86
883.601	16.06
884.034	24.86
884.467	13.26
884.899	19.96
885.332	17.26
885.765	13.56
886.198	16.16
886.631	21.26
887.064	22.76
887.497	18.26
887.929	29.86
888.362	8.96
888.795	17.26
889.228	19.46
889.66	21.46
890.093	16.36
890.526	13.66
890.958	16.86
891.391	16.46
891.823	26.86
892.256	9.76
892.688	14.06
893.121	17.06
893.553	9.56
893.985	23.46
894.418	20.06
894.85	8.76
895.282	19.46
895.715	18.36
896.147	16.56
896.579	17.36
897.011	15.16
897.444	21.26
897.876	7.86
898.308	18.16
898.74	10.06
899.172	13.76
899.604	26.36
900.036	26.36
900.468	17.26
900.9	13.86
901.332	23.46
901.764	12.66
902.196	18.16
902.628	15.36
903.06	4.96
903.491	20.36
903.923	17.26
904.355	15.96
904.787	25.06
905.218	24.16
905.65	18.46
906.082	13.26
906.513	13.06
906.945	16.56
907.376	15.76
907.808	20.56
908.239	25.66
908.671	18.66
909.102	20.46
909.534	25.16
909.965	52.26
910.397	88.06
910.828	300.66
911.259	462.76
911.691	210.26
912.122	100.46
912.553	55.46
912.984	35.06
913.415	27.16
913.847	29.56
914.278	20.76
914.709	11.26
915.14	20.96
915.571	15.56
916.002	12.56
916.433	17.96
916.864	17.66
917.295	8.86
917.726	19.86
918.157	17.66
918.587	25.86
919.018	19.56
919.449	20.36
919.88	18.26
920.311	25.66
920.741	51.06
921.172	159.36
921.603	148.36
922.033	71.26
922.464	41.06
922.895	19.86
923.325	21.06
923.756	18.96
924.186	17.76
924.617	27.46
925.047	45.16
925.478	54.36
925.908	39.56
926.338	28.46
926.769	19.66
927.199	18.06
927.629	9.86
928.06	14.26
928.49	12.46
928.92	12.46
929.35	12.56
929.78	9.56
930.21	9.36
930.641	7.06
931.071	14.16
931.501	9.46
931.931	5.46
932.361	10.86
932.791	1.86
933.221	4.46
933.651	3.46
934.08	15.06
934.51	29.66
934.94	6.76
935.37	13.46
935.8	10.46
936.229	6.76
936.659	11.66
937.089	-0.34
937.519	7.56
937.948	25.26
938.378	15.76
938.807	6.66
939.237	9.86
939.666	11.36
940.096	-3.34
940.525	2.76
940.955	-0.24
941.384	4.86
941.814	-2.24
942.243	-3.74
942.672	3.06
943.102	1.76
943.531	4.36
943.96	7.16
944.39	8.16
944.819	4.66
945.248	5.06
945.677	2.16
946.106	8.66
946.535	11.46
946.964	5.16
947.393	2.46
947.822	8.66
948.251	-5.84
948.68	3.16
949.109	1.36
949.538	4.86
949.967	3.66
950.396	4.06
950.825	-2.04
951.254	-0.54
951.682	-2.64
952.111	3.06
952.54	4.46
952.969	-2.64
953.397	-4.34
953.826	-2.34
954.254	-5.84
954.683	0.36
955.112	3.56
955.54	-1.04
955.969	6.96
956.397	4.56
956.826	-4.44
957.254	2.86
957.682	-0.74
958.111	11.26
958.539	4.26
958.967	-2.54
959.396	-5.34
959.824	-4.64
960.252	3.46
960.68	-1.74
961.109	-2.84
961.537	-6.24
961.965	3.36
962.393	-1.94
962.821	-1.54
963.249	1.36
963.677	1.96
964.105	5.86
964.533	43.16
964.961	49.26
965.389	21.36
965.817	11.26
966.245	-0.14
966.672	1.36
967.1	-5.24
967.528	-3.44
967.956	-5.14
968.383	-2.84
968.811	-2.54
969.239	-7.54
969.666	1.76
970.094	1.16
970.522	-3.44
970.949	-4.74
971.377	-8.94
971.804	-5.74
972.232	-4.34
972.659	-4.64
973.087	-3.54
973.514	-0.54
973.941	-3.54
974.369	2.56
974.796	0.36
975.223	1.06
975.651	-4.44
976.078	4.96
976.505	-1.04
976.932	3.76
977.359	13.36
977.786	12.16
978.214	2.06
978.641	-3.54
979.068	-0.74
979.495	-1.04
979.922	-1.64
980.349	-1.44
980.776	3.46
981.202	0.46
981.629	8.26
982.056	4.86
982.483	2.16
982.91	7.46
983.337	-7.94
983.763	2.36
984.19	-6.94
984.617	-4.84
985.043	-2.74
985.47	0.76
985.897	-1.94
986.323	-4.94
986.75	6.46
987.176	-3.74
987.603	0.86
988.029	1.16
988.456	-3.54
988.882	1.26
989.308	-12.64
989.735	-3.04
990.161	-1.04
990.587	-8.44
991.014	0.16
991.44	10.56
991.866	-4.64
992.292	-4.94
992.719	-5.44
993.145	5.16
993.571	-5.34
993.997	-4.94
994.423	0.76
994.849	0.16
995.275	2.06
995.701	-0.44
996.127	-6.94
996.553	-1.34
996.979	-1.34
997.405	-1.04
997.83	-6.64
998.256	-7.54
998.682	-8.44
999.108	-5.04
999.534	2.26
999.959	-3.24
1000.385	2.36
1000.811	-1.24
1001.236	-7.24
1001.662	-7.24
1002.087	-9.74
1002.513	1.76
1002.938	-0.94
1003.364	0.06
1003.789	0.66
1004.215	3.26
1004.64	-3.14
1005.066	2.06
1005.491	2.76
1005.916	2.36
1006.342	-2.74
1006.767	-9.04
1007.192	2.96
1007.617	-4.74
1008.042	-7.14
1008.468	-10.44
1008.893	-2.24
1009.318	-1.24
1009.743	-3.44
1010.168	5.36
1010.593	-1.74
1011.018	-8.84
1011.443	-3.34
1011.868	3.56
1012.293	1.66
1012.718	-2.24
1013.143	-2.94
1013.567	2.16
1013.992	-1.44
1014.417	-12.24
1014.842	3.66
1015.267	-4.44
1015.691	-3.04
1016.116	1.46
1016.541	0.16
1016.965	3.66
1017.39	4.66
1017.814	-0.44
1018.239	-0.24
1018.663	-6.04
1019.088	-9.24
1019.512	-1.74
1019.937	-0.54
1020.361	-6.24
1020.785	-9.44
1021.21	-1.14
1021.634	-4.94
1022.058	-0.44
1022.483	1.36
1022.907	-3.74
1023.331	3.56
1023.755	-1.74
1024.179	3.76
1024.604	-7.24
1025.028	-6.64
1025.452	-3.44
1025.876	2.16
1026.3	0.86
1026.724	-9.54
1027.148	-5.14
1027.572	-10.54
1027.996	-0.44
1028.42	-3.34
1028.843	-1.34
1029.267	-0.94
1029.691	-2.84
1030.115	-8.44
1030.539	-4.94
1030.962	-7.44
1031.386	-10.74
1031.81	0.36
1032.233	1.56
1032.657	-7.04
1033.08	-3.04
1033.504	-2.84
1033.927	1.26
1034.351	-0.54
1034.774	-6.84
1035.198	1.26
1035.621	-3.54
1036.045	-3.24
1036.468	-4.14
1036.891	-6.84
1037.315	-4.04
1037.738	-5.54
1038.161	0.66
1038.584	-10.34
1039.008	-3.54
1039.431	-5.04
1039.854	1.66
1040.277	-3.14
1040.7	-11.44
1041.123	1.36
1041.546	-4.94
1041.969	-3.14
1042.392	-1.54
1042.815	-4.24
1043.238	-4.14
1043.661	1.56
1044.084	-2.44
1044.507	-0.64
1044.93	-1.54
1045.352	-9.34
1045.775	-4.84
1046.198	-1.54
1046.621	-2.34
1047.043	-1.14
1047.466	5.36
1047.889	-5.74
1048.311	-12.04
1048.734	-1.04
1049.156	-2.74
1049.579	-6.54
1050.001	-2.54
1050.424	-4.94
1050.846	0.26
1051.269	-5.04
1051.691	-9.84
1052.113	-5.74
1052.536	-4.44
1052.958	-4.14
1053.38	-5.24
1053.802	-8.64
1054.225	1.36
1054.647	-7.04
1055.069	-6.54
1055.491	1.76
1055.913	-8.34
1056.335	0.66
1056.757	-5.64
1057.179	-2.44
1057.601	-5.64
1058.023	-6.04
1058.445	-6.74
1058.867	-2.34
1059.289	-3.94
1059.711	-5.84
1060.133	-3.84
1060.555	-8.34
1060.976	-8.34
1061.398	-5.14
1061.82	-2.94
1062.241	-3.74
1062.663	-0.84
1063.085	0.66
1063.506	-0.04
1063.928	-1.34
1064.35	-6.14
1064.771	-7.24
1065.193	-1.84
1065.614	-6.34
1066.035	-2.54
1066.457	-3.54
1066.878	-0.14
1067.3	-4.54
1067.721	-2.24
1068.142	-7.74
1068.564	-3.84
1068.985	2.26
1069.406	-5.54
1069.827	-3.64
1070.248	-0.24
1070.67	-7.14
1071.091	-4.44
1071.512	-3.34
1071.933	-6.44
1072.354	-9.04
1072.775	-8.34
1073.196	-10.54
1073.617	-3.34
1074.038	-6.64
1074.459	-0.34
1074.88	-11.04
1075.3	2.76
1075.721	-10.04
1076.142	3.06
1076.563	-2.54
1076.983	-6.84
1077.404	-0.34
1077.825	-4.94
1078.246	-9.34
1078.666	-9.54
1079.087	-5.14
1079.507	-1.64
1079.928	-1.34
1080.348	1.06
1080.769	-1.74
1081.189	0.06
1081.61	-1.64
1082.03	-3.54
1082.451	-3.14
1082.871	-0.54
1083.291	-0.04
1083.711	-8.74
1084.132	-1.44
1084.552	-4.04
1084.972	-1.04
1085.392	-13.64
1085.813	-11.04
1086.233	-9.74
1086.653	-1.74
1087.073	-6.14
1087.493	-8.74
1087.913	-4.84
1088.333	-7.24
1088.753	-4.24
1089.173	4.86
1089.593	-5.04
1090.013	2.56
1090.433	-2.04
1090.852	-2.14
1091.272	-0.84
1091.692	-4.34
1092.112	-1.04
1092.531	-11.14
1092.951	-13.84
1093.371	-7.44
1093.79	3.76
1094.21	-0.14
1094.63	-10.74
1095.049	-3.84
1095.469	-1.04
1095.888	-6.34
1096.308	1.06
1096.727	0.26
1097.146	-3.14
1097.566	1.46
1097.985	-6.14
1098.405	-2.74
1098.824	-7.74
1099.243	-3.04
1099.662	-3.64
1100.082	-7.24
1100.501	0.56
1100.92	-3.34
1101.339	-8.74
1101.758	-12.34
