Data from 20171114-ORNL-Ar_H_NY_Subt18_08-04-29-633.txt Node
Date: Tue Nov 14 08:04:29 EST 2017
User: Ender
Spectrometer: HR+D1039
Trigger mode: 0
Integration Time (sec): 2.730000E-2
Scans to average: 10
Electric dark correction enabled: true
Nonlinearity correction enabled: false
Boxcar width: 0
XAxis mode: Wavelengths
Number of Pixels in Spectrum: 2048
>>>>>Begin Spectral Data<<<<<
187.836	-3.48
188.309	-3.48
188.782	-3.48
189.255	0.62
189.728	-5.67
190.201	7.33
190.674	-0.58
191.147	2.82
191.619	-8.88
192.092	-0.27
192.565	2.92
193.038	-0.48
193.511	-0.58
193.984	1.73
194.456	-0.38
194.929	6.12
195.402	-1.88
195.874	0.62
196.347	-1.08
196.82	-9.58
197.292	4.52
197.765	0.93
198.237	-9.57
198.71	-8.18
199.182	-0.08
199.655	2.12
200.127	2.12
200.6	1.12
201.072	-6.88
201.544	-1.67
202.017	-2.08
202.489	7.92
202.961	-0.27
203.433	-5.08
203.906	-5.07
204.378	-7.38
204.85	-3.88
205.322	-10.68
205.794	2.72
206.266	-4.98
206.739	-5.17
207.211	5.52
207.683	-4.57
208.155	-3.08
208.627	-3.08
209.099	-2.48
209.57	-6.97
210.042	-0.78
210.514	-0.17
210.986	-3.17
211.458	-7.88
211.93	-3.08
212.402	-2.27
212.873	-5.77
213.345	-10.38
213.817	-11.77
214.288	-4.48
214.76	-4.08
215.232	-1.88
215.703	1.12
216.175	-3.48
216.646	-2.17
217.118	-12.68
217.589	-5.27
218.061	-3.38
218.532	-1.88
219.004	1.62
219.475	-1.07
219.946	-2.88
220.418	-4.57
220.889	0.42
221.36	1.62
221.832	-5.68
222.303	-6.38
222.774	2.73
223.245	-9.17
223.717	-5.38
224.188	-0.88
224.659	-7.68
225.13	-7.27
225.601	-0.18
226.072	-5.27
226.543	-1.18
227.014	0.92
227.485	-2.27
227.956	-9.17
228.427	0.23
228.898	-0.17
229.369	2.52
229.839	4.12
230.31	-1.88
230.781	4.92
231.252	-4.38
231.722	-5.08
232.193	-0.88
232.664	-2.77
233.135	2.12
233.605	4.12
234.076	-6.48
234.546	0.22
235.017	6.33
235.487	0.62
235.958	4.33
236.428	1.42
236.899	3.93
237.369	4.12
237.84	4.12
238.31	12.23
238.78	1.93
239.251	0.93
239.721	7.12
240.191	4.12
240.662	-0.27
241.132	2.62
241.602	2.12
242.072	6.42
242.542	3.33
243.013	3.42
243.483	4.52
243.953	2.73
244.423	6.73
244.893	-0.88
245.363	4.52
245.833	5.23
246.303	-0.58
246.773	3.02
247.243	2.52
247.712	7.52
248.182	7.52
248.652	9.02
249.122	0.02
249.592	16.52
250.061	26.33
250.531	39.23
251.001	19.73
251.471	30.42
251.94	22.82
252.41	8.62
252.879	2.73
253.349	19.62
253.818	12.73
254.288	7.43
254.757	11.53
255.227	6.12
255.696	2.82
256.166	4.83
256.635	11.62
257.105	10.93
257.574	14.12
258.043	11.93
258.513	17.92
258.982	21.03
259.451	5.73
259.92	11.33
260.389	15.52
260.859	16.02
261.328	6.93
261.797	21.62
262.266	10.73
262.735	13.23
263.204	7.62
263.673	4.33
264.142	6.62
264.611	-1.48
265.08	2.02
265.549	4.53
266.018	5.23
266.487	3.12
266.955	-6.88
267.424	2.93
267.893	9.53
268.362	5.83
268.83	9.73
269.299	11.73
269.768	12.12
270.236	10.33
270.705	8.02
271.174	16.73
271.642	8.32
272.111	12.52
272.579	21.42
273.048	23.12
273.516	29.43
273.985	28.62
274.453	19.62
274.922	19.62
275.39	16.22
275.858	5.92
276.327	14.52
276.795	22.33
277.263	12.42
277.731	34.92
278.2	52.72
278.668	66.02
279.136	50.73
279.604	24.52
280.072	13.02
280.54	11.43
281.008	11.23
281.477	15.42
281.945	12.73
282.413	15.32
282.881	13.02
283.348	8.73
283.816	18.73
284.284	19.62
284.752	24.42
285.22	16.33
285.688	17.92
286.156	20.43
286.623	47.83
287.091	54.02
287.559	29.83
288.026	17.52
288.494	20.52
288.962	6.02
289.429	8.72
289.897	14.83
290.364	14.82
290.832	15.53
291.3	23.33
291.767	20.93
292.234	21.23
292.702	20.33
293.169	26.12
293.637	27.83
294.104	19.62
294.571	9.62
295.039	14.32
295.506	22.62
295.973	21.73
296.44	17.83
296.908	21.12
297.375	21.62
297.842	23.42
298.309	20.12
298.776	13.23
299.243	18.92
299.71	12.82
300.177	21.52
300.644	22.62
301.111	27.93
301.578	21.82
302.045	16.43
302.512	25.93
302.979	27.33
303.446	20.52
303.913	20.03
304.379	23.62
304.846	31.23
305.313	25.12
305.78	24.32
306.246	33.73
306.713	28.32
307.18	22.53
307.646	30.22
308.113	27.52
308.579	22.73
309.046	25.73
309.512	32.23
309.979	23.32
310.445	30.62
310.912	29.82
311.378	26.23
311.845	28.62
312.311	27.52
312.777	27.52
313.244	27.83
313.71	34.42
314.176	35.23
314.642	34.62
315.109	32.83
315.575	31.93
316.041	40.02
316.507	34.72
316.973	41.73
317.439	38.12
317.905	38.93
318.371	36.92
318.837	40.83
319.303	35.73
319.769	36.03
320.235	35.12
320.701	33.82
321.167	41.32
321.633	33.03
322.099	43.32
322.564	47.12
323.03	38.92
323.496	40.02
323.962	45.93
324.427	42.83
324.893	43.32
325.359	40.52
325.824	40.92
326.29	39.12
326.755	40.42
327.221	43.22
327.686	39.02
328.152	43.43
328.617	44.93
329.083	50.12
329.548	52.52
330.014	50.23
330.479	42.02
330.944	44.62
331.41	41.73
331.875	39.03
332.34	43.62
332.805	43.32
333.271	48.33
333.736	43.92
334.201	56.83
334.666	51.42
335.131	55.23
335.596	51.52
336.061	46.12
336.526	42.12
336.991	47.12
337.456	61.53
337.921	54.92
338.386	43.12
338.851	45.92
339.316	46.83
339.781	48.43
340.246	55.52
340.711	48.23
341.175	56.33
341.64	42.33
342.105	54.33
342.569	52.12
343.034	59.32
343.499	59.12
343.963	52.43
344.428	59.93
344.893	55.12
345.357	58.62
345.822	59.22
346.286	69.83
346.751	70.83
347.215	64.12
347.679	76.62
348.144	95.42
348.608	85.83
349.073	72.52
349.537	71.43
350.001	80.73
350.465	91.83
350.93	75.73
351.394	80.23
351.858	68.73
352.322	80.62
352.786	79.43
353.25	93.02
353.715	107.12
354.179	93.02
354.643	114.93
355.107	122.12
355.571	101.33
356.035	97.42
356.498	113.73
356.962	123.72
357.426	127.22
357.89	109.02
358.354	89.02
358.818	82.33
359.281	83.43
359.745	73.43
360.209	75.83
360.673	74.12
361.136	81.62
361.6	87.52
362.064	79.53
362.527	83.52
362.991	86.12
363.454	83.33
363.918	72.92
364.381	74.12
364.845	78.92
365.308	87.23
365.772	86.12
366.235	80.83
366.698	81.92
367.162	83.12
367.625	84.23
368.088	86.82
368.552	85.82
369.015	85.23
369.478	90.02
369.941	97.92
370.404	89.82
370.867	95.42
371.331	103.82
371.794	107.02
372.257	110.23
372.72	115.42
373.183	105.23
373.646	99.42
374.109	91.53
374.572	97.92
375.035	101.52
375.497	109.72
375.96	104.43
376.423	99.72
376.886	102.93
377.349	109.52
377.811	99.12
378.274	99.73
378.737	99.52
379.199	111.33
379.662	103.62
380.125	113.53
380.587	110.83
381.05	114.33
381.512	122.22
381.975	131.82
382.437	121.73
382.9	124.92
383.362	128.12
383.825	133.93
384.287	138.23
384.75	134.32
385.212	134.52
385.674	136.02
386.136	127.73
386.599	120.12
387.061	120.62
387.523	120.83
387.985	121.32
388.447	135.32
388.91	136.62
389.372	149.83
389.834	140.12
390.296	135.73
390.758	141.12
391.22	152.73
391.682	190.62
392.144	274.52
392.606	213.52
393.068	152.73
393.529	157.12
393.991	146.52
394.453	144.73
394.915	144.62
395.377	176.62
395.838	196.12
396.3	142.82
396.762	131.53
397.224	126.52
397.685	119.42
398.147	120.43
398.608	122.43
399.07	119.43
399.531	129.62
399.993	129.53
400.454	139.62
400.916	136.02
401.377	135.43
401.839	144.62
402.3	147.42
402.762	154.83
403.223	170.12
403.684	164.62
404.145	153.62
404.607	149.33
405.068	152.32
405.529	158.33
405.99	173.12
406.451	156.72
406.913	160.82
407.374	150.52
407.835	148.52
408.296	154.23
408.757	164.52
409.218	173.62
409.679	163.62
410.14	171.33
410.601	164.42
411.062	180.83
411.522	183.12
411.983	186.82
412.444	157.83
412.905	161.93
413.366	173.23
413.826	186.52
414.287	205.02
414.748	245.63
415.208	233.72
415.669	198.72
416.13	187.72
416.59	187.82
417.051	199.12
417.511	200.72
417.972	218.92
418.432	232.52
418.893	261.73
419.353	233.12
419.814	179.52
420.274	170.12
420.734	172.62
421.195	187.22
421.655	187.12
422.115	181.52
422.576	180.52
423.036	177.83
423.496	194.12
423.956	201.42
424.416	215.52
424.876	247.12
425.336	241.72
425.797	241.12
426.257	237.22
426.717	224.12
427.177	210.13
427.637	211.12
428.097	214.22
428.556	230.63
429.016	249.32
429.476	238.62
429.936	249.62
430.396	258.62
430.856	271.22
431.315	293.42
431.775	327.12
432.235	351.93
432.694	329.03
433.154	334.93
433.614	354.52
434.073	308.42
434.533	267.53
434.993	253.23
435.452	256.12
435.912	277.33
436.371	267.62
436.83	258.62
437.29	245.22
437.749	226.63
438.209	227.12
438.668	245.52
439.127	259.23
439.587	244.03
440.046	233.32
440.505	247.73
440.964	259.12
441.424	295.53
441.883	283.03
442.342	238.53
442.801	203.13
443.26	202.23
443.719	202.02
444.178	201.43
444.637	194.33
445.096	205.62
445.555	213.02
446.014	205.62
446.473	210.32
446.932	212.42
447.391	209.62
447.849	204.53
448.308	201.93
448.767	206.22
449.226	220.53
449.685	219.02
450.143	233.52
450.602	223.83
451.061	205.82
451.519	219.53
451.978	218.02
452.436	215.63
452.895	222.12
453.353	232.12
453.812	229.33
454.27	222.12
454.729	226.53
455.187	221.52
455.646	220.03
456.104	229.52
456.562	236.33
457.021	242.93
457.479	238.23
457.937	248.92
458.395	244.12
458.854	237.63
459.312	229.23
459.77	250.73
460.228	234.22
460.686	221.43
461.144	235.02
461.602	229.42
462.06	226.33
462.518	231.12
462.976	234.42
463.434	239.73
463.892	247.23
464.35	254.12
464.808	264.52
465.266	248.82
465.724	246.53
466.181	252.23
466.639	253.62
467.097	276.52
467.555	284.23
468.012	281.52
468.47	287.52
468.928	302.92
469.385	316.42
469.843	316.62
470.3	320.12
470.758	331.52
471.215	350.62
471.673	372.73
472.13	366.33
472.588	375.63
473.045	347.62
473.503	348.73
473.96	371.43
474.417	366.02
474.875	400.62
475.332	433.02
475.789	423.33
476.246	433.12
476.704	453.72
477.161	473.23
477.618	479.32
478.075	519.12
478.532	567.93
478.989	630.23
479.446	734.83
479.903	713.42
480.36	748.43
480.817	790.83
481.274	899.52
481.731	1001.22
482.188	1086.62
482.645	1209.32
483.102	1307.03
483.558	1448.53
484.015	1491.12
484.472	1461.53
484.929	1424.93
485.385	1385.33
485.842	1325.32
486.299	1278.73
486.755	1213.02
487.212	1018.33
487.668	853.42
488.125	795.82
488.582	723.23
489.038	693.23
489.494	662.03
489.951	640.32
490.407	627.12
490.864	602.83
491.32	597.73
491.776	589.32
492.233	596.02
492.689	565.82
493.145	564.12
493.602	555.52
494.058	566.93
494.514	565.73
494.97	593.73
495.426	597.32
495.882	563.93
496.338	571.02
496.794	582.63
497.251	567.02
497.707	596.83
498.163	594.82
498.618	588.72
499.074	593.43
499.53	631.12
499.986	624.72
500.442	606.53
500.898	576.92
501.354	570.62
501.809	581.33
502.265	595.93
502.721	612.22
503.177	626.23
503.632	607.23
504.088	624.72
504.543	650.33
504.999	659.63
505.455	605.22
505.91	581.52
506.366	579.82
506.821	581.33
507.277	573.72
507.732	576.52
508.187	574.73
508.643	582.02
509.098	578.63
509.553	605.92
510.009	606.03
510.464	616.02
510.919	640.43
511.375	643.12
511.83	649.52
512.285	670.72
512.74	697.13
513.195	724.32
513.65	716.03
514.105	711.22
514.56	711.72
515.015	736.12
515.47	750.52
515.925	740.23
516.38	729.82
516.835	744.62
517.29	734.53
517.745	714.23
518.2	703.22
518.655	700.42
519.109	675.73
519.564	693.42
520.019	666.93
520.474	673.03
520.928	669.22
521.383	665.92
521.838	649.43
522.292	656.43
522.747	657.73
523.201	647.22
523.656	632.52
524.11	628.62
524.565	632.52
525.019	633.62
525.474	644.82
525.928	652.73
526.382	647.43
526.837	634.23
527.291	647.02
527.745	641.12
528.2	642.12
528.654	634.52
529.108	627.82
529.562	629.23
530.016	636.73
530.47	632.82
530.925	633.23
531.379	636.93
531.833	655.53
532.287	639.72
532.741	647.83
533.195	651.53
533.649	655.23
534.103	658.32
534.556	656.92
535.01	658.62
535.464	654.32
535.918	654.03
536.372	658.92
536.826	648.62
537.279	657.42
537.733	654.43
538.187	657.12
538.64	641.12
539.094	663.73
539.548	663.92
540.001	667.12
540.455	656.92
540.908	670.32
541.362	676.63
541.815	680.93
542.269	692.72
542.722	682.43
543.175	697.93
543.629	704.52
544.082	717.73
544.536	721.93
544.989	714.12
545.442	719.02
545.895	723.62
546.349	719.03
546.802	721.12
547.255	721.02
547.708	724.93
548.161	742.42
548.614	750.22
549.067	756.02
549.52	735.32
549.973	733.73
550.426	725.72
550.879	712.02
551.332	719.03
551.785	737.32
552.238	732.32
552.691	739.03
553.144	749.52
553.596	765.53
554.049	778.02
554.502	806.82
554.955	830.52
555.407	825.43
555.86	802.73
556.313	808.93
556.765	794.33
557.218	804.22
557.67	803.62
558.123	795.12
558.576	785.62
559.028	795.12
559.48	803.22
559.933	786.73
560.385	758.92
560.838	735.02
561.29	699.23
561.742	701.03
562.195	688.73
562.647	692.03
563.099	693.33
563.551	698.43
564.004	703.33
564.456	700.92
564.908	690.52
565.36	684.32
565.812	664.72
566.264	640.62
566.716	648.42
567.168	637.42
567.62	660.72
568.072	633.73
568.524	624.33
568.976	620.52
569.428	606.73
569.88	611.02
570.332	611.53
570.784	607.83
571.235	614.62
571.687	626.02
572.139	623.33
572.59	632.02
573.042	636.62
573.494	631.83
573.945	633.62
574.397	616.02
574.849	618.52
575.3	619.02
575.752	603.32
576.203	611.92
576.655	616.52
577.106	593.52
577.557	596.23
578.009	591.53
578.46	590.03
578.912	581.22
579.363	593.82
579.814	604.92
580.265	592.12
580.717	594.62
581.168	592.82
581.619	602.73
582.07	600.33
582.521	601.62
582.972	596.42
583.423	596.72
583.875	600.32
584.326	616.83
584.777	660.33
585.227	729.93
585.678	813.52
586.129	890.12
586.58	961.83
587.031	1039.82
587.482	1187.72
587.933	1368.62
588.384	1183.03
588.834	872.73
589.285	711.62
589.736	690.12
590.186	686.62
590.637	675.62
591.088	653.42
591.538	648.73
591.989	646.13
592.439	639.72
592.89	634.42
593.34	628.73
593.791	622.72
594.241	615.83
594.692	620.82
595.142	615.43
595.593	619.02
596.043	621.62
596.493	629.82
596.943	629.12
597.394	630.93
597.844	629.82
598.294	646.62
598.744	653.62
599.195	665.13
599.645	713.23
600.095	739.42
600.545	792.53
600.995	845.33
601.445	895.62
601.895	939.23
602.345	1000.73
602.795	978.93
603.245	937.53
603.695	890.83
604.145	839.23
604.594	807.73
605.044	754.62
605.494	697.22
605.944	663.62
606.393	648.22
606.843	631.12
607.293	638.92
607.743	636.73
608.192	651.02
608.642	660.02
609.091	665.03
609.541	669.32
609.99	675.12
610.44	668.03
610.889	624.62
611.339	614.52
611.788	596.92
612.238	608.83
612.687	625.92
613.136	630.93
613.586	637.62
614.035	656.62
614.484	659.12
614.933	660.73
615.383	653.73
615.832	643.73
616.281	631.73
616.73	583.43
617.179	579.92
617.628	562.02
618.077	547.43
618.526	538.83
618.975	535.03
619.424	530.22
619.873	536.92
620.322	539.82
620.771	521.63
621.22	518.52
621.669	507.23
622.118	507.03
622.567	497.23
623.015	493.62
623.464	485.82
623.913	478.42
624.361	470.83
624.81	472.02
625.259	475.73
625.707	476.83
626.156	480.12
626.604	493.92
627.053	483.52
627.501	489.83
627.95	487.03
628.398	505.83
628.847	492.42
629.295	484.52
629.744	494.22
630.192	487.92
630.64	486.33
631.089	485.62
631.537	491.73
631.985	498.13
632.433	509.32
632.881	521.23
633.33	555.62
633.778	533.32
634.226	469.12
634.674	488.03
635.122	493.12
635.57	518.22
636.018	534.32
636.466	491.73
636.914	474.02
637.362	484.83
637.81	490.62
638.258	496.83
638.705	492.62
639.153	509.43
639.601	521.52
640.049	546.42
640.497	577.33
640.944	589.62
641.392	554.02
641.84	516.53
642.287	491.73
642.735	483.12
643.182	485.62
643.63	485.12
644.078	489.73
644.525	496.33
644.973	501.82
645.42	510.12
645.867	527.73
646.315	543.23
646.762	558.53
647.21	591.53
647.657	607.42
648.104	642.52
648.551	649.82
648.999	710.32
649.446	769.23
649.893	845.42
650.34	977.33
650.787	1153.32
651.234	1448.03
651.682	1873.72
652.129	2555.32
652.576	3688.63
653.023	5455.82
653.47	7553.02
653.917	9578.72
654.363	11236.93
654.81	12606.02
655.257	11971.92
655.704	7748.43
656.151	4553.73
656.598	2934.12
657.044	2073.52
657.491	1581.93
657.938	1276.12
658.385	1068.23
658.831	925.23
659.278	820.62
659.724	732.62
660.171	664.33
660.618	616.62
661.064	581.92
661.511	555.93
661.957	543.33
662.404	531.02
662.85	542.53
663.296	518.73
663.743	474.92
664.189	456.42
664.635	449.12
665.082	444.12
665.528	443.72
665.974	444.02
666.42	426.92
666.867	422.02
667.313	411.82
667.759	407.83
668.205	402.03
668.651	401.62
669.097	413.52
669.543	424.42
669.989	394.32
670.435	375.83
670.881	372.42
671.327	368.62
671.773	396.12
672.219	412.22
672.665	449.03
673.11	481.02
673.556	523.02
674.002	564.23
674.448	558.83
674.893	459.43
675.339	398.33
675.785	376.32
676.23	359.83
676.676	326.32
677.122	320.53
677.567	311.82
678.013	306.52
678.458	297.23
678.904	295.12
679.349	286.32
679.794	295.32
680.24	289.12
680.685	287.93
681.131	285.93
681.576	294.52
682.021	294.52
682.466	289.62
682.912	288.12
683.357	293.43
683.802	322.42
684.247	332.22
684.692	373.42
685.137	412.62
685.583	446.62
686.028	480.42
686.473	433.42
686.918	371.62
687.363	347.33
687.807	319.53
688.252	299.72
688.697	297.42
689.142	283.23
689.587	274.92
690.032	273.12
690.477	284.83
690.921	291.72
691.366	316.73
691.811	335.33
692.255	357.13
692.7	391.02
693.145	407.62
693.589	558.53
694.034	906.62
694.478	1259.23
694.923	1470.83
695.367	1950.43
695.812	1008.83
696.256	418.92
696.701	314.53
697.145	280.82
697.59	272.02
698.034	263.42
698.478	276.53
698.922	267.92
699.367	264.43
699.811	272.93
700.255	292.12
700.699	317.73
701.143	350.73
701.588	390.83
702.032	426.32
702.476	416.23
702.92	414.73
703.364	411.12
703.808	515.52
704.252	827.52
704.696	1194.03
705.14	1415.42
705.584	1809.33
706.027	893.72
706.471	433.33
706.915	327.33
707.359	291.82
707.803	256.92
708.246	249.42
708.69	266.12
709.134	259.02
709.577	266.82
710.021	260.72
710.465	253.03
710.908	243.62
711.352	245.63
711.795	263.92
712.239	285.13
712.682	312.33
713.126	348.92
713.569	384.52
714.012	307.73
714.456	264.42
714.899	245.82
715.342	234.62
715.786	212.52
716.229	216.42
716.672	211.93
717.115	204.93
717.558	203.73
718.002	205.03
718.445	210.43
718.888	241.03
719.331	245.03
719.774	250.82
720.217	253.52
720.66	234.22
721.103	217.92
721.546	204.42
721.989	201.02
722.432	193.82
722.874	196.42
723.317	191.02
723.76	189.62
724.203	212.83
724.645	248.93
725.088	361.02
725.531	468.53
725.974	545.92
726.416	458.72
726.859	254.72
727.301	206.32
727.744	196.33
728.187	189.03
728.629	201.83
729.071	195.32
729.514	206.82
729.956	225.42
730.399	235.43
730.841	232.33
731.283	217.83
731.726	214.53
732.168	214.23
732.61	220.42
733.053	223.33
733.495	261.03
733.937	283.03
734.379	322.33
734.821	345.82
735.263	443.92
735.705	666.93
736.148	1254.83
736.59	2117.52
737.032	2598.32
737.474	2111.43
737.916	674.32
738.357	347.82
738.799	266.62
739.241	239.93
739.683	232.92
740.125	239.73
740.567	249.23
741.008	262.92
741.45	262.52
741.892	265.43
742.334	278.42
742.775	295.22
743.217	283.62
743.658	231.42
744.1	207.03
744.542	211.52
744.983	252.43
745.425	282.33
745.866	285.12
746.307	236.63
746.749	229.82
747.19	267.92
747.632	366.33
748.073	693.22
748.514	1491.73
748.956	2358.43
749.397	2945.43
749.838	2462.43
750.279	2522.93
750.72	1268.92
751.162	456.13
751.603	266.42
752.044	207.12
752.485	182.63
752.926	168.12
753.367	166.32
753.808	157.02
754.249	158.42
754.69	149.62
755.131	151.23
755.572	151.42
756.013	147.42
756.453	147.52
756.894	155.62
757.335	158.73
757.776	155.33
758.216	164.92
758.657	168.83
759.098	164.43
759.538	177.52
759.979	220.72
760.42	299.02
760.86	555.73
761.301	1445.72
761.741	3583.03
762.182	5545.43
762.622	3897.33
763.063	1093.83
763.503	446.33
763.943	282.62
764.384	281.92
764.824	332.73
765.264	383.32
765.705	260.33
766.145	179.23
766.585	157.92
767.025	146.32
767.465	152.32
767.906	199.93
768.346	267.03
768.786	288.72
769.226	216.43
769.666	257.72
770.106	493.42
770.546	1245.53
770.986	2229.62
771.426	2026.23
771.866	663.03
772.306	270.73
772.745	169.02
773.185	141.62
773.625	149.73
774.065	138.52
774.505	160.92
774.944	247.12
775.384	551.62
775.824	1059.62
776.263	1035.93
776.703	431.92
777.142	183.52
777.582	125.82
778.021	120.23
778.461	118.62
778.9	119.23
779.34	109.33
779.779	95.62
780.219	97.12
780.658	86.83
781.097	88.93
781.537	93.52
781.976	94.22
782.415	88.82
782.855	84.52
783.294	85.43
783.733	78.83
784.172	98.92
784.611	81.62
785.05	95.52
785.489	88.03
785.928	94.83
786.367	99.33
786.806	96.92
787.245	103.32
787.684	116.82
788.123	119.52
788.562	107.62
789.001	105.23
789.44	101.12
789.879	98.92
790.317	98.33
790.756	104.73
791.195	100.33
791.634	115.33
792.072	170.12
792.511	290.33
792.95	786.83
793.388	1785.12
793.827	1692.62
794.265	573.62
794.704	236.13
795.142	153.62
795.581	125.42
796.019	113.83
796.458	109.23
796.896	96.83
797.334	106.52
797.773	129.33
798.211	176.82
798.649	345.52
799.087	832.53
799.526	1326.43
799.964	1676.62
800.402	1736.83
800.84	631.02
801.278	244.73
801.716	157.52
802.154	124.82
802.592	121.83
803.03	115.93
803.468	110.73
803.906	125.43
804.344	122.12
804.782	122.43
805.22	105.32
805.658	99.12
806.096	121.73
806.533	128.92
806.971	145.72
807.409	181.32
807.847	251.53
808.284	524.53
808.722	1520.12
809.16	2762.53
809.597	2551.93
810.035	4518.62
810.472	5060.12
810.91	1792.43
811.347	670.83
811.785	338.03
812.222	215.12
812.66	161.03
813.097	135.82
813.535	116.92
813.972	105.02
814.409	100.92
814.846	89.83
815.284	99.42
815.721	88.42
816.158	90.23
816.595	94.73
817.032	149.02
817.47	173.73
817.907	145.02
818.344	123.42
818.781	92.03
819.218	83.12
819.655	101.62
820.092	155.32
820.529	184.33
820.966	147.12
821.403	110.52
821.839	94.52
822.276	79.93
822.713	101.72
823.15	110.23
823.587	93.52
824.023	120.32
824.46	235.33
824.897	717.52
825.333	1165.32
825.77	492.92
826.206	192.22
826.643	111.52
827.08	81.33
827.516	66.62
827.953	63.92
828.389	63.92
828.825	54.42
829.262	57.73
829.698	48.02
830.135	58.93
830.571	50.32
831.007	55.12
831.443	57.62
831.88	52.03
832.316	49.82
832.752	49.33
833.188	49.73
833.624	55.12
834.06	55.33
834.497	55.52
834.933	61.53
835.369	69.92
835.805	54.62
836.241	63.22
836.677	63.03
837.112	74.02
837.548	83.23
837.984	113.62
838.42	161.62
838.856	387.93
839.292	1245.43
839.727	1968.02
840.163	915.72
840.599	756.93
841.034	1699.72
841.47	1842.82
841.906	658.42
842.341	277.73
842.777	192.23
843.212	266.92
843.648	267.02
844.083	125.82
844.519	84.43
844.954	66.53
845.39	51.12
845.825	52.12
846.261	52.73
846.696	45.33
847.131	45.12
847.566	50.42
848.002	43.02
848.437	50.23
848.872	50.23
849.307	49.33
849.742	65.93
850.177	139.62
850.613	450.12
851.048	742.22
851.483	313.03
851.918	125.62
852.353	68.82
852.788	52.02
853.223	47.52
853.657	46.62
854.092	44.83
854.527	33.62
854.962	27.73
855.397	35.52
855.832	45.62
856.266	34.83
856.701	33.93
857.136	33.93
857.57	34.33
858.005	40.23
858.44	58.33
858.874	39.23
859.309	44.43
859.743	29.62
860.178	41.42
860.612	30.23
861.047	43.32
861.481	54.73
861.915	51.73
862.35	39.23
862.784	27.72
863.218	26.62
863.653	29.73
864.087	36.73
864.521	48.33
864.955	54.62
865.39	134.52
865.824	144.03
866.258	96.03
866.692	132.52
867.126	151.52
867.56	93.42
867.994	50.42
868.428	35.23
868.862	35.33
869.296	46.62
869.73	47.92
870.164	43.82
870.598	33.62
871.031	33.42
871.465	29.12
871.899	25.83
872.333	21.53
872.766	19.83
873.2	19.92
873.634	24.52
874.067	20.73
874.501	20.92
874.935	31.32
875.368	26.02
875.802	25.33
876.235	27.12
876.669	21.83
877.102	21.23
877.535	23.73
877.969	18.83
878.402	26.82
878.836	16.23
879.269	22.43
879.702	24.12
880.135	16.52
880.569	23.42
881.002	19.62
881.435	24.62
881.868	13.92
882.301	18.93
882.734	16.12
883.167	15.23
883.601	19.73
884.034	26.22
884.467	9.53
884.899	17.83
885.332	14.93
885.765	13.33
886.198	9.92
886.631	15.62
887.064	14.62
887.497	18.32
887.929	20.73
888.362	15.62
888.795	7.82
889.228	12.02
889.66	15.92
890.093	12.32
890.526	10.32
890.958	13.33
891.391	14.12
891.823	18.12
892.256	15.02
892.688	9.92
893.121	15.43
893.553	11.12
893.985	16.32
894.418	13.62
894.85	13.43
895.282	11.23
895.715	11.73
896.147	18.03
896.579	12.52
897.011	11.62
897.444	21.43
897.876	14.03
898.308	10.92
898.74	11.43
899.172	9.23
899.604	24.62
900.036	19.62
900.468	15.12
900.9	12.73
901.332	13.82
901.764	9.02
902.196	14.62
902.628	10.62
903.06	14.52
903.491	20.83
903.923	12.73
904.355	23.93
904.787	18.82
905.218	18.12
905.65	17.92
906.082	15.12
906.513	8.42
906.945	11.82
907.376	8.62
907.808	15.83
908.239	18.12
908.671	21.93
909.102	24.73
909.534	16.12
909.965	39.23
910.397	80.12
910.828	270.43
911.259	403.73
911.691	184.42
912.122	94.83
912.553	52.33
912.984	34.43
913.415	23.12
913.847	21.33
914.278	7.92
914.709	12.32
915.14	12.83
915.571	14.52
916.002	7.42
916.433	18.62
916.864	20.73
917.295	11.52
917.726	22.12
918.157	14.12
918.587	24.73
919.018	17.03
919.449	16.73
919.88	18.62
920.311	28.33
920.741	39.12
921.172	133.02
921.603	128.92
922.033	58.42
922.464	38.12
922.895	19.12
923.325	19.23
923.756	13.12
924.186	16.23
924.617	25.93
925.047	38.23
925.478	49.02
925.908	40.42
926.338	21.52
926.769	18.62
927.199	17.73
927.629	10.52
928.06	8.83
928.49	3.83
928.92	10.52
929.35	11.53
929.78	10.02
930.21	4.32
930.641	8.02
931.071	11.02
931.501	-0.38
931.931	3.33
932.361	4.52
932.791	-0.08
933.221	8.93
933.651	7.23
934.08	11.02
934.51	29.42
934.94	8.93
935.37	7.93
935.8	8.73
936.229	3.12
936.659	12.12
937.089	0.43
937.519	7.52
937.948	23.02
938.378	16.73
938.807	5.12
939.237	4.03
939.666	6.93
940.096	-1.08
940.525	0.62
940.955	-0.57
941.384	8.12
941.814	-2.08
942.243	0.02
942.672	-1.77
943.102	-1.17
943.531	5.62
943.96	1.02
944.39	-2.38
944.819	8.82
945.248	3.02
945.677	1.92
946.106	4.62
946.535	2.92
946.964	3.02
947.393	2.33
947.822	-2.38
948.251	-2.48
948.68	3.23
949.109	0.82
949.538	5.62
949.967	2.02
950.396	-4.48
950.825	-3.88
951.254	5.73
951.682	-4.88
952.111	2.83
952.54	9.83
952.969	2.52
953.397	-2.58
953.826	-1.18
954.254	-3.17
954.683	5.32
955.112	2.12
955.54	-1.88
955.969	-0.57
956.397	2.23
956.826	-0.88
957.254	3.03
957.682	8.23
958.111	5.32
958.539	-4.17
958.967	-3.57
959.396	-1.98
959.824	2.12
960.252	1.52
960.68	-7.58
961.109	0.32
961.537	5.12
961.965	-1.48
962.393	-1.38
962.821	-2.77
963.249	1.73
963.677	2.62
964.105	7.73
964.533	39.62
964.961	36.92
965.389	15.03
965.817	3.32
966.245	2.42
966.672	-4.47
967.1	-11.97
967.528	-3.28
967.956	-4.07
968.383	4.22
968.811	-3.48
969.239	2.22
969.666	-6.57
970.094	-2.07
970.522	-2.17
970.949	-3.38
971.377	-8.38
971.804	-7.77
972.232	3.12
972.659	0.73
973.087	-5.78
973.514	-4.78
973.941	0.02
974.369	3.82
974.796	1.62
975.223	-0.68
975.651	-5.38
976.078	-0.88
976.505	1.23
976.932	2.52
977.359	10.62
977.786	14.62
978.214	-2.08
978.641	-4.77
979.068	-1.18
979.495	-2.48
979.922	-1.28
980.349	-0.48
980.776	2.23
981.202	-2.77
981.629	6.23
982.056	2.22
982.483	-0.98
982.91	-0.88
983.337	-4.27
983.763	4.02
984.19	-7.08
984.617	-0.57
985.043	-2.38
985.47	3.12
985.897	-7.48
986.323	-6.88
986.75	2.62
987.176	3.52
987.603	-0.28
988.029	0.42
988.456	-2.48
988.882	2.23
989.308	-4.88
989.735	-2.08
990.161	2.12
990.587	-4.38
991.014	4.23
991.44	9.32
991.866	-3.77
992.292	-4.27
992.719	-5.27
993.145	0.62
993.571	-2.77
993.997	-5.17
994.423	0.02
994.849	-8.78
995.275	1.23
995.701	2.23
996.127	-7.88
996.553	3.33
996.979	-2.57
997.405	0.03
997.83	-5.08
998.256	-2.78
998.682	-3.27
999.108	-5.48
999.534	-1.38
999.959	-6.17
1000.385	-2.98
1000.811	4.52
1001.236	-3.78
1001.662	-2.48
1002.087	-8.07
1002.513	3.12
1002.938	0.03
1003.364	-4.38
1003.789	-0.27
1004.215	2.33
1004.64	-1.27
1005.066	3.33
1005.491	1.03
1005.916	0.22
1006.342	-3.07
1006.767	-8.17
1007.192	6.93
1007.617	-0.98
1008.042	-6.17
1008.468	-5.88
1008.893	-4.07
1009.318	-0.38
1009.743	-1.88
1010.168	4.32
1010.593	-3.77
1011.018	-6.17
1011.443	1.52
1011.868	-4.38
1012.293	-5.97
1012.718	1.83
1013.143	5.52
1013.567	1.62
1013.992	-5.58
1014.417	-12.27
1014.842	1.82
1015.267	0.73
1015.691	-3.38
1016.116	4.73
1016.541	1.02
1016.965	9.02
1017.39	6.52
1017.814	3.93
1018.239	0.42
1018.663	-1.38
1019.088	-6.98
1019.512	-4.68
1019.937	-2.88
1020.361	-3.98
1020.785	-11.38
1021.21	-0.08
1021.634	-2.88
1022.058	-1.38
1022.483	1.92
1022.907	0.12
1023.331	-4.57
1023.755	-2.08
1024.179	-0.38
1024.604	-7.57
1025.028	-8.98
1025.452	-6.77
1025.876	0.52
1026.3	3.52
1026.724	-5.18
1027.148	-5.07
1027.572	-8.88
1027.996	-4.48
1028.42	-2.18
1028.843	-2.68
1029.267	-5.48
1029.691	-2.18
1030.115	-8.98
1030.539	-6.98
1030.962	-4.77
1031.386	-5.38
1031.81	0.33
1032.233	0.33
1032.657	-3.27
1033.08	1.12
1033.504	-2.68
1033.927	-1.27
1034.351	-5.27
1034.774	-5.58
1035.198	1.62
1035.621	-0.07
1036.045	-3.27
1036.468	3.42
1036.891	-3.98
1037.315	-5.08
1037.738	-4.88
1038.161	-1.88
1038.584	0.73
1039.008	0.02
1039.431	-4.98
1039.854	-3.68
1040.277	-11.88
1040.7	-11.88
1041.123	1.02
1041.546	-7.67
1041.969	-3.77
1042.392	-6.88
1042.815	1.22
1043.238	3.12
1043.661	5.32
1044.084	-4.77
1044.507	-4.08
1044.93	-7.58
1045.352	-0.38
1045.775	5.72
1046.198	0.02
1046.621	0.93
1047.043	2.23
1047.466	5.83
1047.889	-3.68
1048.311	-2.98
1048.734	-4.38
1049.156	-6.27
1049.579	-5.18
1050.001	-6.77
1050.424	-2.08
1050.846	-0.68
1051.269	-3.38
1051.691	-6.27
1052.113	-6.58
1052.536	-1.17
1052.958	0.02
1053.38	-4.98
1053.802	-10.98
1054.225	0.73
1054.647	-10.27
1055.069	-8.68
1055.491	4.93
1055.913	-5.88
1056.335	-2.08
1056.757	-7.57
1057.179	-12.38
1057.601	-5.07
1058.023	-2.47
1058.445	-5.18
1058.867	-3.58
1059.289	1.32
1059.711	-8.38
1060.133	-5.08
1060.555	-5.68
1060.976	-8.88
1061.398	-5.98
1061.82	-6.48
1062.241	-6.68
1062.663	-11.77
1063.085	-4.48
1063.506	-0.07
1063.928	-0.48
1064.35	-0.07
1064.771	-7.38
1065.193	-2.98
1065.614	-3.17
1066.035	9.43
1066.457	-1.88
1066.878	6.73
1067.3	-7.08
1067.721	-5.77
1068.142	-2.28
1068.564	-7.27
1068.985	-7.68
1069.406	-4.57
1069.827	-5.38
1070.248	-1.88
1070.67	-3.48
1071.091	-5.47
1071.512	-5.28
1071.933	-3.88
1072.354	-8.47
1072.775	-4.57
1073.196	-9.48
1073.617	-1.48
1074.038	-2.48
1074.459	-0.38
1074.88	-4.77
1075.3	0.42
1075.721	-3.88
1076.142	8.93
1076.563	1.22
1076.983	-6.27
1077.404	-4.97
1077.825	-8.47
1078.246	-0.17
1078.666	-11.88
1079.087	-6.07
1079.507	-7.78
1079.928	5.52
1080.348	-0.38
1080.769	-7.98
1081.189	2.03
1081.61	-7.07
1082.03	-4.88
1082.451	-7.88
1082.871	-1.38
1083.291	-4.98
1083.711	-12.67
1084.132	-2.38
1084.552	-1.68
1084.972	-3.77
1085.392	-5.48
1085.813	-5.88
1086.233	-4.88
1086.653	-3.27
1087.073	-1.98
1087.493	-4.08
1087.913	-4.08
1088.333	-11.88
1088.753	-2.88
1089.173	5.22
1089.593	-7.07
1090.013	-10.08
1090.433	2.42
1090.852	-1.98
1091.272	-5.08
1091.692	-0.67
1092.112	-3.88
1092.531	-3.27
1092.951	-11.67
1093.371	3.22
1093.79	0.33
1094.21	2.83
1094.63	-5.67
1095.049	-4.38
1095.469	-0.98
1095.888	-3.18
1096.308	3.82
1096.727	7.73
1097.146	-9.57
1097.566	0.83
1097.985	-6.58
1098.405	-1.27
1098.824	-8.17
1099.243	-1.67
1099.662	-3.48
1100.082	-5.88
1100.501	-3.77
1100.92	-2.77
1101.339	-5.48
1101.758	-5.47
