Data from 20171114-ORNL-Ar_H_NY_Subt18_08-04-59-660.txt Node
Date: Tue Nov 14 08:04:59 EST 2017
User: Ender
Spectrometer: HR+D1039
Trigger mode: 0
Integration Time (sec): 2.730000E-2
Scans to average: 10
Electric dark correction enabled: true
Nonlinearity correction enabled: false
Boxcar width: 0
XAxis mode: Wavelengths
Number of Pixels in Spectrum: 2048
>>>>>Begin Spectral Data<<<<<
187.836	-3.08
188.309	-3.08
188.782	-3.08
189.255	-3.78
189.728	-1.68
190.201	5.62
190.674	4.12
191.147	-0.68
191.619	-4.28
192.092	2.52
192.565	2.52
193.038	1.32
193.511	0.62
193.984	-1.18
194.456	-1.28
194.929	1.12
195.402	0.22
195.874	-2.18
196.347	1.12
196.82	-7.98
197.292	3.72
197.765	-5.48
198.237	-3.18
198.71	-0.38
199.182	-2.48
199.655	5.92
200.127	4.22
200.6	0.72
201.072	-1.38
201.544	-9.78
202.017	-5.48
202.489	3.32
202.961	-2.68
203.433	-5.08
203.906	-8.08
204.378	-8.28
204.85	-5.28
205.322	-8.38
205.794	-2.78
206.266	-8.28
206.739	-9.98
207.211	-2.08
207.683	-14.28
208.155	-6.88
208.627	-10.88
209.099	-7.88
209.57	-11.28
210.042	-1.68
210.514	-3.38
210.986	2.22
211.458	-7.28
211.93	-5.98
212.402	2.72
212.873	-11.08
213.345	-9.58
213.817	-11.98
214.288	-6.78
214.76	-14.48
215.232	-1.68
215.703	-5.78
216.175	-0.88
216.646	0.62
217.118	-12.18
217.589	3.12
218.061	-1.58
218.532	-7.98
219.004	-5.28
219.475	-5.28
219.946	-1.78
220.418	-10.08
220.889	-2.98
221.36	0.02
221.832	-3.68
222.303	-1.98
222.774	0.82
223.245	-6.28
223.717	-2.28
224.188	-6.18
224.659	-1.58
225.13	-8.68
225.601	0.62
226.072	-1.68
226.543	0.42
227.014	-4.68
227.485	-1.38
227.956	-8.18
228.427	-2.28
228.898	1.52
229.369	6.42
229.839	-0.98
230.31	-5.28
230.781	-0.88
231.252	-6.08
231.722	-8.18
232.193	-2.18
232.664	0.92
233.135	2.22
233.605	2.62
234.076	1.22
234.546	5.02
235.017	7.52
235.487	-3.18
235.958	4.42
236.428	-2.38
236.899	7.42
237.369	7.02
237.84	0.52
238.31	6.82
238.78	1.62
239.251	0.22
239.721	5.42
240.191	-1.78
240.662	2.22
241.132	-1.68
241.602	-4.48
242.072	1.42
242.542	-0.58
243.013	-5.68
243.483	8.02
243.953	4.12
244.423	0.42
244.893	-3.38
245.363	4.12
245.833	6.32
246.303	-0.48
246.773	4.02
247.243	3.62
247.712	2.02
248.182	6.72
248.652	5.42
249.122	-3.18
249.592	11.12
250.061	18.62
250.531	36.72
251.001	14.12
251.471	26.12
251.94	26.92
252.41	11.52
252.879	8.02
253.349	11.62
253.818	10.02
254.288	11.12
254.757	10.12
255.227	8.12
255.696	5.82
256.166	10.02
256.635	8.22
257.105	6.62
257.574	5.72
258.043	13.52
258.513	17.12
258.982	16.62
259.451	4.42
259.92	13.22
260.389	7.32
260.859	16.42
261.328	17.62
261.797	24.62
262.266	11.02
262.735	9.62
263.204	11.12
263.673	1.82
264.142	9.52
264.611	3.32
265.08	-0.18
265.549	-0.48
266.018	5.82
266.487	-2.88
266.955	-3.18
267.424	-3.48
267.893	8.02
268.362	9.42
268.83	9.12
269.299	10.52
269.768	7.12
270.236	11.82
270.705	8.82
271.174	10.42
271.642	8.62
272.111	8.42
272.579	14.52
273.048	24.62
273.516	35.62
273.985	34.22
274.453	29.22
274.922	20.02
275.39	14.92
275.858	3.72
276.327	15.22
276.795	21.92
277.263	7.02
277.731	31.82
278.2	56.82
278.668	66.62
279.136	52.32
279.604	20.12
280.072	16.12
280.54	16.32
281.008	10.92
281.477	13.72
281.945	9.72
282.413	15.12
282.881	17.02
283.348	14.92
283.816	17.52
284.284	20.42
284.752	16.62
285.22	18.72
285.688	23.02
286.156	22.82
286.623	49.12
287.091	56.62
287.559	38.42
288.026	22.12
288.494	20.42
288.962	8.02
289.429	9.12
289.897	26.92
290.364	17.22
290.832	19.72
291.3	17.32
291.767	24.32
292.234	20.82
292.702	21.12
293.169	25.12
293.637	31.12
294.104	23.22
294.571	11.72
295.039	14.32
295.506	13.52
295.973	23.52
296.44	18.72
296.908	22.92
297.375	26.22
297.842	18.82
298.309	26.02
298.776	20.22
299.243	22.32
299.71	15.42
300.177	25.02
300.644	27.22
301.111	23.82
301.578	24.32
302.045	16.62
302.512	28.02
302.979	23.32
303.446	26.12
303.913	16.42
304.379	21.72
304.846	25.22
305.313	25.92
305.78	21.82
306.246	23.72
306.713	24.32
307.18	25.62
307.646	33.42
308.113	36.62
308.579	29.62
309.046	23.92
309.512	27.42
309.979	17.52
310.445	29.82
310.912	30.22
311.378	38.82
311.845	33.82
312.311	27.72
312.777	34.52
313.244	36.92
313.71	39.32
314.176	36.92
314.642	31.42
315.109	32.82
315.575	41.62
316.041	44.32
316.507	32.92
316.973	42.72
317.439	33.72
317.905	37.82
318.371	35.02
318.837	38.02
319.303	37.32
319.769	38.22
320.235	34.42
320.701	36.12
321.167	39.32
321.633	35.22
322.099	41.02
322.564	49.52
323.03	46.52
323.496	41.92
323.962	45.62
324.427	38.82
324.893	43.32
325.359	37.22
325.824	39.12
326.29	41.72
326.755	36.52
327.221	46.42
327.686	42.22
328.152	51.62
328.617	45.32
329.083	48.32
329.548	53.52
330.014	49.92
330.479	42.92
330.944	47.72
331.41	47.82
331.875	45.22
332.34	44.62
332.805	41.42
333.271	49.72
333.736	46.82
334.201	58.42
334.666	59.12
335.131	56.32
335.596	51.92
336.061	53.72
336.526	44.22
336.991	51.62
337.456	53.92
337.921	51.62
338.386	43.02
338.851	53.52
339.316	47.92
339.781	46.22
340.246	58.22
340.711	50.52
341.175	52.32
341.64	47.62
342.105	60.52
342.569	56.02
343.034	62.52
343.499	55.72
343.963	50.42
344.428	65.52
344.893	68.92
345.357	65.02
345.822	68.22
346.286	70.62
346.751	74.62
347.215	71.12
347.679	80.42
348.144	100.82
348.608	85.52
349.073	70.42
349.537	76.52
350.001	77.42
350.465	92.02
350.93	79.62
351.394	87.12
351.858	76.42
352.322	87.12
352.786	82.52
353.25	100.92
353.715	109.52
354.179	109.92
354.643	124.82
355.107	129.42
355.571	107.42
356.035	105.92
356.498	125.32
356.962	125.62
357.426	136.02
357.89	120.72
358.354	98.02
358.818	81.02
359.281	86.92
359.745	78.32
360.209	86.82
360.673	77.82
361.136	77.72
361.6	79.32
362.064	77.32
362.527	87.72
362.991	91.52
363.454	81.62
363.918	80.52
364.381	82.22
364.845	87.52
365.308	87.92
365.772	92.72
366.235	91.12
366.698	91.22
367.162	89.72
367.625	95.32
368.088	89.12
368.552	95.32
369.015	90.72
369.478	100.72
369.941	99.52
370.404	100.72
370.867	104.22
371.331	109.12
371.794	113.82
372.257	117.72
372.72	114.72
373.183	113.32
373.646	102.52
374.109	106.12
374.572	105.52
375.035	106.82
375.497	110.82
375.96	101.32
376.423	100.92
376.886	115.22
377.349	115.32
377.811	101.72
378.274	104.52
378.737	103.12
379.199	112.62
379.662	115.52
380.125	120.82
380.587	118.62
381.05	127.02
381.512	126.72
381.975	139.32
382.437	135.22
382.9	129.12
383.362	131.22
383.825	136.12
384.287	149.32
384.75	139.62
385.212	147.12
385.674	140.42
386.136	137.02
386.599	127.62
387.061	134.12
387.523	130.92
387.985	132.72
388.447	147.92
388.91	142.52
389.372	153.12
389.834	149.02
390.296	140.82
390.758	153.32
391.22	176.12
391.682	204.32
392.144	292.23
392.606	234.62
393.068	169.52
393.529	167.72
393.991	151.12
394.453	145.12
394.915	158.72
395.377	188.72
395.838	209.82
396.3	155.42
396.762	140.42
397.224	139.22
397.685	127.22
398.147	136.42
398.608	133.92
399.07	131.62
399.531	138.02
399.993	143.92
400.454	154.02
400.916	145.12
401.377	143.52
401.839	152.52
402.3	148.42
402.762	167.12
403.223	185.92
403.684	167.62
404.145	162.22
404.607	157.42
405.068	167.62
405.529	162.62
405.99	190.32
406.451	175.22
406.913	173.62
407.374	166.62
407.835	157.72
408.296	171.02
408.757	170.92
409.218	183.72
409.679	184.62
410.14	174.82
410.601	176.42
411.062	182.12
411.522	190.92
411.983	187.72
412.444	177.22
412.905	183.02
413.366	183.82
413.826	192.72
414.287	213.23
414.748	265.32
415.208	244.62
415.669	214.82
416.13	211.42
416.59	204.22
417.051	211.52
417.511	217.72
417.972	236.92
418.432	241.62
418.893	286.42
419.353	248.12
419.814	202.22
420.274	189.32
420.734	183.32
421.195	196.52
421.655	194.02
422.115	191.42
422.576	187.12
423.036	188.92
423.496	202.92
423.956	214.02
424.416	222.32
424.876	261.32
425.336	259.82
425.797	255.62
426.257	251.92
426.717	238.33
427.177	231.02
427.637	219.92
428.097	235.72
428.556	239.82
429.016	263.02
429.476	256.82
429.936	270.22
430.396	273.92
430.856	292.42
431.315	304.62
431.775	355.92
432.235	371.52
432.694	341.92
433.154	366.32
433.614	383.02
434.073	328.92
434.533	285.72
434.993	271.82
435.452	281.42
435.912	290.12
436.371	288.12
436.83	276.02
437.29	264.22
437.749	248.52
438.209	246.72
438.668	275.52
439.127	285.52
439.587	261.52
440.046	246.42
440.505	258.72
440.964	271.52
441.424	307.72
441.883	309.22
442.342	254.72
442.801	221.42
443.26	217.62
443.719	218.92
444.178	213.82
444.637	205.22
445.096	224.52
445.555	224.62
446.014	225.72
446.473	221.92
446.932	226.22
447.391	228.62
447.849	224.22
448.308	218.12
448.767	214.32
449.226	231.32
449.685	235.02
450.143	245.52
450.602	230.22
451.061	228.22
451.519	231.02
451.978	221.42
452.436	227.62
452.895	246.92
453.353	254.52
453.812	243.12
454.27	241.82
454.729	242.72
455.187	235.32
455.646	236.52
456.104	242.23
456.562	255.12
457.021	269.82
457.479	258.32
457.937	266.92
458.395	259.82
458.854	255.02
459.312	243.92
459.77	272.92
460.228	249.52
460.686	241.02
461.144	246.12
461.602	245.82
462.06	239.42
462.518	249.02
462.976	244.92
463.434	247.02
463.892	255.52
464.35	278.72
464.808	282.02
465.266	270.32
465.724	266.42
466.181	267.12
466.639	267.72
467.097	283.73
467.555	296.23
468.012	302.42
468.47	312.12
468.928	325.72
469.385	342.22
469.843	348.82
470.3	342.92
470.758	358.02
471.215	379.52
471.673	400.72
472.13	407.02
472.588	412.82
473.045	365.83
473.503	371.72
473.96	389.52
474.417	402.12
474.875	424.52
475.332	469.82
475.789	458.82
476.246	464.22
476.704	481.12
477.161	512.92
477.618	513.12
478.075	553.02
478.532	611.73
478.989	681.92
479.446	805.33
479.903	768.12
480.36	809.42
480.817	870.02
481.274	956.32
481.731	1067.82
482.188	1150.03
482.645	1286.72
483.102	1405.32
483.558	1524.32
484.015	1578.72
484.472	1552.92
484.929	1515.92
485.385	1466.83
485.842	1422.62
486.299	1360.92
486.755	1277.22
487.212	1093.72
487.668	913.72
488.125	834.32
488.582	773.62
489.038	736.12
489.494	708.12
489.951	684.02
490.407	666.02
490.864	646.42
491.32	636.73
491.776	633.02
492.233	634.12
492.689	606.02
493.145	595.22
493.602	585.72
494.058	604.72
494.514	614.22
494.97	630.02
495.426	644.12
495.882	622.52
496.338	609.82
496.794	629.02
497.251	611.02
497.707	620.33
498.163	627.52
498.618	636.92
499.074	642.82
499.53	674.62
499.986	666.42
500.442	637.22
500.898	625.22
501.354	618.82
501.809	628.42
502.265	638.02
502.721	653.72
503.177	659.42
503.632	658.82
504.088	667.42
504.543	703.42
504.999	698.42
505.455	656.32
505.91	623.42
506.366	630.72
506.821	619.22
507.277	617.52
507.732	615.52
508.187	619.52
508.643	631.23
509.098	624.12
509.553	643.82
510.009	664.62
510.464	659.22
510.919	688.23
511.375	688.32
511.83	689.32
512.285	707.82
512.74	759.02
513.195	766.82
513.65	761.52
514.105	748.62
514.56	776.42
515.015	780.22
515.47	810.42
515.925	784.72
516.38	788.52
516.835	780.32
517.29	771.12
517.745	774.52
518.2	751.92
518.655	744.72
519.109	732.62
519.564	730.62
520.019	723.92
520.474	714.33
520.928	720.32
521.383	712.22
521.838	703.42
522.292	705.42
522.747	697.92
523.201	685.82
523.656	692.23
524.11	680.52
524.565	675.12
525.019	676.02
525.474	693.42
525.928	684.52
526.382	677.72
526.837	686.73
527.291	691.22
527.745	687.42
528.2	683.32
528.654	683.92
529.108	686.62
529.562	675.12
530.016	684.12
530.47	680.22
530.925	677.92
531.379	681.62
531.833	700.72
532.287	687.12
532.741	691.42
533.195	696.12
533.649	696.82
534.103	706.42
534.556	690.42
535.01	694.52
535.464	697.82
535.918	709.22
536.372	708.32
536.826	697.12
537.279	693.52
537.733	700.73
538.187	699.12
538.64	705.42
539.094	710.42
539.548	719.82
540.001	695.72
540.455	707.92
540.908	720.62
541.362	715.82
541.815	730.02
542.269	747.82
542.722	740.92
543.175	758.22
543.629	762.22
544.082	765.52
544.536	762.02
544.989	764.72
545.442	785.52
545.895	772.12
546.349	771.02
546.802	771.82
547.255	774.62
547.708	784.82
548.161	797.12
548.614	807.52
549.067	812.12
549.52	799.52
549.973	801.92
550.426	786.82
550.879	774.92
551.332	792.02
551.785	782.92
552.238	793.12
552.691	808.02
553.144	815.82
553.596	826.22
554.049	840.42
554.502	874.02
554.955	888.62
555.407	879.62
555.86	882.92
556.313	872.02
556.765	871.22
557.218	853.52
557.67	859.12
558.123	849.22
558.576	857.52
559.028	857.22
559.48	863.32
559.933	854.52
560.385	811.12
560.838	779.22
561.29	761.22
561.742	750.02
562.195	746.42
562.647	726.02
563.099	751.32
563.551	744.42
564.004	761.22
564.456	746.22
564.908	742.72
565.36	729.02
565.812	718.12
566.264	700.12
566.716	691.22
567.168	678.02
567.62	699.22
568.072	674.82
568.524	667.52
568.976	664.62
569.428	655.02
569.88	640.82
570.332	646.12
570.784	665.12
571.235	657.12
571.687	669.02
572.139	674.12
572.59	688.52
573.042	686.92
573.494	688.52
573.945	686.42
574.397	656.02
574.849	661.62
575.3	665.82
575.752	658.52
576.203	657.32
576.655	658.22
577.106	650.52
577.557	644.02
578.009	637.92
578.46	641.92
578.912	641.62
579.363	644.52
579.814	636.02
580.265	637.02
580.717	639.72
581.168	646.82
581.619	645.02
582.07	661.22
582.521	653.52
582.972	641.92
583.423	652.62
583.875	650.52
584.326	668.32
584.777	711.52
585.227	785.02
585.678	871.92
586.129	954.42
586.58	1031.02
587.031	1103.03
587.482	1258.72
587.933	1446.52
588.384	1247.03
588.834	933.12
589.285	773.32
589.736	746.62
590.186	736.72
590.637	738.02
591.088	709.33
591.538	702.42
591.989	697.23
592.439	694.52
592.89	691.82
593.34	680.02
593.791	678.32
594.241	671.92
594.692	666.02
595.142	668.42
595.593	671.62
596.043	673.12
596.493	680.73
596.943	681.52
597.394	690.73
597.844	676.42
598.294	698.02
598.744	713.12
599.195	733.02
599.645	776.62
600.095	810.02
600.545	866.12
600.995	902.22
601.445	967.62
601.895	1023.33
602.345	1079.62
602.795	1060.82
603.245	1005.52
603.695	962.82
604.145	903.92
604.594	852.83
605.044	809.22
605.494	757.92
605.944	708.72
606.393	693.72
606.843	687.72
607.293	701.92
607.743	697.23
608.192	707.22
608.642	718.73
609.091	730.02
609.541	732.82
609.99	725.72
610.44	728.02
610.889	686.33
611.339	660.12
611.788	644.62
612.238	664.12
612.687	677.02
613.136	680.52
613.586	692.12
614.035	697.72
614.484	713.72
614.933	705.42
615.383	712.32
615.832	696.12
616.281	667.72
616.73	650.12
617.179	628.12
617.628	613.82
618.077	602.42
618.526	584.22
618.975	580.22
619.424	579.92
619.873	571.92
620.322	575.52
620.771	574.23
621.22	563.92
621.669	557.83
622.118	553.02
622.567	551.42
623.015	536.42
623.464	533.12
623.913	524.42
624.361	517.12
624.81	516.02
625.259	518.92
625.707	518.72
626.156	519.72
626.604	530.52
627.053	529.02
627.501	523.02
627.95	534.42
628.398	541.92
628.847	532.83
629.295	532.32
629.744	540.82
630.192	533.02
630.64	531.02
631.089	532.42
631.537	539.92
631.985	542.42
632.433	558.92
632.881	561.42
633.33	606.62
633.778	594.12
634.226	521.12
634.674	531.12
635.122	536.12
635.57	554.52
636.018	580.22
636.466	546.32
636.914	520.23
637.362	532.62
637.81	541.12
638.258	539.33
638.705	524.22
639.153	553.32
639.601	574.12
640.049	587.12
640.497	629.12
640.944	652.12
641.392	593.12
641.84	572.92
642.287	540.23
642.735	521.42
643.182	528.83
643.63	531.52
644.078	536.22
644.525	549.02
644.973	551.32
645.42	560.02
645.867	575.42
646.315	587.42
646.762	608.92
647.21	642.02
647.657	656.02
648.104	697.02
648.551	705.52
648.999	769.12
649.446	845.12
649.893	924.22
650.34	1061.82
650.787	1268.92
651.234	1583.53
651.682	2056.52
652.129	2823.32
652.576	4057.32
653.023	5955.02
653.47	8230.92
653.917	10379.12
654.363	12080.33
654.81	13491.43
655.257	12842.12
655.704	8377.62
656.151	4943.02
656.598	3186.32
657.044	2256.12
657.491	1730.62
657.938	1382.62
658.385	1153.92
658.831	1009.12
659.278	884.22
659.724	790.02
660.171	733.12
660.618	673.52
661.064	634.33
661.511	615.12
661.957	599.02
662.404	585.22
662.85	606.12
663.296	571.72
663.743	520.52
664.189	497.62
664.635	495.42
665.082	482.32
665.528	479.62
665.974	481.32
666.42	471.72
666.867	469.32
667.313	452.82
667.759	432.62
668.205	441.82
668.651	448.62
669.097	455.62
669.543	466.02
669.989	430.92
670.435	406.92
670.881	404.83
671.327	409.52
671.773	430.02
672.219	438.92
672.665	495.22
673.11	526.42
673.556	575.82
674.002	616.02
674.448	602.62
674.893	501.23
675.339	440.02
675.785	406.82
676.23	377.32
676.676	355.82
677.122	347.02
677.567	339.72
678.013	334.82
678.458	326.32
678.904	335.22
679.349	320.02
679.794	322.62
680.24	318.02
680.685	316.32
681.131	316.32
681.576	319.92
682.021	325.62
682.466	320.62
682.912	318.12
683.357	326.73
683.802	343.72
684.247	366.02
684.692	408.82
685.137	453.42
685.583	479.62
686.028	512.52
686.473	468.62
686.918	397.62
687.363	386.62
687.807	355.52
688.252	336.42
688.697	315.42
689.142	312.02
689.587	305.62
690.032	286.82
690.477	310.52
690.921	313.62
691.366	348.92
691.811	363.52
692.255	392.32
692.7	417.62
693.145	455.22
693.589	615.92
694.034	1009.12
694.478	1382.73
694.923	1600.82
695.367	2086.12
695.812	1096.92
696.256	454.22
696.701	328.02
697.145	312.42
697.59	295.92
698.034	295.12
698.478	295.52
698.922	297.92
699.367	293.12
699.811	310.32
700.255	319.33
700.699	344.32
701.143	386.52
701.588	424.72
702.032	466.42
702.476	472.42
702.92	451.92
703.364	440.32
703.808	549.92
704.252	920.42
704.696	1300.42
705.14	1535.72
705.584	1965.43
706.027	972.62
706.471	474.82
706.915	356.92
707.359	319.12
707.803	292.32
708.246	287.12
708.69	283.42
709.134	285.92
709.577	278.52
710.021	285.92
710.465	277.32
710.908	271.12
711.352	264.82
711.795	279.62
712.239	312.52
712.682	347.72
713.126	380.52
713.569	430.12
714.012	340.42
714.456	295.92
714.899	265.12
715.342	244.22
715.786	235.73
716.229	238.32
716.672	229.02
717.115	225.02
717.558	232.12
718.002	227.82
718.445	238.02
718.888	257.72
719.331	266.22
719.774	279.52
720.217	273.92
720.66	252.12
721.103	251.72
721.546	229.02
721.989	224.12
722.432	213.32
722.874	215.62
723.317	203.42
723.76	222.22
724.203	231.22
724.645	284.23
725.088	398.62
725.531	508.22
725.974	590.32
726.416	494.72
726.859	279.12
727.301	231.42
727.744	210.22
728.187	216.22
728.629	213.42
729.071	225.32
729.514	237.82
729.956	243.92
730.399	257.42
730.841	255.52
731.283	245.52
731.726	240.83
732.168	234.72
732.61	238.02
733.053	255.72
733.495	274.22
733.937	309.22
734.379	359.72
734.821	394.32
735.263	476.02
735.705	733.02
736.148	1384.82
736.59	2310.93
737.032	2823.93
737.474	2280.93
737.916	734.42
738.357	392.92
738.799	298.32
739.241	272.92
739.683	254.62
740.125	264.92
740.567	262.42
741.008	279.82
741.45	281.23
741.892	285.82
742.334	307.42
742.775	330.02
743.217	303.12
743.658	241.22
744.1	227.42
744.542	237.62
744.983	284.92
745.425	314.32
745.866	311.22
746.307	252.62
746.749	254.62
747.19	289.33
747.632	407.62
748.073	764.02
748.514	1637.92
748.956	2580.03
749.397	3207.53
749.838	2674.73
750.279	2735.03
750.72	1360.02
751.162	494.82
751.603	290.12
752.044	229.32
752.485	197.12
752.926	191.22
753.367	183.32
753.808	164.32
754.249	171.62
754.69	166.72
755.131	164.52
755.572	164.82
756.013	161.02
756.453	163.42
756.894	170.32
757.335	173.92
757.776	174.52
758.216	184.12
758.657	176.62
759.098	181.52
759.538	204.42
759.979	242.52
760.42	325.32
760.86	608.42
761.301	1581.12
761.741	3895.02
762.182	5927.92
762.622	4198.62
763.063	1198.12
763.503	482.22
763.943	312.72
764.384	308.32
764.824	374.12
765.264	413.32
765.705	278.02
766.145	186.02
766.585	164.12
767.025	162.62
767.465	172.02
767.906	218.12
768.346	301.42
768.786	318.62
769.226	237.82
769.666	279.82
770.106	546.82
770.546	1353.93
770.986	2405.73
771.426	2183.02
771.866	722.72
772.306	292.92
772.745	193.22
773.185	151.92
773.625	155.72
774.065	155.02
774.505	175.42
774.944	266.62
775.384	593.92
775.824	1101.42
776.263	1095.12
776.703	460.32
777.142	201.92
777.582	134.82
778.021	120.52
778.461	127.62
778.9	127.42
779.34	118.92
779.779	106.42
780.219	93.12
780.658	97.72
781.097	98.42
781.537	106.02
781.976	95.12
782.415	98.42
782.855	97.12
783.294	97.92
783.733	91.42
784.172	94.92
784.611	94.72
785.05	93.32
785.489	95.82
785.928	105.22
786.367	106.32
786.806	101.22
787.245	112.92
787.684	120.12
788.123	141.92
788.562	126.32
789.001	121.42
789.44	106.92
789.879	108.02
790.317	110.32
790.756	118.12
791.195	110.12
791.634	128.52
792.072	185.92
792.511	314.92
792.95	862.62
793.388	1951.72
793.827	1787.42
794.265	619.22
794.704	251.73
795.142	160.12
795.581	140.82
796.019	124.02
796.458	113.22
796.896	107.32
797.334	113.32
797.773	137.72
798.211	194.02
798.649	377.92
799.087	899.42
799.526	1427.32
799.964	1810.03
800.402	1853.93
800.84	686.02
801.278	269.92
801.716	166.32
802.154	136.72
802.592	127.82
803.03	124.92
803.468	124.12
803.906	128.62
804.344	136.72
804.782	122.72
805.22	116.72
805.658	120.82
806.096	133.62
806.533	141.92
806.971	153.82
807.409	187.52
807.847	279.72
808.284	571.62
808.722	1651.92
809.16	2994.32
809.597	2771.32
810.035	4882.82
810.472	5388.73
810.91	1915.93
811.347	721.83
811.785	363.92
812.222	239.22
812.66	183.72
813.097	153.32
813.535	135.22
813.972	120.82
814.409	109.72
814.846	106.42
815.284	95.82
815.721	94.72
816.158	91.62
816.595	103.52
817.032	163.12
817.47	186.82
817.907	142.12
818.344	133.62
818.781	110.42
819.218	87.72
819.655	111.32
820.092	168.82
820.529	199.72
820.966	160.22
821.403	118.82
821.839	96.12
822.276	100.82
822.713	112.42
823.15	120.12
823.587	96.62
824.023	125.32
824.46	257.02
824.897	776.82
825.333	1237.12
825.77	528.22
826.206	207.82
826.643	122.12
827.08	87.62
827.516	79.42
827.953	62.92
828.389	70.42
828.825	57.62
829.262	60.12
829.698	54.02
830.135	55.22
830.571	62.22
831.007	59.72
831.443	61.12
831.88	58.62
832.316	53.82
832.752	59.32
833.188	59.62
833.624	55.52
834.06	57.82
834.497	56.92
834.933	65.12
835.369	62.02
835.805	58.12
836.241	66.32
836.677	66.62
837.112	82.32
837.548	85.82
837.984	115.82
838.42	179.42
838.856	425.42
839.292	1342.32
839.727	2105.23
840.163	980.72
840.599	813.92
841.034	1816.53
841.47	1961.82
841.906	709.22
842.341	301.52
842.777	211.12
843.212	282.62
843.648	278.32
844.083	140.02
844.519	86.62
844.954	69.92
845.39	48.52
845.825	48.92
846.261	51.62
846.696	45.02
847.131	50.82
847.566	57.12
848.002	46.22
848.437	49.62
848.872	51.02
849.307	53.12
849.742	74.02
850.177	157.02
850.613	494.62
851.048	814.62
851.483	352.62
851.918	142.22
852.353	82.12
852.788	56.82
853.223	58.12
853.657	55.02
854.092	43.42
854.527	38.92
854.962	36.62
855.397	37.92
855.832	43.62
856.266	39.42
856.701	34.72
857.136	30.42
857.57	35.32
858.005	40.02
858.44	56.12
858.874	40.62
859.309	50.92
859.743	37.22
860.178	44.32
860.612	37.42
861.047	42.12
861.481	63.92
861.915	62.72
862.35	49.32
862.784	32.12
863.218	36.52
863.653	32.12
864.087	36.52
864.521	52.42
864.955	60.32
865.39	147.92
865.824	163.42
866.258	97.52
866.692	144.72
867.126	168.22
867.56	92.72
867.994	51.22
868.428	32.52
868.862	39.22
869.296	52.12
869.73	55.72
870.164	46.92
870.598	45.42
871.031	36.02
871.465	29.62
871.899	31.32
872.333	17.22
872.766	20.22
873.2	18.92
873.634	27.02
874.067	25.52
874.501	21.22
874.935	26.42
875.368	30.92
875.802	28.02
876.235	22.82
876.669	20.22
877.102	20.42
877.535	22.82
877.969	22.02
878.402	24.42
878.836	15.62
879.269	14.62
879.702	22.42
880.135	21.22
880.569	22.12
881.002	28.02
881.435	15.52
881.868	12.82
882.301	24.02
882.734	14.92
883.167	19.52
883.601	16.92
884.034	19.22
884.467	9.42
884.899	18.42
885.332	13.92
885.765	11.92
886.198	11.12
886.631	15.02
887.064	21.02
887.497	16.62
887.929	23.42
888.362	16.32
888.795	13.52
889.228	15.42
889.66	15.72
890.093	14.82
890.526	19.82
890.958	14.92
891.391	13.82
891.823	23.42
892.256	17.42
892.688	9.72
893.121	11.82
893.553	13.12
893.985	20.12
894.418	18.02
894.85	7.12
895.282	11.92
895.715	15.92
896.147	13.72
896.579	14.92
897.011	9.12
897.444	16.92
897.876	10.62
898.308	12.32
898.74	14.32
899.172	13.52
899.604	16.12
900.036	16.72
900.468	15.12
900.9	7.12
901.332	21.52
901.764	8.92
902.196	21.92
902.628	14.02
903.06	11.82
903.491	27.92
903.923	20.02
904.355	19.72
904.787	20.92
905.218	20.92
905.65	16.32
906.082	10.12
906.513	7.82
906.945	12.12
907.376	11.62
907.808	19.92
908.239	20.22
908.671	22.92
909.102	17.82
909.534	27.62
909.965	41.02
910.397	77.92
910.828	284.62
911.259	442.62
911.691	198.52
912.122	95.62
912.553	47.22
912.984	33.42
913.415	25.32
913.847	19.12
914.278	12.92
914.709	8.12
915.14	13.52
915.571	18.72
916.002	11.52
916.433	17.12
916.864	18.42
917.295	13.12
917.726	15.32
918.157	12.72
918.587	25.82
919.018	20.72
919.449	20.42
919.88	18.42
920.311	24.12
920.741	42.12
921.172	153.92
921.603	140.02
922.033	64.22
922.464	38.32
922.895	20.32
923.325	20.42
923.756	8.12
924.186	13.12
924.617	24.82
925.047	41.92
925.478	41.92
925.908	38.02
926.338	21.32
926.769	15.32
927.199	20.22
927.629	8.72
928.06	16.62
928.49	8.72
928.92	15.42
929.35	9.02
929.78	8.22
930.21	5.62
930.641	13.22
931.071	7.02
931.501	2.42
931.931	3.92
932.361	5.92
932.791	-1.98
933.221	6.32
933.651	7.62
934.08	16.92
934.51	24.92
934.94	10.62
935.37	12.82
935.8	11.82
936.229	12.12
936.659	7.22
937.089	0.92
937.519	12.52
937.948	19.12
938.378	11.22
938.807	2.52
939.237	1.42
939.666	5.42
940.096	-7.58
940.525	1.32
940.955	-2.68
941.384	-9.38
941.814	-3.38
942.243	1.52
942.672	5.32
943.102	-0.18
943.531	2.52
943.96	2.92
944.39	3.72
944.819	0.72
945.248	3.02
945.677	-1.98
946.106	2.92
946.535	2.42
946.964	-1.48
947.393	-0.78
947.822	1.12
948.251	-6.68
948.68	1.62
949.109	3.82
949.538	10.72
949.967	-1.68
950.396	0.92
950.825	-3.38
951.254	0.32
951.682	-8.98
952.111	-2.08
952.54	9.62
952.969	-3.28
953.397	-1.68
953.826	-0.38
954.254	-4.98
954.683	-1.78
955.112	-5.08
955.54	1.82
955.969	6.32
956.397	4.02
956.826	2.62
957.254	3.92
957.682	-0.38
958.111	5.22
958.539	-0.08
958.967	2.72
959.396	0.82
959.824	7.92
960.252	-0.78
960.68	-3.88
961.109	3.02
961.537	-6.48
961.965	0.72
962.393	-3.18
962.821	-4.48
963.249	2.02
963.677	1.92
964.105	-2.78
964.533	40.42
964.961	34.72
965.389	21.22
965.817	2.42
966.245	2.42
966.672	-1.18
967.1	-2.48
967.528	-1.98
967.956	-4.08
968.383	1.72
968.811	-0.88
969.239	-7.88
969.666	-2.18
970.094	0.72
970.522	-3.38
970.949	-4.68
971.377	-2.48
971.804	-5.18
972.232	-1.88
972.659	-3.48
973.087	-3.78
973.514	-3.38
973.941	-6.48
974.369	-1.88
974.796	-2.18
975.223	1.72
975.651	-0.08
976.078	-0.58
976.505	5.12
976.932	2.52
977.359	17.82
977.786	15.72
978.214	7.42
978.641	1.32
979.068	-10.38
979.495	-7.58
979.922	-2.98
980.349	2.02
980.776	2.82
981.202	2.12
981.629	2.92
982.056	7.22
982.483	-2.28
982.91	3.72
983.337	-5.38
983.763	1.22
984.19	-4.48
984.617	-4.08
985.043	-3.18
985.47	1.02
985.897	-4.88
986.323	-8.98
986.75	-2.28
987.176	-2.98
987.603	-0.68
988.029	-3.08
988.456	-0.98
988.882	-0.58
989.308	-3.48
989.735	-8.38
990.161	-1.68
990.587	-5.68
991.014	1.02
991.44	4.02
991.866	1.32
992.292	-0.08
992.719	0.22
993.145	6.52
993.571	-7.88
993.997	-8.78
994.423	-5.78
994.849	-6.98
995.275	-0.58
995.701	-2.48
996.127	-4.38
996.553	0.42
996.979	-5.88
997.405	0.62
997.83	0.02
998.256	-8.58
998.682	-3.88
999.108	-8.58
999.534	0.72
999.959	-3.78
1000.385	-1.28
1000.811	-0.38
1001.236	-7.28
1001.662	-9.68
1002.087	-6.78
1002.513	-5.98
1002.938	6.62
1003.364	0.42
1003.789	-1.58
1004.215	4.32
1004.64	-1.68
1005.066	-0.78
1005.491	-1.08
1005.916	1.02
1006.342	-1.08
1006.767	-6.28
1007.192	6.32
1007.617	-4.28
1008.042	-0.68
1008.468	2.12
1008.893	-2.08
1009.318	-5.48
1009.743	-5.78
1010.168	0.32
1010.593	-1.18
1011.018	-8.88
1011.443	-3.28
1011.868	-0.68
1012.293	-3.48
1012.718	-7.38
1013.143	-5.68
1013.567	4.02
1013.992	2.62
1014.417	-15.48
1014.842	0.62
1015.267	-2.48
1015.691	-7.48
1016.116	4.62
1016.541	-8.18
1016.965	2.12
1017.39	7.92
1017.814	-0.58
1018.239	-3.68
1018.663	-7.58
1019.088	-15.58
1019.512	0.02
1019.937	-2.88
1020.361	-6.58
1020.785	-13.08
1021.21	-3.78
1021.634	-7.08
1022.058	2.22
1022.483	4.72
1022.907	-6.98
1023.331	-5.48
1023.755	-5.68
1024.179	-2.08
1024.604	-7.18
1025.028	-6.38
1025.452	-3.18
1025.876	-3.88
1026.3	5.42
1026.724	-13.98
1027.148	3.32
1027.572	-5.58
1027.996	-1.88
1028.42	1.22
1028.843	-7.58
1029.267	-10.88
1029.691	-1.58
1030.115	-4.58
1030.539	-5.38
1030.962	-5.98
1031.386	-12.38
1031.81	-1.58
1032.233	3.02
1032.657	3.02
1033.08	-0.18
1033.504	0.52
1033.927	-7.38
1034.351	3.02
1034.774	0.72
1035.198	-2.18
1035.621	-1.38
1036.045	-9.98
1036.468	4.32
1036.891	-5.28
1037.315	-1.88
1037.738	-12.38
1038.161	-4.48
1038.584	-3.88
1039.008	-5.48
1039.431	-1.78
1039.854	-0.78
1040.277	-5.68
1040.7	-12.48
1041.123	0.92
1041.546	-12.58
1041.969	-7.08
1042.392	-3.18
1042.815	0.62
1043.238	2.32
1043.661	3.82
1044.084	-6.88
1044.507	-4.58
1044.93	-10.38
1045.352	-6.68
1045.775	2.52
1046.198	2.92
1046.621	-3.08
1047.043	-1.08
1047.466	5.32
1047.889	-2.18
1048.311	-7.78
1048.734	-3.98
1049.156	4.12
1049.579	-4.58
1050.001	-6.68
1050.424	1.82
1050.846	-3.08
1051.269	-3.98
1051.691	-8.78
1052.113	-3.98
1052.536	0.22
1052.958	-3.38
1053.38	-2.88
1053.802	-12.98
1054.225	6.72
1054.647	-4.18
1055.069	-0.48
1055.491	0.92
1055.913	-7.68
1056.335	3.32
1056.757	-6.48
1057.179	-8.48
1057.601	-8.38
1058.023	-6.98
1058.445	-3.48
1058.867	-1.48
1059.289	-4.88
1059.711	-4.58
1060.133	-5.08
1060.555	-0.98
1060.976	-10.58
1061.398	-8.68
1061.82	-7.98
1062.241	-9.98
1062.663	-8.08
1063.085	1.02
1063.506	1.62
1063.928	1.72
1064.35	-4.78
1064.771	-11.48
1065.193	-2.38
1065.614	-8.98
1066.035	4.42
1066.457	-2.08
1066.878	-1.18
1067.3	-7.08
1067.721	-7.28
1068.142	-6.38
1068.564	-0.28
1068.985	-5.38
1069.406	-8.38
1069.827	-7.38
1070.248	-0.38
1070.67	-9.88
1071.091	0.12
1071.512	-3.88
1071.933	-7.98
1072.354	-1.68
1072.775	-2.88
1073.196	-4.78
1073.617	-3.48
1074.038	-5.08
1074.459	-3.98
1074.88	-5.78
1075.3	-1.98
1075.721	-7.58
1076.142	3.42
1076.563	-5.18
1076.983	-8.88
1077.404	-11.28
1077.825	-10.58
1078.246	-4.68
1078.666	-5.28
1079.087	2.92
1079.507	-4.38
1079.928	3.02
1080.348	-1.28
1080.769	-6.98
1081.189	-6.68
1081.61	-3.88
1082.03	-2.48
1082.451	-5.58
1082.871	-4.28
1083.291	-2.18
1083.711	-7.48
1084.132	-9.28
1084.552	-4.88
1084.972	0.62
1085.392	-12.08
1085.813	-7.08
1086.233	-9.68
1086.653	-5.98
1087.073	-2.88
1087.493	-5.68
1087.913	-10.28
1088.333	-7.38
1088.753	-7.58
1089.173	-2.28
1089.593	-4.28
1090.013	0.32
1090.433	2.72
1090.852	1.12
1091.272	2.32
1091.692	0.22
1092.112	-2.38
1092.531	-11.98
1092.951	-10.58
1093.371	1.92
1093.79	1.62
1094.21	-8.68
1094.63	-4.78
1095.049	-5.38
1095.469	0.92
1095.888	1.12
1096.308	-5.38
1096.727	5.42
1097.146	-7.68
1097.566	1.32
1097.985	-4.08
1098.405	1.72
1098.824	-13.68
1099.243	-9.18
1099.662	-4.68
1100.082	-5.68
1100.501	6.72
1100.92	-4.08
1101.339	-2.38
1101.758	-7.48
