Data from 20171114-ORNL-Ar_H_NY_Subt18_08-08-16-749.txt Node
Date: Tue Nov 14 08:08:16 EST 2017
User: Ender
Spectrometer: HR+D1039
Trigger mode: 0
Integration Time (sec): 2.730000E-2
Scans to average: 10
Electric dark correction enabled: true
Nonlinearity correction enabled: false
Boxcar width: 0
XAxis mode: Wavelengths
Number of Pixels in Spectrum: 2048
>>>>>Begin Spectral Data<<<<<
187.836	-0.88
188.309	-0.88
188.782	-0.88
189.255	0.52
189.728	-1.58
190.201	7.52
190.674	0.42
191.147	5.62
191.619	-14.58
192.092	-5.58
192.565	4.32
193.038	2.32
193.511	-2.38
193.984	6.62
194.456	-0.58
194.929	-2.98
195.402	3.92
195.874	-2.68
196.347	2.32
196.82	-6.28
197.292	4.82
197.765	1.62
198.237	-5.48
198.71	-1.38
199.182	-1.68
199.655	5.02
200.127	4.02
200.6	1.02
201.072	-0.48
201.544	-5.68
202.017	-3.88
202.489	2.72
202.961	3.12
203.433	-8.58
203.906	-8.48
204.378	-7.48
204.85	-2.08
205.322	-7.78
205.794	-2.18
206.266	-1.18
206.739	-8.08
207.211	3.72
207.683	-6.18
208.155	-1.78
208.627	-5.08
209.099	-3.18
209.57	-12.58
210.042	-9.78
210.514	-4.38
210.986	-0.48
211.458	-8.68
211.93	-1.18
212.402	0.72
212.873	-3.58
213.345	-7.68
213.817	-8.68
214.288	-3.28
214.76	-6.58
215.232	-1.18
215.703	-2.68
216.175	-2.78
216.646	-5.88
217.118	-7.18
217.589	-3.08
218.061	-0.58
218.532	-2.18
219.004	-1.68
219.475	-6.88
219.946	-1.88
220.418	-2.68
220.889	6.42
221.36	1.92
221.832	-1.88
222.303	-6.28
222.774	0.22
223.245	-11.38
223.717	-3.48
224.188	-4.38
224.659	-13.08
225.13	-6.28
225.601	2.12
226.072	1.52
226.543	1.82
227.014	2.52
227.485	2.02
227.956	-1.58
228.427	-1.58
228.898	-2.58
229.369	-2.08
229.839	2.22
230.31	0.32
230.781	0.22
231.252	-4.58
231.722	-3.18
232.193	2.42
232.664	1.42
233.135	-2.98
233.605	0.22
234.076	-2.38
234.546	2.52
235.017	7.92
235.487	5.62
235.958	1.02
236.428	-8.38
236.899	5.32
237.369	8.32
237.84	5.42
238.31	5.42
238.78	3.42
239.251	-0.58
239.721	-0.88
240.191	5.72
240.662	3.12
241.132	3.52
241.602	-4.08
242.072	3.62
242.542	4.92
243.013	-5.08
243.483	3.02
243.953	2.12
244.423	0.72
244.893	0.22
245.363	2.62
245.833	6.22
246.303	-1.48
246.773	4.82
247.243	5.62
247.712	1.32
248.182	7.62
248.652	8.02
249.122	-0.68
249.592	11.82
250.061	16.02
250.531	31.12
251.001	14.42
251.471	20.82
251.94	16.22
252.41	5.92
252.879	0.32
253.349	11.32
253.818	12.42
254.288	4.02
254.757	9.52
255.227	-1.18
255.696	9.22
256.166	7.32
256.635	4.32
257.105	7.32
257.574	6.82
258.043	5.22
258.513	8.82
258.982	14.12
259.451	8.02
259.92	19.42
260.389	6.02
260.859	15.62
261.328	4.82
261.797	17.82
262.266	7.92
262.735	22.52
263.204	14.22
263.673	1.62
264.142	8.62
264.611	4.22
265.08	2.62
265.549	0.62
266.018	-0.48
266.487	-1.98
266.955	0.52
267.424	1.02
267.893	6.22
268.362	1.92
268.83	3.52
269.299	5.52
269.768	5.62
270.236	4.62
270.705	6.02
271.174	9.02
271.642	9.22
272.111	11.02
272.579	18.32
273.048	22.92
273.516	29.42
273.985	28.22
274.453	29.82
274.922	20.12
275.39	9.82
275.858	4.22
276.327	17.32
276.795	20.72
277.263	8.62
277.731	29.72
278.2	55.12
278.668	56.52
279.136	42.02
279.604	17.02
280.072	16.42
280.54	11.12
281.008	10.12
281.477	17.52
281.945	13.22
282.413	14.12
282.881	19.02
283.348	12.22
283.816	10.02
284.284	11.72
284.752	18.92
285.22	12.52
285.688	13.12
286.156	19.62
286.623	44.32
287.091	53.32
287.559	29.92
288.026	10.92
288.494	13.42
288.962	8.62
289.429	10.22
289.897	17.72
290.364	13.72
290.832	21.82
291.3	12.52
291.767	19.52
292.234	20.72
292.702	12.22
293.169	12.42
293.637	20.32
294.104	19.22
294.571	13.92
295.039	11.72
295.506	11.32
295.973	10.32
296.44	16.72
296.908	20.52
297.375	20.32
297.842	21.92
298.309	18.72
298.776	11.32
299.243	19.02
299.71	13.22
300.177	22.32
300.644	19.22
301.111	21.12
301.578	28.72
302.045	15.22
302.512	13.62
302.979	26.32
303.446	26.32
303.913	18.42
304.379	25.32
304.846	26.72
305.313	24.92
305.78	24.12
306.246	23.42
306.713	23.12
307.18	26.32
307.646	26.72
308.113	33.52
308.579	22.22
309.046	28.12
309.512	25.82
309.979	19.12
310.445	28.32
310.912	27.22
311.378	32.32
311.845	27.42
312.311	31.72
312.777	28.52
313.244	34.92
313.71	37.92
314.176	33.22
314.642	32.92
315.109	31.52
315.575	39.62
316.041	38.62
316.507	29.22
316.973	39.62
317.439	27.92
317.905	35.02
318.371	36.22
318.837	34.22
319.303	32.42
319.769	40.32
320.235	36.32
320.701	34.52
321.167	33.32
321.633	33.82
322.099	39.22
322.564	45.52
323.03	37.02
323.496	38.52
323.962	41.02
324.427	31.62
324.893	40.92
325.359	34.42
325.824	37.92
326.29	35.62
326.755	37.62
327.221	38.62
327.686	40.82
328.152	46.32
328.617	38.32
329.083	47.62
329.548	51.92
330.014	47.82
330.479	37.62
330.944	45.92
331.41	44.82
331.875	49.22
332.34	46.82
332.805	49.82
333.271	50.52
333.736	44.12
334.201	53.82
334.666	52.52
335.131	56.82
335.596	48.82
336.061	49.22
336.526	40.62
336.991	42.72
337.456	54.52
337.921	46.62
338.386	42.82
338.851	44.92
339.316	48.12
339.781	50.92
340.246	48.62
340.711	49.22
341.175	51.82
341.64	46.02
342.105	52.52
342.569	57.22
343.034	58.82
343.499	59.52
343.963	53.72
344.428	67.52
344.893	60.62
345.357	60.82
345.822	58.92
346.286	67.52
346.751	78.42
347.215	69.02
347.679	75.62
348.144	98.12
348.608	75.12
349.073	72.82
349.537	77.52
350.001	79.52
350.465	85.52
350.93	81.42
351.394	80.62
351.858	64.92
352.322	81.22
352.786	83.02
353.25	100.42
353.715	107.52
354.179	102.22
354.643	121.72
355.107	124.12
355.571	111.92
356.035	105.12
356.498	121.32
356.962	124.82
357.426	129.32
357.89	111.82
358.354	85.32
358.818	85.92
359.281	79.72
359.745	80.82
360.209	74.32
360.673	75.62
361.136	75.92
361.6	84.32
362.064	78.62
362.527	87.02
362.991	87.32
363.454	87.82
363.918	81.02
364.381	78.52
364.845	81.32
365.308	83.52
365.772	89.32
366.235	87.12
366.698	91.02
367.162	82.42
367.625	87.42
368.088	83.72
368.552	94.52
369.015	83.42
369.478	92.02
369.941	98.22
370.404	94.82
370.867	101.82
371.331	104.62
371.794	121.72
372.257	111.12
372.72	118.12
373.183	116.52
373.646	109.82
374.109	104.42
374.572	107.82
375.035	109.52
375.497	111.62
375.96	107.32
376.423	105.52
376.886	114.42
377.349	117.72
377.811	104.12
378.274	105.82
378.737	110.52
379.199	113.92
379.662	117.52
380.125	123.02
380.587	126.02
381.05	127.22
381.512	129.22
381.975	136.32
382.437	136.82
382.9	130.12
383.362	136.72
383.825	141.32
384.287	146.72
384.75	137.92
385.212	143.22
385.674	137.22
386.136	139.32
386.599	133.42
387.061	124.42
387.523	136.52
387.985	145.12
388.447	148.52
388.91	145.92
389.372	162.72
389.834	161.42
390.296	152.82
390.758	160.12
391.22	171.72
391.682	219.22
392.144	311.52
392.606	237.02
393.068	171.52
393.529	174.42
393.991	162.42
394.453	148.92
394.915	165.72
395.377	199.42
395.838	226.72
396.3	156.02
396.762	147.52
397.224	131.52
397.685	133.12
398.147	136.82
398.608	130.12
399.07	128.02
399.531	140.12
399.993	144.32
400.454	156.92
400.916	143.02
401.377	149.62
401.839	158.92
402.3	154.02
402.762	171.82
403.223	183.82
403.684	170.02
404.145	162.62
404.607	164.72
405.068	171.42
405.529	179.42
405.99	191.82
406.451	179.12
406.913	179.22
407.374	163.72
407.835	162.42
408.296	167.12
408.757	169.42
409.218	187.72
409.679	181.62
410.14	184.12
410.601	182.52
411.062	184.32
411.522	189.22
411.983	194.12
412.444	177.52
412.905	184.12
413.366	189.32
413.826	194.42
414.287	221.92
414.748	262.12
415.208	252.12
415.669	216.22
416.13	212.02
416.59	205.42
417.051	210.52
417.511	216.12
417.972	246.82
418.432	252.92
418.893	292.92
419.353	257.22
419.814	204.82
420.274	191.12
420.734	180.32
421.195	203.12
421.655	205.72
422.115	195.02
422.576	197.82
423.036	201.82
423.496	211.52
423.956	213.62
424.416	234.52
424.876	267.62
425.336	264.02
425.797	258.42
426.257	263.62
426.717	251.72
427.177	234.42
427.637	228.12
428.097	235.12
428.556	251.12
429.016	281.02
429.476	269.12
429.936	277.22
430.396	282.82
430.856	296.92
431.315	322.82
431.775	359.02
432.235	393.82
432.694	367.52
433.154	374.52
433.614	406.32
434.073	352.62
434.533	288.72
434.993	281.22
435.452	296.22
435.912	312.02
436.371	303.12
436.83	294.72
437.29	271.32
437.749	251.12
438.209	254.92
438.668	275.82
439.127	293.32
439.587	269.22
440.046	254.52
440.505	262.52
440.964	281.82
441.424	327.92
441.883	313.02
442.342	273.72
442.801	225.82
443.26	225.02
443.719	218.82
444.178	219.72
444.637	216.92
445.096	228.72
445.555	227.62
446.014	226.82
446.473	231.82
446.932	243.42
447.391	226.82
447.849	228.52
448.308	224.82
448.767	221.62
449.226	237.32
449.685	239.42
450.143	252.82
450.602	240.42
451.061	223.22
451.519	232.02
451.978	238.22
452.436	236.62
452.895	248.22
453.353	256.72
453.812	243.62
454.27	244.32
454.729	241.92
455.187	250.42
455.646	239.32
456.104	246.02
456.562	264.72
457.021	265.32
457.479	265.32
457.937	276.52
458.395	272.42
458.854	254.02
459.312	254.62
459.77	273.62
460.228	260.02
460.686	241.22
461.144	259.52
461.602	248.42
462.06	239.92
462.518	253.22
462.976	255.32
463.434	259.02
463.892	271.12
464.35	274.02
464.808	286.62
465.266	268.32
465.724	271.62
466.181	271.42
466.639	274.82
467.097	294.42
467.555	306.92
468.012	303.82
468.47	305.62
468.928	335.62
469.385	340.62
469.843	354.52
470.3	355.62
470.758	365.42
471.215	393.12
471.673	412.72
472.13	416.82
472.588	424.92
473.045	385.92
473.503	380.22
473.96	396.72
474.417	406.52
474.875	431.32
475.332	480.92
475.789	463.82
476.246	474.32
476.704	497.42
477.161	522.32
477.618	527.82
478.075	568.52
478.532	624.92
478.989	699.42
479.446	819.02
479.903	775.92
480.36	815.22
480.817	879.72
481.274	984.02
481.731	1088.02
482.188	1168.22
482.645	1315.02
483.102	1427.22
483.558	1565.12
484.015	1612.12
484.472	1570.12
484.929	1522.12
485.385	1485.62
485.842	1439.02
486.299	1374.52
486.755	1308.02
487.212	1101.32
487.668	929.42
488.125	862.32
488.582	780.82
489.038	753.02
489.494	714.22
489.951	693.22
490.407	671.22
490.864	655.92
491.32	649.52
491.776	646.62
492.233	651.92
492.689	609.12
493.145	611.52
493.602	594.62
494.058	612.32
494.514	625.02
494.97	640.82
495.426	647.82
495.882	626.32
496.338	605.72
496.794	616.52
497.251	605.12
497.707	640.92
498.163	633.82
498.618	639.42
499.074	645.02
499.53	679.52
499.986	677.12
500.442	652.22
500.898	646.02
501.354	622.22
501.809	643.22
502.265	642.02
502.721	676.72
503.177	679.22
503.632	675.22
504.088	683.72
504.543	713.92
504.999	709.82
505.455	654.62
505.91	640.52
506.366	641.82
506.821	628.92
507.277	630.82
507.732	635.42
508.187	629.82
508.643	636.32
509.098	637.72
509.553	653.32
510.009	660.12
510.464	674.02
510.919	681.82
511.375	697.32
511.83	712.92
512.285	722.62
512.74	754.12
513.195	787.12
513.65	775.42
514.105	761.22
514.56	768.22
515.015	792.12
515.47	797.52
515.925	793.42
516.38	781.02
516.835	789.22
517.29	781.42
517.745	774.12
518.2	765.72
518.655	751.92
519.109	739.12
519.564	739.62
520.019	726.92
520.474	722.22
520.928	716.62
521.383	723.22
521.838	717.12
522.292	711.42
522.747	711.52
523.201	705.02
523.656	698.32
524.11	698.72
524.565	689.42
525.019	687.92
525.474	702.62
525.928	711.32
526.382	701.42
526.837	690.82
527.291	692.02
527.745	697.72
528.2	702.52
528.654	694.12
529.108	689.92
529.562	692.02
530.016	701.12
530.47	691.12
530.925	698.32
531.379	696.32
531.833	709.72
532.287	708.62
532.741	702.02
533.195	715.12
533.649	707.62
534.103	716.12
534.556	704.22
535.01	705.62
535.464	699.12
535.918	706.42
536.372	713.42
536.826	722.62
537.279	711.32
537.733	703.72
538.187	712.92
538.64	714.52
539.094	727.22
539.548	726.92
540.001	725.42
540.455	721.92
540.908	731.02
541.362	747.52
541.815	747.12
542.269	754.92
542.722	764.22
543.175	770.62
543.629	773.02
544.082	796.02
544.536	780.62
544.989	789.42
545.442	795.52
545.895	789.32
546.349	791.12
546.802	792.32
547.255	802.12
547.708	811.22
548.161	815.92
548.614	821.02
549.067	829.32
549.52	814.72
549.973	812.82
550.426	809.32
550.879	794.32
551.332	797.92
551.785	807.62
552.238	797.72
552.691	820.32
553.144	830.42
553.596	852.12
554.049	857.92
554.502	895.32
554.955	906.62
555.407	905.02
555.86	898.92
556.313	897.82
556.765	881.42
557.218	878.42
557.67	886.32
558.123	876.02
558.576	872.02
559.028	870.42
559.48	879.62
559.933	870.02
560.385	835.72
560.838	812.82
561.29	783.92
561.742	785.22
562.195	759.02
562.647	763.02
563.099	777.62
563.551	765.42
564.004	783.62
564.456	771.32
564.908	766.32
565.36	757.42
565.812	735.42
566.264	727.52
566.716	734.12
567.168	728.92
567.62	728.12
568.072	711.32
568.524	699.12
568.976	692.42
569.428	683.12
569.88	691.82
570.332	685.82
570.784	688.82
571.235	694.52
571.687	695.92
572.139	696.82
572.59	703.72
573.042	713.92
573.494	714.22
573.945	700.12
574.397	691.92
574.849	695.42
575.3	699.32
575.752	686.72
576.203	680.52
576.655	686.22
577.106	676.02
577.557	672.82
578.009	665.52
578.46	677.22
578.912	671.02
579.363	664.52
579.814	674.62
580.265	674.82
580.717	671.02
581.168	672.72
581.619	679.82
582.07	680.82
582.521	675.12
582.972	679.22
583.423	693.52
583.875	689.42
584.326	709.72
584.777	764.42
585.227	851.32
585.678	933.72
586.129	1046.22
586.58	1111.12
587.031	1192.92
587.482	1360.82
587.933	1571.92
588.384	1341.92
588.834	993.82
589.285	822.92
589.736	793.92
590.186	789.22
590.637	773.62
591.088	745.12
591.538	742.02
591.989	733.22
592.439	737.82
592.89	725.72
593.34	718.22
593.791	720.32
594.241	720.12
594.692	717.82
595.142	710.22
595.593	702.42
596.043	706.82
596.493	715.52
596.943	721.22
597.394	730.12
597.844	718.32
598.294	741.72
598.744	755.42
599.195	775.12
599.645	828.52
600.095	860.02
600.545	926.82
600.995	981.92
601.445	1031.92
601.895	1101.82
602.345	1130.12
602.795	1125.72
603.245	1065.52
603.695	1010.52
604.145	971.42
604.594	925.42
605.044	872.22
605.494	801.92
605.944	752.52
606.393	746.12
606.843	725.92
607.293	735.92
607.743	735.22
608.192	746.22
608.642	768.12
609.091	777.72
609.541	785.12
609.99	786.82
610.44	781.12
610.889	720.02
611.339	703.42
611.788	699.02
612.238	714.62
612.687	730.62
613.136	729.22
613.586	755.52
614.035	762.82
614.484	765.82
614.933	773.32
615.383	765.82
615.832	743.52
616.281	735.12
616.73	689.12
617.179	679.02
617.628	664.32
618.077	641.22
618.526	629.12
618.975	619.72
619.424	621.42
619.873	622.22
620.322	623.92
620.771	620.82
621.22	623.72
621.669	603.42
622.118	595.92
622.567	592.02
623.015	576.22
623.464	580.22
623.913	564.12
624.361	551.62
624.81	558.62
625.259	566.72
625.707	561.32
626.156	560.72
626.604	572.72
627.053	570.52
627.501	573.72
627.95	581.02
628.398	588.92
628.847	586.82
629.295	573.52
629.744	580.62
630.192	570.62
630.64	578.82
631.089	567.62
631.537	587.62
631.985	603.82
632.433	618.82
632.881	625.72
633.33	686.22
633.778	654.32
634.226	581.92
634.674	588.72
635.122	582.32
635.57	607.52
636.018	639.22
636.466	597.52
636.914	563.72
637.362	579.82
637.81	573.72
638.258	596.92
638.705	588.62
639.153	613.22
639.601	625.12
640.049	658.02
640.497	678.62
640.944	704.32
641.392	649.42
641.84	626.92
642.287	597.52
642.735	586.92
643.182	585.12
643.63	578.42
644.078	586.02
644.525	599.52
644.973	607.22
645.42	618.82
645.867	631.42
646.315	650.22
646.762	669.92
647.21	702.22
647.657	730.72
648.104	768.02
648.551	779.12
648.999	850.32
649.446	937.22
649.893	1025.92
650.34	1191.02
650.787	1429.82
651.234	1783.72
651.682	2335.32
652.129	3212.42
652.576	4668.12
653.023	6849.92
653.47	9371.02
653.917	11647.92
654.363	13315.82
654.81	14578.82
655.257	13887.32
655.704	9116.92
656.151	5357.22
656.598	3477.42
657.044	2459.42
657.491	1896.92
657.938	1520.62
658.385	1279.92
658.831	1099.32
659.278	974.52
659.724	873.62
660.171	799.92
660.618	734.32
661.064	700.22
661.511	679.02
661.957	666.32
662.404	653.92
662.85	654.82
663.296	636.72
663.743	568.02
664.189	540.72
664.635	542.12
665.082	537.92
665.528	539.12
665.974	524.72
666.42	518.82
666.867	520.12
667.313	509.82
667.759	499.12
668.205	492.92
668.651	497.22
669.097	494.92
669.543	521.02
669.989	487.32
670.435	459.02
670.881	458.02
671.327	457.02
671.773	473.82
672.219	499.52
672.665	560.32
673.11	597.52
673.556	633.52
674.002	674.72
674.448	662.12
674.893	550.82
675.339	481.62
675.785	446.32
676.23	426.32
676.676	397.32
677.122	386.32
677.567	372.62
678.013	375.52
678.458	358.92
678.904	372.82
679.349	350.92
679.794	359.42
680.24	360.02
680.685	356.22
681.131	351.22
681.576	355.72
682.021	359.12
682.466	359.22
682.912	348.12
683.357	355.22
683.802	387.92
684.247	421.62
684.692	465.02
685.137	492.12
685.583	549.62
686.028	567.62
686.473	519.82
686.918	453.82
687.363	427.32
687.807	403.42
688.252	378.02
688.697	364.92
689.142	342.82
689.587	341.92
690.032	332.72
690.477	343.82
690.921	360.42
691.366	392.62
691.811	416.82
692.255	435.62
692.7	475.02
693.145	515.52
693.589	719.12
694.034	1168.52
694.478	1574.32
694.923	1736.22
695.367	2252.32
695.812	1204.02
696.256	501.72
696.701	379.82
697.145	342.52
697.59	335.82
698.034	329.02
698.478	340.12
698.922	331.52
699.367	334.62
699.811	348.02
700.255	356.32
700.699	393.62
701.143	438.12
701.588	481.12
702.032	525.12
702.476	524.72
702.92	484.32
703.364	503.82
703.808	659.12
704.252	1077.82
704.696	1474.22
705.14	1667.22
705.584	2131.52
706.027	1069.52
706.471	527.02
706.915	412.72
707.359	360.32
707.803	325.52
708.246	318.12
708.69	322.22
709.134	320.62
709.577	309.82
710.021	318.12
710.465	305.62
710.908	305.32
711.352	310.72
711.795	317.32
712.239	363.02
712.682	397.52
713.126	424.32
713.569	461.02
714.012	379.22
714.456	332.22
714.899	303.82
715.342	284.42
715.786	269.62
716.229	262.72
716.672	256.22
717.115	253.32
717.558	255.32
718.002	253.92
718.445	271.72
718.888	288.12
719.331	303.02
719.774	310.22
720.217	304.32
720.66	286.02
721.103	271.32
721.546	259.92
721.989	254.32
722.432	237.62
722.874	236.82
723.317	237.12
723.76	246.82
724.203	265.32
724.645	330.72
725.088	458.42
725.531	584.12
725.974	653.22
726.416	549.12
726.859	315.92
727.301	252.92
727.744	238.42
728.187	237.82
728.629	244.12
729.071	246.72
729.514	262.72
729.956	275.92
730.399	291.22
730.841	291.82
731.283	277.32
731.726	265.52
732.168	262.42
732.61	275.12
733.053	301.12
733.495	318.52
733.937	361.22
734.379	406.62
734.821	439.52
735.263	551.72
735.705	884.72
736.148	1645.12
736.59	2629.12
737.032	3011.92
737.474	2467.72
737.916	811.12
738.357	437.22
738.799	331.62
739.241	310.92
739.683	289.02
740.125	296.52
740.567	308.12
741.008	319.42
741.45	327.12
741.892	319.32
742.334	357.52
742.775	365.82
743.217	350.22
743.658	281.12
744.1	256.32
744.542	258.02
744.983	306.82
745.425	346.22
745.866	344.02
746.307	285.12
746.749	297.32
747.19	338.82
747.632	471.82
748.073	918.02
748.514	1931.52
748.956	2867.62
749.397	3615.82
749.838	3001.32
750.279	2950.12
750.72	1487.22
751.162	550.22
751.603	328.52
752.044	262.32
752.485	226.62
752.926	213.62
753.367	204.22
753.808	197.82
754.249	201.12
754.69	191.52
755.131	183.42
755.572	189.12
756.013	186.02
756.453	187.62
756.894	195.82
757.335	196.32
757.776	197.62
758.216	196.22
758.657	199.62
759.098	202.72
759.538	226.02
759.979	276.02
760.42	391.92
760.86	734.22
761.301	1919.02
761.741	4524.32
762.182	6328.22
762.622	4452.92
763.063	1312.72
763.503	544.72
763.943	360.02
764.384	353.12
764.824	432.72
765.264	458.22
765.705	318.02
766.145	217.12
766.585	191.22
767.025	187.72
767.465	198.12
767.906	259.42
768.346	340.42
768.786	356.02
769.226	276.12
769.666	329.82
770.106	653.82
770.546	1630.62
770.986	2643.92
771.426	2332.42
771.866	798.32
772.306	339.72
772.745	219.12
773.185	184.72
773.625	180.42
774.065	183.12
774.505	203.72
774.944	334.82
775.384	730.42
775.824	1286.12
776.263	1238.22
776.703	532.82
777.142	235.42
777.582	163.92
778.021	150.62
778.461	149.52
778.9	146.62
779.34	139.62
779.779	121.72
780.219	112.32
780.658	116.82
781.097	119.52
781.537	116.12
781.976	115.22
782.415	109.72
782.855	105.62
783.294	105.62
783.733	112.72
784.172	113.62
784.611	112.82
785.05	114.02
785.489	112.72
785.928	123.52
786.367	127.42
786.806	122.62
787.245	130.12
787.684	140.32
788.123	152.22
788.562	137.42
789.001	130.82
789.44	125.12
789.879	123.22
790.317	117.92
790.756	128.52
791.195	131.62
791.634	153.02
792.072	213.52
792.511	391.22
792.95	1066.12
793.388	2152.72
793.827	1914.92
794.265	688.52
794.704	286.32
795.142	190.22
795.581	161.62
796.019	137.22
796.458	132.92
796.896	119.32
797.334	130.32
797.773	159.02
798.211	226.52
798.649	463.92
799.087	1056.42
799.526	1626.22
799.964	2021.22
800.402	1982.12
800.84	755.12
801.278	307.92
801.716	186.72
802.154	158.82
802.592	147.42
803.03	140.42
803.468	142.22
803.906	147.72
804.344	154.32
804.782	143.92
805.22	140.52
805.658	135.42
806.096	147.72
806.533	155.92
806.971	178.12
807.409	225.22
807.847	325.82
808.284	697.32
808.722	1921.42
809.16	3276.02
809.597	3194.12
810.035	5484.12
810.472	5668.82
810.91	2066.92
811.347	802.32
811.785	405.32
812.222	258.52
812.66	196.12
813.097	167.32
813.535	138.02
813.972	122.72
814.409	120.92
814.846	112.42
815.284	110.42
815.721	106.82
816.158	112.52
816.595	128.72
817.032	182.02
817.47	207.82
817.907	170.12
818.344	161.82
818.781	126.12
819.218	100.52
819.655	129.22
820.092	192.02
820.529	214.12
820.966	177.82
821.403	135.72
821.839	114.52
822.276	109.32
822.713	123.82
823.15	134.82
823.587	107.52
824.023	149.02
824.46	320.02
824.897	921.82
825.333	1347.12
825.77	571.72
826.206	233.32
826.643	137.02
827.08	105.82
827.516	91.62
827.953	81.32
828.389	87.12
828.825	76.52
829.262	71.42
829.698	72.22
830.135	67.92
830.571	66.72
831.007	68.22
831.443	69.22
831.88	67.02
832.316	61.92
832.752	61.72
833.188	65.42
833.624	72.02
834.06	71.72
834.497	72.92
834.933	75.02
835.369	72.02
835.805	72.72
836.241	83.02
836.677	90.32
837.112	91.42
837.548	105.42
837.984	129.12
838.42	212.42
838.856	519.12
839.292	1551.62
839.727	2272.82
840.163	1060.82
840.599	952.32
841.034	2057.82
841.47	2070.82
841.906	774.52
842.341	338.42
842.777	235.62
843.212	327.82
843.648	318.32
844.083	156.62
844.519	101.92
844.954	79.22
845.39	59.72
845.825	68.32
846.261	57.32
846.696	58.82
847.131	52.72
847.566	61.32
848.002	59.82
848.437	60.82
848.872	64.02
849.307	63.12
849.742	91.72
850.177	182.22
850.613	582.62
851.048	873.42
851.483	377.32
851.918	161.72
852.353	87.02
852.788	65.42
853.223	59.12
853.657	56.72
854.092	48.82
854.527	50.52
854.962	43.92
855.397	46.22
855.832	49.52
856.266	47.32
856.701	41.92
857.136	43.12
857.57	41.32
858.005	50.22
858.44	56.22
858.874	50.12
859.309	55.92
859.743	45.52
860.178	43.42
860.612	47.42
861.047	53.52
861.481	67.42
861.915	72.52
862.35	51.82
862.784	36.72
863.218	40.42
863.653	33.22
864.087	48.22
864.521	58.22
864.955	76.12
865.39	163.12
865.824	174.52
866.258	117.52
866.692	161.82
867.126	178.92
867.56	103.42
867.994	55.42
868.428	43.52
868.862	40.52
869.296	52.92
869.73	67.42
870.164	56.82
870.598	49.22
871.031	39.92
871.465	32.42
871.899	35.02
872.333	26.92
872.766	22.52
873.2	23.92
873.634	30.82
874.067	29.12
874.501	29.72
874.935	38.62
875.368	37.32
875.802	30.22
876.235	23.32
876.669	25.12
877.102	26.42
877.535	24.92
877.969	21.52
878.402	24.52
878.836	20.82
879.269	21.62
879.702	32.62
880.135	28.02
880.569	32.22
881.002	32.62
881.435	18.32
881.868	23.62
882.301	22.72
882.734	16.72
883.167	24.22
883.601	20.22
884.034	25.32
884.467	19.62
884.899	21.92
885.332	18.32
885.765	19.72
886.198	16.42
886.631	23.82
887.064	21.32
887.497	17.82
887.929	26.42
888.362	14.42
888.795	12.32
889.228	27.82
889.66	22.02
890.093	19.12
890.526	18.22
890.958	16.72
891.391	19.42
891.823	21.52
892.256	14.32
892.688	15.22
893.121	22.52
893.553	16.82
893.985	22.92
894.418	19.22
894.85	11.02
895.282	12.92
895.715	15.52
896.147	17.02
896.579	16.42
897.011	13.62
897.444	24.92
897.876	13.92
898.308	14.72
898.74	15.72
899.172	17.52
899.604	25.42
900.036	21.72
900.468	12.62
900.9	14.12
901.332	20.62
901.764	12.02
902.196	20.82
902.628	22.02
903.06	11.92
903.491	29.32
903.923	23.52
904.355	23.22
904.787	28.82
905.218	16.82
905.65	15.72
906.082	16.82
906.513	17.92
906.945	17.62
907.376	17.02
907.808	26.32
908.239	24.32
908.671	17.92
909.102	20.72
909.534	26.62
909.965	51.72
910.397	98.52
910.828	313.62
911.259	472.12
911.691	219.62
912.122	113.52
912.553	54.12
912.984	37.72
913.415	26.12
913.847	26.72
914.278	17.32
914.709	16.42
915.14	20.02
915.571	17.72
916.002	9.52
916.433	23.12
916.864	15.02
917.295	9.82
917.726	24.32
918.157	22.02
918.587	31.02
919.018	20.52
919.449	21.12
919.88	28.02
920.311	32.32
920.741	50.82
921.172	169.42
921.603	146.82
922.033	76.32
922.464	48.42
922.895	28.62
923.325	21.82
923.756	19.22
924.186	16.42
924.617	28.62
925.047	46.12
925.478	58.12
925.908	46.42
926.338	31.62
926.769	19.22
927.199	23.62
927.629	11.92
928.06	17.52
928.49	19.62
928.92	16.92
929.35	12.32
929.78	13.12
930.21	7.82
930.641	11.72
931.071	12.12
931.501	6.52
931.931	11.42
932.361	12.72
932.791	9.42
933.221	4.82
933.651	3.02
934.08	22.42
934.51	35.92
934.94	11.12
935.37	14.52
935.8	12.52
936.229	8.62
936.659	9.62
937.089	1.42
937.519	15.42
937.948	24.02
938.378	14.92
938.807	7.62
939.237	4.02
939.666	10.92
940.096	-3.98
940.525	5.72
940.955	8.92
941.384	2.32
941.814	-5.88
942.243	-0.18
942.672	6.92
943.102	2.62
943.531	-0.38
943.96	4.32
944.39	2.72
944.819	0.92
945.248	5.02
945.677	4.02
946.106	1.32
946.535	5.12
946.964	2.02
947.393	7.82
947.822	-3.68
948.251	-4.28
948.68	3.12
949.109	3.82
949.538	3.22
949.967	-2.38
950.396	-1.18
950.825	3.42
951.254	-2.38
951.682	-2.78
952.111	5.12
952.54	1.22
952.969	-4.58
953.397	0.22
953.826	-3.08
954.254	-0.68
954.683	4.32
955.112	-3.68
955.54	3.92
955.969	1.92
956.397	2.12
956.826	-3.98
957.254	4.22
957.682	0.72
958.111	0.22
958.539	1.32
958.967	2.22
959.396	-2.18
959.824	5.62
960.252	9.42
960.68	1.92
961.109	1.82
961.537	-3.88
961.965	0.42
962.393	1.42
962.821	-0.58
963.249	-0.38
963.677	0.92
964.105	4.42
964.533	46.62
964.961	40.62
965.389	17.42
965.817	8.32
966.245	3.52
966.672	4.02
967.1	-3.78
967.528	-1.58
967.956	-6.18
968.383	-4.68
968.811	-3.68
969.239	-7.08
969.666	-2.48
970.094	-3.48
970.522	1.42
970.949	-1.58
971.377	-0.38
971.804	-5.08
972.232	1.72
972.659	1.42
973.087	2.32
973.514	0.72
973.941	-6.18
974.369	4.42
974.796	4.42
975.223	-2.28
975.651	-1.98
976.078	1.52
976.505	-1.58
976.932	3.42
977.359	21.12
977.786	10.62
978.214	1.22
978.641	-2.38
979.068	-5.38
979.495	-3.28
979.922	2.72
980.349	-1.08
980.776	1.02
981.202	-2.68
981.629	2.02
982.056	4.22
982.483	3.72
982.91	4.52
983.337	-4.48
983.763	10.22
984.19	-6.88
984.617	-4.28
985.043	-2.98
985.47	-1.48
985.897	-3.38
986.323	-10.18
986.75	8.22
987.176	1.72
987.603	1.12
988.029	-6.28
988.456	0.02
988.882	4.62
989.308	-5.38
989.735	-3.48
990.161	-0.68
990.587	-8.18
991.014	-2.18
991.44	-3.78
991.866	1.22
992.292	-5.78
992.719	-3.68
993.145	2.12
993.571	-6.18
993.997	-0.38
994.423	-0.38
994.849	-0.38
995.275	-1.18
995.701	-1.08
996.127	0.72
996.553	2.92
996.979	-3.28
997.405	0.82
997.83	-3.68
998.256	-4.38
998.682	-4.48
999.108	-5.78
999.534	-4.78
999.959	-4.48
1000.385	-4.58
1000.811	-1.08
1001.236	-10.48
1001.662	-2.68
1002.087	-1.78
1002.513	0.92
1002.938	-1.98
1003.364	-4.78
1003.789	0.62
1004.215	2.92
1004.64	-1.58
1005.066	5.92
1005.491	-3.68
1005.916	1.02
1006.342	-6.98
1006.767	-4.88
1007.192	-0.48
1007.617	-2.48
1008.042	2.12
1008.468	-3.98
1008.893	-0.88
1009.318	-0.38
1009.743	-4.48
1010.168	2.12
1010.593	-2.88
1011.018	-2.68
1011.443	0.12
1011.868	1.02
1012.293	-4.58
1012.718	-1.28
1013.143	-3.08
1013.567	3.02
1013.992	-3.28
1014.417	-10.28
1014.842	2.02
1015.267	-3.48
1015.691	-0.38
1016.116	5.52
1016.541	0.42
1016.965	2.82
1017.39	6.02
1017.814	-0.88
1018.239	3.22
1018.663	-7.18
1019.088	-12.18
1019.512	-1.68
1019.937	1.02
1020.361	-4.58
1020.785	-9.88
1021.21	1.82
1021.634	-6.08
1022.058	1.42
1022.483	4.72
1022.907	-3.08
1023.331	0.52
1023.755	-0.48
1024.179	2.22
1024.604	-5.58
1025.028	-9.08
1025.452	-7.78
1025.876	-2.68
1026.3	5.42
1026.724	-8.68
1027.148	0.72
1027.572	-3.08
1027.996	-1.88
1028.42	-5.78
1028.843	-6.88
1029.267	-6.48
1029.691	-1.58
1030.115	-6.38
1030.539	-6.48
1030.962	-8.88
1031.386	-10.78
1031.81	-0.08
1032.233	-3.68
1032.657	-5.28
1033.08	-6.18
1033.504	-3.18
1033.927	-4.58
1034.351	0.32
1034.774	-3.18
1035.198	3.32
1035.621	-7.68
1036.045	-5.98
1036.468	4.72
1036.891	-13.58
1037.315	-9.08
1037.738	-9.18
1038.161	-3.18
1038.584	-4.98
1039.008	-3.88
1039.431	0.62
1039.854	-6.78
1040.277	-9.18
1040.7	-9.28
1041.123	-8.48
1041.546	-5.58
1041.969	-2.88
1042.392	-4.28
1042.815	1.52
1043.238	2.72
1043.661	-2.08
1044.084	-7.48
1044.507	-5.68
1044.93	-1.88
1045.352	-4.38
1045.775	-2.78
1046.198	-3.98
1046.621	-1.68
1047.043	-1.98
1047.466	7.12
1047.889	-5.98
1048.311	-3.78
1048.734	-0.48
1049.156	-0.98
1049.579	1.32
1050.001	-1.88
1050.424	-2.98
1050.846	6.62
1051.269	-4.68
1051.691	-7.88
1052.113	-4.28
1052.536	-2.58
1052.958	0.82
1053.38	-5.88
1053.802	-8.08
1054.225	-1.18
1054.647	-6.08
1055.069	-5.28
1055.491	0.82
1055.913	-8.18
1056.335	-2.28
1056.757	-7.68
1057.179	-8.68
1057.601	-3.28
1058.023	-2.48
1058.445	-6.38
1058.867	-4.48
1059.289	-0.38
1059.711	-6.68
1060.133	-2.98
1060.555	-2.08
1060.976	-6.68
1061.398	-9.08
1061.82	1.42
1062.241	-6.78
1062.663	-9.88
1063.085	0.42
1063.506	0.92
1063.928	-3.48
1064.35	-2.58
1064.771	-12.18
1065.193	-5.68
1065.614	-13.58
1066.035	-1.18
1066.457	-6.68
1066.878	-0.18
1067.3	-6.98
1067.721	-3.68
1068.142	-1.08
1068.564	1.92
1068.985	0.32
1069.406	-9.08
1069.827	0.12
1070.248	2.92
1070.67	-7.38
1071.091	-3.58
1071.512	-0.28
1071.933	-6.18
1072.354	-8.68
1072.775	-8.08
1073.196	-6.58
1073.617	-4.28
1074.038	-2.88
1074.459	-0.58
1074.88	-2.88
1075.3	-4.88
1075.721	-9.68
1076.142	-3.38
1076.563	-0.78
1076.983	-9.08
1077.404	-6.68
1077.825	-9.08
1078.246	-10.08
1078.666	-7.68
1079.087	-2.18
1079.507	-8.48
1079.928	0.82
1080.348	-2.38
1080.769	-6.18
1081.189	5.12
1081.61	-0.88
1082.03	-1.28
1082.451	-5.58
1082.871	-1.88
1083.291	-10.28
1083.711	-6.88
1084.132	-11.38
1084.552	1.72
1084.972	-1.38
1085.392	-6.58
1085.813	-1.58
1086.233	-5.18
1086.653	0.12
1087.073	1.82
1087.493	-3.58
1087.913	-5.88
1088.333	-7.18
1088.753	-2.38
1089.173	-0.38
1089.593	-1.28
1090.013	6.32
1090.433	4.92
1090.852	-7.08
1091.272	-1.08
1091.692	2.92
1092.112	-1.68
1092.531	-10.38
1092.951	-15.58
1093.371	0.52
1093.79	0.12
1094.21	1.02
1094.63	-5.28
1095.049	-3.98
1095.469	-0.68
1095.888	2.92
1096.308	-0.58
1096.727	5.62
1097.146	-2.88
1097.566	-2.78
1097.985	-7.18
1098.405	0.82
1098.824	-5.78
1099.243	-7.18
1099.662	-4.88
1100.082	-2.58
1100.501	-3.98
1100.92	-8.28
1101.339	-8.88
1101.758	-2.18
