Data from 20171114-ORNL-Ar_H_NY_Subt18_08-05-37-331.txt Node
Date: Tue Nov 14 08:05:37 EST 2017
User: Ender
Spectrometer: HR+D1039
Trigger mode: 0
Integration Time (sec): 2.730000E-2
Scans to average: 10
Electric dark correction enabled: true
Nonlinearity correction enabled: false
Boxcar width: 0
XAxis mode: Wavelengths
Number of Pixels in Spectrum: 2048
>>>>>Begin Spectral Data<<<<<
187.836	-3.71
188.309	-3.71
188.782	-3.71
189.255	0.79
189.728	-3.01
190.201	1.99
190.674	1.59
191.147	-0.91
191.619	-8.11
192.092	3.69
192.565	7.79
193.038	-1.11
193.511	-0.41
193.984	-1.41
194.456	-3.81
194.929	2.29
195.402	0.39
195.874	3.99
196.347	-5.31
196.82	-4.61
197.292	-1.41
197.765	0.99
198.237	-6.01
198.71	5.49
199.182	0.39
199.655	6.29
200.127	-1.61
200.6	-5.91
201.072	-3.81
201.544	-3.61
202.017	-3.81
202.489	3.69
202.961	2.79
203.433	-6.11
203.906	-11.31
204.378	-6.61
204.85	-6.21
205.322	-6.61
205.794	-2.51
206.266	-0.31
206.739	-7.61
207.211	-6.21
207.683	-10.01
208.155	1.09
208.627	-5.41
209.099	-0.31
209.57	-8.31
210.042	-4.01
210.514	1.89
210.986	-2.21
211.458	-6.61
211.93	-2.11
212.402	-0.31
212.873	-4.01
213.345	-2.31
213.817	-8.81
214.288	-1.51
214.76	-13.71
215.232	-5.21
215.703	-4.61
216.175	-6.51
216.646	-7.11
217.118	-5.11
217.589	-5.91
218.061	-3.91
218.532	-4.71
219.004	-3.71
219.475	-2.11
219.946	1.59
220.418	-6.41
220.889	1.69
221.36	0.09
221.832	-2.91
222.303	-7.61
222.774	0.79
223.245	-3.91
223.717	1.19
224.188	-3.11
224.659	-5.71
225.13	-2.51
225.601	-5.41
226.072	-0.71
226.543	-1.31
227.014	1.09
227.485	-1.11
227.956	-5.01
228.427	-2.11
228.898	-1.01
229.369	5.79
229.839	-1.61
230.31	-6.21
230.781	0.79
231.252	-1.01
231.722	-0.61
232.193	-0.11
232.664	5.29
233.135	-2.71
233.605	1.99
234.076	-7.61
234.546	-1.51
235.017	4.79
235.487	3.79
235.958	4.09
236.428	-0.11
236.899	6.09
237.369	7.19
237.84	4.29
238.31	3.99
238.78	2.89
239.251	1.19
239.721	4.29
240.191	1.09
240.662	-0.61
241.132	-2.61
241.602	0.69
242.072	-3.51
242.542	9.09
243.013	-0.21
243.483	6.19
243.953	5.89
244.423	-1.31
244.893	-3.31
245.363	6.09
245.833	2.89
246.303	0.59
246.773	3.29
247.243	6.79
247.712	3.19
248.182	7.59
248.652	8.39
249.122	0.39
249.592	15.69
250.061	22.69
250.531	27.99
251.001	17.59
251.471	24.29
251.94	23.19
252.41	7.09
252.879	3.89
253.349	10.09
253.818	4.09
254.288	7.79
254.757	7.29
255.227	-1.11
255.696	2.59
256.166	4.79
256.635	9.59
257.105	9.79
257.574	12.29
258.043	10.09
258.513	14.89
258.982	22.49
259.451	12.09
259.92	17.59
260.389	14.79
260.859	15.99
261.328	13.99
261.797	12.99
262.266	12.59
262.735	12.79
263.204	3.99
263.673	3.49
264.142	11.59
264.611	-2.91
265.08	6.69
265.549	0.39
266.018	7.29
266.487	1.39
266.955	0.29
267.424	0.99
267.893	5.89
268.362	-0.61
268.83	3.19
269.299	9.29
269.768	10.79
270.236	6.89
270.705	3.79
271.174	8.79
271.642	9.49
272.111	12.89
272.579	25.49
273.048	26.09
273.516	27.89
273.985	33.39
274.453	20.99
274.922	20.49
275.39	11.79
275.858	5.79
276.327	15.19
276.795	19.39
277.263	13.59
277.731	35.49
278.2	53.99
278.668	61.49
279.136	47.79
279.604	14.99
280.072	18.49
280.54	12.29
281.008	6.19
281.477	15.69
281.945	14.89
282.413	14.49
282.881	20.49
283.348	7.29
283.816	14.19
284.284	16.39
284.752	22.29
285.22	15.99
285.688	17.09
286.156	21.39
286.623	39.09
287.091	53.89
287.559	29.39
288.026	16.29
288.494	15.69
288.962	11.99
289.429	8.59
289.897	18.39
290.364	15.19
290.832	17.79
291.3	18.69
291.767	22.59
292.234	19.29
292.702	23.29
293.169	18.29
293.637	24.19
294.104	19.69
294.571	11.49
295.039	13.99
295.506	17.49
295.973	18.29
296.44	20.29
296.908	16.59
297.375	20.89
297.842	17.99
298.309	23.89
298.776	15.89
299.243	19.29
299.71	18.09
300.177	28.09
300.644	24.29
301.111	28.49
301.578	25.89
302.045	20.19
302.512	25.09
302.979	28.69
303.446	23.79
303.913	16.19
304.379	20.69
304.846	29.39
305.313	24.99
305.78	25.69
306.246	26.49
306.713	27.69
307.18	25.09
307.646	25.39
308.113	34.49
308.579	29.79
309.046	26.29
309.512	25.19
309.979	24.19
310.445	38.09
310.912	32.19
311.378	33.89
311.845	31.99
312.311	31.79
312.777	34.19
313.244	35.29
313.71	40.49
314.176	28.49
314.642	29.99
315.109	30.69
315.575	32.89
316.041	38.99
316.507	30.79
316.973	40.49
317.439	40.79
317.905	42.19
318.371	36.49
318.837	35.49
319.303	40.69
319.769	34.19
320.235	40.99
320.701	41.79
321.167	41.39
321.633	29.69
322.099	38.69
322.564	46.59
323.03	46.79
323.496	41.39
323.962	43.69
324.427	37.29
324.893	44.99
325.359	40.39
325.824	44.59
326.29	36.09
326.755	43.09
327.221	45.59
327.686	42.89
328.152	46.59
328.617	46.29
329.083	47.09
329.548	56.49
330.014	52.29
330.479	49.89
330.944	41.79
331.41	38.19
331.875	40.49
332.34	42.39
332.805	47.49
333.271	50.19
333.736	52.09
334.201	55.59
334.666	56.69
335.131	57.89
335.596	53.19
336.061	57.29
336.526	46.19
336.991	53.59
337.456	60.19
337.921	51.59
338.386	48.69
338.851	49.29
339.316	44.69
339.781	53.19
340.246	53.39
340.711	44.69
341.175	57.09
341.64	45.79
342.105	52.29
342.569	54.49
343.034	60.69
343.499	57.19
343.963	59.39
344.428	63.69
344.893	64.59
345.357	59.19
345.822	57.39
346.286	69.79
346.751	73.09
347.215	73.19
347.679	74.19
348.144	100.29
348.608	79.09
349.073	69.99
349.537	71.49
350.001	83.79
350.465	94.19
350.93	85.09
351.394	81.89
351.858	79.89
352.322	89.09
352.786	84.29
353.25	103.89
353.715	116.39
354.179	109.39
354.643	123.99
355.107	133.69
355.571	113.69
356.035	109.39
356.498	121.19
356.962	131.99
357.426	132.59
357.89	119.79
358.354	90.19
358.818	81.99
359.281	82.09
359.745	77.59
360.209	76.49
360.673	76.79
361.136	78.89
361.6	84.09
362.064	82.59
362.527	87.39
362.991	90.89
363.454	82.59
363.918	78.79
364.381	78.29
364.845	81.69
365.308	87.29
365.772	85.09
366.235	83.89
366.698	87.99
367.162	85.29
367.625	84.99
368.088	94.09
368.552	89.99
369.015	95.69
369.478	99.69
369.941	99.29
370.404	92.69
370.867	102.29
371.331	111.09
371.794	113.49
372.257	109.09
372.72	115.29
373.183	107.29
373.646	102.39
374.109	105.99
374.572	107.59
375.035	108.49
375.497	110.79
375.96	106.59
376.423	103.79
376.886	114.59
377.349	113.49
377.811	107.79
378.274	111.19
378.737	108.69
379.199	110.39
379.662	113.99
380.125	118.79
380.587	114.59
381.05	129.49
381.512	127.49
381.975	133.69
382.437	125.79
382.9	129.79
383.362	135.49
383.825	139.69
384.287	149.69
384.75	136.89
385.212	139.09
385.674	148.39
386.136	139.39
386.599	120.39
387.061	132.49
387.523	133.69
387.985	136.59
388.447	144.89
388.91	144.19
389.372	160.49
389.834	155.49
390.296	145.09
390.758	157.49
391.22	165.39
391.682	211.49
392.144	298.89
392.606	225.19
393.068	163.99
393.529	172.39
393.991	155.59
394.453	147.59
394.915	156.99
395.377	192.19
395.838	221.29
396.3	155.79
396.762	146.29
397.224	129.89
397.685	123.49
398.147	129.19
398.608	130.39
399.07	131.29
399.531	138.99
399.993	141.59
400.454	155.69
400.916	152.49
401.377	144.79
401.839	156.59
402.3	153.29
402.762	166.19
403.223	174.09
403.684	172.69
404.145	159.99
404.607	157.09
405.068	164.39
405.529	166.39
405.99	189.89
406.451	176.89
406.913	178.49
407.374	164.39
407.835	163.19
408.296	165.89
408.757	175.79
409.218	186.39
409.679	183.79
410.14	175.29
410.601	180.29
411.062	183.69
411.522	189.69
411.983	187.19
412.444	181.99
412.905	176.29
413.366	179.69
413.826	191.39
414.287	215.99
414.748	267.19
415.208	245.19
415.669	215.99
416.13	209.89
416.59	205.19
417.051	215.19
417.511	220.69
417.972	230.49
418.432	251.39
418.893	293.29
419.353	250.39
419.814	200.29
420.274	187.69
420.734	178.59
421.195	201.99
421.655	201.59
422.115	192.79
422.576	188.49
423.036	194.39
423.496	204.29
423.956	219.49
424.416	229.49
424.876	265.59
425.336	264.59
425.797	262.29
426.257	256.29
426.717	237.09
427.177	235.49
427.637	221.09
428.097	237.89
428.556	246.89
429.016	264.49
429.476	271.29
429.936	279.09
430.396	275.39
430.856	296.99
431.315	314.89
431.775	356.39
432.235	382.99
432.694	340.69
433.154	367.39
433.614	394.29
434.073	340.19
434.533	290.09
434.993	277.19
435.452	282.59
435.912	297.99
436.371	294.19
436.83	293.59
437.29	270.59
437.749	250.09
438.209	245.19
438.668	266.39
439.127	289.39
439.587	263.09
440.046	244.59
440.505	265.39
440.964	275.09
441.424	329.49
441.883	315.09
442.342	262.79
442.801	227.99
443.26	224.59
443.719	225.29
444.178	219.29
444.637	218.29
445.096	221.59
445.555	217.29
446.014	223.79
446.473	223.49
446.932	237.09
447.391	225.89
447.849	226.09
448.308	220.59
448.767	219.99
449.226	232.59
449.685	231.59
450.143	252.39
450.602	233.59
451.061	219.49
451.519	233.99
451.978	232.79
452.436	237.19
452.895	243.99
453.353	252.59
453.812	238.99
454.27	242.99
454.729	244.49
455.187	246.69
455.646	244.59
456.104	248.69
456.562	260.99
457.021	266.89
457.479	262.49
457.937	269.59
458.395	267.99
458.854	245.89
459.312	256.79
459.77	280.89
460.228	260.49
460.686	245.49
461.144	257.79
461.602	245.09
462.06	245.29
462.518	254.29
462.976	256.99
463.434	261.29
463.892	262.99
464.35	275.99
464.808	293.79
465.266	263.09
465.724	268.39
466.181	274.19
466.639	277.19
467.097	293.29
467.555	298.79
468.012	297.09
468.47	320.39
468.928	325.89
469.385	343.79
469.843	352.39
470.3	348.49
470.758	361.39
471.215	386.79
471.673	417.89
472.13	409.19
472.588	424.49
473.045	366.39
473.503	379.79
473.96	393.09
474.417	405.39
474.875	428.29
475.332	479.19
475.789	464.59
476.246	468.09
476.704	483.49
477.161	513.69
477.618	531.79
478.075	565.19
478.532	613.49
478.989	698.59
479.446	811.39
479.903	780.19
480.36	822.89
480.817	869.29
481.274	973.09
481.731	1085.99
482.188	1188.19
482.645	1318.69
483.102	1427.79
483.558	1563.99
484.015	1625.99
484.472	1592.79
484.929	1544.29
485.385	1506.49
485.842	1456.99
486.299	1382.99
486.755	1324.79
487.212	1106.89
487.668	934.29
488.125	870.89
488.582	786.39
489.038	766.79
489.494	716.69
489.951	694.39
490.407	673.09
490.864	653.19
491.32	630.29
491.776	644.39
492.233	649.39
492.689	618.79
493.145	612.89
493.602	602.49
494.058	618.99
494.514	620.89
494.97	644.49
495.426	660.49
495.882	623.99
496.338	619.19
496.794	636.39
497.251	629.39
497.707	638.79
498.163	656.89
498.618	648.19
499.074	659.09
499.53	687.79
499.986	685.59
500.442	652.99
500.898	640.09
501.354	631.09
501.809	636.89
502.265	643.29
502.721	669.89
503.177	676.69
503.632	671.49
504.088	680.59
504.543	720.89
504.999	717.69
505.455	660.39
505.91	637.19
506.366	629.69
506.821	633.29
507.277	622.39
507.732	630.79
508.187	632.69
508.643	627.69
509.098	631.19
509.553	665.29
510.009	661.39
510.464	680.39
510.919	689.39
511.375	689.19
511.83	708.69
512.285	730.39
512.74	769.59
513.195	800.39
513.65	781.49
514.105	775.39
514.56	780.59
515.015	791.99
515.47	820.19
515.925	802.59
516.38	807.19
516.835	802.99
517.29	786.39
517.745	787.39
518.2	768.59
518.655	756.59
519.109	744.39
519.564	751.39
520.019	751.49
520.474	736.59
520.928	738.19
521.383	717.69
521.838	716.89
522.292	713.79
522.747	703.09
523.201	713.29
523.656	708.79
524.11	702.29
524.565	699.19
525.019	700.09
525.474	709.09
525.928	712.09
526.382	697.99
526.837	703.79
527.291	697.39
527.745	702.99
528.2	696.29
528.654	699.19
529.108	697.19
529.562	693.49
530.016	693.89
530.47	698.59
530.925	690.99
531.379	692.39
531.833	716.79
532.287	718.09
532.741	707.99
533.195	710.69
533.649	718.49
534.103	730.19
534.556	722.59
535.01	719.69
535.464	712.59
535.918	726.99
536.372	724.89
536.826	721.19
537.279	713.19
537.733	711.49
538.187	727.79
538.64	723.79
539.094	729.99
539.548	726.99
540.001	723.49
540.455	722.19
540.908	734.99
541.362	735.59
541.815	749.99
542.269	766.29
542.722	760.29
543.175	770.59
543.629	766.49
544.082	793.29
544.536	785.39
544.989	782.19
545.442	792.49
545.895	788.19
546.349	788.89
546.802	798.69
547.255	791.59
547.708	799.09
548.161	825.69
548.614	822.29
549.067	831.39
549.52	823.79
549.973	816.39
550.426	807.59
550.879	795.59
551.332	795.59
551.785	810.79
552.238	817.39
552.691	816.69
553.144	845.29
553.596	849.79
554.049	866.69
554.502	900.09
554.955	915.89
555.407	919.69
555.86	893.69
556.313	894.09
556.765	875.29
557.218	866.69
557.67	876.09
558.123	883.39
558.576	879.19
559.028	871.39
559.48	888.29
559.933	872.49
560.385	833.09
560.838	809.79
561.29	776.39
561.742	786.59
562.195	764.59
562.647	750.29
563.099	771.89
563.551	774.29
564.004	783.39
564.456	772.69
564.908	773.69
565.36	745.59
565.812	731.49
566.264	720.49
566.716	724.59
567.168	715.39
567.62	723.89
568.072	701.19
568.524	700.59
568.976	687.49
569.428	675.89
569.88	672.89
570.332	679.59
570.784	676.69
571.235	677.49
571.687	688.79
572.139	701.59
572.59	711.39
573.042	704.89
573.494	713.49
573.945	697.39
574.397	686.29
574.849	685.29
575.3	696.89
575.752	677.09
576.203	671.39
576.655	679.59
577.106	666.19
577.557	664.09
578.009	664.09
578.46	666.09
578.912	661.69
579.363	664.69
579.814	669.59
580.265	669.59
580.717	672.29
581.168	659.79
581.619	672.69
582.07	684.99
582.521	669.59
582.972	666.59
583.423	672.89
583.875	673.79
584.326	698.39
584.777	740.99
585.227	803.09
585.678	900.69
586.129	994.99
586.58	1065.59
587.031	1145.79
587.482	1296.19
587.933	1493.09
588.384	1290.39
588.834	961.09
589.285	805.09
589.736	785.49
590.186	759.19
590.637	768.39
591.088	734.69
591.538	728.79
591.989	724.79
592.439	723.09
592.89	709.59
593.34	697.59
593.791	701.49
594.241	689.09
594.692	697.09
595.142	694.69
595.593	688.49
596.043	702.59
596.493	703.99
596.943	713.39
597.394	710.69
597.844	702.09
598.294	716.49
598.744	742.39
599.195	758.29
599.645	807.49
600.095	839.19
600.545	902.59
600.995	949.89
601.445	1007.29
601.895	1072.09
602.345	1116.09
602.795	1104.29
603.245	1058.69
603.695	989.99
604.145	939.19
604.594	895.99
605.044	854.49
605.494	780.89
605.944	750.19
606.393	730.29
606.843	719.59
607.293	722.69
607.743	722.59
608.192	738.09
608.642	749.09
609.091	746.59
609.541	758.49
609.99	751.09
610.44	748.09
610.889	711.69
611.339	695.89
611.788	682.29
612.238	690.39
612.687	708.99
613.136	710.89
613.586	724.29
614.035	726.99
614.484	743.59
614.933	742.99
615.383	743.89
615.832	727.79
616.281	720.39
616.73	681.49
617.179	660.19
617.628	642.39
618.077	621.69
618.526	611.99
618.975	603.29
619.424	600.79
619.873	603.79
620.322	601.69
620.771	588.79
621.22	584.49
621.669	584.19
622.118	581.89
622.567	567.69
623.015	551.29
623.464	548.09
623.913	545.29
624.361	542.39
624.81	535.29
625.259	544.99
625.707	551.79
626.156	547.09
626.604	554.89
627.053	550.39
627.501	546.99
627.95	558.89
628.398	567.29
628.847	559.49
629.295	558.39
629.744	553.19
630.192	554.69
630.64	547.19
631.089	547.19
631.537	561.59
631.985	574.19
632.433	578.89
632.881	585.89
633.33	646.89
633.778	622.19
634.226	548.19
634.674	559.39
635.122	559.99
635.57	586.19
636.018	608.79
636.466	563.99
636.914	538.59
637.362	544.39
637.81	561.09
638.258	560.99
638.705	563.49
639.153	598.79
639.601	594.79
640.049	630.39
640.497	656.09
640.944	680.79
641.392	624.79
641.84	592.59
642.287	564.59
642.735	557.09
643.182	561.69
643.63	558.69
644.078	556.99
644.525	573.29
644.973	578.09
645.42	584.39
645.867	602.89
646.315	624.89
646.762	642.29
647.21	673.29
647.657	702.79
648.104	739.39
648.551	747.59
648.999	821.19
649.446	884.49
649.893	977.99
650.34	1131.09
650.787	1345.29
651.234	1694.69
651.682	2207.29
652.129	3011.59
652.576	4333.39
653.023	6386.79
653.47	8765.09
653.917	11042.29
654.363	12768.39
654.81	14169.69
655.257	13505.19
655.704	8864.39
656.151	5240.09
656.598	3374.69
657.044	2369.19
657.491	1835.69
657.938	1457.59
658.385	1229.59
658.831	1061.49
659.278	944.09
659.724	825.29
660.171	770.79
660.618	697.79
661.064	672.89
661.511	657.39
661.957	640.39
662.404	625.29
662.85	630.09
663.296	607.29
663.743	547.79
664.189	531.19
664.635	511.99
665.082	513.59
665.528	521.09
665.974	507.69
666.42	494.19
666.867	491.49
667.313	475.39
667.759	462.79
668.205	464.09
668.651	472.99
669.097	478.49
669.543	486.19
669.989	453.99
670.435	437.09
670.881	430.59
671.327	437.49
671.773	453.39
672.219	463.49
672.665	519.39
673.11	553.39
673.556	605.09
674.002	642.39
674.448	631.09
674.893	532.09
675.339	455.69
675.785	432.59
676.23	403.89
676.676	381.89
677.122	370.89
677.567	360.29
678.013	353.89
678.458	345.49
678.904	338.59
679.349	332.19
679.794	337.49
680.24	334.29
680.685	330.99
681.131	331.59
681.576	336.99
682.021	351.39
682.466	340.49
682.912	337.89
683.357	335.89
683.802	362.39
684.247	395.49
684.692	443.39
685.137	476.69
685.583	513.79
686.028	548.09
686.473	493.59
686.918	424.59
687.363	397.79
687.807	378.29
688.252	348.79
688.697	334.69
689.142	321.19
689.587	318.49
690.032	303.99
690.477	329.99
690.921	336.39
691.366	374.89
691.811	389.19
692.255	413.39
692.7	447.89
693.145	480.89
693.589	653.39
694.034	1064.09
694.478	1460.79
694.923	1678.49
695.367	2194.19
695.812	1156.69
696.256	479.29
696.701	356.69
697.145	327.19
697.59	309.29
698.034	313.69
698.478	314.09
698.922	311.49
699.367	307.59
699.811	320.79
700.255	340.49
700.699	363.99
701.143	412.59
701.588	464.19
702.032	497.99
702.476	494.79
702.92	472.19
703.364	469.59
703.808	594.49
704.252	982.79
704.696	1374.69
705.14	1601.19
705.584	2073.79
706.027	1027.89
706.471	505.09
706.915	375.29
707.359	334.79
707.803	306.59
708.246	296.39
708.69	299.99
709.134	303.09
709.577	297.19
710.021	299.69
710.465	295.09
710.908	286.29
711.352	294.39
711.795	290.79
712.239	326.29
712.682	360.89
713.126	398.79
713.569	450.09
714.012	356.09
714.456	303.19
714.899	282.69
715.342	256.99
715.786	248.79
716.229	244.29
716.672	245.39
717.115	234.99
717.558	243.59
718.002	235.99
718.445	255.69
718.888	275.29
719.331	284.69
719.774	285.19
720.217	291.39
720.66	271.49
721.103	259.49
721.546	240.59
721.989	243.49
722.432	219.49
722.874	223.99
723.317	218.19
723.76	226.09
724.203	246.19
724.645	299.19
725.088	423.69
725.531	549.79
725.974	619.49
726.416	518.69
726.859	293.19
727.301	232.59
727.744	228.09
728.187	221.39
728.629	222.29
729.071	222.99
729.514	243.09
729.956	260.29
730.399	270.89
730.841	284.19
731.283	262.79
731.726	255.39
732.168	244.09
732.61	247.09
733.053	267.59
733.495	298.09
733.937	332.89
734.379	378.79
734.821	408.99
735.263	509.59
735.705	780.59
736.148	1457.79
736.59	2461.79
737.032	2935.89
737.474	2400.09
737.916	771.99
738.357	407.89
738.799	312.99
739.241	287.09
739.683	267.89
740.125	277.79
740.567	289.09
741.008	302.29
741.45	300.99
741.892	298.59
742.334	322.49
742.775	343.39
743.217	325.29
743.658	256.59
744.1	236.69
744.542	247.39
744.983	290.89
745.425	325.19
745.866	329.59
746.307	269.49
746.749	277.89
747.19	301.79
747.632	428.99
748.073	818.39
748.514	1736.49
748.956	2710.89
749.397	3394.99
749.838	2804.49
750.279	2849.09
750.72	1439.09
751.162	520.49
751.603	301.79
752.044	234.69
752.485	206.29
752.926	194.99
753.367	192.29
753.808	184.49
754.249	184.19
754.69	174.59
755.131	172.59
755.572	173.29
756.013	169.39
756.453	174.29
756.894	178.09
757.335	178.09
757.776	187.49
758.216	188.09
758.657	185.59
759.098	189.19
759.538	213.19
759.979	248.79
760.42	354.09
760.86	647.29
761.301	1676.59
761.741	4152.79
762.182	6208.89
762.622	4355.59
763.063	1241.29
763.503	519.89
763.943	331.49
764.384	327.09
764.824	386.79
765.264	423.29
765.705	285.69
766.145	195.39
766.585	180.89
767.025	169.39
767.465	175.49
767.906	223.79
768.346	304.99
768.786	331.19
769.226	245.29
769.666	296.49
770.106	566.79
770.546	1449.19
770.986	2534.79
771.426	2287.29
771.866	760.99
772.306	312.09
772.745	201.19
773.185	161.39
773.625	167.89
774.065	155.69
774.505	192.79
774.944	292.79
775.384	634.69
775.824	1190.59
776.263	1168.89
776.703	491.89
777.142	219.09
777.582	151.39
778.021	127.89
778.461	125.69
778.9	134.99
779.34	132.19
779.779	112.99
780.219	100.19
780.658	104.19
781.097	107.09
781.537	103.09
781.976	105.99
782.415	93.29
782.855	98.69
783.294	97.39
783.733	100.99
784.172	103.19
784.611	94.39
785.05	109.09
785.489	100.39
785.928	111.79
786.367	114.29
786.806	112.89
787.245	128.09
787.684	140.19
788.123	144.59
788.562	129.69
789.001	122.49
789.44	116.09
789.879	105.19
790.317	111.69
790.756	115.49
791.195	125.39
791.634	135.89
792.072	189.29
792.511	345.79
792.95	935.79
793.388	2029.39
793.827	1863.99
794.265	639.79
794.704	263.79
795.142	179.19
795.581	139.79
796.019	131.99
796.458	126.29
796.896	123.19
797.334	119.49
797.773	142.39
798.211	206.89
798.649	406.19
799.087	955.69
799.526	1503.19
799.964	1899.19
800.402	1946.99
800.84	722.29
801.278	284.39
801.716	173.49
802.154	138.89
802.592	133.19
803.03	139.09
803.468	124.79
803.906	136.89
804.344	140.69
804.782	139.99
805.22	120.79
805.658	123.19
806.096	137.29
806.533	142.59
806.971	162.19
807.409	204.19
807.847	291.99
808.284	613.59
808.722	1728.99
809.16	3135.79
809.597	2913.89
810.035	5089.69
810.472	5571.99
810.91	2000.89
811.347	755.49
811.785	381.59
812.222	241.69
812.66	182.09
813.097	156.69
813.535	128.89
813.972	117.99
814.409	112.49
814.846	101.69
815.284	104.99
815.721	96.09
816.158	105.99
816.595	116.29
817.032	167.39
817.47	194.89
817.907	166.49
818.344	150.39
818.781	109.09
819.218	94.19
819.655	113.89
820.092	174.69
820.529	203.79
820.966	163.29
821.403	121.29
821.839	101.49
822.276	96.99
822.713	121.59
823.15	124.19
823.587	109.89
824.023	135.69
824.46	269.59
824.897	831.29
825.333	1307.19
825.77	560.39
826.206	225.89
826.643	121.89
827.08	95.29
827.516	80.29
827.953	71.89
828.389	74.19
828.825	66.99
829.262	69.39
829.698	61.99
830.135	55.89
830.571	54.29
831.007	55.89
831.443	57.59
831.88	59.59
832.316	58.29
832.752	57.29
833.188	62.69
833.624	59.49
834.06	60.99
834.497	69.69
834.933	72.59
835.369	69.69
835.805	63.19
836.241	72.09
836.677	71.89
837.112	92.79
837.548	102.69
837.984	126.79
838.42	183.19
838.856	459.79
839.292	1412.69
839.727	2205.49
840.163	1026.19
840.599	857.49
841.034	1909.79
841.47	2050.49
841.906	742.19
842.341	320.39
842.777	223.59
843.212	300.89
843.648	299.09
844.083	144.49
844.519	94.79
844.954	80.59
845.39	58.79
845.825	58.69
846.261	53.19
846.696	51.99
847.131	58.49
847.566	52.49
848.002	53.09
848.437	52.29
848.872	57.29
849.307	56.09
849.742	80.89
850.177	170.19
850.613	515.19
851.048	844.99
851.483	362.29
851.918	141.39
852.353	81.49
852.788	62.99
853.223	56.99
853.657	52.29
854.092	48.89
854.527	32.59
854.962	38.89
855.397	41.79
855.832	38.79
856.266	34.89
856.701	39.89
857.136	41.29
857.57	37.89
858.005	48.69
858.44	59.79
858.874	42.89
859.309	47.19
859.743	35.39
860.178	41.39
860.612	43.09
861.047	51.09
861.481	57.79
861.915	60.59
862.35	44.69
862.784	30.49
863.218	33.29
863.653	33.39
864.087	38.29
864.521	49.19
864.955	68.89
865.39	147.39
865.824	167.79
866.258	110.69
866.692	149.09
867.126	159.69
867.56	98.69
867.994	46.99
868.428	34.59
868.862	43.29
869.296	51.89
869.73	53.69
870.164	47.39
870.598	43.39
871.031	37.39
871.465	29.29
871.899	34.69
872.333	21.19
872.766	18.99
873.2	22.29
873.634	26.59
874.067	24.89
874.501	20.79
874.935	30.89
875.368	29.29
875.802	24.79
876.235	16.99
876.669	28.49
877.102	18.69
877.535	21.79
877.969	16.89
878.402	18.19
878.836	12.69
879.269	20.19
879.702	16.59
880.135	17.19
880.569	22.49
881.002	22.59
881.435	21.79
881.868	17.69
882.301	21.39
882.734	18.39
883.167	23.19
883.601	20.09
884.034	15.29
884.467	11.69
884.899	19.99
885.332	15.99
885.765	13.29
886.198	13.09
886.631	15.79
887.064	15.09
887.497	20.29
887.929	26.49
888.362	13.59
888.795	12.69
889.228	19.59
889.66	25.29
890.093	16.29
890.526	15.99
890.958	11.79
891.391	16.59
891.823	19.29
892.256	18.79
892.688	5.79
893.121	13.29
893.553	21.69
893.985	19.19
894.418	17.59
894.85	7.99
895.282	14.49
895.715	15.99
896.147	17.89
896.579	14.59
897.011	13.09
897.444	12.59
897.876	9.89
898.308	15.89
898.74	13.79
899.172	5.19
899.604	23.29
900.036	17.69
900.468	16.79
900.9	14.59
901.332	15.69
901.764	11.69
902.196	19.39
902.628	14.09
903.06	17.69
903.491	20.89
903.923	20.79
904.355	21.19
904.787	22.09
905.218	21.09
905.65	20.89
906.082	11.39
906.513	11.09
906.945	19.29
907.376	18.19
907.808	23.49
908.239	17.79
908.671	13.89
909.102	16.89
909.534	22.39
909.965	42.39
910.397	85.29
910.828	290.89
911.259	456.39
911.691	210.39
912.122	103.99
912.553	50.79
912.984	28.09
913.415	26.89
913.847	21.29
914.278	9.49
914.709	11.29
915.14	22.69
915.571	26.79
916.002	9.19
916.433	12.59
916.864	13.89
917.295	13.19
917.726	20.79
918.157	12.49
918.587	22.89
919.018	19.69
919.449	19.89
919.88	26.29
920.311	30.69
920.741	43.09
921.172	160.89
921.603	147.39
922.033	67.09
922.464	42.39
922.895	20.49
923.325	23.99
923.756	12.19
924.186	7.29
924.617	26.19
925.047	34.49
925.478	52.19
925.908	43.29
926.338	24.79
926.769	22.99
927.199	20.29
927.629	3.99
928.06	10.89
928.49	14.79
928.92	19.29
929.35	11.39
929.78	11.59
930.21	6.29
930.641	6.29
931.071	4.89
931.501	5.39
931.931	3.39
932.361	9.09
932.791	8.79
933.221	9.79
933.651	7.59
934.08	11.19
934.51	25.19
934.94	6.79
935.37	10.59
935.8	6.59
936.229	8.99
936.659	12.89
937.089	-1.31
937.519	11.69
937.948	20.69
938.378	16.79
938.807	7.39
939.237	8.39
939.666	7.09
940.096	-1.21
940.525	-4.11
940.955	0.79
941.384	7.39
941.814	-3.21
942.243	-6.51
942.672	6.29
943.102	-4.01
943.531	-0.91
943.96	0.59
944.39	5.79
944.819	-3.31
945.248	4.89
945.677	4.59
946.106	0.89
946.535	1.79
946.964	2.19
947.393	0.49
947.822	-0.81
948.251	-6.21
948.68	3.49
949.109	10.09
949.538	12.49
949.967	3.99
950.396	2.09
950.825	-1.61
951.254	-3.01
951.682	-12.91
952.111	5.59
952.54	1.89
952.969	0.99
953.397	-7.61
953.826	1.59
954.254	-7.51
954.683	0.19
955.112	-3.91
955.54	4.89
955.969	-2.51
956.397	0.69
956.826	-1.51
957.254	1.99
957.682	-2.71
958.111	2.49
958.539	-1.31
958.967	1.79
959.396	-7.51
959.824	-2.21
960.252	1.39
960.68	-3.41
961.109	-2.41
961.537	-7.81
961.965	3.99
962.393	-1.61
962.821	-4.71
963.249	2.49
963.677	5.29
964.105	5.89
964.533	39.49
964.961	38.99
965.389	18.49
965.817	4.89
966.245	-1.51
966.672	-8.31
967.1	-5.81
967.528	-0.61
967.956	-6.01
968.383	2.09
968.811	-4.51
969.239	0.09
969.666	-3.11
970.094	-2.81
970.522	0.79
970.949	-4.01
971.377	-1.31
971.804	-1.11
972.232	-2.81
972.659	-6.61
973.087	-4.31
973.514	-2.91
973.941	-10.41
974.369	4.59
974.796	3.89
975.223	-0.01
975.651	4.39
976.078	2.89
976.505	-2.71
976.932	0.09
977.359	21.19
977.786	9.59
978.214	3.89
978.641	-7.91
979.068	-4.31
979.495	-3.71
979.922	-4.51
980.349	-2.01
980.776	1.39
981.202	1.49
981.629	5.29
982.056	2.99
982.483	-5.11
982.91	4.09
983.337	-7.21
983.763	5.19
984.19	-6.51
984.617	-1.21
985.043	-3.71
985.47	0.59
985.897	-6.81
986.323	-3.11
986.75	0.89
987.176	-0.71
987.603	1.39
988.029	0.29
988.456	-5.01
988.882	3.49
989.308	-8.81
989.735	-10.41
990.161	-2.61
990.587	-2.61
991.014	2.19
991.44	0.79
991.866	1.49
992.292	-6.61
992.719	-4.81
993.145	2.89
993.571	-7.01
993.997	-11.71
994.423	-2.31
994.849	-6.01
995.275	-2.71
995.701	0.69
996.127	-0.91
996.553	-0.31
996.979	-3.21
997.405	-1.61
997.83	-6.81
998.256	-5.61
998.682	-5.11
999.108	-4.61
999.534	-0.11
999.959	-4.21
1000.385	-7.41
1000.811	-0.91
1001.236	-8.01
1001.662	-8.21
1002.087	-5.51
1002.513	-2.81
1002.938	5.39
1003.364	0.39
1003.789	4.19
1004.215	-0.01
1004.64	-3.01
1005.066	3.49
1005.491	4.89
1005.916	-5.11
1006.342	-8.01
1006.767	-10.71
1007.192	0.39
1007.617	1.09
1008.042	-12.01
1008.468	-6.41
1008.893	-4.81
1009.318	-7.41
1009.743	-0.01
1010.168	-5.51
1010.593	-1.61
1011.018	-4.21
1011.443	0.69
1011.868	-0.11
1012.293	0.69
1012.718	-6.31
1013.143	0.39
1013.567	7.29
1013.992	-4.61
1014.417	-11.01
1014.842	0.89
1015.267	-8.41
1015.691	-4.41
1016.116	1.19
1016.541	-4.91
1016.965	1.09
1017.39	1.49
1017.814	2.09
1018.239	5.29
1018.663	-9.11
1019.088	-8.01
1019.512	0.09
1019.937	-5.01
1020.361	-7.01
1020.785	-10.51
1021.21	-5.31
1021.634	-2.51
1022.058	-7.21
1022.483	4.49
1022.907	-4.01
1023.331	-6.71
1023.755	-2.91
1024.179	-1.81
1024.604	-4.01
1025.028	-3.51
1025.452	-4.11
1025.876	-0.41
1026.3	-2.51
1026.724	-10.51
1027.148	-4.91
1027.572	-6.91
1027.996	-5.71
1028.42	-3.41
1028.843	-2.21
1029.267	-5.91
1029.691	-3.61
1030.115	-9.01
1030.539	-4.41
1030.962	-8.51
1031.386	-12.21
1031.81	-2.21
1032.233	-1.51
1032.657	4.99
1033.08	-0.51
1033.504	-1.11
1033.927	-5.91
1034.351	0.59
1034.774	-1.01
1035.198	-3.71
1035.621	-1.31
1036.045	-7.41
1036.468	-7.41
1036.891	-13.71
1037.315	-10.01
1037.738	-6.71
1038.161	3.99
1038.584	-9.61
1039.008	-8.41
1039.431	-4.71
1039.854	-2.41
1040.277	-8.91
1040.7	-12.61
1041.123	-6.61
1041.546	-6.61
1041.969	-2.51
1042.392	-6.41
1042.815	-4.41
1043.238	-8.11
1043.661	5.89
1044.084	-3.21
1044.507	-5.81
1044.93	-7.91
1045.352	-4.61
1045.775	-2.61
1046.198	1.59
1046.621	-5.11
1047.043	1.09
1047.466	4.69
1047.889	-6.61
1048.311	-5.61
1048.734	-3.41
1049.156	-6.01
1049.579	-5.31
1050.001	-6.71
1050.424	-4.21
1050.846	-6.21
1051.269	-3.71
1051.691	-11.51
1052.113	-4.91
1052.536	-2.31
1052.958	-2.21
1053.38	-7.01
1053.802	-9.91
1054.225	-0.61
1054.647	-7.71
1055.069	-5.41
1055.491	2.29
1055.913	-9.21
1056.335	-3.81
1056.757	-5.41
1057.179	-7.21
1057.601	-11.01
1058.023	-2.21
1058.445	-7.21
1058.867	-5.31
1059.289	-4.21
1059.711	-4.11
1060.133	-4.91
1060.555	-5.21
1060.976	-9.71
1061.398	-9.11
1061.82	-2.61
1062.241	-2.91
1062.663	-4.61
1063.085	-7.51
1063.506	-0.91
1063.928	-6.71
1064.35	-1.61
1064.771	-6.21
1065.193	-0.31
1065.614	-11.71
1066.035	-3.81
1066.457	-4.11
1066.878	-0.61
1067.3	-3.51
1067.721	-3.91
1068.142	-3.71
1068.564	-3.61
1068.985	-11.81
1069.406	-5.71
1069.827	-6.61
1070.248	-4.21
1070.67	-8.21
1071.091	-5.41
1071.512	-0.51
1071.933	-0.61
1072.354	-5.41
1072.775	-6.01
1073.196	-9.11
1073.617	-9.31
1074.038	-1.61
1074.459	-0.91
1074.88	-8.11
1075.3	-5.11
1075.721	-9.21
1076.142	-5.31
1076.563	-6.81
1076.983	-17.11
1077.404	-11.51
1077.825	-15.11
1078.246	-5.81
1078.666	-11.41
1079.087	-6.01
1079.507	-6.41
1079.928	1.89
1080.348	-0.41
1080.769	-1.41
1081.189	-2.61
1081.61	-3.81
1082.03	-12.61
1082.451	-7.61
1082.871	-1.71
1083.291	-4.61
1083.711	-8.31
1084.132	-4.31
1084.552	-4.21
1084.972	-4.11
1085.392	-5.71
1085.813	-9.31
1086.233	-8.51
1086.653	-8.21
1087.073	0.39
1087.493	-8.81
1087.913	-3.91
1088.333	-10.21
1088.753	-4.21
1089.173	2.99
1089.593	-2.81
1090.013	2.49
1090.433	0.09
1090.852	-7.61
1091.272	1.49
1091.692	-8.01
1092.112	-5.31
1092.531	-9.21
1092.951	-11.51
1093.371	-5.91
1093.79	-0.31
1094.21	-4.11
1094.63	-6.81
1095.049	-3.61
1095.469	-6.41
1095.888	3.09
1096.308	1.69
1096.727	2.19
1097.146	-8.41
1097.566	0.59
1097.985	-11.91
1098.405	-5.51
1098.824	-6.51
1099.243	-3.41
1099.662	-10.91
1100.082	-1.91
1100.501	-2.11
1100.92	-4.51
1101.339	-3.21
1101.758	-4.21
