Data from 20171114-ORNL-Ar_H_NY_Subt18_08-08-44-074.txt Node
Date: Tue Nov 14 08:08:44 EST 2017
User: Ender
Spectrometer: HR+D1039
Trigger mode: 0
Integration Time (sec): 2.730000E-2
Scans to average: 10
Electric dark correction enabled: true
Nonlinearity correction enabled: false
Boxcar width: 0
XAxis mode: Wavelengths
Number of Pixels in Spectrum: 2048
>>>>>Begin Spectral Data<<<<<
187.836	-3.11
188.309	-3.11
188.782	-3.11
189.255	-0.91
189.728	2.09
190.201	5.59
190.674	2.99
191.147	2.09
191.619	-10.41
192.092	1.19
192.565	2.49
193.038	1.29
193.511	-1.71
193.984	1.39
194.456	-1.91
194.929	-0.81
195.402	0.29
195.874	-0.61
196.347	-2.31
196.82	-7.91
197.292	0.69
197.765	1.29
198.237	-3.41
198.71	4.29
199.182	-3.21
199.655	0.59
200.127	2.09
200.6	-2.61
201.072	-0.11
201.544	-1.61
202.017	-5.91
202.489	-2.31
202.961	-2.21
203.433	-6.21
203.906	-5.81
204.378	-5.11
204.85	-1.61
205.322	-11.71
205.794	-5.81
206.266	0.39
206.739	-4.61
207.211	4.29
207.683	-7.41
208.155	-6.61
208.627	-7.51
209.099	-6.31
209.57	-4.91
210.042	-8.31
210.514	-0.61
210.986	-4.51
211.458	-7.71
211.93	-8.81
212.402	1.29
212.873	-3.71
213.345	-8.31
213.817	-13.51
214.288	-3.41
214.76	-8.61
215.232	-1.41
215.703	-1.51
216.175	-3.51
216.646	-10.21
217.118	-12.01
217.589	-4.21
218.061	-1.21
218.532	-6.81
219.004	-0.11
219.475	-9.21
219.946	-2.61
220.418	-7.21
220.889	2.79
221.36	0.29
221.832	-6.11
222.303	-5.01
222.774	3.09
223.245	-16.41
223.717	-3.11
224.188	-0.81
224.659	-8.51
225.13	-0.81
225.601	-0.11
226.072	1.19
226.543	-3.31
227.014	-1.41
227.485	-3.91
227.956	-6.51
228.427	-3.01
228.898	0.99
229.369	2.79
229.839	-1.71
230.31	-7.71
230.781	1.39
231.252	-6.31
231.722	-7.31
232.193	-1.61
232.664	-2.01
233.135	-2.21
233.605	-0.21
234.076	0.59
234.546	-4.01
235.017	-0.21
235.487	-4.31
235.958	-2.91
236.428	-6.11
236.899	-0.71
237.369	-2.51
237.84	-11.01
238.31	0.69
238.78	-8.11
239.251	-7.01
239.721	-0.51
240.191	2.99
240.662	-3.11
241.132	2.29
241.602	-6.71
242.072	5.49
242.542	6.59
243.013	-4.11
243.483	-0.61
243.953	-4.61
244.423	-1.71
244.893	-9.31
245.363	4.69
245.833	-0.51
246.303	-0.51
246.773	0.39
247.243	-4.41
247.712	0.89
248.182	3.69
248.652	1.09
249.122	-6.81
249.592	5.59
250.061	3.29
250.531	13.59
251.001	0.49
251.471	8.99
251.94	9.19
252.41	-0.21
252.879	-3.51
253.349	10.09
253.818	8.09
254.288	4.39
254.757	-3.51
255.227	-5.31
255.696	0.29
256.166	3.39
256.635	1.19
257.105	4.19
257.574	-1.31
258.043	0.09
258.513	2.89
258.982	4.89
259.451	2.89
259.92	1.69
260.389	7.99
260.859	14.69
261.328	4.89
261.797	4.89
262.266	2.29
262.735	6.49
263.204	2.29
263.673	-1.61
264.142	7.19
264.611	-4.11
265.08	2.59
265.549	-4.01
266.018	0.59
266.487	-8.11
266.955	-7.01
267.424	-0.91
267.893	4.09
268.362	2.69
268.83	-1.71
269.299	5.89
269.768	3.69
270.236	-5.21
270.705	0.29
271.174	-4.01
271.642	0.49
272.111	-0.11
272.579	4.09
273.048	7.99
273.516	8.49
273.985	7.59
274.453	11.89
274.922	5.59
275.39	8.29
275.858	-1.21
276.327	7.49
276.795	9.19
277.263	4.69
277.731	10.09
278.2	18.39
278.668	17.29
279.136	17.99
279.604	8.29
280.072	8.19
280.54	4.89
281.008	2.69
281.477	13.79
281.945	9.89
282.413	12.19
282.881	11.79
283.348	4.59
283.816	7.59
284.284	7.89
284.752	14.89
285.22	8.89
285.688	8.09
286.156	11.19
286.623	22.49
287.091	17.89
287.559	16.89
288.026	15.29
288.494	8.09
288.962	3.19
289.429	1.99
289.897	14.99
290.364	10.79
290.832	12.99
291.3	13.09
291.767	11.49
292.234	13.39
292.702	11.89
293.169	6.19
293.637	16.69
294.104	14.59
294.571	2.89
295.039	8.49
295.506	8.29
295.973	5.79
296.44	8.19
296.908	12.39
297.375	13.69
297.842	12.09
298.309	10.09
298.776	10.39
299.243	14.49
299.71	3.99
300.177	17.19
300.644	12.89
301.111	12.69
301.578	15.19
302.045	9.99
302.512	14.59
302.979	21.19
303.446	14.99
303.913	14.89
304.379	10.69
304.846	14.19
305.313	22.99
305.78	17.19
306.246	14.99
306.713	22.09
307.18	18.79
307.646	17.39
308.113	17.49
308.579	18.19
309.046	22.59
309.512	26.09
309.979	11.29
310.445	16.89
310.912	22.99
311.378	23.99
311.845	17.09
312.311	22.59
312.777	27.99
313.244	25.49
313.71	31.99
314.176	25.49
314.642	23.59
315.109	18.39
315.575	29.09
316.041	34.69
316.507	24.09
316.973	27.99
317.439	25.49
317.905	30.69
318.371	26.59
318.837	30.59
319.303	23.99
319.769	25.89
320.235	26.69
320.701	30.89
321.167	30.79
321.633	22.99
322.099	28.69
322.564	35.29
323.03	27.29
323.496	30.79
323.962	35.99
324.427	27.39
324.893	32.39
325.359	30.49
325.824	24.49
326.29	30.59
326.755	27.49
327.221	33.79
327.686	33.39
328.152	37.69
328.617	28.99
329.083	34.19
329.548	39.39
330.014	39.69
330.479	33.89
330.944	37.29
331.41	30.19
331.875	37.89
332.34	35.49
332.805	37.39
333.271	38.19
333.736	30.79
334.201	42.39
334.666	46.89
335.131	49.49
335.596	49.69
336.061	42.99
336.526	29.19
336.991	41.89
337.456	46.29
337.921	45.29
338.386	36.19
338.851	44.59
339.316	44.19
339.781	37.59
340.246	39.59
340.711	40.19
341.175	44.79
341.64	40.49
342.105	45.69
342.569	43.69
343.034	50.09
343.499	40.89
343.963	46.79
344.428	56.49
344.893	51.99
345.357	55.19
345.822	47.09
346.286	56.49
346.751	67.29
347.215	52.59
347.679	62.89
348.144	84.29
348.608	73.79
349.073	54.69
349.537	63.69
350.001	67.59
350.465	73.49
350.93	72.49
351.394	74.89
351.858	66.09
352.322	80.19
352.786	73.89
353.25	84.29
353.715	93.79
354.179	83.79
354.643	101.09
355.107	102.79
355.571	93.59
356.035	91.09
356.498	95.29
356.962	99.79
357.426	105.99
357.89	100.59
358.354	78.59
358.818	75.09
359.281	67.99
359.745	68.09
360.209	59.69
360.673	60.39
361.136	71.69
361.6	77.49
362.064	74.29
362.527	80.49
362.991	81.79
363.454	72.99
363.918	70.19
364.381	73.59
364.845	73.39
365.308	73.39
365.772	81.19
366.235	79.39
366.698	77.69
367.162	75.59
367.625	73.39
368.088	86.39
368.552	78.39
369.015	79.89
369.478	84.99
369.941	88.59
370.404	86.09
370.867	83.89
371.331	93.39
371.794	101.89
372.257	89.99
372.72	101.69
373.183	95.39
373.646	89.29
374.109	97.49
374.572	94.89
375.035	98.09
375.497	101.09
375.96	96.69
376.423	93.19
376.886	105.59
377.349	101.69
377.811	96.39
378.274	99.49
378.737	99.09
379.199	106.99
379.662	103.39
380.125	107.29
380.587	104.09
381.05	96.49
381.512	107.49
381.975	119.59
382.437	110.79
382.9	111.19
383.362	120.39
383.825	121.29
384.287	119.79
384.75	119.49
385.212	119.09
385.674	133.39
386.136	126.49
386.599	116.59
387.061	116.89
387.523	116.29
387.985	122.99
388.447	129.89
388.91	123.79
389.372	127.39
389.834	133.89
390.296	124.69
390.758	129.09
391.22	137.89
391.682	151.69
392.144	180.99
392.606	166.79
393.068	140.49
393.529	150.69
393.991	128.69
394.453	130.69
394.915	137.29
395.377	140.69
395.838	152.19
396.3	138.79
396.762	136.09
397.224	126.69
397.685	128.69
398.147	128.59
398.608	121.39
399.07	128.59
399.531	135.19
399.993	131.99
400.454	147.59
400.916	140.29
401.377	143.69
401.839	148.89
402.3	150.29
402.762	159.89
403.223	178.19
403.684	161.09
404.145	155.79
404.607	159.19
405.068	159.99
405.529	172.59
405.99	180.19
406.451	166.59
406.913	168.09
407.374	157.59
407.835	156.59
408.296	162.39
408.757	169.49
409.218	181.19
409.679	177.79
410.14	174.49
410.601	173.89
411.062	179.89
411.522	181.49
411.983	173.39
412.444	175.19
412.905	174.09
413.366	179.49
413.826	193.69
414.287	215.99
414.748	263.79
415.208	238.79
415.669	220.89
416.13	207.39
416.59	202.49
417.051	218.99
417.511	223.09
417.972	243.39
418.432	252.59
418.893	292.59
419.353	253.89
419.814	207.19
420.274	187.79
420.734	184.49
421.195	197.09
421.655	191.29
422.115	200.09
422.576	192.89
423.036	205.69
423.496	212.99
423.956	217.69
424.416	234.59
424.876	273.79
425.336	258.69
425.797	257.89
426.257	258.09
426.717	234.59
427.177	232.69
427.637	222.29
428.097	234.09
428.556	244.89
429.016	268.79
429.476	255.69
429.936	276.69
430.396	278.19
430.856	289.09
431.315	309.99
431.775	345.19
432.235	378.39
432.694	346.09
433.154	353.49
433.614	383.49
434.073	332.89
434.533	277.29
434.993	269.39
435.452	278.89
435.912	284.29
436.371	285.39
436.83	273.89
437.29	260.39
437.749	249.39
438.209	247.39
438.668	272.49
439.127	280.19
439.587	268.69
440.046	252.59
440.505	258.19
440.964	279.89
441.424	323.99
441.883	304.19
442.342	261.29
442.801	231.29
443.26	230.69
443.719	233.99
444.178	228.49
444.637	220.99
445.096	222.49
445.555	222.99
446.014	224.39
446.473	235.19
446.932	243.39
447.391	229.69
447.849	235.49
448.308	219.99
448.767	229.79
449.226	243.79
449.685	237.09
450.143	252.19
450.602	233.89
451.061	229.09
451.519	236.69
451.978	236.99
452.436	241.09
452.895	237.89
453.353	250.59
453.812	243.89
454.27	246.29
454.729	248.49
455.187	252.59
455.646	254.29
456.104	248.59
456.562	267.89
457.021	265.89
457.479	261.89
457.937	282.69
458.395	271.99
458.854	250.89
459.312	266.29
459.77	275.29
460.228	256.59
460.686	254.29
461.144	257.09
461.602	256.69
462.06	254.19
462.518	266.79
462.976	265.19
463.434	266.19
463.892	272.89
464.35	285.69
464.808	294.19
465.266	273.19
465.724	280.29
466.181	283.39
466.639	282.49
467.097	299.09
467.555	305.59
468.012	308.59
468.47	313.49
468.928	330.89
469.385	352.59
469.843	353.39
470.3	353.59
470.758	374.79
471.215	391.69
471.673	411.99
472.13	417.19
472.588	425.69
473.045	384.39
473.503	394.79
473.96	409.99
474.417	415.79
474.875	438.09
475.332	483.69
475.789	473.29
476.246	476.39
476.704	488.59
477.161	517.79
477.618	522.99
478.075	561.09
478.532	618.29
478.989	685.79
479.446	798.09
479.903	763.09
480.36	803.49
480.817	848.59
481.274	927.19
481.731	1032.89
482.188	1105.49
482.645	1224.19
483.102	1316.89
483.558	1445.69
484.015	1479.79
484.472	1460.59
484.929	1406.19
485.385	1368.59
485.842	1336.49
486.299	1285.79
486.755	1252.09
487.212	1066.69
487.668	903.49
488.125	840.09
488.582	779.69
489.038	741.19
489.494	711.19
489.951	689.39
490.407	669.09
490.864	641.79
491.32	639.39
491.776	651.39
492.233	653.59
492.689	629.39
493.145	610.79
493.602	610.49
494.058	618.99
494.514	626.69
494.97	645.09
495.426	653.09
495.882	625.89
496.338	614.89
496.794	635.69
497.251	620.09
497.707	647.09
498.163	654.29
498.618	656.99
499.074	657.49
499.53	676.39
499.986	674.89
500.442	650.49
500.898	635.39
501.354	632.99
501.809	628.59
502.265	637.89
502.721	649.39
503.177	663.49
503.632	658.59
504.088	676.29
504.543	698.09
504.999	703.79
505.455	662.29
505.91	645.29
506.366	652.29
506.821	650.79
507.277	639.69
507.732	646.19
508.187	641.69
508.643	656.49
509.098	649.79
509.553	678.09
510.009	685.99
510.464	688.19
510.919	707.79
511.375	705.99
511.83	713.79
512.285	746.89
512.74	767.89
513.195	799.69
513.65	784.09
514.105	774.79
514.56	788.09
515.015	799.49
515.47	825.19
515.925	787.89
516.38	797.39
516.835	808.49
517.29	801.09
517.745	789.49
518.2	778.89
518.655	769.09
519.109	771.89
519.564	762.79
520.019	742.89
520.474	742.79
520.928	729.99
521.383	739.99
521.838	731.09
522.292	736.29
522.747	727.79
523.201	720.29
523.656	718.39
524.11	714.19
524.565	712.69
525.019	709.89
525.474	715.49
525.928	714.59
526.382	716.79
526.837	719.19
527.291	718.59
527.745	720.39
528.2	713.19
528.654	702.59
529.108	704.39
529.562	702.19
530.016	705.69
530.47	709.49
530.925	711.19
531.379	713.99
531.833	717.59
532.287	715.69
532.741	711.89
533.195	709.09
533.649	724.39
534.103	725.39
534.556	714.69
535.01	721.59
535.464	718.29
535.918	731.89
536.372	730.79
536.826	734.19
537.279	714.99
537.733	719.79
538.187	727.29
538.64	724.19
539.094	736.29
539.548	745.89
540.001	743.19
540.455	748.09
540.908	760.89
541.362	747.99
541.815	767.99
542.269	786.09
542.722	779.99
543.175	792.29
543.629	798.59
544.082	812.59
544.536	813.79
544.989	807.49
545.442	820.69
545.895	813.99
546.349	814.59
546.802	812.69
547.255	833.59
547.708	831.49
548.161	836.59
548.614	848.79
549.067	855.29
549.52	845.39
549.973	829.09
550.426	819.19
550.879	823.89
551.332	828.19
551.785	839.49
552.238	827.39
552.691	837.79
553.144	864.59
553.596	865.59
554.049	881.99
554.502	923.19
554.955	941.59
555.407	935.39
555.86	932.59
556.313	916.39
556.765	908.59
557.218	906.59
557.67	906.09
558.123	904.79
558.576	904.79
559.028	898.69
559.48	909.79
559.933	906.09
560.385	865.29
560.838	839.79
561.29	817.49
561.742	805.09
562.195	791.19
562.647	797.19
563.099	798.79
563.551	796.69
564.004	807.79
564.456	807.39
564.908	788.49
565.36	767.19
565.812	754.29
566.264	736.09
566.716	750.99
567.168	726.79
567.62	729.29
568.072	715.79
568.524	711.09
568.976	719.19
569.428	705.19
569.88	707.99
570.332	709.09
570.784	705.29
571.235	704.29
571.687	721.99
572.139	727.79
572.59	725.19
573.042	733.29
573.494	733.59
573.945	727.09
574.397	717.69
574.849	701.79
575.3	709.89
575.752	707.39
576.203	701.99
576.655	699.79
577.106	691.89
577.557	695.49
578.009	691.79
578.46	679.99
578.912	686.69
579.363	696.39
579.814	686.99
580.265	680.49
580.717	687.39
581.168	693.99
581.619	700.29
582.07	703.29
582.521	698.29
582.972	694.09
583.423	709.69
583.875	706.39
584.326	705.99
584.777	733.19
585.227	768.99
585.678	803.99
586.129	835.19
586.58	866.79
587.031	900.99
587.482	966.59
587.933	1029.49
588.384	971.09
588.834	845.29
589.285	800.99
589.736	804.29
590.186	792.09
590.637	789.79
591.088	767.19
591.538	763.69
591.989	749.49
592.439	747.39
592.89	739.89
593.34	739.09
593.791	737.39
594.241	722.39
594.692	725.99
595.142	714.29
595.593	724.69
596.043	716.59
596.493	730.69
596.943	739.39
597.394	744.59
597.844	743.49
598.294	758.59
598.744	789.49
599.195	812.39
599.645	859.69
600.095	887.09
600.545	937.79
600.995	1006.39
601.445	1074.09
601.895	1123.29
602.345	1171.99
602.795	1149.19
603.245	1103.59
603.695	1056.79
604.145	992.09
604.594	952.89
605.044	896.59
605.494	823.59
605.944	784.49
606.393	771.09
606.843	751.79
607.293	745.89
607.743	756.29
608.192	775.39
608.642	771.09
609.091	785.59
609.541	789.69
609.99	786.09
610.44	787.29
610.889	745.49
611.339	718.49
611.788	716.19
612.238	711.39
612.687	738.79
613.136	723.69
613.586	734.69
614.035	720.89
614.484	742.19
614.933	733.29
615.383	734.79
615.832	739.19
616.281	730.99
616.73	696.09
617.179	678.79
617.628	667.09
618.077	657.69
618.526	658.09
618.975	637.09
619.424	632.09
619.873	640.39
620.322	634.09
620.771	622.89
621.22	620.99
621.669	616.89
622.118	603.59
622.567	602.19
623.015	587.29
623.464	592.59
623.913	584.09
624.361	572.69
624.81	572.69
625.259	573.19
625.707	574.49
626.156	582.29
626.604	589.79
627.053	585.69
627.501	588.39
627.95	590.79
628.398	600.69
628.847	592.19
629.295	592.49
629.744	598.39
630.192	593.59
630.64	579.89
631.089	562.49
631.537	570.19
631.985	564.29
632.433	566.99
632.881	572.89
633.33	586.19
633.778	577.29
634.226	549.09
634.674	573.09
635.122	573.59
635.57	578.79
636.018	595.89
636.466	592.79
636.914	581.49
637.362	587.19
637.81	604.99
638.258	601.89
638.705	606.59
639.153	643.29
639.601	645.59
640.049	665.69
640.497	695.39
640.944	716.29
641.392	667.59
641.84	648.99
642.287	609.59
642.735	577.89
643.182	596.39
643.63	583.99
644.078	586.89
644.525	598.39
644.973	607.49
645.42	610.99
645.867	629.99
646.315	655.19
646.762	685.29
647.21	694.89
647.657	729.59
648.104	765.19
648.551	776.89
648.999	852.69
649.446	912.99
649.893	1009.99
650.34	1164.09
650.787	1379.19
651.234	1716.89
651.682	2208.99
652.129	2999.39
652.576	4266.89
653.023	6231.89
653.47	8419.59
653.917	10391.09
654.363	11883.79
654.81	13113.79
655.257	12383.79
655.704	8216.29
656.151	4922.39
656.598	3240.29
657.044	2327.69
657.491	1801.89
657.938	1460.69
658.385	1217.89
658.831	1079.09
659.278	958.79
659.724	856.19
660.171	797.39
660.618	730.69
661.064	696.99
661.511	683.39
661.957	662.79
662.404	649.79
662.85	668.59
663.296	639.39
663.743	578.79
664.189	547.99
664.635	548.69
665.082	543.49
665.528	542.49
665.974	543.99
666.42	526.09
666.867	519.69
667.313	500.39
667.759	483.39
668.205	480.09
668.651	482.59
669.097	472.49
669.543	460.69
669.989	466.29
670.435	465.99
670.881	463.89
671.327	465.49
671.773	488.79
672.219	511.79
672.665	574.49
673.11	620.99
673.556	656.89
674.002	697.99
674.448	681.29
674.893	577.59
675.339	494.29
675.785	466.19
676.23	434.99
676.676	411.29
677.122	396.19
677.567	383.69
678.013	383.09
678.458	375.19
678.904	376.99
679.349	370.79
679.794	376.49
680.24	369.39
680.685	371.49
681.131	365.59
681.576	374.19
682.021	369.49
682.466	370.89
682.912	374.99
683.357	373.09
683.802	406.19
684.247	442.09
684.692	485.19
685.137	516.99
685.583	561.69
686.028	584.49
686.473	538.29
686.918	470.49
687.363	427.59
687.807	416.49
688.252	384.79
688.697	370.39
689.142	358.99
689.587	347.29
690.032	342.29
690.477	366.59
690.921	362.79
691.366	395.59
691.811	420.09
692.255	445.49
692.7	485.19
693.145	539.69
693.589	751.69
694.034	1229.59
694.478	1650.19
694.923	1815.29
695.367	2356.29
695.812	1252.69
696.256	527.09
696.701	385.99
697.145	366.99
697.59	347.59
698.034	340.59
698.478	339.09
698.922	338.19
699.367	339.39
699.811	348.39
700.255	369.49
700.699	409.69
701.143	447.79
701.588	505.29
702.032	543.19
702.476	543.19
702.92	509.99
703.364	532.09
703.808	700.69
704.252	1130.69
704.696	1571.99
705.14	1747.89
705.584	2206.69
706.027	1116.09
706.471	552.59
706.915	423.09
707.359	370.99
707.803	340.39
708.246	322.09
708.69	329.49
709.134	327.89
709.577	325.09
710.021	333.89
710.465	323.59
710.908	324.89
711.352	317.69
711.795	327.69
712.239	364.59
712.682	399.19
713.126	431.09
713.569	474.99
714.012	377.49
714.456	322.39
714.899	304.69
715.342	284.29
715.786	275.89
716.229	276.59
716.672	265.39
717.115	263.09
717.558	262.09
718.002	264.89
718.445	274.69
718.888	299.19
719.331	302.49
719.774	327.89
720.217	315.19
720.66	294.39
721.103	285.69
721.546	258.59
721.989	259.79
722.432	241.99
722.874	248.29
723.317	236.79
723.76	247.59
724.203	270.69
724.645	336.79
725.088	481.99
725.531	596.89
725.974	684.99
726.416	574.49
726.859	325.69
727.301	260.89
727.744	247.29
728.187	241.79
728.629	251.29
729.071	253.99
729.514	275.39
729.956	289.99
730.399	300.59
730.841	309.49
731.283	291.59
731.726	277.79
732.168	276.59
732.61	278.99
733.053	301.49
733.495	331.39
733.937	372.89
734.379	421.59
734.821	467.59
735.263	586.89
735.705	924.49
736.148	1747.39
736.59	2780.29
737.032	3193.89
737.474	2578.19
737.916	859.59
738.357	457.89
738.799	348.69
739.241	323.49
739.683	302.69
740.125	313.49
740.567	316.59
741.008	327.09
741.45	328.39
741.892	346.69
742.334	376.09
742.775	390.79
743.217	360.19
743.658	285.29
744.1	273.69
744.542	277.69
744.983	334.09
745.425	365.59
745.866	357.69
746.307	297.29
746.749	300.49
747.19	342.89
747.632	495.69
748.073	973.49
748.514	2041.39
748.956	3035.19
749.397	3815.29
749.838	3162.99
750.279	3074.69
750.72	1584.49
751.162	587.29
751.603	340.89
752.044	264.39
752.485	229.19
752.926	223.09
753.367	214.79
753.808	209.99
754.249	194.39
754.69	199.79
755.131	187.09
755.572	195.09
756.013	191.59
756.453	188.29
756.894	202.39
757.335	200.19
757.776	203.99
758.216	202.09
758.657	212.69
759.098	207.99
759.538	243.29
759.979	287.19
760.42	407.89
760.86	793.59
761.301	2049.69
761.741	4816.79
762.182	6675.99
762.622	4708.19
763.063	1388.29
763.503	570.09
763.943	352.99
764.384	305.59
764.824	296.69
765.264	287.99
765.705	242.59
766.145	204.19
766.585	191.49
767.025	176.79
767.465	177.49
767.906	204.89
768.346	228.29
768.786	250.69
769.226	247.69
769.666	329.39
770.106	685.09
770.546	1706.99
770.986	2778.49
771.426	2471.09
771.866	839.29
772.306	351.59
772.745	211.79
773.185	183.49
773.625	179.49
774.065	162.49
774.505	182.39
774.944	238.59
775.384	456.69
775.824	741.59
776.263	709.79
776.703	333.19
777.142	178.09
777.582	151.59
778.021	128.29
778.461	132.09
778.9	134.49
779.34	133.79
779.779	117.99
780.219	114.99
780.658	108.29
781.097	114.09
781.537	120.69
781.976	112.19
782.415	110.29
782.855	107.49
783.294	110.19
783.733	107.89
784.172	118.79
784.611	107.49
785.05	110.59
785.489	120.29
785.928	119.59
786.367	126.39
786.806	123.29
787.245	137.29
787.684	143.59
788.123	156.39
788.562	139.79
789.001	136.09
789.44	128.19
789.879	124.69
790.317	126.69
790.756	136.09
791.195	134.49
791.634	156.39
792.072	220.99
792.511	407.29
792.95	1109.99
793.388	2225.29
793.827	1989.79
794.265	710.29
794.704	302.69
795.142	199.39
795.581	155.79
796.019	143.89
796.458	129.79
796.896	132.19
797.334	140.29
797.773	171.49
798.211	237.29
798.649	492.79
799.087	1118.29
799.526	1705.99
799.964	2150.99
800.402	2093.49
800.84	801.19
801.278	327.79
801.716	198.89
802.154	161.99
802.592	150.59
803.03	150.59
803.468	138.89
803.906	151.09
804.344	154.09
804.782	147.59
805.22	145.09
805.658	135.29
806.096	153.59
806.533	165.49
806.971	182.39
807.409	229.99
807.847	353.69
808.284	737.79
808.722	2028.59
809.16	3484.89
809.597	3417.49
810.035	5793.39
810.472	5945.59
810.91	2199.99
811.347	860.59
811.785	432.59
812.222	275.39
812.66	208.99
813.097	169.19
813.535	146.19
813.972	139.99
814.409	126.79
814.846	114.09
815.284	114.99
815.721	105.19
816.158	106.09
816.595	117.49
817.032	165.89
817.47	197.09
817.907	137.39
818.344	109.79
818.781	111.39
819.218	105.29
819.655	133.99
820.092	198.59
820.529	224.69
820.966	186.39
821.403	128.09
821.839	111.99
822.276	104.09
822.713	130.19
823.15	140.49
823.587	130.19
824.023	161.89
824.46	331.19
824.897	973.69
825.333	1406.79
825.77	609.19
826.206	242.29
826.643	145.59
827.08	108.29
827.516	89.59
827.953	81.89
828.389	88.09
828.825	73.89
829.262	72.49
829.698	69.29
830.135	63.59
830.571	61.19
831.007	66.19
831.443	66.69
831.88	64.69
832.316	67.09
832.752	68.39
833.188	70.89
833.624	64.49
834.06	70.49
834.497	73.29
834.933	79.49
835.369	77.19
835.805	68.99
836.241	77.79
836.677	86.59
837.112	95.19
837.548	111.69
837.984	145.09
838.42	220.69
838.856	552.49
839.292	1639.79
839.727	2399.29
840.163	1137.09
840.599	1016.59
841.034	2181.89
841.47	2203.79
841.906	830.59
842.341	352.49
842.777	219.09
843.212	236.19
843.648	217.39
844.083	123.39
844.519	88.69
844.954	81.19
845.39	66.79
845.825	58.29
846.261	59.49
846.696	55.49
847.131	56.39
847.566	63.79
848.002	58.69
848.437	54.59
848.872	60.09
849.307	63.79
849.742	93.19
850.177	204.49
850.613	603.79
851.048	913.89
851.483	393.69
851.918	168.49
852.353	91.89
852.788	59.29
853.223	58.59
853.657	59.29
854.092	52.99
854.527	43.29
854.962	44.09
855.397	50.19
855.832	50.59
856.266	43.99
856.701	42.19
857.136	39.29
857.57	43.79
858.005	56.09
858.44	58.79
858.874	45.09
859.309	49.79
859.743	43.99
860.178	54.19
860.612	47.89
861.047	58.69
861.481	74.59
861.915	70.59
862.35	52.79
862.784	33.39
863.218	35.69
863.653	38.59
864.087	52.89
864.521	63.59
864.955	74.39
865.39	167.29
865.824	187.49
866.258	123.29
866.692	174.79
867.126	183.99
867.56	109.99
867.994	59.09
868.428	40.89
868.862	51.29
869.296	61.79
869.73	60.09
870.164	56.69
870.598	51.59
871.031	38.89
871.465	31.69
871.899	32.29
872.333	24.29
872.766	29.39
873.2	28.69
873.634	30.89
874.067	27.39
874.501	29.59
874.935	29.89
875.368	30.19
875.802	23.19
876.235	29.99
876.669	23.89
877.102	18.09
877.535	26.29
877.969	19.69
878.402	29.09
878.836	24.99
879.269	31.89
879.702	18.49
880.135	25.39
880.569	20.99
881.002	25.29
881.435	23.69
881.868	18.69
882.301	22.69
882.734	13.09
883.167	25.89
883.601	23.39
884.034	23.29
884.467	14.19
884.899	18.79
885.332	17.39
885.765	18.49
886.198	15.09
886.631	17.49
887.064	21.19
887.497	18.19
887.929	27.39
888.362	21.49
888.795	15.99
889.228	20.19
889.66	26.19
890.093	19.99
890.526	18.49
890.958	17.89
891.391	24.19
891.823	23.89
892.256	15.19
892.688	17.99
893.121	19.49
893.553	19.09
893.985	25.59
894.418	20.19
894.85	12.79
895.282	11.29
895.715	11.79
896.147	16.89
896.579	17.59
897.011	11.69
897.444	17.59
897.876	12.89
898.308	15.69
898.74	19.99
899.172	15.19
899.604	25.49
900.036	18.89
900.468	12.89
900.9	16.49
901.332	18.19
901.764	16.79
902.196	16.39
902.628	17.89
903.06	15.49
903.491	30.49
903.923	25.99
904.355	16.89
904.787	29.09
905.218	26.59
905.65	24.89
906.082	17.59
906.513	13.29
906.945	9.39
907.376	16.39
907.808	26.39
908.239	22.79
908.671	22.89
909.102	28.09
909.534	30.99
909.965	48.39
910.397	106.59
910.828	338.59
911.259	500.19
911.691	230.99
912.122	117.49
912.553	56.79
912.984	25.89
913.415	21.69
913.847	19.89
914.278	15.89
914.709	18.09
915.14	19.69
915.571	23.29
916.002	12.69
916.433	21.99
916.864	19.89
917.295	20.49
917.726	27.09
918.157	15.19
918.587	23.39
919.018	28.49
919.449	19.99
919.88	24.39
920.311	31.69
920.741	50.89
921.172	183.39
921.603	156.19
922.033	79.29
922.464	50.59
922.895	26.89
923.325	18.99
923.756	13.99
924.186	16.09
924.617	20.49
925.047	23.59
925.478	33.09
925.908	27.49
926.338	17.59
926.769	13.69
927.199	19.29
927.629	9.09
928.06	18.79
928.49	15.59
928.92	12.69
929.35	10.39
929.78	12.19
930.21	5.99
930.641	9.39
931.071	9.59
931.501	5.69
931.931	11.69
932.361	8.79
932.791	6.79
933.221	4.79
933.651	4.49
934.08	18.29
934.51	26.89
934.94	12.19
935.37	9.99
935.8	15.59
936.229	15.39
936.659	13.39
937.089	0.69
937.519	12.69
937.948	27.39
938.378	14.39
938.807	4.69
939.237	3.79
939.666	17.59
940.096	-5.21
940.525	-0.61
940.955	1.99
941.384	6.69
941.814	-4.11
942.243	-2.51
942.672	6.19
943.102	-0.61
943.531	0.39
943.96	1.69
944.39	1.59
944.819	0.09
945.248	6.49
945.677	2.69
946.106	8.79
946.535	3.09
946.964	2.59
947.393	3.69
947.822	1.99
948.251	-8.51
948.68	-0.21
949.109	8.39
949.538	1.29
949.967	5.59
950.396	1.99
950.825	-1.61
951.254	3.09
951.682	-7.71
952.111	0.99
952.54	-1.01
952.969	-6.01
953.397	-7.21
953.826	-1.91
954.254	-1.51
954.683	-0.91
955.112	-4.11
955.54	1.09
955.969	10.39
956.397	2.29
956.826	-2.11
957.254	6.89
957.682	1.09
958.111	-0.91
958.539	2.49
958.967	0.69
959.396	-1.21
959.824	-0.31
960.252	-0.11
960.68	-1.21
961.109	-0.21
961.537	-6.21
961.965	-2.21
962.393	3.49
962.821	-0.91
963.249	0.49
963.677	0.99
964.105	5.69
964.533	49.89
964.961	43.19
965.389	24.39
965.817	8.59
966.245	0.19
966.672	-0.01
967.1	-8.11
967.528	-0.41
967.956	-2.81
968.383	1.29
968.811	0.99
969.239	1.09
969.666	-10.11
970.094	-5.91
970.522	3.39
970.949	-1.51
971.377	-3.71
971.804	0.59
972.232	-2.71
972.659	-1.31
973.087	-0.71
973.514	0.09
973.941	-4.01
974.369	4.09
974.796	1.29
975.223	-1.71
975.651	-1.91
976.078	0.49
976.505	-2.51
976.932	5.09
977.359	16.19
977.786	17.29
978.214	0.69
978.641	1.79
979.068	-2.81
979.495	-7.71
979.922	-2.91
980.349	-1.91
980.776	-2.01
981.202	0.89
981.629	3.89
982.056	7.09
982.483	2.49
982.91	-2.71
983.337	-4.01
983.763	8.49
984.19	-6.91
984.617	-4.11
985.043	-6.61
985.47	-0.81
985.897	-2.41
986.323	-11.91
986.75	2.19
987.176	-2.81
987.603	3.79
988.029	-4.21
988.456	-2.21
988.882	0.69
989.308	-7.71
989.735	-4.01
990.161	-0.41
990.587	-4.11
991.014	7.99
991.44	4.89
991.866	-4.81
992.292	-3.81
992.719	-0.91
993.145	0.99
993.571	-8.81
993.997	-6.01
994.423	-3.31
994.849	-8.41
995.275	4.59
995.701	0.29
996.127	-3.31
996.553	-0.51
996.979	1.79
997.405	-4.61
997.83	-0.01
998.256	-2.21
998.682	-6.61
999.108	-3.11
999.534	0.39
999.959	-3.31
1000.385	-7.51
1000.811	1.99
1001.236	-9.61
1001.662	-6.91
1002.087	-14.61
1002.513	0.39
1002.938	5.49
1003.364	-1.01
1003.789	-3.41
1004.215	4.29
1004.64	0.19
1005.066	2.09
1005.491	7.69
1005.916	3.79
1006.342	-5.21
1006.767	-6.11
1007.192	3.69
1007.617	-10.81
1008.042	-2.21
1008.468	-8.01
1008.893	-0.81
1009.318	-5.01
1009.743	-0.81
1010.168	-0.51
1010.593	4.49
1011.018	-8.31
1011.443	2.39
1011.868	3.79
1012.293	-2.71
1012.718	-5.81
1013.143	3.99
1013.567	-0.61
1013.992	-6.11
1014.417	-13.91
1014.842	3.39
1015.267	-5.41
1015.691	-5.91
1016.116	6.39
1016.541	-0.61
1016.965	3.29
1017.39	-1.01
1017.814	-0.81
1018.239	-0.71
1018.663	-4.71
1019.088	-14.31
1019.512	6.99
1019.937	-0.51
1020.361	-10.31
1020.785	-11.01
1021.21	-8.51
1021.634	-1.11
1022.058	-4.41
1022.483	1.99
1022.907	0.29
1023.331	-5.91
1023.755	-2.31
1024.179	-4.31
1024.604	-11.41
1025.028	-7.41
1025.452	-3.31
1025.876	-3.41
1026.3	-0.01
1026.724	-8.71
1027.148	-4.51
1027.572	-6.01
1027.996	2.89
1028.42	-1.41
1028.843	-4.01
1029.267	-3.91
1029.691	-1.91
1030.115	-1.61
1030.539	-3.11
1030.962	-9.11
1031.386	-11.51
1031.81	-2.71
1032.233	1.69
1032.657	-5.31
1033.08	2.19
1033.504	-0.31
1033.927	-2.71
1034.351	3.99
1034.774	-0.81
1035.198	1.49
1035.621	-7.61
1036.045	-10.81
1036.468	1.89
1036.891	-6.01
1037.315	-5.91
1037.738	-6.51
1038.161	-3.11
1038.584	-8.01
1039.008	-3.91
1039.431	-3.21
1039.854	-1.31
1040.277	-8.81
1040.7	-15.01
1041.123	0.69
1041.546	-12.51
1041.969	-2.61
1042.392	-4.91
1042.815	-6.31
1043.238	0.59
1043.661	0.89
1044.084	-5.21
1044.507	-12.51
1044.93	-9.21
1045.352	-14.21
1045.775	-8.91
1046.198	0.69
1046.621	0.49
1047.043	-0.21
1047.466	3.79
1047.889	-6.21
1048.311	-5.01
1048.734	-6.21
1049.156	-5.31
1049.579	-1.21
1050.001	-5.71
1050.424	-2.91
1050.846	-10.21
1051.269	-2.91
1051.691	-10.61
1052.113	-7.21
1052.536	-0.21
1052.958	-0.31
1053.38	-7.31
1053.802	-15.31
1054.225	-1.51
1054.647	-6.91
1055.069	-4.11
1055.491	-6.01
1055.913	-12.71
1056.335	-1.11
1056.757	-3.31
1057.179	-11.31
1057.601	-4.41
1058.023	0.79
1058.445	-7.11
1058.867	-3.91
1059.289	-0.31
1059.711	-9.01
1060.133	-2.01
1060.555	-1.91
1060.976	-6.41
1061.398	-4.21
1061.82	-8.71
1062.241	-8.01
1062.663	-8.81
1063.085	-5.31
1063.506	1.99
1063.928	-2.31
1064.35	3.69
1064.771	-8.21
1065.193	-7.51
1065.614	-11.51
1066.035	-2.71
1066.457	1.39
1066.878	6.99
1067.3	-10.41
1067.721	-6.21
1068.142	-4.71
1068.564	-3.11
1068.985	-2.41
1069.406	-10.01
1069.827	-9.51
1070.248	2.69
1070.67	-8.51
1071.091	-8.21
1071.512	-2.51
1071.933	-5.21
1072.354	-10.21
1072.775	-3.31
1073.196	-4.01
1073.617	-7.41
1074.038	-6.11
1074.459	-0.21
1074.88	-9.51
1075.3	0.99
1075.721	-4.71
1076.142	0.29
1076.563	1.69
1076.983	-7.91
1077.404	-6.61
1077.825	-13.41
1078.246	-5.11
1078.666	-13.21
1079.087	-2.81
1079.507	-10.41
1079.928	0.09
1080.348	-2.31
1080.769	-7.71
1081.189	-6.21
1081.61	1.59
1082.03	-7.71
1082.451	-5.31
1082.871	-7.01
1083.291	-6.31
1083.711	-10.41
1084.132	-10.21
1084.552	-2.41
1084.972	-4.01
1085.392	-14.51
1085.813	-10.81
1086.233	-7.91
1086.653	-4.21
1087.073	-2.31
1087.493	-6.51
1087.913	-7.61
1088.333	-6.31
1088.753	-6.61
1089.173	2.39
1089.593	-4.91
1090.013	-5.61
1090.433	2.49
1090.852	-4.41
1091.272	1.29
1091.692	-9.31
1092.112	-0.71
1092.531	-12.41
1092.951	-13.41
1093.371	-3.61
1093.79	-0.31
1094.21	-6.11
1094.63	-6.51
1095.049	-9.91
1095.469	-8.41
1095.888	-6.11
1096.308	-5.91
1096.727	0.89
1097.146	-9.91
1097.566	-1.11
1097.985	1.49
1098.405	-1.21
1098.824	-10.31
1099.243	-7.01
1099.662	-12.61
1100.082	-8.11
1100.501	1.29
1100.92	-14.21
1101.339	-6.21
1101.758	-5.81
