Data from 20171114-ORNL-Ar_H_NY_Subt18_08-06-26-193.txt Node
Date: Tue Nov 14 08:06:26 EST 2017
User: Ender
Spectrometer: HR+D1039
Trigger mode: 0
Integration Time (sec): 2.730000E-2
Scans to average: 10
Electric dark correction enabled: true
Nonlinearity correction enabled: false
Boxcar width: 0
XAxis mode: Wavelengths
Number of Pixels in Spectrum: 2048
>>>>>Begin Spectral Data<<<<<
187.836	-5.73
188.309	-5.73
188.782	-5.73
189.255	0.57
189.728	-6.73
190.201	0.88
190.674	5.27
191.147	5.17
191.619	-5.63
192.092	4.88
192.565	6.37
193.038	-4.53
193.511	2.67
193.984	1.77
194.456	-3.52
194.929	-2.33
195.402	-2.93
195.874	3.77
196.347	3.37
196.82	-8.12
197.292	8.17
197.765	1.88
198.237	-6.23
198.71	-2.83
199.182	-0.93
199.655	0.87
200.127	3.67
200.6	0.57
201.072	-5.23
201.544	-2.23
202.017	-4.83
202.489	6.67
202.961	-3.73
203.433	1.67
203.906	-0.52
204.378	-7.23
204.85	-0.53
205.322	-13.33
205.794	-3.33
206.266	-3.93
206.739	-7.33
207.211	0.77
207.683	-10.12
208.155	-5.43
208.627	-3.12
209.099	-4.23
209.57	-8.02
210.042	-2.33
210.514	-2.42
210.986	-9.33
211.458	-10.63
211.93	-4.33
212.402	-1.13
212.873	-8.63
213.345	-6.93
213.817	-9.23
214.288	-0.43
214.76	-7.03
215.232	1.88
215.703	-3.02
216.175	-3.73
216.646	-3.12
217.118	-13.83
217.589	1.27
218.061	-4.23
218.532	-5.33
219.004	4.57
219.475	-4.73
219.946	-5.33
220.418	-4.92
220.889	-2.62
221.36	-1.73
221.832	-3.33
222.303	-3.73
222.774	0.38
223.245	-5.83
223.717	-9.03
224.188	-9.02
224.659	-5.33
225.13	-9.73
225.601	-5.93
226.072	2.98
226.543	-1.73
227.014	-4.03
227.485	-7.23
227.956	-7.73
228.427	-1.12
228.898	1.88
229.369	-0.73
229.839	-5.73
230.31	-8.43
230.781	2.27
231.252	-3.03
231.722	-5.63
232.193	-1.83
232.664	5.98
233.135	2.37
233.605	-3.23
234.076	1.07
234.546	-2.53
235.017	3.48
235.487	0.67
235.958	-3.62
236.428	-3.93
236.899	-0.62
237.369	5.48
237.84	-3.23
238.31	5.57
238.78	-0.33
239.251	2.77
239.721	0.07
240.191	4.67
240.662	-4.62
241.132	0.17
241.602	-3.43
242.072	4.07
242.542	6.07
243.013	-0.03
243.483	6.57
243.953	3.77
244.423	2.08
244.893	-5.43
245.363	1.67
245.833	8.88
246.303	5.07
246.773	10.88
247.243	6.27
247.712	-3.13
248.182	8.67
248.652	11.57
249.122	-2.93
249.592	11.27
250.061	18.38
250.531	32.08
251.001	12.17
251.471	25.47
251.94	23.27
252.41	4.88
252.879	3.57
253.349	10.57
253.818	12.38
254.288	3.88
254.757	5.17
255.227	1.38
255.696	4.47
256.166	9.67
256.635	8.17
257.105	8.77
257.574	5.67
258.043	9.88
258.513	11.77
258.982	17.48
259.451	5.97
259.92	10.27
260.389	10.07
260.859	14.57
261.328	10.27
261.797	19.48
262.266	11.67
262.735	13.88
263.204	4.67
263.673	4.88
264.142	7.88
264.611	-7.63
265.08	-2.63
265.549	-0.12
266.018	7.08
266.487	-1.73
266.955	-5.03
267.424	4.38
267.893	8.08
268.362	-1.83
268.83	1.97
269.299	14.38
269.768	3.27
270.236	11.17
270.705	7.38
271.174	6.48
271.642	9.87
272.111	12.17
272.579	15.57
273.048	25.57
273.516	20.57
273.985	26.48
274.453	18.07
274.922	19.97
275.39	12.17
275.858	4.47
276.327	14.17
276.795	19.88
277.263	12.47
277.731	29.37
278.2	53.87
278.668	52.48
279.136	44.88
279.604	19.07
280.072	13.57
280.54	14.07
281.008	14.67
281.477	16.87
281.945	13.07
282.413	15.57
282.881	14.57
283.348	10.88
283.816	13.97
284.284	10.57
284.752	18.47
285.22	11.07
285.688	19.17
286.156	23.27
286.623	48.07
287.091	47.57
287.559	30.17
288.026	13.48
288.494	11.57
288.962	7.07
289.429	12.17
289.897	15.27
290.364	17.27
290.832	11.67
291.3	13.77
291.767	21.38
292.234	15.38
292.702	16.77
293.169	20.48
293.637	18.17
294.104	18.88
294.571	8.57
295.039	12.27
295.506	15.27
295.973	13.97
296.44	18.67
296.908	21.77
297.375	14.77
297.842	21.07
298.309	16.57
298.776	16.98
299.243	21.47
299.71	11.77
300.177	25.48
300.644	22.38
301.111	19.88
301.578	21.07
302.045	20.07
302.512	23.88
302.979	22.67
303.446	22.17
303.913	18.88
304.379	17.38
304.846	26.98
305.313	23.77
305.78	18.97
306.246	24.77
306.713	30.97
307.18	15.88
307.646	34.37
308.113	27.97
308.579	28.37
309.046	26.67
309.512	27.27
309.979	18.87
310.445	25.87
310.912	28.77
311.378	34.57
311.845	34.58
312.311	32.27
312.777	33.27
313.244	33.88
313.71	36.57
314.176	31.67
314.642	33.38
315.109	29.77
315.575	35.27
316.041	37.48
316.507	30.07
316.973	42.87
317.439	36.47
317.905	33.88
318.371	37.67
318.837	35.58
319.303	27.97
319.769	34.38
320.235	37.37
320.701	30.87
321.167	37.27
321.633	35.98
322.099	37.47
322.564	46.57
323.03	42.37
323.496	38.48
323.962	47.38
324.427	43.07
324.893	46.37
325.359	40.67
325.824	34.97
326.29	36.97
326.755	36.57
327.221	38.47
327.686	38.27
328.152	48.38
328.617	41.98
329.083	40.37
329.548	52.07
330.014	45.77
330.479	42.97
330.944	46.47
331.41	43.27
331.875	41.58
332.34	44.07
332.805	43.77
333.271	47.88
333.736	48.97
334.201	56.77
334.666	54.97
335.131	56.67
335.596	46.57
336.061	48.37
336.526	47.67
336.991	43.17
337.456	56.38
337.921	48.97
338.386	50.07
338.851	53.37
339.316	46.67
339.781	47.48
340.246	54.07
340.711	51.27
341.175	52.67
341.64	39.98
342.105	54.17
342.569	54.07
343.034	58.77
343.499	60.07
343.963	52.17
344.428	64.08
344.893	62.27
345.357	63.77
345.822	68.87
346.286	70.57
346.751	76.77
347.215	69.27
347.679	73.38
348.144	93.97
348.608	84.98
349.073	71.27
349.537	70.38
350.001	83.97
350.465	88.48
350.93	84.07
351.394	78.57
351.858	73.58
352.322	87.98
352.786	82.88
353.25	100.37
353.715	115.38
354.179	93.97
354.643	124.08
355.107	133.38
355.571	111.17
356.035	104.77
356.498	121.17
356.962	123.67
357.426	131.77
357.89	119.27
358.354	90.17
358.818	85.38
359.281	79.98
359.745	80.88
360.209	81.38
360.673	73.98
361.136	84.08
361.6	88.87
362.064	85.67
362.527	88.57
362.991	96.27
363.454	83.17
363.918	81.47
364.381	85.37
364.845	84.67
365.308	89.47
365.772	85.77
366.235	83.77
366.698	88.07
367.162	89.17
367.625	87.37
368.088	90.07
368.552	87.47
369.015	92.48
369.478	101.57
369.941	100.47
370.404	90.37
370.867	102.77
371.331	103.57
371.794	117.37
372.257	109.67
372.72	119.07
373.183	107.98
373.646	102.38
374.109	102.08
374.572	110.57
375.035	112.07
375.497	107.07
375.96	110.77
376.423	106.47
376.886	113.48
377.349	114.37
377.811	111.57
378.274	99.08
378.737	105.87
379.199	117.58
379.662	112.17
380.125	120.17
380.587	113.48
381.05	129.27
381.512	130.47
381.975	132.17
382.437	136.07
382.9	129.97
383.362	133.57
383.825	134.98
384.287	147.57
384.75	144.17
385.212	142.87
385.674	146.57
386.136	134.98
386.599	132.57
387.061	131.67
387.523	129.17
387.985	136.47
388.447	149.37
388.91	151.07
389.372	158.08
389.834	152.17
390.296	150.17
390.758	155.17
391.22	166.97
391.682	210.87
392.144	302.18
392.606	230.88
393.068	169.08
393.529	168.37
393.991	164.88
394.453	142.97
394.915	154.67
395.377	202.57
395.838	222.17
396.3	162.17
396.762	148.08
397.224	138.37
397.685	131.47
398.147	135.08
398.608	130.38
399.07	135.98
399.531	134.48
399.993	150.58
400.454	158.37
400.916	154.07
401.377	144.98
401.839	153.37
402.3	153.07
402.762	167.47
403.223	184.77
403.684	175.07
404.145	158.97
404.607	162.27
405.068	172.27
405.529	166.38
405.99	193.57
406.451	181.47
406.913	180.67
407.374	168.07
407.835	163.17
408.296	170.67
408.757	184.67
409.218	193.47
409.679	184.58
410.14	183.38
410.601	184.38
411.062	190.77
411.522	196.48
411.983	196.98
412.444	177.67
412.905	182.17
413.366	186.38
413.826	198.27
414.287	224.68
414.748	260.87
415.208	249.88
415.669	217.57
416.13	206.67
416.59	199.07
417.051	213.17
417.511	217.38
417.972	235.78
418.432	260.87
418.893	296.07
419.353	260.78
419.814	201.77
420.274	187.37
420.734	190.47
421.195	205.47
421.655	201.17
422.115	197.17
422.576	194.27
423.036	200.77
423.496	208.38
423.956	221.08
424.416	235.88
424.876	274.67
425.336	266.67
425.797	268.67
426.257	267.67
426.717	239.38
427.177	233.87
427.637	231.38
428.097	245.47
428.556	243.98
429.016	274.37
429.476	265.08
429.936	278.78
430.396	281.27
430.856	301.97
431.315	322.67
431.775	362.17
432.235	388.67
432.694	362.58
433.154	373.57
433.614	400.88
434.073	349.67
434.533	290.77
434.993	279.07
435.452	287.77
435.912	308.17
436.371	294.67
436.83	297.47
437.29	278.47
437.749	254.57
438.209	253.37
438.668	284.98
439.127	292.87
439.587	271.78
440.046	248.87
440.505	271.38
440.964	290.88
441.424	328.97
441.883	309.67
442.342	259.17
442.801	226.07
443.26	221.77
443.719	224.77
444.178	222.37
444.637	214.47
445.096	224.58
445.555	230.67
446.014	223.58
446.473	229.18
446.932	240.88
447.391	231.87
447.849	225.27
448.308	222.77
448.767	233.08
449.226	235.47
449.685	237.77
450.143	246.57
450.602	235.38
451.061	225.77
451.519	238.78
451.978	236.98
452.436	239.27
452.895	250.28
453.353	257.88
453.812	250.17
454.27	241.37
454.729	239.08
455.187	247.17
455.646	248.27
456.104	253.57
456.562	269.58
457.021	273.07
457.479	262.17
457.937	274.77
458.395	268.88
458.854	255.77
459.312	258.77
459.77	284.48
460.228	258.97
460.686	252.57
461.144	249.07
461.602	250.08
462.06	243.38
462.518	260.88
462.976	262.17
463.434	260.57
463.892	268.48
464.35	281.38
464.808	298.98
465.266	272.27
465.724	276.67
466.181	279.18
466.639	276.98
467.097	297.68
467.555	298.87
468.012	307.48
468.47	305.77
468.928	327.38
469.385	345.28
469.843	354.37
470.3	349.38
470.758	375.98
471.215	388.77
471.673	415.17
472.13	421.77
472.588	427.87
473.045	378.97
473.503	391.08
473.96	408.27
474.417	413.57
474.875	438.88
475.332	482.48
475.789	467.27
476.246	476.67
476.704	500.08
477.161	517.07
477.618	528.67
478.075	573.97
478.532	635.77
478.989	707.48
479.446	832.78
479.903	783.47
480.36	822.48
480.817	887.47
481.274	995.37
481.731	1095.88
482.188	1181.57
482.645	1317.57
483.102	1431.07
483.558	1569.98
484.015	1631.77
484.472	1609.98
484.929	1553.58
485.385	1512.38
485.842	1462.18
486.299	1394.88
486.755	1321.28
487.212	1122.08
487.668	941.77
488.125	867.67
488.582	794.97
489.038	752.87
489.494	721.88
489.951	700.87
490.407	683.78
490.864	656.08
491.32	646.48
491.776	643.87
492.233	655.17
492.689	628.37
493.145	631.17
493.602	608.98
494.058	627.07
494.514	634.58
494.97	655.67
495.426	658.77
495.882	629.18
496.338	626.68
496.794	628.77
497.251	628.07
497.707	640.67
498.163	653.27
498.618	644.67
499.074	653.27
499.53	684.67
499.986	691.38
500.442	654.78
500.898	643.08
501.354	638.38
501.809	642.77
502.265	657.07
502.721	662.97
503.177	683.38
503.632	669.87
504.088	689.58
504.543	711.58
504.999	717.77
505.455	661.38
505.91	641.77
506.366	640.87
506.821	641.38
507.277	640.57
507.732	629.88
508.187	631.98
508.643	644.77
509.098	652.87
509.553	670.47
510.009	663.67
510.464	675.27
510.919	699.98
511.375	717.97
511.83	720.38
512.285	741.38
512.74	770.98
513.195	788.77
513.65	782.78
514.105	774.27
514.56	783.88
515.015	806.67
515.47	818.77
515.925	808.58
516.38	801.67
516.835	797.17
517.29	790.38
517.745	779.17
518.2	768.67
518.655	762.07
519.109	766.78
519.564	751.08
520.019	748.17
520.474	726.38
520.928	732.67
521.383	732.97
521.838	722.37
522.292	705.68
522.747	724.18
523.201	715.57
523.656	700.87
524.11	701.28
524.565	710.27
525.019	702.77
525.474	718.87
525.928	714.97
526.382	710.98
526.837	707.57
527.291	710.87
527.745	713.07
528.2	706.67
528.654	706.87
529.108	699.07
529.562	694.57
530.016	700.08
530.47	700.77
530.925	705.17
531.379	705.07
531.833	720.58
532.287	718.77
532.741	713.97
533.195	711.58
533.649	712.57
534.103	723.98
534.556	713.77
535.01	726.17
535.464	721.48
535.918	729.67
536.372	730.47
536.826	722.47
537.279	717.77
537.733	712.07
538.187	724.77
538.64	730.97
539.094	737.18
539.548	747.88
540.001	731.67
540.455	739.47
540.908	741.57
541.362	753.07
541.815	754.57
542.269	768.38
542.722	766.87
543.175	783.48
543.629	776.77
544.082	794.37
544.536	794.27
544.989	790.88
545.442	798.87
545.895	797.57
546.349	795.97
546.802	804.77
547.255	809.07
547.708	812.98
548.161	819.07
548.614	830.17
549.067	843.87
549.52	822.18
549.973	827.27
550.426	818.88
550.879	815.87
551.332	808.58
551.785	817.37
552.238	817.77
552.691	824.97
553.144	845.77
553.596	861.78
554.049	873.87
554.502	906.27
554.955	922.57
555.407	917.57
555.86	901.07
556.313	904.77
556.765	896.47
557.218	893.77
557.67	901.77
558.123	892.07
558.576	885.17
559.028	886.17
559.48	883.88
559.933	880.98
560.385	851.67
560.838	822.27
561.29	790.98
561.742	791.38
562.195	770.87
562.647	765.17
563.099	785.47
563.551	775.27
564.004	801.38
564.456	776.27
564.908	764.47
565.36	765.37
565.812	749.67
566.264	739.28
566.716	736.67
567.168	732.88
567.62	733.27
568.072	715.87
568.524	699.38
568.976	702.07
569.428	680.98
569.88	673.67
570.332	702.47
570.784	691.97
571.235	693.88
571.687	695.77
572.139	706.47
572.59	715.17
573.042	718.97
573.494	714.77
573.945	710.57
574.397	684.87
574.849	692.07
575.3	692.98
575.752	691.48
576.203	687.07
576.655	693.97
577.106	680.77
577.557	673.47
578.009	671.97
578.46	670.27
578.912	672.97
579.363	676.37
579.814	671.97
580.265	668.38
580.717	674.67
581.168	676.17
581.619	687.67
582.07	684.88
582.521	680.27
582.972	677.77
583.423	685.27
583.875	696.98
584.326	712.57
584.777	756.88
585.227	836.98
585.678	920.98
586.129	1007.08
586.58	1077.88
587.031	1162.47
587.482	1307.28
587.933	1502.38
588.384	1322.48
588.834	973.68
589.285	815.27
589.736	789.98
590.186	787.27
590.637	777.67
591.088	754.28
591.538	744.98
591.989	741.48
592.439	741.58
592.89	736.47
593.34	723.57
593.791	711.17
594.241	711.08
594.692	714.48
595.142	698.27
595.593	697.77
596.043	716.38
596.493	722.27
596.943	719.67
597.394	725.07
597.844	717.48
598.294	735.78
598.744	754.67
599.195	772.27
599.645	828.07
600.095	858.97
600.545	918.77
600.995	971.08
601.445	1022.67
601.895	1088.67
602.345	1154.47
602.795	1118.67
603.245	1071.38
603.695	1009.77
604.145	959.27
604.594	917.78
605.044	873.07
605.494	805.27
605.944	756.37
606.393	754.88
606.843	732.48
607.293	737.08
607.743	732.68
608.192	749.07
608.642	756.57
609.091	783.78
609.541	783.17
609.99	775.28
610.44	777.17
610.889	728.38
611.339	712.38
611.788	684.67
612.238	710.88
612.687	730.38
613.136	727.87
613.586	748.47
614.035	739.17
614.484	761.17
614.933	767.27
615.383	768.37
615.832	745.47
616.281	733.17
616.73	693.27
617.179	672.47
617.628	669.57
618.077	642.57
618.526	625.07
618.975	630.58
619.424	625.17
619.873	618.28
620.322	625.48
620.771	605.77
621.22	603.88
621.669	594.17
622.118	594.77
622.567	585.67
623.015	579.57
623.464	572.98
623.913	561.88
624.361	555.27
624.81	553.67
625.259	569.28
625.707	561.78
626.156	562.07
626.604	579.57
627.053	557.57
627.501	567.97
627.95	571.17
628.398	593.17
628.847	572.67
629.295	569.07
629.744	571.97
630.192	563.77
630.64	571.77
631.089	577.38
631.537	580.57
631.985	580.48
632.433	605.18
632.881	613.78
633.33	663.47
633.778	645.17
634.226	567.47
634.674	577.67
635.122	578.47
635.57	599.57
636.018	621.98
636.466	580.18
636.914	570.18
637.362	575.88
637.81	576.97
638.258	582.08
638.705	578.17
639.153	610.27
639.601	615.27
640.049	642.07
640.497	681.47
640.944	696.77
641.392	640.07
641.84	623.97
642.287	587.48
642.735	573.08
643.182	577.17
643.63	571.27
644.078	577.38
644.525	605.57
644.973	598.77
645.42	610.38
645.867	615.27
646.315	650.47
646.762	668.78
647.21	702.58
647.657	715.77
648.104	758.27
648.551	778.37
648.999	846.68
649.446	919.68
649.893	1018.17
650.34	1175.58
650.787	1406.38
651.234	1739.07
651.682	2266.97
652.129	3125.57
652.576	4505.07
653.023	6669.38
653.47	9110.77
653.917	11367.58
654.363	13109.28
654.81	14498.28
655.257	13770.98
655.704	9048.88
656.151	5325.77
656.598	3475.27
657.044	2446.97
657.491	1880.57
657.938	1498.27
658.385	1251.97
658.831	1093.88
659.278	964.37
659.724	862.67
660.171	793.38
660.618	722.37
661.064	693.58
661.511	675.68
661.957	657.67
662.404	655.48
662.85	658.08
663.296	635.37
663.743	558.97
664.189	547.97
664.635	537.77
665.082	520.57
665.528	522.67
665.974	517.27
666.42	512.77
666.867	506.07
667.313	493.87
667.759	483.58
668.205	472.88
668.651	493.17
669.097	487.07
669.543	504.17
669.989	468.07
670.435	453.28
670.881	442.17
671.327	451.67
671.773	469.17
672.219	483.17
672.665	538.47
673.11	581.17
673.556	630.77
674.002	666.48
674.448	659.97
674.893	551.07
675.339	475.27
675.785	439.57
676.23	419.67
676.676	396.57
677.122	381.17
677.567	371.98
678.013	375.07
678.458	361.18
678.904	357.08
679.349	352.18
679.794	358.57
680.24	350.08
680.685	354.57
681.131	344.87
681.576	354.27
682.021	358.68
682.466	342.97
682.912	346.38
683.357	347.57
683.802	386.58
684.247	413.77
684.692	457.27
685.137	499.77
685.583	540.57
686.028	551.67
686.473	514.88
686.918	446.27
687.363	421.47
687.807	386.97
688.252	369.47
688.697	360.27
689.142	334.37
689.587	333.58
690.032	331.27
690.477	343.58
690.921	355.67
691.366	383.37
691.811	402.17
692.255	431.37
692.7	461.48
693.145	497.67
693.589	692.77
694.034	1121.88
694.478	1517.97
694.923	1730.57
695.367	2256.77
695.812	1182.47
696.256	499.97
696.701	371.17
697.145	346.37
697.59	328.77
698.034	323.77
698.478	339.97
698.922	329.97
699.367	326.07
699.811	335.87
700.255	352.47
700.699	385.48
701.143	426.38
701.588	469.67
702.032	517.37
702.476	510.97
702.92	493.28
703.364	489.88
703.808	630.77
704.252	1034.88
704.696	1449.68
705.14	1669.78
705.584	2121.07
706.027	1047.67
706.471	518.67
706.915	389.17
707.359	351.17
707.803	319.07
708.246	319.08
708.69	311.38
709.134	314.98
709.577	311.48
710.021	317.08
710.465	311.97
710.908	299.48
711.352	302.98
711.795	315.57
712.239	353.98
712.682	382.38
713.126	409.27
713.569	466.17
714.012	369.68
714.456	316.97
714.899	298.87
715.342	275.28
715.786	257.87
716.229	261.17
716.672	257.77
717.115	248.18
717.558	250.67
718.002	254.27
718.445	265.98
718.888	285.88
719.331	296.78
719.774	315.98
720.217	295.98
720.66	280.27
721.103	261.27
721.546	260.97
721.989	252.57
722.432	228.18
722.874	226.38
723.317	226.77
723.76	235.17
724.203	258.88
724.645	314.37
725.088	441.67
725.531	564.27
725.974	632.88
726.416	540.67
726.859	300.47
727.301	247.27
727.744	239.28
728.187	233.28
728.629	246.47
729.071	236.98
729.514	256.67
729.956	270.88
730.399	283.07
730.841	281.38
731.283	265.28
731.726	263.28
732.168	265.98
732.61	263.47
733.053	282.47
733.495	307.47
733.937	348.17
734.379	396.07
734.821	428.87
735.263	538.38
735.705	829.37
736.148	1561.97
736.59	2552.07
737.032	3037.77
737.474	2450.67
737.916	802.18
738.357	424.77
738.799	325.67
739.241	295.67
739.683	276.88
740.125	290.67
740.567	291.98
741.008	317.97
741.45	317.48
741.892	308.87
742.334	350.38
742.775	361.57
743.217	333.57
743.658	276.17
744.1	249.88
744.542	264.07
744.983	308.48
745.425	334.08
745.866	342.27
746.307	287.98
746.749	283.98
747.19	326.97
747.632	450.97
748.073	870.58
748.514	1831.88
748.956	2834.17
749.397	3545.78
749.838	2913.88
750.279	2919.58
750.72	1486.47
751.162	537.48
751.603	322.38
752.044	249.88
752.485	216.48
752.926	202.38
753.367	203.88
753.808	189.47
754.249	193.57
754.69	188.88
755.131	184.77
755.572	179.38
756.013	187.37
756.453	185.77
756.894	186.77
757.335	189.77
757.776	192.38
758.216	197.07
758.657	194.88
759.098	201.68
759.538	225.87
759.979	260.27
760.42	362.07
760.86	697.87
761.301	1803.38
761.741	4369.68
762.182	6358.07
762.622	4468.68
763.063	1289.17
763.503	531.67
763.943	349.17
764.384	336.67
764.824	392.88
765.264	438.17
765.705	300.47
766.145	206.48
766.585	185.27
767.025	181.67
767.465	176.97
767.906	238.87
768.346	313.47
768.786	338.47
769.226	260.37
769.666	316.27
770.106	621.57
770.546	1538.07
770.986	2614.28
771.426	2332.38
771.866	771.67
772.306	325.77
772.745	206.17
773.185	169.07
773.625	168.47
774.065	164.97
774.505	195.47
774.944	306.77
775.384	676.38
775.824	1220.78
776.263	1216.38
776.703	517.38
777.142	227.68
777.582	156.47
778.021	135.88
778.461	131.38
778.9	145.27
779.34	128.27
779.779	122.57
780.219	113.48
780.658	107.57
781.097	112.98
781.537	110.88
781.976	101.57
782.415	98.77
782.855	102.77
783.294	100.27
783.733	109.97
784.172	111.47
784.611	108.87
785.05	104.77
785.489	110.88
785.928	122.97
786.367	121.27
786.806	114.57
787.245	126.67
787.684	140.67
788.123	147.77
788.562	129.88
789.001	131.17
789.44	122.07
789.879	119.77
790.317	122.38
790.756	122.57
791.195	126.77
791.634	148.48
792.072	199.98
792.511	351.58
792.95	999.08
793.388	2115.97
793.827	1925.77
794.265	682.37
794.704	285.37
795.142	181.17
795.581	145.87
796.019	136.38
796.458	132.07
796.896	122.48
797.334	125.38
797.773	152.67
798.211	214.27
798.649	428.88
799.087	1019.78
799.526	1580.38
799.964	1968.87
800.402	1990.98
800.84	750.77
801.278	304.27
801.716	185.07
802.154	144.87
802.592	145.27
803.03	138.08
803.468	128.77
803.906	141.77
804.344	151.38
804.782	145.98
805.22	132.57
805.658	135.07
806.096	147.88
806.533	155.97
806.971	172.37
807.409	209.07
807.847	312.67
808.284	645.67
808.722	1829.78
809.16	3247.77
809.597	3073.28
810.035	5339.38
810.472	5700.27
810.91	2053.07
811.347	786.47
811.785	396.97
812.222	252.47
812.66	194.58
813.097	168.87
813.535	139.77
813.972	127.57
814.409	118.97
814.846	108.38
815.284	108.88
815.721	97.97
816.158	108.48
816.595	124.27
817.032	170.07
817.47	198.77
817.907	175.88
818.344	159.37
818.781	119.58
819.218	104.67
819.655	120.98
820.092	180.67
820.529	216.17
820.966	175.17
821.403	132.87
821.839	111.38
822.276	95.88
822.713	116.57
823.15	126.88
823.587	116.07
824.023	145.17
824.46	291.28
824.897	888.27
825.333	1345.88
825.77	574.97
826.206	225.17
826.643	138.27
827.08	97.07
827.516	80.77
827.953	78.88
828.389	80.87
828.825	71.88
829.262	68.47
829.698	65.47
830.135	65.07
830.571	62.97
831.007	65.27
831.443	63.57
831.88	65.77
832.316	65.47
832.752	60.48
833.188	61.88
833.624	65.58
834.06	68.77
834.497	68.87
834.933	76.17
835.369	74.77
835.805	65.47
836.241	74.17
836.677	79.17
837.112	83.27
837.548	98.97
837.984	133.38
838.42	194.67
838.856	486.07
839.292	1500.08
839.727	2269.57
840.163	1057.27
840.599	909.37
841.034	2004.87
841.47	2109.28
841.906	772.67
842.341	332.07
842.777	230.17
843.212	306.27
843.648	312.67
844.083	154.87
844.519	98.08
844.954	73.48
845.39	61.88
845.825	54.97
846.261	60.27
846.696	58.27
847.131	53.77
847.566	57.27
848.002	56.48
848.437	54.38
848.872	60.17
849.307	57.08
849.742	83.77
850.177	180.48
850.613	544.97
851.048	860.77
851.483	367.88
851.918	147.97
852.353	86.97
852.788	63.57
853.223	57.27
853.657	60.37
854.092	51.27
854.527	40.77
854.962	43.47
855.397	45.77
855.832	55.17
856.266	42.88
856.701	42.67
857.136	34.07
857.57	33.88
858.005	47.38
858.44	60.97
858.874	45.67
859.309	46.77
859.743	38.67
860.178	45.57
860.612	43.37
861.047	53.87
861.481	65.27
861.915	77.27
862.35	48.97
862.784	34.77
863.218	42.88
863.653	32.77
864.087	45.97
864.521	52.98
864.955	73.58
865.39	153.97
865.824	175.88
866.258	116.27
866.692	158.38
867.126	174.97
867.56	108.07
867.994	55.97
868.428	37.67
868.862	48.88
869.296	59.98
869.73	56.57
870.164	53.67
870.598	48.38
871.031	34.47
871.465	34.37
871.899	32.77
872.333	25.77
872.766	25.38
873.2	26.77
873.634	32.38
874.067	25.07
874.501	23.77
874.935	39.07
875.368	30.77
875.802	30.27
876.235	23.57
876.669	21.98
877.102	20.27
877.535	26.58
877.969	26.67
878.402	29.37
878.836	18.97
879.269	25.38
879.702	27.97
880.135	26.47
880.569	26.47
881.002	25.27
881.435	24.37
881.868	17.17
882.301	24.07
882.734	18.07
883.167	24.27
883.601	19.27
884.034	26.17
884.467	17.08
884.899	20.38
885.332	21.07
885.765	10.58
886.198	14.97
886.631	19.07
887.064	24.38
887.497	19.47
887.929	22.87
888.362	8.07
888.795	13.87
889.228	19.07
889.66	20.97
890.093	19.37
890.526	15.37
890.958	21.27
891.391	17.48
891.823	20.88
892.256	16.07
892.688	13.17
893.121	17.88
893.553	20.37
893.985	23.57
894.418	18.47
894.85	16.98
895.282	17.67
895.715	21.17
896.147	20.38
896.579	21.07
897.011	19.48
897.444	19.88
897.876	20.58
898.308	21.07
898.74	11.88
899.172	12.38
899.604	24.98
900.036	14.17
900.468	14.47
900.9	14.47
901.332	19.37
901.764	16.17
902.196	20.98
902.628	17.88
903.06	12.17
903.491	31.88
903.923	18.57
904.355	14.77
904.787	26.07
905.218	28.98
905.65	25.87
906.082	10.37
906.513	13.37
906.945	17.07
907.376	15.27
907.808	19.27
908.239	20.88
908.671	20.67
909.102	19.57
909.534	25.88
909.965	45.48
910.397	91.97
910.828	319.77
911.259	470.78
911.691	210.07
912.122	108.48
912.553	52.07
912.984	34.17
913.415	28.58
913.847	22.67
914.278	19.97
914.709	16.37
915.14	17.88
915.571	13.17
916.002	16.47
916.433	25.17
916.864	17.57
917.295	10.47
917.726	23.47
918.157	19.67
918.587	25.27
919.018	24.27
919.449	18.98
919.88	22.27
920.311	25.98
920.741	41.57
921.172	167.27
921.603	150.97
922.033	71.17
922.464	48.38
922.895	20.57
923.325	25.48
923.756	16.07
924.186	17.17
924.617	27.27
925.047	38.57
925.478	55.57
925.908	41.88
926.338	28.17
926.769	18.48
927.199	18.58
927.629	12.17
928.06	12.38
928.49	18.67
928.92	16.67
929.35	7.77
929.78	10.77
930.21	7.47
930.641	7.07
931.071	11.38
931.501	5.38
931.931	8.17
932.361	4.27
932.791	6.38
933.221	2.48
933.651	-0.33
934.08	14.97
934.51	31.17
934.94	10.38
935.37	10.58
935.8	14.07
936.229	6.07
936.659	17.37
937.089	4.27
937.519	16.67
937.948	27.67
938.378	16.27
938.807	4.47
939.237	4.77
939.666	8.38
940.096	-8.93
940.525	2.87
940.955	3.77
941.384	2.48
941.814	-4.93
942.243	0.38
942.672	-1.62
943.102	-2.52
943.531	-0.23
943.96	7.67
944.39	4.67
944.819	4.57
945.248	2.47
945.677	-0.43
946.106	3.07
946.535	6.77
946.964	-5.43
947.393	5.07
947.822	7.88
948.251	-7.53
948.68	-2.62
949.109	5.87
949.538	7.58
949.967	-3.43
950.396	3.17
950.825	0.37
951.254	0.77
951.682	-5.23
952.111	2.57
952.54	4.67
952.969	1.67
953.397	-2.63
953.826	0.57
954.254	-11.93
954.683	-0.03
955.112	-2.02
955.54	-1.12
955.969	-3.12
956.397	-2.12
956.826	0.88
957.254	2.98
957.682	2.57
958.111	6.37
958.539	2.17
958.967	0.57
959.396	3.47
959.824	0.88
960.252	5.07
960.68	-5.13
961.109	0.57
961.537	2.67
961.965	0.37
962.393	4.77
962.821	-7.92
963.249	-0.13
963.677	1.17
964.105	5.87
964.533	46.08
964.961	40.67
965.389	23.38
965.817	10.27
966.245	2.97
966.672	-0.42
967.1	-8.52
967.528	-0.73
967.956	-6.62
968.383	-2.03
968.811	-4.33
969.239	-2.33
969.666	-6.33
970.094	5.77
970.522	-2.12
970.949	-3.83
971.377	-7.73
971.804	-1.83
972.232	-3.33
972.659	-2.52
973.087	-1.03
973.514	-0.13
973.941	1.97
974.369	0.17
974.796	-1.02
975.223	-2.43
975.651	-3.23
976.078	-5.02
976.505	-0.93
976.932	1.67
977.359	16.97
977.786	13.77
978.214	0.37
978.641	-11.53
979.068	-4.83
979.495	-3.63
979.922	1.07
980.349	-6.12
980.776	-2.83
981.202	-0.53
981.629	7.57
982.056	0.37
982.483	2.38
982.91	3.17
983.337	-4.93
983.763	1.27
984.19	-7.83
984.617	-3.83
985.043	-9.73
985.47	0.07
985.897	-3.73
986.323	-6.33
986.75	7.38
987.176	-3.73
987.603	-1.03
988.029	5.57
988.456	-3.13
988.882	2.58
989.308	-6.03
989.735	-3.93
990.161	-1.23
990.587	-3.03
991.014	-0.62
991.44	-1.03
991.866	-2.92
992.292	-5.12
992.719	4.07
993.145	-0.02
993.571	-10.83
993.997	-3.53
994.423	-5.53
994.849	2.77
995.275	1.67
995.701	-3.73
996.127	-5.53
996.553	-0.02
996.979	-2.12
997.405	-4.23
997.83	-1.63
998.256	-1.63
998.682	-4.52
999.108	-7.33
999.534	-2.43
999.959	-2.33
1000.385	-1.73
1000.811	-3.03
1001.236	-6.43
1001.662	-8.73
1002.087	-7.42
1002.513	-2.93
1002.938	1.88
1003.364	0.58
1003.789	-1.33
1004.215	0.27
1004.64	-0.93
1005.066	-0.52
1005.491	-0.23
1005.916	2.37
1006.342	-3.02
1006.767	-3.23
1007.192	2.88
1007.617	-5.33
1008.042	-5.23
1008.468	-1.83
1008.893	-9.62
1009.318	-4.03
1009.743	-2.53
1010.168	2.97
1010.593	-1.53
1011.018	-1.43
1011.443	-4.53
1011.868	0.17
1012.293	-3.52
1012.718	-6.92
1013.143	-1.23
1013.567	3.67
1013.992	-7.53
1014.417	-10.53
1014.842	5.17
1015.267	-7.53
1015.691	-1.43
1016.116	4.07
1016.541	-0.73
1016.965	3.77
1017.39	-3.63
1017.814	-4.02
1018.239	-2.33
1018.663	-9.43
1019.088	-8.73
1019.512	-5.73
1019.937	-1.83
1020.361	-4.03
1020.785	-13.23
1021.21	-4.33
1021.634	1.57
1022.058	5.87
1022.483	-4.43
1022.907	-4.93
1023.331	-3.02
1023.755	-4.63
1024.179	-4.23
1024.604	-0.23
1025.028	-5.63
1025.452	-9.23
1025.876	-0.03
1026.3	2.97
1026.724	-10.03
1027.148	-0.62
1027.572	-6.02
1027.996	-11.12
1028.42	-1.13
1028.843	-5.73
1029.267	-2.03
1029.691	-7.33
1030.115	-4.73
1030.539	-8.73
1030.962	-4.93
1031.386	-11.83
1031.81	-3.52
1032.233	-3.43
1032.657	-5.92
1033.08	-2.73
1033.504	-4.03
1033.927	-7.62
1034.351	-6.92
1034.774	-1.43
1035.198	0.17
1035.621	-5.42
1036.045	-9.03
1036.468	5.37
1036.891	-10.83
1037.315	-7.83
1037.738	-9.52
1038.161	-4.13
1038.584	-9.03
1039.008	-4.43
1039.431	-2.33
1039.854	-4.33
1040.277	-11.62
1040.7	-10.52
1041.123	-5.13
1041.546	-11.83
1041.969	-5.23
1042.392	-9.73
1042.815	-3.93
1043.238	-0.43
1043.661	0.87
1044.084	-6.02
1044.507	-5.93
1044.93	-9.12
1045.352	-1.43
1045.775	-2.63
1046.198	4.88
1046.621	1.88
1047.043	3.77
1047.466	6.07
1047.889	-8.33
1048.311	-9.43
1048.734	-7.83
1049.156	-0.52
1049.579	-4.93
1050.001	1.17
1050.424	-0.03
1050.846	-5.63
1051.269	-8.42
1051.691	-10.33
1052.113	-9.03
1052.536	-1.62
1052.958	-4.53
1053.38	-7.23
1053.802	-11.53
1054.225	-3.03
1054.647	-11.23
1055.069	-1.73
1055.491	3.48
1055.913	-3.83
1056.335	-1.23
1056.757	-3.33
1057.179	-5.63
1057.601	-6.73
1058.023	-2.33
1058.445	-5.23
1058.867	-4.62
1059.289	-2.53
1059.711	-10.42
1060.133	0.67
1060.555	-0.53
1060.976	-4.93
1061.398	-7.33
1061.82	-7.93
1062.241	-0.53
1062.663	-3.53
1063.085	-3.33
1063.506	0.88
1063.928	-4.93
1064.35	-1.73
1064.771	-8.33
1065.193	-3.93
1065.614	-10.83
1066.035	-4.12
1066.457	-4.33
1066.878	0.77
1067.3	-4.43
1067.721	-0.13
1068.142	-5.63
1068.564	-2.63
1068.985	-6.63
1069.406	-6.02
1069.827	-4.33
1070.248	-6.12
1070.67	-6.62
1071.091	-9.12
1071.512	-1.93
1071.933	-9.13
1072.354	-10.73
1072.775	-4.93
1073.196	-9.02
1073.617	-8.43
1074.038	-9.12
1074.459	-8.02
1074.88	-8.52
1075.3	0.47
1075.721	-6.63
1076.142	-3.33
1076.563	-3.13
1076.983	-13.53
1077.404	-4.23
1077.825	-6.83
1078.246	-5.43
1078.666	-10.13
1079.087	-3.62
1079.507	-8.83
1079.928	4.77
1080.348	-3.92
1080.769	-3.43
1081.189	-7.83
1081.61	-3.02
1082.03	-8.43
1082.451	-0.43
1082.871	-1.52
1083.291	-10.13
1083.711	-6.23
1084.132	-3.23
1084.552	-4.13
1084.972	0.17
1085.392	-9.63
1085.813	-8.33
1086.233	-13.53
1086.653	-0.93
1087.073	-2.23
1087.493	-15.23
1087.913	-5.93
1088.333	-10.53
1088.753	-5.33
1089.173	-2.23
1089.593	-3.23
1090.013	5.37
1090.433	1.27
1090.852	-4.73
1091.272	-3.13
1091.692	-3.73
1092.112	-2.62
1092.531	-5.43
1092.951	-12.93
1093.371	-1.93
1093.79	1.88
1094.21	-5.23
1094.63	-9.23
1095.049	-5.33
1095.469	-3.43
1095.888	-5.43
1096.308	-1.53
1096.727	5.57
1097.146	-7.33
1097.566	1.17
1097.985	-5.12
1098.405	-7.92
1098.824	-7.73
1099.243	-8.02
1099.662	-15.03
1100.082	-4.42
1100.501	-4.13
1100.92	-6.63
1101.339	-6.93
1101.758	-8.23
