Data from 20171114-ORNL-Ar_H_NY_Subt18_08-08-23-846.txt Node
Date: Tue Nov 14 08:08:23 EST 2017
User: Ender
Spectrometer: HR+D1039
Trigger mode: 0
Integration Time (sec): 2.730000E-2
Scans to average: 10
Electric dark correction enabled: true
Nonlinearity correction enabled: false
Boxcar width: 0
XAxis mode: Wavelengths
Number of Pixels in Spectrum: 2048
>>>>>Begin Spectral Data<<<<<
187.836	-1.79
188.309	-1.79
188.782	-1.79
189.255	1.51
189.728	0.81
190.201	1.71
190.674	0.51
191.147	-2.49
191.619	-7.19
192.092	-1.29
192.565	6.81
193.038	1.81
193.511	0.51
193.984	2.61
194.456	0.91
194.929	0.31
195.402	-5.49
195.874	0.71
196.347	-0.99
196.82	-9.69
197.292	8.01
197.765	-4.29
198.237	-5.99
198.71	-0.19
199.182	-3.89
199.655	2.21
200.127	4.21
200.6	-3.79
201.072	-3.59
201.544	-7.79
202.017	-1.69
202.489	4.81
202.961	-4.99
203.433	-11.69
203.906	-2.49
204.378	-9.79
204.85	-3.69
205.322	-7.39
205.794	-3.49
206.266	-7.59
206.739	-6.69
207.211	-2.29
207.683	-6.99
208.155	-8.39
208.627	-6.29
209.099	-11.89
209.57	-11.49
210.042	-1.99
210.514	-6.09
210.986	0.81
211.458	-9.89
211.93	-3.59
212.402	-2.29
212.873	-4.39
213.345	-13.39
213.817	-14.39
214.288	-7.19
214.76	-16.09
215.232	-3.89
215.703	-5.09
216.175	-5.09
216.646	-6.99
217.118	-8.39
217.589	-5.69
218.061	-5.69
218.532	-5.69
219.004	-6.79
219.475	-6.69
219.946	-6.09
220.418	-6.19
220.889	0.91
221.36	-3.59
221.832	-8.69
222.303	-8.39
222.774	2.01
223.245	-10.69
223.717	-6.59
224.188	-7.59
224.659	-0.49
225.13	-4.59
225.601	-3.89
226.072	-3.69
226.543	-1.79
227.014	3.61
227.485	-1.19
227.956	-4.89
228.427	-3.09
228.898	1.81
229.369	1.61
229.839	-6.19
230.31	-9.69
230.781	1.11
231.252	1.41
231.722	-8.09
232.193	0.41
232.664	0.01
233.135	0.21
233.605	0.21
234.076	-8.39
234.546	0.71
235.017	-2.09
235.487	2.81
235.958	-5.19
236.428	1.41
236.899	5.11
237.369	-5.29
237.84	-8.49
238.31	7.11
238.78	0.41
239.251	-0.89
239.721	0.11
240.191	-6.49
240.662	-2.59
241.132	1.61
241.602	-1.79
242.072	-1.59
242.542	4.41
243.013	-5.39
243.483	5.51
243.953	5.01
244.423	-3.79
244.893	-1.29
245.363	1.51
245.833	0.61
246.303	-0.49
246.773	6.11
247.243	-1.29
247.712	0.61
248.182	1.91
248.652	7.31
249.122	-2.19
249.592	6.61
250.061	19.11
250.531	33.51
251.001	13.51
251.471	18.21
251.94	7.01
252.41	9.31
252.879	-3.49
253.349	15.81
253.818	11.11
254.288	1.91
254.757	-0.29
255.227	0.41
255.696	4.01
256.166	-0.49
256.635	5.41
257.105	7.71
257.574	6.71
258.043	9.01
258.513	5.01
258.982	18.11
259.451	4.51
259.92	14.01
260.389	10.71
260.859	19.21
261.328	0.61
261.797	16.11
262.266	4.21
262.735	6.41
263.204	4.11
263.673	-3.79
264.142	4.71
264.611	-1.79
265.08	0.01
265.549	-4.79
266.018	1.21
266.487	-2.19
266.955	-3.79
267.424	-0.39
267.893	6.31
268.362	2.41
268.83	3.41
269.299	9.91
269.768	4.61
270.236	4.71
270.705	-7.19
271.174	3.11
271.642	7.11
272.111	4.61
272.579	12.21
273.048	20.31
273.516	32.21
273.985	22.01
274.453	21.21
274.922	19.31
275.39	11.21
275.858	5.11
276.327	10.31
276.795	16.31
277.263	7.11
277.731	27.21
278.2	51.11
278.668	50.01
279.136	43.21
279.604	16.51
280.072	10.31
280.54	8.71
281.008	15.11
281.477	6.71
281.945	6.41
282.413	9.91
282.881	10.81
283.348	8.81
283.816	11.01
284.284	10.01
284.752	15.51
285.22	13.21
285.688	11.61
286.156	15.61
286.623	43.71
287.091	51.21
287.559	26.31
288.026	16.01
288.494	8.51
288.962	1.11
289.429	8.31
289.897	12.01
290.364	12.81
290.832	15.31
291.3	11.61
291.767	13.81
292.234	16.91
292.702	6.91
293.169	12.51
293.637	18.01
294.104	16.71
294.571	11.11
295.039	10.71
295.506	13.61
295.973	11.51
296.44	14.81
296.908	19.81
297.375	15.91
297.842	13.71
298.309	15.71
298.776	13.41
299.243	18.31
299.71	16.51
300.177	17.91
300.644	20.41
301.111	16.51
301.578	17.81
302.045	14.51
302.512	24.61
302.979	22.71
303.446	20.01
303.913	18.31
304.379	11.51
304.846	25.41
305.313	23.41
305.78	23.31
306.246	26.91
306.713	24.71
307.18	20.41
307.646	22.91
308.113	26.01
308.579	22.31
309.046	24.11
309.512	17.91
309.979	18.91
310.445	21.11
310.912	23.81
311.378	28.21
311.845	29.01
312.311	31.71
312.777	28.31
313.244	25.31
313.71	30.11
314.176	31.91
314.642	28.01
315.109	31.21
315.575	35.21
316.041	31.31
316.507	32.81
316.973	37.11
317.439	37.61
317.905	40.31
318.371	30.91
318.837	29.51
319.303	30.11
319.769	27.41
320.235	35.31
320.701	26.71
321.167	38.81
321.633	28.91
322.099	41.51
322.564	41.01
323.03	39.51
323.496	32.01
323.962	35.81
324.427	30.31
324.893	36.61
325.359	36.81
325.824	38.01
326.29	35.01
326.755	35.31
327.221	30.21
327.686	37.31
328.152	46.51
328.617	37.11
329.083	41.51
329.548	49.41
330.014	41.21
330.479	32.21
330.944	42.31
331.41	39.71
331.875	38.51
332.34	37.11
332.805	40.41
333.271	41.41
333.736	36.91
334.201	49.31
334.666	44.81
335.131	46.41
335.596	45.11
336.061	48.41
336.526	41.31
336.991	49.01
337.456	52.91
337.921	48.61
338.386	41.51
338.851	44.11
339.316	44.61
339.781	39.71
340.246	48.91
340.711	41.11
341.175	46.51
341.64	40.11
342.105	49.81
342.569	52.81
343.034	56.01
343.499	48.21
343.963	52.01
344.428	57.41
344.893	56.21
345.357	60.31
345.822	57.41
346.286	57.41
346.751	70.11
347.215	71.01
347.679	72.31
348.144	96.41
348.608	78.61
349.073	61.81
349.537	68.01
350.001	74.81
350.465	77.51
350.93	71.01
351.394	80.71
351.858	63.91
352.322	84.21
352.786	84.31
353.25	97.81
353.715	109.51
354.179	96.81
354.643	125.21
355.107	130.71
355.571	102.41
356.035	105.81
356.498	121.01
356.962	122.51
357.426	133.81
357.89	112.21
358.354	88.31
358.818	77.51
359.281	73.91
359.745	70.61
360.209	78.51
360.673	68.91
361.136	66.71
361.6	83.31
362.064	81.21
362.527	85.51
362.991	84.51
363.454	74.01
363.918	75.51
364.381	76.51
364.845	83.11
365.308	75.81
365.772	86.11
366.235	81.21
366.698	80.51
367.162	81.31
367.625	85.71
368.088	87.41
368.552	81.01
369.015	79.11
369.478	92.21
369.941	99.61
370.404	98.41
370.867	99.71
371.331	107.81
371.794	111.51
372.257	111.31
372.72	117.01
373.183	109.01
373.646	105.41
374.109	102.71
374.572	103.41
375.035	104.01
375.497	107.51
375.96	101.21
376.423	98.31
376.886	112.41
377.349	99.51
377.811	107.21
378.274	98.81
378.737	100.61
379.199	112.51
379.662	112.41
380.125	114.11
380.587	121.61
381.05	122.61
381.512	128.01
381.975	132.61
382.437	125.21
382.9	126.91
383.362	133.11
383.825	133.91
384.287	145.91
384.75	137.11
385.212	140.01
385.674	137.41
386.136	132.71
386.599	117.01
387.061	118.91
387.523	126.11
387.985	135.11
388.447	144.41
388.91	143.41
389.372	156.81
389.834	156.01
390.296	145.01
390.758	155.81
391.22	167.91
391.682	218.01
392.144	318.01
392.606	242.01
393.068	172.51
393.529	167.21
393.991	160.11
394.453	148.61
394.915	158.11
395.377	206.51
395.838	231.11
396.3	156.81
396.762	137.81
397.224	127.91
397.685	128.31
398.147	129.11
398.608	129.01
399.07	121.51
399.531	134.01
399.993	141.41
400.454	150.11
400.916	141.01
401.377	140.31
401.839	145.21
402.3	152.21
402.762	166.41
403.223	174.71
403.684	165.61
404.145	158.01
404.607	161.91
405.068	159.51
405.529	170.11
405.99	184.31
406.451	168.51
406.913	176.21
407.374	157.11
407.835	160.11
408.296	170.41
408.757	166.11
409.218	179.41
409.679	184.61
410.14	172.61
410.601	174.71
411.062	187.01
411.522	191.61
411.983	191.31
412.444	170.41
412.905	173.31
413.366	179.01
413.826	188.31
414.287	203.01
414.748	247.11
415.208	237.21
415.669	202.41
416.13	202.41
416.59	198.81
417.051	206.81
417.511	217.91
417.972	237.81
418.432	238.61
418.893	284.11
419.353	244.91
419.814	190.51
420.274	186.51
420.734	178.61
421.195	195.61
421.655	190.91
422.115	189.31
422.576	191.91
423.036	189.51
423.496	202.91
423.956	212.91
424.416	228.31
424.876	258.01
425.336	261.41
425.797	260.71
426.257	253.91
426.717	234.71
427.177	226.51
427.637	221.21
428.097	237.61
428.556	238.51
429.016	263.61
429.476	260.71
429.936	275.81
430.396	272.51
430.856	288.61
431.315	321.41
431.775	347.71
432.235	382.31
432.694	354.11
433.154	372.41
433.614	390.61
434.073	333.21
434.533	282.91
434.993	267.31
435.452	280.41
435.912	296.71
436.371	286.91
436.83	284.91
437.29	266.91
437.749	242.21
438.209	242.01
438.668	270.41
439.127	287.51
439.587	267.71
440.046	246.71
440.505	254.01
440.964	273.51
441.424	307.21
441.883	299.81
442.342	257.61
442.801	223.21
443.26	215.11
443.719	214.41
444.178	218.01
444.637	204.11
445.096	218.71
445.555	216.71
446.014	224.61
446.473	224.41
446.932	228.41
447.391	230.41
447.849	227.11
448.308	215.61
448.767	222.61
449.226	237.71
449.685	228.71
450.143	239.31
450.602	232.91
451.061	227.11
451.519	231.21
451.978	232.41
452.436	225.61
452.895	233.41
453.353	247.41
453.812	229.61
454.27	231.91
454.729	233.01
455.187	239.41
455.646	239.41
456.104	249.31
456.562	257.41
457.021	264.91
457.479	257.91
457.937	264.71
458.395	260.21
458.854	238.71
459.312	248.61
459.77	268.81
460.228	246.31
460.686	231.31
461.144	241.71
461.602	242.91
462.06	241.81
462.518	252.01
462.976	248.11
463.434	242.21
463.892	250.41
464.35	265.31
464.808	276.71
465.266	262.71
465.724	263.51
466.181	257.31
466.639	267.51
467.097	285.41
467.555	295.81
468.012	292.81
468.47	292.71
468.928	324.51
469.385	334.71
469.843	336.51
470.3	341.71
470.758	365.31
471.215	375.41
471.673	398.11
472.13	401.71
472.588	414.01
473.045	371.21
473.503	365.71
473.96	391.31
474.417	394.21
474.875	423.71
475.332	470.71
475.789	455.51
476.246	463.61
476.704	476.51
477.161	497.61
477.618	515.11
478.075	550.01
478.532	598.71
478.989	673.21
479.446	791.01
479.903	752.91
480.36	793.91
480.817	845.81
481.274	950.11
481.731	1053.01
482.188	1147.41
482.645	1272.11
483.102	1379.51
483.558	1508.01
484.015	1564.21
484.472	1536.71
484.929	1497.21
485.385	1448.71
485.842	1400.81
486.299	1335.51
486.755	1283.31
487.212	1068.21
487.668	903.21
488.125	834.21
488.582	762.91
489.038	722.51
489.494	690.51
489.951	661.61
490.407	652.21
490.864	633.41
491.32	622.81
491.776	619.81
492.233	632.51
492.689	598.61
493.145	583.31
493.602	577.71
494.058	596.11
494.514	609.31
494.97	628.51
495.426	630.81
495.882	599.01
496.338	592.41
496.794	600.71
497.251	598.91
497.707	620.51
498.163	618.61
498.618	623.91
499.074	621.21
499.53	656.71
499.986	657.51
500.442	628.41
500.898	619.51
501.354	607.71
501.809	621.31
502.265	634.11
502.721	650.61
503.177	656.01
503.632	653.81
504.088	671.81
504.543	698.91
504.999	694.21
505.455	645.01
505.91	609.71
506.366	609.41
506.821	606.81
507.277	606.61
507.732	602.91
508.187	609.21
508.643	614.21
509.098	611.21
509.553	638.11
510.009	635.71
510.464	654.01
510.919	656.81
511.375	668.91
511.83	687.51
512.285	701.71
512.74	738.81
513.195	770.51
513.65	743.11
514.105	751.41
514.56	752.21
515.015	772.41
515.47	782.61
515.925	755.31
516.38	759.91
516.835	771.81
517.29	764.61
517.745	749.51
518.2	738.61
518.655	725.61
519.109	724.71
519.564	716.01
520.019	707.91
520.474	702.81
520.928	700.21
521.383	698.01
521.838	686.21
522.292	687.01
522.747	687.61
523.201	686.31
523.656	673.01
524.11	674.31
524.565	671.01
525.019	675.51
525.474	680.71
525.928	681.01
526.382	673.11
526.837	674.51
527.291	678.71
527.745	675.91
528.2	670.31
528.654	673.31
529.108	670.41
529.562	664.01
530.016	670.41
530.47	660.61
530.925	664.11
531.379	680.01
531.833	679.91
532.287	679.51
532.741	682.01
533.195	689.11
533.649	688.21
534.103	694.61
534.556	674.71
535.01	684.31
535.464	679.81
535.918	696.21
536.372	703.11
536.826	693.71
537.279	679.01
537.733	698.41
538.187	691.21
538.64	702.61
539.094	709.41
539.548	705.11
540.001	708.41
540.455	698.91
540.908	706.11
541.362	720.71
541.815	728.71
542.269	739.31
542.722	735.31
543.175	747.01
543.629	755.71
544.082	758.81
544.536	770.61
544.989	760.51
545.442	768.01
545.895	764.41
546.349	776.31
546.802	767.31
547.255	776.01
547.708	786.21
548.161	788.61
548.614	795.31
549.067	799.41
549.52	793.11
549.973	784.31
550.426	780.71
550.879	769.11
551.332	771.51
551.785	779.31
552.238	793.51
552.691	793.21
553.144	812.01
553.596	820.31
554.049	826.01
554.502	863.51
554.955	869.71
555.407	875.51
555.86	881.21
556.313	865.41
556.765	854.21
557.218	850.71
557.67	855.71
558.123	856.01
558.576	838.11
559.028	847.71
559.48	845.51
559.933	840.61
560.385	808.31
560.838	781.21
561.29	767.71
561.742	767.01
562.195	744.91
562.647	743.71
563.099	744.31
563.551	755.11
564.004	767.51
564.456	750.51
564.908	749.51
565.36	728.21
565.812	718.11
566.264	715.01
566.716	710.81
567.168	702.21
567.62	702.01
568.072	695.11
568.524	685.41
568.976	676.81
569.428	665.31
569.88	653.91
570.332	667.51
570.784	664.41
571.235	665.51
571.687	675.21
572.139	682.31
572.59	687.21
573.042	699.01
573.494	694.81
573.945	679.51
574.397	667.21
574.849	672.41
575.3	665.71
575.752	666.61
576.203	655.61
576.655	660.51
577.106	651.91
577.557	651.91
578.009	652.11
578.46	649.21
578.912	647.01
579.363	645.91
579.814	649.21
580.265	650.61
580.717	649.61
581.168	651.31
581.619	652.61
582.07	654.81
582.521	660.41
582.972	661.91
583.423	664.51
583.875	665.01
584.326	690.61
584.777	742.31
585.227	823.11
585.678	925.11
586.129	1016.61
586.58	1083.11
587.031	1168.71
587.482	1323.11
587.933	1515.81
588.384	1326.61
588.834	978.71
589.285	795.51
589.736	768.51
590.186	766.21
590.637	748.31
591.088	727.21
591.538	715.91
591.989	707.01
592.439	701.81
592.89	701.81
593.34	703.61
593.791	697.51
594.241	688.21
594.692	702.11
595.142	693.71
595.593	690.71
596.043	696.51
596.493	703.31
596.943	694.01
597.394	706.51
597.844	702.71
598.294	716.61
598.744	734.61
599.195	754.21
599.645	800.21
600.095	837.21
600.545	891.31
600.995	944.51
601.445	1005.81
601.895	1059.01
602.345	1114.51
602.795	1091.51
603.245	1048.21
603.695	984.71
604.145	939.11
604.594	889.61
605.044	818.71
605.494	776.71
605.944	731.51
606.393	734.71
606.843	709.51
607.293	713.01
607.743	715.71
608.192	730.91
608.642	741.31
609.091	760.71
609.541	761.21
609.99	748.61
610.44	758.41
610.889	712.11
611.339	697.61
611.788	681.01
612.238	686.51
612.687	714.61
613.136	707.31
613.586	734.61
614.035	731.91
614.484	743.41
614.933	753.11
615.383	728.01
615.832	730.31
616.281	707.91
616.73	685.71
617.179	661.81
617.628	636.81
618.077	620.21
618.526	612.41
618.975	602.21
619.424	603.51
619.873	601.61
620.322	601.41
620.771	598.31
621.22	592.11
621.669	571.81
622.118	575.71
622.567	570.51
623.015	564.61
623.464	566.81
623.913	540.51
624.361	541.81
624.81	538.41
625.259	547.91
625.707	544.51
626.156	539.61
626.604	549.11
627.053	554.51
627.501	548.61
627.95	559.41
628.398	571.71
628.847	563.21
629.295	561.21
629.744	557.41
630.192	556.31
630.64	559.21
631.089	565.61
631.537	574.71
631.985	593.01
632.433	612.41
632.881	608.31
633.33	666.91
633.778	648.21
634.226	563.61
634.674	563.01
635.122	575.11
635.57	591.31
636.018	627.01
636.466	572.31
636.914	549.21
637.362	566.81
637.81	566.71
638.258	569.81
638.705	570.31
639.153	598.91
639.601	620.31
640.049	624.21
640.497	670.01
640.944	674.91
641.392	637.11
641.84	607.51
642.287	568.61
642.735	559.81
643.182	563.71
643.63	569.81
644.078	567.21
644.525	586.81
644.973	590.01
645.42	594.61
645.867	605.81
646.315	630.51
646.762	654.41
647.21	682.11
647.657	698.11
648.104	742.11
648.551	775.31
648.999	829.71
649.446	916.21
649.893	1004.21
650.34	1168.51
650.787	1387.41
651.234	1736.41
651.682	2258.21
652.129	3132.11
652.576	4531.31
653.023	6688.01
653.47	9128.31
653.917	11289.11
654.363	12937.61
654.81	14189.61
655.257	13506.01
655.704	8837.51
656.151	5218.71
656.598	3370.21
657.044	2387.31
657.491	1837.71
657.938	1460.41
658.385	1230.41
658.831	1066.11
659.278	954.41
659.724	837.71
660.171	773.71
660.618	718.51
661.064	670.61
661.511	658.71
661.957	649.51
662.404	641.51
662.85	640.51
663.296	615.71
663.743	546.21
664.189	529.81
664.635	527.91
665.082	522.71
665.528	517.01
665.974	510.61
666.42	494.31
666.867	492.51
667.313	485.91
667.759	481.01
668.205	476.81
668.651	481.61
669.097	480.21
669.543	499.51
669.989	467.41
670.435	442.01
670.881	431.41
671.327	442.01
671.773	459.61
672.219	490.81
672.665	537.41
673.11	568.31
673.556	616.41
674.002	651.61
674.448	636.41
674.893	539.61
675.339	468.71
675.785	425.91
676.23	408.71
676.676	383.41
677.122	376.01
677.567	381.21
678.013	355.51
678.458	348.21
678.904	357.51
679.349	340.81
679.794	350.61
680.24	342.01
680.685	346.11
681.131	339.51
681.576	341.21
682.021	351.21
682.466	341.41
682.912	346.01
683.357	353.31
683.802	378.71
684.247	399.51
684.692	450.51
685.137	484.01
685.583	523.81
686.028	549.61
686.473	504.31
686.918	439.01
687.363	398.31
687.807	382.01
688.252	363.61
688.697	344.61
689.142	343.11
689.587	324.91
690.032	317.01
690.477	336.61
690.921	350.21
691.366	380.91
691.811	389.71
692.255	426.31
692.7	456.21
693.145	504.91
693.589	711.21
694.034	1127.41
694.478	1517.01
694.923	1687.11
695.367	2198.21
695.812	1167.11
696.256	486.91
696.701	373.81
697.145	337.01
697.59	323.61
698.034	314.31
698.478	330.91
698.922	324.31
699.367	328.51
699.811	331.61
700.255	348.81
700.699	379.81
701.143	423.31
701.588	477.71
702.032	498.11
702.476	508.61
702.92	479.41
703.364	491.21
703.808	639.31
704.252	1046.41
704.696	1449.01
705.14	1625.41
705.584	2055.41
706.027	1041.81
706.471	510.01
706.915	383.61
707.359	348.11
707.803	313.91
708.246	302.21
708.69	310.81
709.134	306.31
709.577	308.81
710.021	311.01
710.465	301.81
710.908	298.31
711.352	299.81
711.795	310.91
712.239	357.31
712.682	379.51
713.126	415.61
713.569	464.41
714.012	365.51
714.456	318.21
714.899	293.91
715.342	273.31
715.786	261.71
716.229	257.71
716.672	248.01
717.115	246.81
717.558	250.61
718.002	249.61
718.445	261.31
718.888	281.91
719.331	286.61
719.774	302.71
720.217	292.71
720.66	274.31
721.103	269.61
721.546	249.61
721.989	246.11
722.432	227.61
722.874	234.91
723.317	225.31
723.76	229.01
724.203	256.51
724.645	320.11
725.088	448.41
725.531	567.21
725.974	629.21
726.416	537.81
726.859	307.61
727.301	247.01
727.744	233.31
728.187	220.31
728.629	234.81
729.071	246.11
729.514	253.61
729.956	275.01
730.399	279.51
730.841	279.71
731.283	266.61
731.726	259.91
732.168	252.51
732.61	268.01
733.053	280.51
733.495	313.91
733.937	346.71
734.379	402.81
734.821	430.91
735.263	545.01
735.705	847.41
736.148	1613.01
736.59	2563.61
737.032	2941.51
737.474	2400.51
737.916	794.91
738.357	424.51
738.799	324.81
739.241	296.21
739.683	277.91
740.125	290.91
740.567	298.31
741.008	305.71
741.45	307.11
741.892	305.91
742.334	341.91
742.775	349.71
743.217	334.41
743.658	266.81
744.1	252.01
744.542	257.41
744.983	296.91
745.425	328.31
745.866	332.81
746.307	283.11
746.749	286.51
747.19	325.31
747.632	458.71
748.073	899.81
748.514	1881.01
748.956	2806.41
749.397	3516.71
749.838	2903.61
750.279	2833.41
750.72	1452.41
751.162	534.51
751.603	311.51
752.044	251.71
752.485	220.01
752.926	207.71
753.367	196.61
753.808	191.61
754.249	183.11
754.69	180.11
755.131	178.81
755.572	177.51
756.013	181.11
756.453	175.11
756.894	182.41
757.335	186.61
757.776	194.51
758.216	195.21
758.657	189.81
759.098	192.71
759.538	226.21
759.979	260.81
760.42	378.01
760.86	722.51
761.301	1886.61
761.741	4422.81
762.182	6175.71
762.622	4315.01
763.063	1268.01
763.503	529.51
763.943	347.31
764.384	350.11
764.824	417.91
765.264	445.41
765.705	309.51
766.145	208.61
766.585	183.81
767.025	178.91
767.465	188.71
767.906	249.21
768.346	329.61
768.786	342.81
769.226	264.11
769.666	321.21
770.106	641.01
770.546	1578.21
770.986	2580.91
771.426	2276.11
771.866	777.01
772.306	322.51
772.745	201.01
773.185	175.81
773.625	165.71
774.065	171.21
774.505	200.71
774.944	331.01
775.384	713.41
775.824	1264.61
776.263	1197.51
776.703	504.81
777.142	220.01
777.582	161.01
778.021	142.81
778.461	142.21
778.9	141.21
779.34	129.91
779.779	119.21
780.219	108.71
780.658	101.51
781.097	111.31
781.537	117.71
781.976	103.81
782.415	103.61
782.855	103.51
783.294	99.81
783.733	105.01
784.172	108.41
784.611	98.91
785.05	109.91
785.489	106.01
785.928	119.01
786.367	121.41
786.806	115.41
787.245	131.51
787.684	134.51
788.123	142.31
788.562	130.51
789.001	125.71
789.44	118.41
789.879	117.41
790.317	110.31
790.756	126.21
791.195	129.41
791.634	137.91
792.072	199.81
792.511	376.31
792.95	1030.61
793.388	2085.01
793.827	1867.41
794.265	668.71
794.704	274.61
795.142	174.11
795.581	146.41
796.019	133.31
796.458	124.11
796.896	120.61
797.334	130.51
797.773	157.21
798.211	220.51
798.649	444.51
799.087	1011.61
799.526	1578.11
799.964	1990.41
800.402	1931.01
800.84	733.41
801.278	292.41
801.716	180.91
802.154	152.51
802.592	142.41
803.03	137.11
803.468	133.21
803.906	149.71
804.344	148.31
804.782	135.81
805.22	129.31
805.658	126.51
806.096	140.81
806.533	159.91
806.971	171.11
807.409	215.21
807.847	320.81
808.284	682.01
808.722	1886.81
809.16	3185.11
809.597	3135.21
810.035	5372.21
810.472	5495.11
810.91	2009.41
811.347	773.01
811.785	396.31
812.222	251.11
812.66	192.41
813.097	161.81
813.535	135.71
813.972	123.71
814.409	115.61
814.846	101.41
815.284	111.81
815.721	93.91
816.158	111.61
816.595	124.31
817.032	183.21
817.47	191.61
817.907	162.81
818.344	158.41
818.781	123.11
819.218	106.61
819.655	118.81
820.092	182.11
820.529	203.41
820.966	167.31
821.403	123.21
821.839	106.61
822.276	104.31
822.713	117.81
823.15	128.71
823.587	115.51
824.023	148.31
824.46	315.71
824.897	890.71
825.333	1300.21
825.77	560.11
826.206	222.71
826.643	129.41
827.08	97.41
827.516	77.71
827.953	73.81
828.389	73.01
828.825	70.71
829.262	62.31
829.698	65.11
830.135	64.91
830.571	63.31
831.007	61.51
831.443	62.91
831.88	60.61
832.316	62.61
832.752	64.51
833.188	57.81
833.624	60.71
834.06	67.51
834.497	65.31
834.933	68.21
835.369	74.21
835.805	68.51
836.241	72.51
836.677	76.61
837.112	90.41
837.548	94.61
837.984	130.01
838.42	199.31
838.856	507.71
839.292	1507.81
839.727	2212.81
840.163	1041.31
840.599	932.61
841.034	1990.51
841.47	2034.11
841.906	758.51
842.341	335.01
842.777	232.31
843.212	327.91
843.648	310.21
844.083	155.31
844.519	95.71
844.954	74.11
845.39	58.21
845.825	62.71
846.261	60.71
846.696	54.41
847.131	52.81
847.566	55.31
848.002	47.81
848.437	59.31
848.872	56.21
849.307	62.61
849.742	89.41
850.177	193.81
850.613	558.71
851.048	846.91
851.483	368.71
851.918	152.11
852.353	87.01
852.788	64.11
853.223	52.91
853.657	53.91
854.092	47.31
854.527	45.71
854.962	43.31
855.397	41.21
855.832	47.11
856.266	37.21
856.701	38.41
857.136	35.51
857.57	43.41
858.005	48.21
858.44	61.11
858.874	40.91
859.309	52.01
859.743	39.11
860.178	48.31
860.612	39.01
861.047	47.21
861.481	65.91
861.915	64.41
862.35	46.31
862.784	32.71
863.218	38.41
863.653	34.91
864.087	43.01
864.521	54.61
864.955	70.01
865.39	160.21
865.824	171.91
866.258	107.41
866.692	158.81
867.126	165.61
867.56	100.21
867.994	51.61
868.428	38.31
868.862	49.11
869.296	51.41
869.73	55.21
870.164	50.91
870.598	43.01
871.031	38.01
871.465	23.71
871.899	23.71
872.333	23.01
872.766	29.01
873.2	22.61
873.634	23.71
874.067	24.01
874.501	24.31
874.935	25.91
875.368	25.71
875.802	21.71
876.235	26.41
876.669	24.01
877.102	22.71
877.535	27.31
877.969	22.71
878.402	19.11
878.836	14.71
879.269	20.51
879.702	25.41
880.135	20.31
880.569	22.81
881.002	26.71
881.435	25.81
881.868	22.41
882.301	18.61
882.734	13.91
883.167	18.51
883.601	19.01
884.034	20.61
884.467	8.91
884.899	22.51
885.332	13.41
885.765	7.71
886.198	15.11
886.631	12.21
887.064	12.41
887.497	19.91
887.929	29.21
888.362	15.31
888.795	9.31
889.228	18.31
889.66	22.81
890.093	15.41
890.526	13.81
890.958	14.11
891.391	19.21
891.823	21.21
892.256	18.01
892.688	11.91
893.121	15.41
893.553	13.21
893.985	23.01
894.418	13.51
894.85	11.61
895.282	19.91
895.715	15.41
896.147	18.61
896.579	10.01
897.011	14.11
897.444	12.41
897.876	18.11
898.308	12.91
898.74	10.11
899.172	9.51
899.604	18.01
900.036	23.21
900.468	9.01
900.9	13.01
901.332	13.91
901.764	11.41
902.196	19.01
902.628	11.81
903.06	24.61
903.491	27.71
903.923	21.71
904.355	18.71
904.787	28.81
905.218	20.91
905.65	17.61
906.082	14.61
906.513	13.41
906.945	15.91
907.376	7.21
907.808	12.21
908.239	24.41
908.671	17.31
909.102	23.11
909.534	19.51
909.965	51.71
910.397	93.21
910.828	314.61
911.259	457.01
911.691	214.71
912.122	108.21
912.553	49.01
912.984	31.81
913.415	25.41
913.847	20.51
914.278	9.51
914.709	8.71
915.14	20.81
915.571	24.31
916.002	11.61
916.433	17.61
916.864	13.81
917.295	7.51
917.726	16.51
918.157	11.41
918.587	31.01
919.018	21.51
919.449	26.01
919.88	22.21
920.311	26.81
920.741	45.31
921.172	165.21
921.603	144.71
922.033	70.91
922.464	44.71
922.895	16.21
923.325	19.11
923.756	16.21
924.186	22.41
924.617	28.41
925.047	42.51
925.478	55.31
925.908	45.11
926.338	20.91
926.769	20.91
927.199	21.91
927.629	10.61
928.06	22.11
928.49	13.41
928.92	8.41
929.35	9.01
929.78	11.11
930.21	5.91
930.641	7.41
931.071	4.61
931.501	-0.19
931.931	13.31
932.361	9.51
932.791	-4.09
933.221	6.61
933.651	6.41
934.08	18.11
934.51	24.31
934.94	8.31
935.37	4.51
935.8	8.61
936.229	0.61
936.659	12.11
937.089	6.61
937.519	13.41
937.948	21.41
938.378	12.91
938.807	5.71
939.237	9.31
939.666	11.41
940.096	-3.79
940.525	3.01
940.955	3.41
941.384	3.61
941.814	-8.59
942.243	-3.99
942.672	0.91
943.102	-3.79
943.531	-1.69
943.96	3.81
944.39	2.91
944.819	-1.39
945.248	0.51
945.677	1.71
946.106	4.31
946.535	5.31
946.964	-0.89
947.393	5.61
947.822	0.01
948.251	-7.19
948.68	2.91
949.109	-1.39
949.538	-0.39
949.967	-1.19
950.396	0.21
950.825	-5.99
951.254	4.01
951.682	-10.49
952.111	-0.39
952.54	8.71
952.969	-1.29
953.397	-5.99
953.826	-0.39
954.254	-6.19
954.683	0.21
955.112	-0.09
955.54	-6.99
955.969	3.31
956.397	-0.39
956.826	-0.99
957.254	2.41
957.682	-3.79
958.111	6.91
958.539	-3.59
958.967	-7.29
959.396	-2.49
959.824	1.81
960.252	-0.89
960.68	-0.79
961.109	-0.99
961.537	-5.99
961.965	-6.79
962.393	-1.59
962.821	-4.19
963.249	2.61
963.677	6.71
964.105	5.21
964.533	43.51
964.961	34.61
965.389	23.91
965.817	11.31
966.245	-1.39
966.672	-0.19
967.1	-9.69
967.528	3.11
967.956	-4.39
968.383	1.31
968.811	-5.49
969.239	5.91
969.666	0.21
970.094	-6.59
970.522	2.11
970.949	-0.09
971.377	-7.39
971.804	-6.29
972.232	-1.99
972.659	0.51
973.087	-0.09
973.514	-8.39
973.941	-9.89
974.369	-3.39
974.796	0.71
975.223	-3.29
975.651	-1.29
976.078	-1.59
976.505	-0.99
976.932	1.71
977.359	10.81
977.786	8.81
978.214	2.11
978.641	-6.89
979.068	-2.29
979.495	-4.09
979.922	-6.99
980.349	-4.59
980.776	4.51
981.202	-3.39
981.629	0.01
982.056	2.11
982.483	-0.49
982.91	8.41
983.337	-2.59
983.763	2.11
984.19	-4.39
984.617	-0.29
985.043	-7.09
985.47	-3.99
985.897	-7.89
986.323	-9.89
986.75	4.01
987.176	-2.89
987.603	-0.59
988.029	-6.29
988.456	-2.69
988.882	-0.89
989.308	-6.89
989.735	-2.79
990.161	-6.09
990.587	-6.99
991.014	2.91
991.44	3.91
991.866	-6.29
992.292	-2.09
992.719	-6.59
993.145	2.81
993.571	-7.89
993.997	-8.69
994.423	-5.69
994.849	-7.09
995.275	2.41
995.701	2.41
996.127	-1.69
996.553	3.51
996.979	-1.09
997.405	-6.09
997.83	-7.09
998.256	-3.79
998.682	-6.39
999.108	-4.59
999.534	-3.89
999.959	-2.09
1000.385	-5.09
1000.811	-2.79
1001.236	-8.99
1001.662	-6.59
1002.087	-12.29
1002.513	2.51
1002.938	-1.19
1003.364	-1.59
1003.789	-0.09
1004.215	4.21
1004.64	-4.39
1005.066	4.41
1005.491	-1.09
1005.916	-6.79
1006.342	-7.69
1006.767	-5.69
1007.192	6.61
1007.617	-8.69
1008.042	-7.09
1008.468	-9.89
1008.893	-1.29
1009.318	0.21
1009.743	-3.09
1010.168	2.61
1010.593	1.81
1011.018	-6.69
1011.443	-2.79
1011.868	3.71
1012.293	-5.19
1012.718	-2.59
1013.143	-2.09
1013.567	4.41
1013.992	-4.99
1014.417	-15.99
1014.842	2.21
1015.267	-8.89
1015.691	-4.39
1016.116	3.61
1016.541	-2.49
1016.965	1.31
1017.39	4.21
1017.814	-4.89
1018.239	-2.19
1018.663	-1.69
1019.088	-3.69
1019.512	-2.59
1019.937	-4.69
1020.361	-2.89
1020.785	-8.99
1021.21	-6.09
1021.634	-0.29
1022.058	-3.89
1022.483	1.31
1022.907	-3.79
1023.331	-6.79
1023.755	-4.09
1024.179	-4.79
1024.604	-8.79
1025.028	-3.99
1025.452	-5.99
1025.876	1.01
1026.3	-1.49
1026.724	-9.99
1027.148	-4.59
1027.572	-11.29
1027.996	-2.19
1028.42	-1.69
1028.843	-5.29
1029.267	-6.29
1029.691	-6.39
1030.115	-5.39
1030.539	-8.49
1030.962	-6.69
1031.386	-11.39
1031.81	5.01
1032.233	-0.79
1032.657	-2.09
1033.08	-6.69
1033.504	-9.99
1033.927	-8.29
1034.351	-3.29
1034.774	-10.19
1035.198	-1.89
1035.621	-4.69
1036.045	-13.69
1036.468	-2.69
1036.891	-6.19
1037.315	-7.29
1037.738	-8.59
1038.161	5.81
1038.584	-9.99
1039.008	-10.49
1039.431	-3.49
1039.854	-3.19
1040.277	-4.99
1040.7	-13.89
1041.123	-5.19
1041.546	-8.89
1041.969	-6.39
1042.392	-9.19
1042.815	-2.69
1043.238	-2.69
1043.661	-0.59
1044.084	-4.89
1044.507	-11.39
1044.93	-6.29
1045.352	-5.19
1045.775	-5.99
1046.198	-4.09
1046.621	-3.29
1047.043	2.51
1047.466	6.01
1047.889	-7.79
1048.311	-3.69
1048.734	-7.39
1049.156	-1.89
1049.579	-2.89
1050.001	-4.49
1050.424	-2.59
1050.846	-9.89
1051.269	-6.49
1051.691	-7.89
1052.113	-9.09
1052.536	0.91
1052.958	-4.59
1053.38	-2.09
1053.802	-9.49
1054.225	2.51
1054.647	-7.99
1055.069	-0.39
1055.491	0.81
1055.913	-9.39
1056.335	-2.69
1056.757	-4.89
1057.179	-10.39
1057.601	-4.09
1058.023	-5.89
1058.445	-5.19
1058.867	-4.09
1059.289	-6.59
1059.711	-10.59
1060.133	3.11
1060.555	-9.09
1060.976	-3.99
1061.398	-5.79
1061.82	-11.29
1062.241	-7.59
1062.663	-8.79
1063.085	-7.59
1063.506	-3.09
1063.928	-3.79
1064.35	0.31
1064.771	-13.19
1065.193	-7.79
1065.614	-15.69
1066.035	1.51
1066.457	-1.99
1066.878	0.71
1067.3	-7.69
1067.721	-5.19
1068.142	-6.79
1068.564	-7.29
1068.985	-6.89
1069.406	-2.09
1069.827	-5.09
1070.248	-1.69
1070.67	-6.29
1071.091	-4.39
1071.512	2.01
1071.933	-3.79
1072.354	-11.29
1072.775	-9.19
1073.196	-10.49
1073.617	-6.69
1074.038	-11.59
1074.459	-2.79
1074.88	-7.59
1075.3	-0.09
1075.721	-6.79
1076.142	2.31
1076.563	2.41
1076.983	-11.59
1077.404	-12.49
1077.825	-9.79
1078.246	-2.29
1078.666	-13.29
1079.087	-5.29
1079.507	-7.39
1079.928	-4.29
1080.348	-4.39
1080.769	-9.69
1081.189	-6.59
1081.61	-5.19
1082.03	-4.29
1082.451	-12.39
1082.871	-5.19
1083.291	-7.59
1083.711	-8.99
1084.132	-3.59
1084.552	-4.69
1084.972	-2.29
1085.392	-12.69
1085.813	-7.59
1086.233	-8.89
1086.653	-4.79
1087.073	-10.19
1087.493	-13.09
1087.913	-8.89
1088.333	-10.79
1088.753	-9.19
1089.173	1.51
1089.593	-8.09
1090.013	-2.39
1090.433	-4.59
1090.852	-4.99
1091.272	0.41
1091.692	-0.69
1092.112	-2.49
1092.531	-10.89
1092.951	-17.69
1093.371	-9.69
1093.79	1.81
1094.21	-9.49
1094.63	-10.49
1095.049	-3.89
1095.469	1.31
1095.888	-0.79
1096.308	3.41
1096.727	-0.79
1097.146	-7.79
1097.566	-5.99
1097.985	-5.49
1098.405	-3.39
1098.824	-12.09
1099.243	-7.49
1099.662	-6.19
1100.082	-6.19
1100.501	-2.29
1100.92	-6.19
1101.339	-4.09
1101.758	-4.89
