Data from 20171114-ORNL-Ar_H_NY_Subt18_08-05-32-963.txt Node
Date: Tue Nov 14 08:05:32 EST 2017
User: Ender
Spectrometer: HR+D1039
Trigger mode: 0
Integration Time (sec): 2.730000E-2
Scans to average: 10
Electric dark correction enabled: true
Nonlinearity correction enabled: false
Boxcar width: 0
XAxis mode: Wavelengths
Number of Pixels in Spectrum: 2048
>>>>>Begin Spectral Data<<<<<
187.836	-6.98
188.309	-6.98
188.782	-6.98
189.255	-2.68
189.728	-1.28
190.201	-0.48
190.674	0.42
191.147	3.62
191.619	-4.38
192.092	3.12
192.565	8.92
193.038	8.02
193.511	-2.28
193.984	0.42
194.456	-3.08
194.929	-0.68
195.402	-1.98
195.874	-0.78
196.347	-2.98
196.82	-9.28
197.292	5.32
197.765	1.42
198.237	-7.68
198.71	4.52
199.182	-3.38
199.655	1.42
200.127	3.92
200.6	1.02
201.072	2.62
201.544	-0.58
202.017	3.02
202.489	3.62
202.961	-1.28
203.433	-3.98
203.906	-5.18
204.378	-3.88
204.85	-3.78
205.322	-9.38
205.794	-2.08
206.266	-2.08
206.739	-4.98
207.211	1.32
207.683	-6.38
208.155	-7.98
208.627	-4.48
209.099	-0.88
209.57	-4.08
210.042	-2.28
210.514	-0.08
210.986	-1.58
211.458	-9.18
211.93	-2.08
212.402	1.12
212.873	-3.68
213.345	-8.18
213.817	-10.98
214.288	-5.28
214.76	-5.28
215.232	-3.78
215.703	-3.28
216.175	-5.38
216.646	0.92
217.118	-3.58
217.589	-2.28
218.061	-5.88
218.532	1.52
219.004	-4.58
219.475	3.52
219.946	-1.58
220.418	-5.18
220.889	4.42
221.36	4.62
221.832	-5.28
222.303	-9.48
222.774	1.32
223.245	-13.38
223.717	-7.78
224.188	-1.48
224.659	0.52
225.13	-1.08
225.601	-5.48
226.072	1.12
226.543	1.62
227.014	5.02
227.485	0.12
227.956	-0.38
228.427	-1.78
228.898	2.02
229.369	2.12
229.839	-4.78
230.31	-0.58
230.781	2.52
231.252	-3.48
231.722	-6.78
232.193	0.52
232.664	-0.18
233.135	3.62
233.605	1.82
234.076	-4.38
234.546	-0.78
235.017	2.32
235.487	-1.58
235.958	-4.48
236.428	1.02
236.899	6.72
237.369	2.92
237.84	-4.48
238.31	12.42
238.78	5.22
239.251	-0.48
239.721	11.12
240.191	8.82
240.662	5.32
241.132	-0.78
241.602	1.22
242.072	2.92
242.542	10.32
243.013	5.72
243.483	6.22
243.953	4.42
244.423	0.12
244.893	-2.48
245.363	6.42
245.833	6.52
246.303	-3.68
246.773	11.12
247.243	6.52
247.712	-1.18
248.182	12.32
248.652	14.22
249.122	2.82
249.592	13.72
250.061	21.32
250.531	34.72
251.001	23.32
251.471	21.92
251.94	20.62
252.41	7.92
252.879	1.92
253.349	14.42
253.818	5.02
254.288	6.12
254.757	5.92
255.227	-1.78
255.696	5.12
256.166	2.42
256.635	8.62
257.105	14.72
257.574	10.02
258.043	14.02
258.513	15.92
258.982	18.92
259.451	10.22
259.92	20.12
260.389	15.52
260.859	22.52
261.328	11.92
261.797	21.02
262.266	5.42
262.735	11.92
263.204	7.02
263.673	7.02
264.142	10.72
264.611	6.62
265.08	1.72
265.549	3.12
266.018	15.72
266.487	2.82
266.955	-1.18
267.424	3.02
267.893	13.22
268.362	4.72
268.83	10.42
269.299	10.12
269.768	8.62
270.236	10.02
270.705	7.92
271.174	9.82
271.642	11.12
272.111	16.22
272.579	18.22
273.048	31.82
273.516	32.22
273.985	29.02
274.453	19.02
274.922	18.72
275.39	14.12
275.858	4.22
276.327	13.62
276.795	22.52
277.263	9.72
277.731	37.02
278.2	61.32
278.668	63.62
279.136	50.72
279.604	24.92
280.072	19.02
280.54	15.32
281.008	12.52
281.477	21.02
281.945	19.72
282.413	20.32
282.881	17.92
283.348	10.22
283.816	14.82
284.284	17.92
284.752	21.32
285.22	13.52
285.688	15.82
286.156	16.62
286.623	49.82
287.091	57.92
287.559	34.72
288.026	27.62
288.494	15.72
288.962	9.82
289.429	14.22
289.897	19.02
290.364	18.32
290.832	16.22
291.3	18.62
291.767	20.42
292.234	17.32
292.702	19.92
293.169	19.32
293.637	29.92
294.104	24.72
294.571	15.32
295.039	13.52
295.506	14.52
295.973	25.52
296.44	20.12
296.908	18.02
297.375	20.12
297.842	24.02
298.309	21.82
298.776	15.02
299.243	28.52
299.71	13.32
300.177	28.22
300.644	22.32
301.111	28.12
301.578	32.02
302.045	21.22
302.512	28.62
302.979	24.92
303.446	20.62
303.913	22.22
304.379	23.62
304.846	32.82
305.313	23.72
305.78	27.22
306.246	33.22
306.713	30.12
307.18	29.52
307.646	27.62
308.113	32.02
308.579	19.92
309.046	32.72
309.512	32.12
309.979	29.02
310.445	30.72
310.912	31.12
311.378	32.12
311.845	31.52
312.311	34.12
312.777	35.32
313.244	37.32
313.71	40.02
314.176	33.32
314.642	32.52
315.109	35.92
315.575	35.12
316.041	44.82
316.507	35.82
316.973	45.22
317.439	38.62
317.905	35.52
318.371	37.72
318.837	39.12
319.303	37.92
319.769	31.52
320.235	33.62
320.701	44.32
321.167	35.82
321.633	39.92
322.099	45.02
322.564	46.42
323.03	45.42
323.496	46.22
323.962	48.22
324.427	37.32
324.893	43.02
325.359	38.22
325.824	44.72
326.29	39.12
326.755	45.92
327.221	46.72
327.686	47.02
328.152	49.42
328.617	42.72
329.083	55.02
329.548	55.72
330.014	50.12
330.479	45.92
330.944	43.42
331.41	47.92
331.875	46.72
332.34	43.22
332.805	47.72
333.271	41.92
333.736	44.92
334.201	55.22
334.666	56.42
335.131	54.92
335.596	55.42
336.061	55.22
336.526	50.82
336.991	52.32
337.456	61.72
337.921	52.52
338.386	53.62
338.851	49.52
339.316	47.52
339.781	47.72
340.246	56.82
340.711	51.82
341.175	57.32
341.64	47.72
342.105	57.22
342.569	63.52
343.034	60.72
343.499	58.82
343.963	52.52
344.428	70.12
344.893	63.92
345.357	61.92
345.822	62.32
346.286	66.52
346.751	70.22
347.215	73.22
347.679	76.22
348.144	101.22
348.608	90.62
349.073	70.72
349.537	83.42
350.001	83.82
350.465	93.22
350.93	87.72
351.394	85.32
351.858	77.72
352.322	90.32
352.786	85.92
353.25	108.22
353.715	123.92
354.179	103.22
354.643	128.92
355.107	132.32
355.571	112.72
356.035	109.82
356.498	125.62
356.962	131.62
357.426	132.62
357.89	125.32
358.354	95.42
358.818	85.02
359.281	81.92
359.745	84.52
360.209	78.62
360.673	80.92
361.136	83.62
361.6	88.52
362.064	82.52
362.527	88.02
362.991	93.42
363.454	81.92
363.918	79.12
364.381	85.82
364.845	92.42
365.308	92.52
365.772	88.42
366.235	88.32
366.698	90.42
367.162	91.32
367.625	88.62
368.088	91.92
368.552	88.62
369.015	93.32
369.478	101.32
369.941	106.92
370.404	98.62
370.867	105.42
371.331	110.72
371.794	119.12
372.257	113.92
372.72	122.12
373.183	112.72
373.646	101.82
374.109	105.82
374.572	113.22
375.035	103.22
375.497	110.92
375.96	109.32
376.423	107.02
376.886	120.92
377.349	117.82
377.811	109.52
378.274	110.72
378.737	117.12
379.199	115.62
379.662	117.42
380.125	113.92
380.587	118.52
381.05	122.02
381.512	130.72
381.975	142.42
382.437	134.72
382.9	129.02
383.362	136.22
383.825	138.32
384.287	152.22
384.75	153.62
385.212	139.62
385.674	140.32
386.136	138.32
386.599	131.12
387.061	126.42
387.523	125.42
387.985	135.12
388.447	147.02
388.91	148.62
389.372	156.82
389.834	157.92
390.296	146.92
390.758	159.62
391.22	168.72
391.682	211.72
392.144	298.73
392.606	233.72
393.068	168.52
393.529	173.62
393.991	160.22
394.453	154.82
394.915	152.02
395.377	189.92
395.838	219.42
396.3	154.82
396.762	150.12
397.224	135.32
397.685	128.02
398.147	124.32
398.608	133.72
399.07	135.32
399.531	136.82
399.993	146.92
400.454	157.72
400.916	149.22
401.377	152.92
401.839	154.92
402.3	153.72
402.762	166.82
403.223	175.72
403.684	175.12
404.145	166.12
404.607	159.42
405.068	168.22
405.529	171.82
405.99	194.12
406.451	180.92
406.913	173.52
407.374	166.82
407.835	166.92
408.296	163.72
408.757	174.02
409.218	184.32
409.679	183.92
410.14	182.32
410.601	186.22
411.062	190.22
411.522	196.32
411.983	195.12
412.444	177.22
412.905	180.22
413.366	181.82
413.826	194.82
414.287	217.62
414.748	268.02
415.208	245.62
415.669	206.32
416.13	208.32
416.59	204.22
417.051	214.62
417.511	217.52
417.972	234.83
418.432	238.32
418.893	292.23
419.353	243.92
419.814	202.52
420.274	185.02
420.734	184.02
421.195	197.02
421.655	201.22
422.115	200.12
422.576	192.62
423.036	190.52
423.496	207.02
423.956	212.62
424.416	231.32
424.876	267.42
425.336	258.92
425.797	269.92
426.257	259.32
426.717	243.42
427.177	233.23
427.637	230.02
428.097	246.52
428.556	252.82
429.016	265.52
429.476	269.62
429.936	277.22
430.396	283.42
430.856	288.72
431.315	316.42
431.775	346.02
432.235	382.82
432.694	361.32
433.154	365.92
433.614	395.62
434.073	345.82
434.533	285.92
434.993	274.12
435.452	291.72
435.912	298.22
436.371	295.22
436.83	287.72
437.29	281.72
437.749	245.82
438.209	243.22
438.668	281.82
439.127	292.32
439.587	276.12
440.046	250.52
440.505	262.62
440.964	279.52
441.424	326.22
441.883	316.72
442.342	260.92
442.801	230.82
443.26	222.32
443.719	222.32
444.178	218.12
444.637	210.12
445.096	220.22
445.555	218.82
446.014	220.42
446.473	224.23
446.932	234.02
447.391	225.12
447.849	230.32
448.308	216.23
448.767	225.02
449.226	232.42
449.685	238.92
450.143	252.42
450.602	241.32
451.061	226.42
451.519	238.72
451.978	234.82
452.436	241.32
452.895	244.72
453.353	252.32
453.812	243.42
454.27	239.22
454.729	239.22
455.187	247.12
455.646	253.02
456.104	253.52
456.562	257.12
457.021	270.82
457.479	257.52
457.937	276.22
458.395	271.82
458.854	253.62
459.312	258.52
459.77	275.82
460.228	262.62
460.686	247.82
461.144	256.32
461.602	252.82
462.06	246.32
462.518	257.52
462.976	258.92
463.434	260.52
463.892	264.82
464.35	285.52
464.808	291.42
465.266	264.32
465.724	264.22
466.181	280.12
466.639	275.12
467.097	292.32
467.555	306.73
468.012	308.32
468.47	313.92
468.928	329.12
469.385	357.92
469.843	349.82
470.3	354.52
470.758	361.52
471.215	388.02
471.673	420.42
472.13	408.82
472.588	415.52
473.045	376.22
473.503	377.33
473.96	392.82
474.417	405.82
474.875	433.42
475.332	475.23
475.789	459.12
476.246	470.22
476.704	492.72
477.161	510.32
477.618	527.02
478.075	558.92
478.532	627.52
478.989	697.23
479.446	824.12
479.903	777.42
480.36	824.92
480.817	878.62
481.274	981.52
481.731	1075.22
482.188	1172.03
482.645	1311.62
483.102	1409.03
483.558	1561.53
484.015	1612.03
484.472	1575.32
484.929	1539.53
485.385	1495.02
485.842	1442.92
486.299	1384.52
486.755	1307.42
487.212	1094.22
487.668	934.12
488.125	864.12
488.582	775.83
489.038	752.82
489.494	715.52
489.951	692.12
490.407	675.92
490.864	650.22
491.32	649.62
491.776	658.82
492.233	665.72
492.689	628.42
493.145	613.62
493.602	602.32
494.058	619.82
494.514	618.12
494.97	647.72
495.426	652.12
495.882	632.73
496.338	620.23
496.794	639.92
497.251	626.12
497.707	643.72
498.163	642.32
498.618	649.02
499.074	650.62
499.53	683.22
499.986	678.72
500.442	659.33
500.898	643.32
501.354	643.12
501.809	637.92
502.265	648.23
502.721	658.92
503.177	681.12
503.632	665.42
504.088	682.32
504.543	710.92
504.999	716.82
505.455	669.92
505.91	633.42
506.366	646.52
506.821	637.72
507.277	633.32
507.732	630.02
508.187	634.72
508.643	635.42
509.098	641.12
509.553	657.42
510.009	673.42
510.464	678.42
510.919	691.02
511.375	695.72
511.83	709.92
512.285	720.72
512.74	761.23
513.195	795.52
513.65	783.22
514.105	776.32
514.56	787.22
515.015	793.02
515.47	814.82
515.925	800.72
516.38	792.62
516.835	802.42
517.29	782.62
517.745	782.72
518.2	768.82
518.655	751.22
519.109	745.72
519.564	754.22
520.019	741.02
520.474	734.52
520.928	731.12
521.383	732.82
521.838	710.82
522.292	711.12
522.747	719.82
523.201	702.02
523.656	695.52
524.11	694.92
524.565	694.32
525.019	684.62
525.474	713.12
525.928	712.72
526.382	691.52
526.837	698.62
527.291	707.22
527.745	694.62
528.2	698.32
528.654	705.52
529.108	694.12
529.562	700.82
530.016	692.72
530.47	694.62
530.925	691.92
531.379	702.23
531.833	710.52
532.287	713.12
532.741	717.62
533.195	708.62
533.649	714.82
534.103	721.02
534.556	713.02
535.01	726.32
535.464	711.52
535.918	727.33
536.372	720.02
536.826	719.52
537.279	717.92
537.733	713.23
538.187	727.12
538.64	726.72
539.094	728.23
539.548	726.62
540.001	728.22
540.455	734.22
540.908	739.82
541.362	738.32
541.815	740.32
542.269	759.12
542.722	763.72
543.175	770.72
543.629	780.42
544.082	782.72
544.536	788.23
544.989	787.83
545.442	792.32
545.895	792.22
546.349	792.62
546.802	794.32
547.255	800.42
547.708	807.23
548.161	819.12
548.614	824.32
549.067	821.52
549.52	811.73
549.973	814.62
550.426	802.02
550.879	794.02
551.332	797.32
551.785	806.62
552.238	810.02
552.691	821.22
553.144	838.82
553.596	848.42
554.049	866.12
554.502	879.12
554.955	916.82
555.407	913.22
555.86	900.22
556.313	888.52
556.765	891.72
557.218	877.42
557.67	891.32
558.123	880.42
558.576	872.02
559.028	883.42
559.48	880.02
559.933	870.12
560.385	838.12
560.838	811.32
561.29	790.02
561.742	784.52
562.195	771.52
562.647	756.52
563.099	775.52
563.551	773.73
564.004	788.52
564.456	763.82
564.908	759.22
565.36	746.42
565.812	733.52
566.264	728.92
566.716	719.02
567.168	706.42
567.62	704.42
568.072	697.82
568.524	702.42
568.976	677.12
569.428	670.42
569.88	671.22
570.332	677.02
570.784	670.42
571.235	672.92
571.687	698.12
572.139	701.92
572.59	701.72
573.042	717.92
573.494	707.52
573.945	711.62
574.397	684.32
574.849	696.82
575.3	691.73
575.752	678.12
576.203	676.12
576.655	678.82
577.106	673.23
577.557	661.33
578.009	657.83
578.46	660.62
578.912	660.92
579.363	661.32
579.814	664.52
580.265	667.02
580.717	662.02
581.168	672.22
581.619	681.72
582.07	667.62
582.521	664.12
582.972	668.22
583.423	674.02
583.875	671.82
584.326	696.62
584.777	735.12
585.227	803.32
585.678	901.02
586.129	981.52
586.58	1051.33
587.031	1134.92
587.482	1286.92
587.933	1469.92
588.384	1270.62
588.834	958.73
589.285	796.22
589.736	772.52
590.186	761.92
590.637	763.02
591.088	743.42
591.538	731.92
591.989	727.42
592.439	714.32
592.89	713.62
593.34	706.92
593.791	704.92
594.241	692.72
594.692	692.73
595.142	690.12
595.593	689.73
596.043	699.22
596.493	705.92
596.943	705.83
597.394	715.32
597.844	697.62
598.294	715.92
598.744	743.52
599.195	764.12
599.645	805.92
600.095	841.12
600.545	897.22
600.995	950.02
601.445	1011.32
601.895	1066.22
602.345	1110.22
602.795	1098.42
603.245	1044.22
603.695	1002.82
604.145	940.23
604.594	900.12
605.044	852.32
605.494	782.72
605.944	741.92
606.393	726.12
606.843	706.12
607.293	720.83
607.743	724.92
608.192	729.02
608.642	744.23
609.091	749.83
609.541	754.72
609.99	757.12
610.44	754.22
610.889	706.42
611.339	688.42
611.788	670.42
612.238	686.32
612.687	709.92
613.136	702.73
613.586	717.32
614.035	720.92
614.484	739.02
614.933	740.02
615.383	724.52
615.832	729.33
616.281	712.72
616.73	676.42
617.179	656.32
617.628	646.52
618.077	630.52
618.526	602.32
618.975	607.62
619.424	605.02
619.873	595.92
620.322	603.02
620.771	602.92
621.22	590.92
621.669	584.52
622.118	579.92
622.567	565.83
623.015	565.32
623.464	562.22
623.913	552.12
624.361	545.22
624.81	531.82
625.259	531.62
625.707	547.83
626.156	544.32
626.604	553.72
627.053	547.22
627.501	544.72
627.95	550.62
628.398	557.22
628.847	560.33
629.295	555.82
629.744	560.32
630.192	551.72
630.64	553.42
631.089	545.22
631.537	573.42
631.985	565.73
632.433	579.73
632.881	593.72
633.33	643.22
633.778	627.42
634.226	544.33
634.674	552.52
635.122	567.12
635.57	576.22
636.018	608.82
636.466	561.42
636.914	540.12
637.362	558.33
637.81	560.52
638.258	563.12
638.705	568.62
639.153	589.22
639.601	594.42
640.049	626.22
640.497	649.02
640.944	668.62
641.392	621.02
641.84	597.12
642.287	571.12
642.735	553.62
643.182	548.12
643.63	563.12
644.078	554.02
644.525	573.52
644.973	577.32
645.42	588.62
645.867	593.62
646.315	616.02
646.762	640.33
647.21	657.62
647.657	699.22
648.104	727.32
648.551	746.92
648.999	815.52
649.446	889.62
649.893	973.82
650.34	1121.22
650.787	1337.52
651.234	1660.03
651.682	2171.92
652.129	2964.02
652.576	4231.82
653.023	6290.82
653.47	8659.12
653.917	10851.73
654.363	12613.33
654.81	13974.43
655.257	13320.52
655.704	8720.02
656.151	5122.72
656.598	3323.12
657.044	2360.32
657.491	1810.22
657.938	1447.72
658.385	1215.22
658.831	1050.92
659.278	930.72
659.724	837.72
660.171	767.92
660.618	704.92
661.064	663.22
661.511	645.32
661.957	636.02
662.404	629.52
662.85	640.72
663.296	613.22
663.743	545.62
664.189	518.62
664.635	517.22
665.082	503.02
665.528	507.92
665.974	502.42
666.42	499.72
666.867	487.12
667.313	477.82
667.759	475.12
668.205	472.82
668.651	469.62
669.097	464.62
669.543	480.22
669.989	450.52
670.435	432.33
670.881	429.62
671.327	431.12
671.773	456.22
672.219	471.32
672.665	520.02
673.11	561.62
673.556	595.12
674.002	638.52
674.448	633.82
674.893	526.42
675.339	462.62
675.785	425.73
676.23	409.92
676.676	381.12
677.122	374.12
677.567	358.02
678.013	350.52
678.458	346.23
678.904	343.02
679.349	338.62
679.794	343.32
680.24	337.72
680.685	348.22
681.131	336.42
681.576	335.52
682.021	347.82
682.466	333.32
682.912	336.02
683.357	337.12
683.802	365.92
684.247	390.62
684.692	435.92
685.137	480.72
685.583	522.32
686.028	538.92
686.473	501.22
686.918	428.22
687.363	401.52
687.807	374.72
688.252	351.82
688.697	340.82
689.142	318.92
689.587	316.72
690.032	314.22
690.477	330.22
690.921	333.02
691.366	364.62
691.811	390.82
692.255	411.73
692.7	441.82
693.145	480.83
693.589	651.92
694.034	1067.32
694.478	1454.73
694.923	1672.03
695.367	2171.22
695.812	1144.22
696.256	475.12
696.701	356.32
697.145	332.32
697.59	316.82
698.034	306.42
698.478	318.42
698.922	316.52
699.367	311.32
699.811	322.22
700.255	334.92
700.699	364.02
701.143	410.72
701.588	456.62
702.032	495.92
702.476	498.02
702.92	468.92
703.364	460.02
703.808	600.52
704.252	966.32
704.696	1359.83
705.14	1602.62
705.584	2048.72
706.027	1022.62
706.471	500.62
706.915	388.12
707.359	328.82
707.803	308.82
708.246	299.92
708.69	296.62
709.134	299.52
709.577	298.73
710.021	298.52
710.465	295.72
710.908	291.22
711.352	280.62
711.795	296.92
712.239	338.42
712.682	367.92
713.126	399.22
713.569	448.22
714.012	350.42
714.456	313.52
714.899	290.52
715.342	266.62
715.786	252.62
716.229	243.52
716.672	244.92
717.115	239.62
717.558	237.42
718.002	235.92
718.445	251.32
718.888	274.92
719.331	279.72
719.774	300.42
720.217	296.82
720.66	278.52
721.103	253.52
721.546	243.33
721.989	235.32
722.432	221.02
722.874	225.42
723.317	224.02
723.76	230.42
724.203	245.32
724.645	304.12
725.088	410.32
725.531	542.02
725.974	613.32
726.416	527.62
726.859	290.12
727.301	232.42
727.744	225.33
728.187	221.52
728.629	227.42
729.071	232.42
729.514	249.62
729.956	262.72
730.399	280.72
730.841	278.52
731.283	266.33
731.726	258.22
732.168	249.72
732.61	257.52
733.053	272.12
733.495	301.83
733.937	335.42
734.379	378.42
734.821	403.92
735.263	514.82
735.705	779.92
736.148	1459.62
736.59	2436.62
737.032	2933.52
737.474	2390.72
737.916	771.52
738.357	404.72
738.799	308.92
739.241	284.72
739.683	271.02
740.125	272.82
740.567	276.12
741.008	300.12
741.45	301.23
741.892	297.73
742.334	330.12
742.775	345.52
743.217	321.32
743.658	258.52
744.1	246.22
744.542	250.42
744.983	296.12
745.425	322.42
745.866	339.52
746.307	277.52
746.749	267.73
747.19	307.42
747.632	425.83
748.073	806.42
748.514	1722.73
748.956	2699.22
749.397	3382.22
749.838	2814.82
750.279	2848.12
750.72	1436.62
751.162	511.52
751.603	304.12
752.044	243.72
752.485	206.23
752.926	197.82
753.367	184.42
753.808	178.02
754.249	186.72
754.69	177.42
755.131	178.02
755.572	175.12
756.013	175.72
756.453	176.82
756.894	178.52
757.335	178.82
757.776	188.42
758.216	181.72
758.657	191.02
759.098	189.23
759.538	209.32
759.979	254.52
760.42	348.52
760.86	643.92
761.301	1681.72
761.741	4104.12
762.182	6178.83
762.622	4341.23
763.063	1253.22
763.503	520.32
763.943	326.92
764.384	323.82
764.824	380.92
765.264	412.72
765.705	285.92
766.145	199.12
766.585	178.22
767.025	176.22
767.465	173.62
767.906	235.42
768.346	298.32
768.786	322.22
769.226	248.42
769.666	299.52
770.106	568.02
770.546	1430.72
770.986	2512.23
771.426	2279.43
771.866	763.83
772.306	306.92
772.745	205.42
773.185	165.82
773.625	164.52
774.065	160.12
774.505	184.02
774.944	282.62
775.384	630.12
775.824	1145.83
776.263	1126.32
776.703	474.72
777.142	205.23
777.582	152.82
778.021	135.52
778.461	127.82
778.9	138.22
779.34	128.52
779.779	109.82
780.219	108.52
780.658	106.72
781.097	108.82
781.537	111.32
781.976	98.72
782.415	104.42
782.855	105.02
783.294	93.72
783.733	102.52
784.172	103.52
784.611	98.52
785.05	103.72
785.489	106.82
785.928	118.82
786.367	112.52
786.806	110.82
787.245	127.42
787.684	128.02
788.123	141.82
788.562	131.72
789.001	128.72
789.44	107.82
789.879	110.12
790.317	115.12
790.756	118.12
791.195	120.12
791.634	135.82
792.072	188.42
792.511	331.72
792.95	925.32
793.388	2025.42
793.827	1864.12
794.265	648.42
794.704	268.52
795.142	167.12
795.581	146.52
796.019	132.62
796.458	125.32
796.896	112.02
797.334	121.32
797.773	147.52
798.211	214.02
798.649	406.42
799.087	946.92
799.526	1497.53
799.964	1895.72
800.402	1933.72
800.84	729.62
801.278	291.02
801.716	180.42
802.154	145.42
802.592	132.62
803.03	129.12
803.468	130.62
803.906	135.12
804.344	135.92
804.782	125.02
805.22	124.82
805.658	128.22
806.096	136.32
806.533	151.42
806.971	171.92
807.409	207.22
807.847	292.12
808.284	603.52
808.722	1717.72
809.16	3108.12
809.597	2912.93
810.035	5102.73
810.472	5568.02
810.91	1995.12
811.347	755.92
811.785	380.92
812.222	240.82
812.66	186.92
813.097	163.52
813.535	132.92
813.972	127.82
814.409	111.02
814.846	101.72
815.284	104.42
815.721	98.62
816.158	101.62
816.595	118.42
817.032	172.72
817.47	186.32
817.907	163.02
818.344	143.12
818.781	111.62
819.218	99.12
819.655	116.02
820.092	179.72
820.529	207.02
820.966	170.92
821.403	128.62
821.839	106.62
822.276	103.32
822.713	117.92
823.15	124.42
823.587	107.12
824.023	138.32
824.46	277.12
824.897	836.42
825.333	1300.72
825.77	555.32
826.206	216.52
826.643	128.72
827.08	95.02
827.516	75.42
827.953	78.62
828.389	78.22
828.825	76.22
829.262	67.12
829.698	56.82
830.135	62.02
830.571	56.42
831.007	64.52
831.443	62.82
831.88	61.62
832.316	60.52
832.752	66.92
833.188	66.32
833.624	61.92
834.06	69.52
834.497	69.52
834.933	75.22
835.369	74.32
835.805	65.32
836.241	71.12
836.677	78.22
837.112	82.52
837.548	97.92
837.984	126.92
838.42	181.92
838.856	457.42
839.292	1408.32
839.727	2193.23
840.163	1018.22
840.599	861.42
841.034	1909.03
841.47	2044.42
841.906	743.12
842.341	319.02
842.777	215.22
843.212	296.62
843.648	300.32
844.083	144.72
844.519	96.02
844.954	66.62
845.39	52.82
845.825	55.92
846.261	51.52
846.696	51.72
847.131	51.62
847.566	56.52
848.002	47.72
848.437	55.62
848.872	62.12
849.307	56.42
849.742	80.12
850.177	158.92
850.613	518.42
851.048	839.12
851.483	361.32
851.918	138.62
852.353	87.72
852.788	59.02
853.223	56.62
853.657	51.22
854.092	45.72
854.527	44.72
854.962	38.52
855.397	43.92
855.832	50.82
856.266	40.92
856.701	38.42
857.136	38.62
857.57	38.32
858.005	44.42
858.44	55.62
858.874	44.92
859.309	50.72
859.743	34.12
860.178	44.72
860.612	40.72
861.047	48.42
861.481	62.42
861.915	67.32
862.35	46.22
862.784	33.42
863.218	39.82
863.653	31.52
864.087	41.42
864.521	51.12
864.955	71.42
865.39	150.12
865.824	169.82
866.258	108.92
866.692	154.22
867.126	171.42
867.56	98.52
867.994	48.62
868.428	39.52
868.862	42.72
869.296	53.42
869.73	50.92
870.164	53.62
870.598	44.12
871.031	35.22
871.465	34.32
871.899	28.72
872.333	21.42
872.766	27.82
873.2	24.62
873.634	30.12
874.067	22.42
874.501	26.42
874.935	31.52
875.368	34.22
875.802	27.02
876.235	19.12
876.669	19.42
877.102	20.62
877.535	25.12
877.969	21.02
878.402	25.32
878.836	18.82
879.269	25.42
879.702	23.32
880.135	19.72
880.569	26.12
881.002	28.92
881.435	30.22
881.868	15.92
882.301	21.82
882.734	16.32
883.167	22.32
883.601	14.42
884.034	25.52
884.467	22.12
884.899	21.52
885.332	16.02
885.765	17.42
886.198	19.82
886.631	19.62
887.064	13.52
887.497	25.92
887.929	28.12
888.362	15.02
888.795	15.42
889.228	21.32
889.66	27.92
890.093	15.12
890.526	14.52
890.958	22.02
891.391	19.22
891.823	19.42
892.256	15.42
892.688	7.72
893.121	20.82
893.553	15.42
893.985	21.62
894.418	18.92
894.85	8.42
895.282	16.72
895.715	19.12
896.147	16.22
896.579	14.92
897.011	7.32
897.444	19.42
897.876	12.82
898.308	17.52
898.74	13.52
899.172	15.22
899.604	25.82
900.036	21.72
900.468	15.62
900.9	14.32
901.332	17.92
901.764	14.52
902.196	14.22
902.628	18.72
903.06	16.42
903.491	24.62
903.923	21.12
904.355	21.42
904.787	25.12
905.218	20.02
905.65	20.92
906.082	10.62
906.513	22.02
906.945	16.32
907.376	15.12
907.808	24.72
908.239	23.82
908.671	13.82
909.102	22.32
909.534	22.82
909.965	47.02
910.397	90.02
910.828	294.82
911.259	456.12
911.691	209.12
912.122	99.92
912.553	52.32
912.984	30.52
913.415	25.32
913.847	24.82
914.278	21.72
914.709	16.42
915.14	15.72
915.571	21.42
916.002	11.32
916.433	19.62
916.864	18.72
917.295	13.72
917.726	22.12
918.157	23.12
918.587	28.32
919.018	25.42
919.449	19.32
919.88	22.72
920.311	32.92
920.741	45.42
921.172	155.92
921.603	148.02
922.033	67.22
922.464	44.72
922.895	24.02
923.325	19.42
923.756	16.52
924.186	12.42
924.617	26.92
925.047	44.82
925.478	49.12
925.908	36.32
926.338	27.52
926.769	22.32
927.199	19.72
927.629	7.12
928.06	17.92
928.49	17.72
928.92	18.12
929.35	10.42
929.78	17.02
930.21	4.92
930.641	9.82
931.071	16.82
931.501	13.72
931.931	5.22
932.361	10.52
932.791	3.72
933.221	8.02
933.651	8.22
934.08	19.22
934.51	28.62
934.94	11.92
935.37	13.22
935.8	12.92
936.229	2.52
936.659	13.02
937.089	4.52
937.519	13.42
937.948	21.42
938.378	19.82
938.807	7.02
939.237	1.12
939.666	7.92
940.096	-6.08
940.525	8.52
940.955	0.82
941.384	5.82
941.814	-3.38
942.243	-4.58
942.672	1.02
943.102	-6.78
943.531	-1.88
943.96	8.72
944.39	1.02
944.819	6.12
945.248	5.82
945.677	2.92
946.106	13.92
946.535	5.12
946.964	7.62
947.393	7.92
947.822	0.92
948.251	1.22
948.68	4.42
949.109	8.62
949.538	5.02
949.967	5.62
950.396	2.92
950.825	0.72
951.254	0.72
951.682	-6.28
952.111	5.92
952.54	7.02
952.969	-0.58
953.397	-1.78
953.826	2.62
954.254	-7.28
954.683	4.42
955.112	4.22
955.54	-4.68
955.969	1.82
956.397	-0.48
956.826	3.42
957.254	-0.88
957.682	1.62
958.111	2.92
958.539	0.62
958.967	3.02
959.396	-0.88
959.824	-1.98
960.252	-0.28
960.68	-5.48
961.109	-5.18
961.537	1.32
961.965	2.42
962.393	0.52
962.821	0.92
963.249	0.02
963.677	8.22
964.105	8.62
964.533	42.12
964.961	36.72
965.389	22.32
965.817	5.82
966.245	2.72
966.672	-1.58
967.1	-9.88
967.528	4.12
967.956	-1.08
968.383	7.22
968.811	-3.58
969.239	1.02
969.666	-6.78
970.094	0.82
970.522	3.02
970.949	0.32
971.377	-4.38
971.804	-1.98
972.232	1.22
972.659	0.62
973.087	-1.88
973.514	-0.38
973.941	-6.28
974.369	8.52
974.796	4.92
975.223	-0.18
975.651	-5.38
976.078	-0.58
976.505	-3.28
976.932	7.62
977.359	11.42
977.786	17.12
978.214	-1.28
978.641	-1.68
979.068	-3.78
979.495	-4.38
979.922	2.62
980.349	-7.08
980.776	2.12
981.202	1.42
981.629	4.52
982.056	3.42
982.483	0.72
982.91	1.72
983.337	-6.38
983.763	6.22
984.19	-6.98
984.617	-1.28
985.043	-3.88
985.47	-1.28
985.897	-3.48
986.323	-6.68
986.75	7.22
987.176	2.12
987.603	-0.48
988.029	3.02
988.456	2.02
988.882	1.32
989.308	-2.28
989.735	-4.78
990.161	0.82
990.587	0.42
991.014	6.22
991.44	6.72
991.866	-4.08
992.292	-2.78
992.719	0.62
993.145	6.02
993.571	-5.18
993.997	-3.78
994.423	-5.88
994.849	-5.88
995.275	1.02
995.701	2.12
996.127	-3.68
996.553	3.62
996.979	2.52
997.405	3.32
997.83	-2.78
998.256	-0.88
998.682	-1.98
999.108	-7.88
999.534	-4.88
999.959	-0.48
1000.385	-5.08
1000.811	1.32
1001.236	-6.48
1001.662	-11.58
1002.087	-6.68
1002.513	-1.28
1002.938	0.92
1003.364	-1.48
1003.789	-5.78
1004.215	2.42
1004.64	4.52
1005.066	0.92
1005.491	-1.38
1005.916	-3.68
1006.342	2.32
1006.767	-7.38
1007.192	1.62
1007.617	0.92
1008.042	-3.78
1008.468	-9.38
1008.893	-3.28
1009.318	2.22
1009.743	-0.58
1010.168	8.72
1010.593	0.62
1011.018	-4.98
1011.443	0.02
1011.868	2.72
1012.293	-1.98
1012.718	-6.68
1013.143	2.32
1013.567	0.02
1013.992	-2.18
1014.417	-7.48
1014.842	-1.68
1015.267	-3.88
1015.691	-10.18
1016.116	1.82
1016.541	-3.88
1016.965	6.22
1017.39	4.52
1017.814	3.62
1018.239	-0.38
1018.663	-4.68
1019.088	-1.28
1019.512	-1.78
1019.937	-1.98
1020.361	-1.58
1020.785	-9.48
1021.21	0.12
1021.634	3.62
1022.058	3.32
1022.483	6.12
1022.907	-1.88
1023.331	-4.98
1023.755	-2.98
1024.179	2.02
1024.604	-2.58
1025.028	-3.78
1025.452	-1.88
1025.876	-4.78
1026.3	3.32
1026.724	-12.48
1027.148	-6.08
1027.572	-5.58
1027.996	-5.38
1028.42	-7.08
1028.843	-4.28
1029.267	-0.08
1029.691	-2.78
1030.115	-5.98
1030.539	-8.98
1030.962	-7.68
1031.386	-9.08
1031.81	-1.78
1032.233	2.12
1032.657	-0.88
1033.08	1.82
1033.504	-0.28
1033.927	-2.58
1034.351	-1.48
1034.774	-0.38
1035.198	4.22
1035.621	-7.28
1036.045	-4.18
1036.468	6.92
1036.891	-8.58
1037.315	-9.08
1037.738	-9.08
1038.161	3.12
1038.584	-5.88
1039.008	-4.28
1039.431	0.72
1039.854	-3.18
1040.277	-6.38
1040.7	-9.58
1041.123	-2.28
1041.546	-7.48
1041.969	-4.18
1042.392	-6.08
1042.815	1.32
1043.238	3.52
1043.661	2.22
1044.084	-10.78
1044.507	-0.28
1044.93	-7.28
1045.352	-3.58
1045.775	-2.48
1046.198	-5.48
1046.621	-1.78
1047.043	-1.68
1047.466	12.72
1047.889	1.82
1048.311	-6.08
1048.734	1.32
1049.156	1.12
1049.579	-1.68
1050.001	-7.08
1050.424	-3.88
1050.846	-0.78
1051.269	-1.88
1051.691	-4.58
1052.113	-2.08
1052.536	-3.28
1052.958	0.82
1053.38	-1.98
1053.802	-6.68
1054.225	1.82
1054.647	-10.38
1055.069	-4.78
1055.491	9.52
1055.913	-6.28
1056.335	-0.98
1056.757	-2.78
1057.179	-2.98
1057.601	-3.68
1058.023	-4.38
1058.445	-4.08
1058.867	-5.98
1059.289	-1.68
1059.711	-5.78
1060.133	1.22
1060.555	-9.18
1060.976	-5.58
1061.398	-3.18
1061.82	-4.28
1062.241	-6.08
1062.663	-5.28
1063.085	-2.28
1063.506	3.22
1063.928	-5.38
1064.35	1.72
1064.771	-10.68
1065.193	-5.78
1065.614	-6.98
1066.035	-3.48
1066.457	-5.28
1066.878	0.82
1067.3	-3.68
1067.721	-2.58
1068.142	-2.08
1068.564	-2.68
1068.985	0.32
1069.406	-5.18
1069.827	-5.58
1070.248	-0.18
1070.67	-7.98
1071.091	-3.08
1071.512	-0.68
1071.933	-5.98
1072.354	-4.48
1072.775	-1.38
1073.196	-4.58
1073.617	1.82
1074.038	-1.48
1074.459	0.02
1074.88	-7.98
1075.3	4.12
1075.721	-3.38
1076.142	-0.08
1076.563	-1.68
1076.983	-9.08
1077.404	-8.08
1077.825	-13.08
1078.246	-7.88
1078.666	-10.28
1079.087	-4.48
1079.507	1.72
1079.928	7.22
1080.348	-0.58
1080.769	-2.58
1081.189	3.72
1081.61	-3.58
1082.03	-10.58
1082.451	-3.08
1082.871	-1.18
1083.291	-5.88
1083.711	-3.18
1084.132	-3.38
1084.552	-6.68
1084.972	-0.58
1085.392	-9.68
1085.813	-6.58
1086.233	-10.08
1086.653	-4.48
1087.073	1.12
1087.493	-9.98
1087.913	-10.38
1088.333	-3.28
1088.753	1.12
1089.173	3.12
1089.593	-1.28
1090.013	3.62
1090.433	1.32
1090.852	1.32
1091.272	1.02
1091.692	-1.78
1092.112	-1.58
1092.531	-3.38
1092.951	-5.68
1093.371	-1.48
1093.79	1.42
1094.21	-6.08
1094.63	-3.08
1095.049	-6.48
1095.469	0.42
1095.888	-2.68
1096.308	4.82
1096.727	6.22
1097.146	-4.48
1097.566	4.62
1097.985	-6.48
1098.405	-2.98
1098.824	-4.58
1099.243	-2.58
1099.662	-9.58
1100.082	-1.28
1100.501	-0.98
1100.92	-1.38
1101.339	-10.48
1101.758	-3.58
