Data from 20171114-ORNL-Ar_H_NY_Subt18_08-04-13-254.txt Node
Date: Tue Nov 14 08:04:13 EST 2017
User: Ender
Spectrometer: HR+D1039
Trigger mode: 0
Integration Time (sec): 2.730000E-2
Scans to average: 10
Electric dark correction enabled: true
Nonlinearity correction enabled: false
Boxcar width: 0
XAxis mode: Wavelengths
Number of Pixels in Spectrum: 2048
>>>>>Begin Spectral Data<<<<<
187.836	-1.82
188.309	-1.82
188.782	-1.82
189.255	2.38
189.728	-2.52
190.201	7.18
190.674	5.28
191.147	-2.02
191.619	-11.62
192.092	0.48
192.565	5.98
193.038	0.48
193.511	1.28
193.984	-0.72
194.456	-3.92
194.929	1.68
195.402	-3.12
195.874	0.98
196.347	3.68
196.82	-7.62
197.292	6.58
197.765	-1.32
198.237	-4.42
198.71	6.18
199.182	0.18
199.655	1.88
200.127	-1.62
200.6	-2.22
201.072	2.08
201.544	-9.92
202.017	-1.12
202.489	7.48
202.961	-3.92
203.433	-7.12
203.906	-8.42
204.378	-3.72
204.85	-1.12
205.322	-10.62
205.794	-5.62
206.266	-3.02
206.739	-8.72
207.211	-4.12
207.683	-8.22
208.155	-6.82
208.627	-4.52
209.099	-7.12
209.57	-9.32
210.042	-8.42
210.514	-4.42
210.986	-2.02
211.458	-8.32
211.93	-3.12
212.402	2.78
212.873	-7.12
213.345	-11.32
213.817	-11.92
214.288	-1.52
214.76	-8.72
215.232	-0.42
215.703	-1.62
216.175	-0.52
216.646	-6.62
217.118	-3.52
217.589	-7.12
218.061	-3.02
218.532	-5.42
219.004	0.78
219.475	-3.92
219.946	0.78
220.418	-6.42
220.889	2.78
221.36	3.28
221.832	-6.72
222.303	-3.72
222.774	1.38
223.245	-13.22
223.717	-2.72
224.188	-4.02
224.659	-9.32
225.13	-8.52
225.601	-3.12
226.072	-2.82
226.543	-3.32
227.014	-4.22
227.485	-4.72
227.956	-4.72
228.427	-3.72
228.898	-2.22
229.369	1.78
229.839	0.28
230.31	-4.22
230.781	3.18
231.252	-1.62
231.722	-6.02
232.193	0.58
232.664	-1.72
233.135	-2.12
233.605	-1.52
234.076	-7.92
234.546	-0.22
235.017	6.88
235.487	5.38
235.958	1.08
236.428	3.28
236.899	8.48
237.369	-0.02
237.84	1.38
238.31	5.08
238.78	3.78
239.251	3.28
239.721	1.28
240.191	3.48
240.662	3.88
241.132	0.58
241.602	-2.72
242.072	1.28
242.542	6.18
243.013	0.08
243.483	1.08
243.953	-3.42
244.423	0.48
244.893	-2.62
245.363	3.48
245.833	0.78
246.303	-0.82
246.773	5.28
247.243	4.28
247.712	3.88
248.182	9.78
248.652	8.38
249.122	-0.72
249.592	10.28
250.061	21.58
250.531	34.18
251.001	14.08
251.471	21.28
251.94	16.58
252.41	4.98
252.879	4.38
253.349	9.18
253.818	12.18
254.288	6.78
254.757	1.38
255.227	3.28
255.696	2.88
256.166	9.58
256.635	1.58
257.105	8.78
257.574	4.68
258.043	12.98
258.513	9.18
258.982	18.18
259.451	10.28
259.92	10.18
260.389	13.78
260.859	15.78
261.328	6.88
261.797	18.28
262.266	11.08
262.735	10.18
263.204	1.98
263.673	1.48
264.142	4.88
264.611	-2.02
265.08	0.68
265.549	5.58
266.018	4.68
266.487	2.88
266.955	-6.32
267.424	-4.02
267.893	-0.72
268.362	4.98
268.83	4.58
269.299	7.88
269.768	8.38
270.236	3.98
270.705	6.08
271.174	7.38
271.642	8.68
272.111	9.38
272.579	16.98
273.048	16.18
273.516	25.38
273.985	22.88
274.453	23.58
274.922	21.28
275.39	7.98
275.858	0.88
276.327	8.38
276.795	21.38
277.263	8.28
277.731	23.98
278.2	50.08
278.668	51.98
279.136	42.88
279.604	12.88
280.072	17.88
280.54	14.98
281.008	9.48
281.477	14.18
281.945	13.78
282.413	10.78
282.881	18.88
283.348	6.08
283.816	10.28
284.284	16.88
284.752	18.18
285.22	11.58
285.688	12.78
286.156	16.88
286.623	43.18
287.091	41.88
287.559	27.18
288.026	16.18
288.494	8.88
288.962	1.78
289.429	6.28
289.897	17.88
290.364	8.98
290.832	19.28
291.3	10.58
291.767	16.18
292.234	15.48
292.702	11.58
293.169	17.48
293.637	21.08
294.104	23.08
294.571	9.98
295.039	13.28
295.506	9.18
295.973	17.98
296.44	20.58
296.908	18.78
297.375	17.28
297.842	17.48
298.309	11.78
298.776	11.08
299.243	19.98
299.71	14.48
300.177	22.58
300.644	19.78
301.111	20.48
301.578	15.58
302.045	11.28
302.512	22.08
302.979	20.98
303.446	21.68
303.913	16.58
304.379	13.88
304.846	25.88
305.313	22.08
305.78	20.68
306.246	24.08
306.713	22.98
307.18	19.28
307.646	23.48
308.113	23.08
308.579	23.08
309.046	21.88
309.512	24.18
309.979	12.18
310.445	19.78
310.912	20.88
311.378	29.08
311.845	24.88
312.311	27.58
312.777	28.48
313.244	24.38
313.71	33.38
314.176	22.78
314.642	27.68
315.109	22.08
315.575	29.28
316.041	31.28
316.507	27.98
316.973	33.58
317.439	26.98
317.905	31.28
318.371	27.48
318.837	30.88
319.303	31.18
319.769	28.18
320.235	25.98
320.701	35.38
321.167	34.18
321.633	26.58
322.099	36.08
322.564	40.18
323.03	35.98
323.496	33.58
323.962	32.78
324.427	29.48
324.893	40.28
325.359	32.28
325.824	31.18
326.29	32.28
326.755	35.58
327.221	38.58
327.686	33.38
328.152	40.68
328.617	38.38
329.083	41.58
329.548	44.08
330.014	42.78
330.479	37.18
330.944	34.58
331.41	40.98
331.875	37.88
332.34	37.08
332.805	38.28
333.271	44.08
333.736	40.88
334.201	41.48
334.666	47.28
335.131	46.28
335.596	46.08
336.061	48.68
336.526	38.58
336.991	32.98
337.456	46.38
337.921	44.48
338.386	35.98
338.851	46.58
339.316	40.18
339.781	43.38
340.246	47.18
340.711	42.18
341.175	42.28
341.64	38.28
342.105	40.28
342.569	48.78
343.034	52.58
343.499	51.28
343.963	41.38
344.428	53.18
344.893	56.58
345.357	52.08
345.822	51.18
346.286	57.18
346.751	69.28
347.215	58.38
347.679	60.88
348.144	78.48
348.608	68.48
349.073	54.48
349.537	60.48
350.001	64.18
350.465	75.88
350.93	70.78
351.394	71.68
351.858	55.68
352.322	73.18
352.786	74.18
353.25	85.58
353.715	95.38
354.179	90.98
354.643	105.98
355.107	105.18
355.571	88.78
356.035	86.88
356.498	93.58
356.962	103.68
357.426	104.68
357.89	106.48
358.354	78.08
358.818	69.68
359.281	69.58
359.745	70.78
360.209	68.78
360.673	64.58
361.136	66.18
361.6	75.58
362.064	72.28
362.527	77.08
362.991	81.28
363.454	75.38
363.918	64.88
364.381	69.28
364.845	74.08
365.308	78.78
365.772	78.48
366.235	76.28
366.698	75.18
367.162	70.18
367.625	73.58
368.088	76.78
368.552	76.68
369.015	76.58
369.478	84.48
369.941	92.08
370.404	80.88
370.867	89.08
371.331	91.58
371.794	100.98
372.257	94.98
372.72	107.28
373.183	102.18
373.646	87.48
374.109	91.18
374.572	89.58
375.035	95.58
375.497	98.28
375.96	90.58
376.423	84.08
376.886	97.28
377.349	94.58
377.811	89.48
378.274	92.88
378.737	92.38
379.199	96.38
379.662	96.58
380.125	97.78
380.587	101.68
381.05	107.98
381.512	109.98
381.975	128.78
382.437	114.08
382.9	110.08
383.362	117.78
383.825	124.28
384.287	134.78
384.75	121.68
385.212	121.38
385.674	127.48
386.136	125.68
386.599	108.98
387.061	107.78
387.523	112.28
387.985	106.88
388.447	127.08
388.91	121.28
389.372	130.58
389.834	134.78
390.296	127.98
390.758	138.68
391.22	149.78
391.682	174.78
392.144	255.98
392.606	200.88
393.068	139.48
393.529	148.08
393.991	136.68
394.453	128.28
394.915	140.18
395.377	167.48
395.838	187.48
396.3	133.28
396.762	126.48
397.224	113.28
397.685	114.48
398.147	112.88
398.608	118.28
399.07	108.18
399.531	116.28
399.993	128.48
400.454	126.98
400.916	133.18
401.377	122.88
401.839	139.28
402.3	130.58
402.762	148.48
403.223	152.18
403.684	157.88
404.145	149.88
404.607	143.78
405.068	149.58
405.529	143.58
405.99	163.98
406.451	154.28
406.913	152.18
407.374	145.78
407.835	143.78
408.296	150.98
408.757	153.38
409.218	165.48
409.679	160.88
410.14	159.88
410.601	160.48
411.062	164.08
411.522	172.98
411.983	173.78
412.444	156.18
412.905	153.58
413.366	164.28
413.826	169.08
414.287	194.98
414.748	227.88
415.208	227.68
415.669	193.88
416.13	180.58
416.59	181.98
417.051	181.68
417.511	195.68
417.972	212.38
418.432	226.78
418.893	259.88
419.353	222.98
419.814	176.78
420.274	168.08
420.734	169.18
421.195	171.98
421.655	174.98
422.115	166.88
422.576	175.88
423.036	175.28
423.496	189.68
423.956	189.18
424.416	204.38
424.876	238.48
425.336	234.48
425.797	236.88
426.257	218.88
426.717	209.58
427.177	203.68
427.637	201.18
428.097	206.58
428.556	210.68
429.016	245.48
429.476	230.28
429.936	246.68
430.396	240.78
430.856	256.68
431.315	278.48
431.775	304.58
432.235	329.48
432.694	310.68
433.154	322.58
433.614	326.58
434.073	286.88
434.533	257.48
434.993	242.78
435.452	241.18
435.912	260.18
436.371	246.78
436.83	249.58
437.29	236.58
437.749	213.28
438.209	215.68
438.668	233.98
439.127	248.78
439.587	231.68
440.046	214.68
440.505	220.18
440.964	240.58
441.424	267.28
441.883	261.28
442.342	228.98
442.801	191.88
443.26	199.18
443.719	195.08
444.178	194.28
444.637	183.38
445.096	193.68
445.555	201.18
446.014	191.98
446.473	200.68
446.932	203.38
447.391	194.98
447.849	198.68
448.308	196.68
448.767	197.38
449.226	210.88
449.685	213.78
450.143	222.28
450.602	210.48
451.061	204.98
451.519	211.28
451.978	207.68
452.436	209.98
452.895	209.28
453.353	217.88
453.812	215.68
454.27	216.18
454.729	213.78
455.187	209.28
455.646	212.08
456.104	215.28
456.562	224.78
457.021	229.58
457.479	225.98
457.937	233.38
458.395	229.88
458.854	218.28
459.312	222.08
459.77	239.98
460.228	222.78
460.686	217.88
461.144	221.88
461.602	225.68
462.06	216.98
462.518	223.38
462.976	232.58
463.434	227.18
463.892	231.68
464.35	240.98
464.808	253.98
465.266	239.98
465.724	242.08
466.181	241.88
466.639	245.18
467.097	258.68
467.555	264.78
468.012	268.38
468.47	278.78
468.928	292.38
469.385	299.38
469.843	305.88
470.3	308.48
470.758	312.68
471.215	333.58
471.673	352.68
472.13	354.18
472.588	360.48
473.045	329.38
473.503	334.58
473.96	345.18
474.417	354.08
474.875	380.08
475.332	408.08
475.789	409.08
476.246	411.28
476.704	434.88
477.161	446.78
477.618	451.98
478.075	496.38
478.532	527.38
478.989	599.08
479.446	680.28
479.903	668.48
480.36	716.98
480.817	770.08
481.274	847.98
481.731	946.18
482.188	1027.98
482.645	1155.58
483.102	1248.38
483.558	1360.38
484.015	1425.78
484.472	1406.58
484.929	1358.48
485.385	1316.68
485.842	1283.58
486.299	1210.98
486.755	1140.98
487.212	965.38
487.668	819.48
488.125	759.88
488.582	702.18
489.038	666.88
489.494	647.48
489.951	619.38
490.407	586.88
490.864	576.38
491.32	576.08
491.776	560.68
492.233	562.08
492.689	533.48
493.145	531.88
493.602	529.88
494.058	544.68
494.514	543.58
494.97	557.08
495.426	566.98
495.882	541.68
496.338	539.28
496.794	549.28
497.251	549.08
497.707	556.18
498.163	552.98
498.618	570.98
499.074	565.58
499.53	591.48
499.986	587.68
500.442	571.78
500.898	548.28
501.354	551.08
501.809	557.18
502.265	558.08
502.721	573.78
503.177	585.08
503.632	583.78
504.088	587.18
504.543	621.08
504.999	607.58
505.455	565.58
505.91	561.78
506.366	561.88
506.821	555.58
507.277	548.38
507.732	551.18
508.187	548.58
508.643	556.08
509.098	553.18
509.553	579.58
510.009	578.68
510.464	590.58
510.919	608.08
511.375	603.28
511.83	628.48
512.285	629.98
512.74	669.58
513.195	685.08
513.65	674.18
514.105	676.88
514.56	670.08
515.015	706.18
515.47	707.78
515.925	699.18
516.38	691.68
516.835	696.78
517.29	692.58
517.745	681.28
518.2	675.98
518.655	662.78
519.109	651.78
519.564	650.98
520.019	645.78
520.474	635.08
520.928	638.18
521.383	623.58
521.838	624.18
522.292	625.78
522.747	623.08
523.201	611.58
523.656	613.98
524.11	603.28
524.565	606.08
525.019	603.88
525.474	611.38
525.928	621.98
526.382	605.28
526.837	607.48
527.291	608.98
527.745	601.78
528.2	604.78
528.654	594.58
529.108	597.28
529.562	601.38
530.016	598.18
530.47	588.48
530.925	598.68
531.379	599.78
531.833	613.28
532.287	611.38
532.741	605.28
533.195	616.78
533.649	618.48
534.103	627.48
534.556	617.78
535.01	615.28
535.464	606.48
535.918	630.38
536.372	628.28
536.826	623.38
537.279	610.98
537.733	610.78
538.187	616.78
538.64	615.98
539.094	623.38
539.548	632.38
540.001	627.28
540.455	620.58
540.908	631.38
541.362	631.28
541.815	651.48
542.269	662.78
542.722	657.28
543.175	662.68
543.629	660.38
544.082	678.08
544.536	672.58
544.989	677.48
545.442	688.18
545.895	683.88
546.349	679.48
546.802	675.18
547.255	685.98
547.708	686.58
548.161	698.58
548.614	701.48
549.067	715.78
549.52	712.08
549.973	699.68
550.426	693.78
550.879	681.78
551.332	689.98
551.785	683.38
552.238	695.28
552.691	708.58
553.144	709.08
553.596	724.48
554.049	748.18
554.502	759.18
554.955	779.58
555.407	771.38
555.86	763.98
556.313	767.28
556.765	757.58
557.218	747.58
557.67	750.98
558.123	742.88
558.576	737.98
559.028	746.08
559.48	754.48
559.933	741.68
560.385	716.08
560.838	691.98
561.29	669.78
561.742	663.78
562.195	650.58
562.647	648.28
563.099	654.18
563.551	654.18
564.004	667.48
564.456	654.68
564.908	636.38
565.36	632.18
565.812	629.38
566.264	614.48
566.716	617.38
567.168	595.98
567.62	608.48
568.072	597.68
568.524	584.98
568.976	572.68
569.428	571.28
569.88	571.98
570.332	566.48
570.784	572.78
571.235	578.28
571.687	587.08
572.139	590.68
572.59	600.58
573.042	595.98
573.494	594.48
573.945	591.78
574.397	578.58
574.849	571.28
575.3	575.68
575.752	564.08
576.203	569.98
576.655	575.68
577.106	557.18
577.557	559.48
578.009	557.68
578.46	555.78
578.912	558.58
579.363	552.08
579.814	550.98
580.265	552.68
580.717	554.88
581.168	550.58
581.619	575.48
582.07	574.28
582.521	563.28
582.972	555.88
583.423	563.18
583.875	568.08
584.326	585.38
584.777	627.28
585.227	681.08
585.678	756.88
586.129	828.78
586.58	894.18
587.031	968.18
587.482	1106.88
587.933	1272.88
588.384	1093.28
588.834	813.68
589.285	679.58
589.736	647.68
590.186	648.18
590.637	628.78
591.088	609.48
591.538	606.68
591.989	602.78
592.439	600.48
592.89	591.58
593.34	573.68
593.791	583.98
594.241	581.68
594.692	582.38
595.142	571.08
595.593	568.58
596.043	582.38
596.493	587.18
596.943	584.28
597.394	591.88
597.844	593.48
598.294	600.38
598.744	621.08
599.195	632.18
599.645	662.98
600.095	692.58
600.545	742.28
600.995	789.28
601.445	837.28
601.895	895.78
602.345	937.58
602.795	922.08
603.245	872.08
603.695	827.38
604.145	787.58
604.594	745.08
605.044	698.18
605.494	650.18
605.944	614.78
606.393	596.58
606.843	594.78
607.293	599.18
607.743	598.28
608.192	602.58
608.642	615.18
609.091	611.78
609.541	621.88
609.99	614.88
610.44	614.58
610.889	574.88
611.339	567.58
611.788	561.98
612.238	571.18
612.687	588.38
613.136	582.28
613.586	605.68
614.035	601.18
614.484	611.18
614.933	610.28
615.383	605.58
615.832	594.38
616.281	573.88
616.73	554.78
617.179	537.08
617.628	519.88
618.077	512.68
618.526	500.28
618.975	494.78
619.424	498.88
619.873	492.28
620.322	498.08
620.771	483.68
621.22	480.98
621.669	477.78
622.118	470.88
622.567	457.18
623.015	461.08
623.464	453.48
623.913	449.18
624.361	443.88
624.81	446.58
625.259	438.08
625.707	442.98
626.156	443.78
626.604	456.58
627.053	457.58
627.501	449.18
627.95	457.88
628.398	462.48
628.847	455.38
629.295	460.48
629.744	463.78
630.192	454.28
630.64	447.58
631.089	447.38
631.537	451.18
631.985	456.98
632.433	471.18
632.881	477.08
633.33	517.68
633.778	511.58
634.226	443.98
634.674	455.98
635.122	457.58
635.57	481.38
636.018	488.18
636.466	455.88
636.914	440.88
637.362	458.18
637.81	456.58
638.258	463.18
638.705	457.18
639.153	477.98
639.601	489.48
640.049	511.68
640.497	528.98
640.944	563.28
641.392	508.48
641.84	483.28
642.287	465.98
642.735	449.88
643.182	461.68
643.63	450.78
644.078	459.18
644.525	464.58
644.973	472.98
645.42	483.58
645.867	490.38
646.315	508.48
646.762	517.68
647.21	547.88
647.657	564.78
648.104	598.88
648.551	594.18
648.999	651.98
649.446	717.58
649.893	786.98
650.34	893.88
650.787	1077.78
651.234	1334.78
651.682	1726.78
652.129	2357.08
652.576	3407.48
653.023	5045.88
653.47	7018.58
653.917	8878.78
654.363	10428.18
654.81	11772.58
655.257	11212.38
655.704	7271.78
656.151	4236.88
656.598	2740.58
657.044	1937.48
657.491	1485.08
657.938	1189.68
658.385	978.08
658.831	849.68
659.278	768.18
659.724	662.38
660.171	624.98
660.618	561.98
661.064	536.98
661.511	512.58
661.957	505.28
662.404	488.98
662.85	497.18
663.296	473.18
663.743	445.38
664.189	429.98
664.635	419.18
665.082	411.88
665.528	408.68
665.974	414.58
666.42	399.18
666.867	393.58
667.313	376.98
667.759	370.68
668.205	378.98
668.651	386.08
669.097	380.58
669.543	395.68
669.989	373.88
670.435	356.08
670.881	346.08
671.327	352.38
671.773	361.48
672.219	375.18
672.665	427.68
673.11	459.58
673.556	489.78
674.002	522.88
674.448	519.58
674.893	431.98
675.339	372.48
675.785	343.08
676.23	329.28
676.676	297.68
677.122	301.28
677.567	290.48
678.013	286.98
678.458	275.88
678.904	273.28
679.349	265.58
679.794	277.08
680.24	276.88
680.685	267.28
681.131	269.08
681.576	275.08
682.021	277.98
682.466	276.38
682.912	276.78
683.357	269.98
683.802	299.58
684.247	313.78
684.692	351.28
685.137	378.18
685.583	415.18
686.028	439.88
686.473	410.18
686.918	340.98
687.363	328.48
687.807	316.48
688.252	288.98
688.697	272.48
689.142	265.58
689.587	259.18
690.032	245.48
690.477	261.48
690.921	260.98
691.366	296.28
691.811	316.58
692.255	345.18
692.7	363.18
693.145	387.48
693.589	521.58
694.034	853.08
694.478	1179.88
694.923	1367.68
695.367	1834.28
695.812	943.18
696.256	387.78
696.701	294.08
697.145	267.38
697.59	253.68
698.034	251.98
698.478	254.18
698.922	248.18
699.367	248.78
699.811	261.88
700.255	273.08
700.699	294.88
701.143	327.68
701.588	365.78
702.032	402.88
702.476	400.48
702.92	379.18
703.364	377.08
703.808	468.58
704.252	768.08
704.696	1108.28
705.14	1318.18
705.584	1701.08
706.027	840.78
706.471	405.98
706.915	311.18
707.359	263.48
707.803	242.58
708.246	241.28
708.69	242.08
709.134	244.58
709.577	238.68
710.021	244.58
710.465	231.48
710.908	235.18
711.352	234.88
711.795	238.78
712.239	261.68
712.682	294.38
713.126	317.28
713.569	364.28
714.012	284.48
714.456	245.28
714.899	228.28
715.342	209.68
715.786	196.98
716.229	199.78
716.672	198.18
717.115	192.98
717.558	196.08
718.002	192.78
718.445	200.88
718.888	231.08
719.331	226.98
719.774	234.68
720.217	232.78
720.66	217.98
721.103	203.08
721.546	198.18
721.989	191.98
722.432	172.08
722.874	188.18
723.317	180.78
723.76	181.08
724.203	196.98
724.645	241.88
725.088	330.08
725.531	431.18
725.974	501.68
726.416	429.68
726.859	231.58
727.301	191.98
727.744	182.48
728.187	175.48
728.629	189.38
729.071	187.38
729.514	195.08
729.956	209.88
730.399	219.48
730.841	224.48
731.283	215.68
731.726	207.98
732.168	202.28
732.61	209.58
733.053	215.18
733.495	235.78
733.937	270.28
734.379	301.48
734.821	335.08
735.263	402.78
735.705	628.98
736.148	1179.18
736.59	1971.08
737.032	2441.88
737.474	1991.38
737.916	630.28
738.357	330.88
738.799	251.08
739.241	223.48
739.683	213.68
740.125	221.78
740.567	223.78
741.008	248.28
741.45	244.78
741.892	249.78
742.334	267.88
742.775	284.28
743.217	267.58
743.658	213.28
744.1	196.48
744.542	200.68
744.983	231.68
745.425	271.98
745.866	273.08
746.307	216.48
746.749	218.18
747.19	247.08
747.632	336.68
748.073	642.08
748.514	1390.88
748.956	2217.78
749.397	2767.18
749.838	2294.08
750.279	2379.48
750.72	1189.88
751.162	427.38
751.603	252.48
752.044	198.98
752.485	162.68
752.926	163.38
753.367	160.98
753.808	149.98
754.249	149.58
754.69	145.68
755.131	135.98
755.572	143.18
756.013	136.98
756.453	143.48
756.894	143.58
757.335	144.78
757.776	149.88
758.216	151.98
758.657	149.78
759.098	151.98
759.538	171.98
759.979	197.08
760.42	274.78
760.86	524.98
761.301	1352.98
761.741	3382.68
762.182	5252.28
762.622	3708.28
763.063	1047.28
763.503	417.78
763.943	269.68
764.384	266.38
764.824	312.28
765.264	346.48
765.705	236.38
766.145	167.68
766.585	144.18
767.025	140.38
767.465	147.08
767.906	185.38
768.346	253.08
768.786	271.98
769.226	200.08
769.666	239.58
770.106	453.08
770.546	1159.18
770.986	2094.58
771.426	1911.98
771.866	622.78
772.306	250.28
772.745	165.08
773.185	131.78
773.625	124.68
774.065	120.88
774.505	147.88
774.944	229.88
775.384	510.18
775.824	970.38
776.263	977.98
776.703	404.28
777.142	170.28
777.582	122.48
778.021	105.38
778.461	103.88
778.9	109.68
779.34	104.18
779.779	88.68
780.219	81.78
780.658	81.28
781.097	84.88
781.537	90.38
781.976	83.18
782.415	82.68
782.855	81.68
783.294	77.58
783.733	82.98
784.172	87.58
784.611	81.28
785.05	77.98
785.489	83.68
785.928	87.28
786.367	85.48
786.806	89.18
787.245	100.78
787.684	102.68
788.123	114.38
788.562	104.78
789.001	97.98
789.44	91.98
789.879	89.18
790.317	92.28
790.756	100.78
791.195	102.58
791.634	114.58
792.072	156.58
792.511	261.18
792.95	753.18
793.388	1691.98
793.827	1589.08
794.265	528.28
794.704	219.38
795.142	140.68
795.581	118.18
796.019	105.68
796.458	94.28
796.896	91.48
797.334	102.28
797.773	118.88
798.211	156.28
798.649	314.88
799.087	776.08
799.526	1236.08
799.964	1562.28
800.402	1631.18
800.84	594.18
801.278	230.88
801.716	145.78
802.154	115.18
802.592	118.08
803.03	108.38
803.468	108.28
803.906	109.48
804.344	120.88
804.782	103.18
805.22	102.98
805.658	93.28
806.096	113.38
806.533	120.38
806.971	130.68
807.409	173.58
807.847	239.28
808.284	482.68
808.722	1428.58
809.16	2608.38
809.597	2416.98
810.035	4283.58
810.472	4841.58
810.91	1705.28
811.347	634.48
811.785	316.38
812.222	190.78
812.66	150.48
813.097	127.48
813.535	104.38
813.972	101.28
814.409	90.08
814.846	84.68
815.284	83.98
815.721	73.98
816.158	82.28
816.595	91.88
817.032	132.48
817.47	163.18
817.907	135.38
818.344	114.88
818.781	84.68
819.218	79.28
819.655	99.48
820.092	152.68
820.529	169.78
820.966	141.98
821.403	108.48
821.839	79.68
822.276	81.58
822.713	93.28
823.15	108.08
823.587	91.08
824.023	113.78
824.46	221.68
824.897	679.98
825.333	1083.98
825.77	469.78
826.206	181.78
826.643	106.78
827.08	80.58
827.516	62.98
827.953	61.68
828.389	63.18
828.825	51.78
829.262	52.78
829.698	44.68
830.135	49.58
830.571	50.68
831.007	50.58
831.443	50.78
831.88	44.88
832.316	50.48
832.752	49.98
833.188	50.68
833.624	43.28
834.06	59.48
834.497	54.38
834.933	55.08
835.369	54.28
835.805	47.88
836.241	59.28
836.677	61.38
837.112	67.38
837.548	74.48
837.984	102.28
838.42	149.48
838.856	366.48
839.292	1162.88
839.727	1871.68
840.163	854.48
840.599	706.78
841.034	1586.18
841.47	1760.18
841.906	627.38
842.341	266.18
842.777	173.88
843.212	243.38
843.648	252.18
844.083	113.78
844.519	77.18
844.954	62.98
845.39	43.38
845.825	42.78
846.261	46.78
846.696	40.78
847.131	39.78
847.566	43.78
848.002	39.88
848.437	40.28
848.872	51.18
849.307	45.08
849.742	66.48
850.177	130.78
850.613	426.68
851.048	707.78
851.483	299.28
851.918	116.08
852.353	66.38
852.788	44.38
853.223	45.58
853.657	47.98
854.092	34.08
854.527	30.78
854.962	32.98
855.397	32.88
855.832	33.48
856.266	31.58
856.701	28.48
857.136	28.28
857.57	33.58
858.005	45.78
858.44	44.98
858.874	33.28
859.309	41.78
859.743	27.78
860.178	31.78
860.612	25.88
861.047	42.88
861.481	54.38
861.915	61.48
862.35	43.08
862.784	24.68
863.218	27.78
863.653	23.48
864.087	36.58
864.521	34.68
864.955	56.48
865.39	116.28
865.824	142.08
866.258	90.48
866.692	134.38
867.126	148.48
867.56	86.58
867.994	46.28
868.428	27.88
868.862	35.78
869.296	42.38
869.73	47.28
870.164	40.78
870.598	39.48
871.031	31.38
871.465	26.68
871.899	25.08
872.333	14.28
872.766	23.28
873.2	20.78
873.634	26.98
874.067	17.58
874.501	20.98
874.935	29.58
875.368	25.38
875.802	18.58
876.235	17.88
876.669	19.58
877.102	13.98
877.535	20.48
877.969	13.48
878.402	15.08
878.836	14.68
879.269	16.48
879.702	20.08
880.135	19.28
880.569	22.58
881.002	25.28
881.435	17.08
881.868	14.68
882.301	20.98
882.734	11.78
883.167	20.78
883.601	18.18
884.034	14.28
884.467	9.98
884.899	15.58
885.332	12.78
885.765	11.48
886.198	17.48
886.631	12.28
887.064	12.18
887.497	15.38
887.929	23.58
888.362	11.88
888.795	5.38
889.228	12.08
889.66	18.68
890.093	13.88
890.526	9.08
890.958	11.58
891.391	13.28
891.823	19.68
892.256	15.78
892.688	14.38
893.121	9.58
893.553	7.48
893.985	18.58
894.418	18.38
894.85	11.18
895.282	12.38
895.715	10.68
896.147	14.88
896.579	13.48
897.011	9.28
897.444	8.68
897.876	10.68
898.308	17.08
898.74	10.98
899.172	12.48
899.604	22.28
900.036	22.48
900.468	13.68
900.9	13.78
901.332	13.98
901.764	12.08
902.196	10.68
902.628	14.08
903.06	16.88
903.491	25.98
903.923	17.28
904.355	8.98
904.787	23.58
905.218	12.18
905.65	14.88
906.082	13.08
906.513	8.88
906.945	10.08
907.376	9.18
907.808	20.28
908.239	14.48
908.671	15.08
909.102	13.28
909.534	20.58
909.965	37.68
910.397	70.98
910.828	252.28
911.259	395.28
911.691	172.78
912.122	85.98
912.553	42.08
912.984	21.18
913.415	19.68
913.847	14.48
914.278	13.48
914.709	11.48
915.14	12.48
915.571	18.38
916.002	8.28
916.433	18.48
916.864	10.18
917.295	8.88
917.726	13.88
918.157	13.38
918.587	23.98
919.018	18.58
919.449	19.88
919.88	17.88
920.311	23.68
920.741	38.48
921.172	131.78
921.603	119.08
922.033	57.18
922.464	41.68
922.895	20.98
923.325	18.48
923.756	10.28
924.186	11.58
924.617	18.88
925.047	28.28
925.478	43.78
925.908	35.78
926.338	17.98
926.769	17.68
927.199	16.98
927.629	6.98
928.06	15.18
928.49	13.68
928.92	14.78
929.35	8.98
929.78	7.88
930.21	7.88
930.641	9.18
931.071	10.78
931.501	2.48
931.931	11.38
932.361	9.78
932.791	4.08
933.221	5.58
933.651	4.18
934.08	9.98
934.51	27.98
934.94	8.38
935.37	9.38
935.8	12.58
936.229	7.48
936.659	9.98
937.089	-2.52
937.519	12.68
937.948	18.28
938.378	10.88
938.807	8.98
939.237	1.18
939.666	9.38
940.096	-11.82
940.525	2.28
940.955	0.28
941.384	8.48
941.814	-7.42
942.243	-1.62
942.672	5.48
943.102	-2.52
943.531	-0.72
943.96	4.18
944.39	4.88
944.819	5.38
945.248	3.38
945.677	3.18
946.106	1.08
946.535	8.18
946.964	-0.12
947.393	5.98
947.822	1.58
948.251	-7.02
948.68	4.28
949.109	11.18
949.538	7.88
949.967	4.28
950.396	2.78
950.825	2.28
951.254	0.68
951.682	-7.92
952.111	1.38
952.54	6.18
952.969	-0.62
953.397	-4.02
953.826	2.48
954.254	-16.12
954.683	0.38
955.112	4.18
955.54	2.78
955.969	-1.22
956.397	-0.62
956.826	-1.52
957.254	6.08
957.682	1.88
958.111	5.28
958.539	1.38
958.967	3.48
959.396	-0.72
959.824	1.08
960.252	-1.02
960.68	-2.12
961.109	-5.42
961.537	-2.42
961.965	2.78
962.393	1.58
962.821	0.88
963.249	4.58
963.677	2.38
964.105	0.78
964.533	37.78
964.961	39.78
965.389	19.18
965.817	5.38
966.245	-0.92
966.672	-1.12
967.1	-10.92
967.528	0.08
967.956	2.98
968.383	3.28
968.811	-1.82
969.239	0.18
969.666	-4.22
970.094	-1.72
970.522	1.58
970.949	-2.02
971.377	-0.32
971.804	-0.72
972.232	-2.22
972.659	-0.62
973.087	-4.92
973.514	-1.62
973.941	-3.02
974.369	8.88
974.796	5.28
975.223	5.08
975.651	0.68
976.078	-2.02
976.505	-3.72
976.932	9.18
977.359	7.88
977.786	13.18
978.214	-3.82
978.641	-5.92
979.068	-9.82
979.495	-6.02
979.922	5.28
980.349	1.08
980.776	3.78
981.202	-0.92
981.629	6.48
982.056	4.78
982.483	-1.42
982.91	1.28
983.337	-2.22
983.763	2.48
984.19	-2.62
984.617	-1.22
985.043	-4.62
985.47	5.38
985.897	-5.62
986.323	-6.32
986.75	4.18
987.176	4.08
987.603	-0.42
988.029	2.08
988.456	-6.22
988.882	0.98
989.308	-2.02
989.735	-3.72
990.161	6.48
990.587	-4.32
991.014	-6.62
991.44	4.38
991.866	-3.02
992.292	-5.82
992.719	-6.42
993.145	1.78
993.571	-11.42
993.997	-0.22
994.423	-3.62
994.849	-3.62
995.275	-1.42
995.701	4.38
996.127	-0.52
996.553	2.78
996.979	-2.92
997.405	2.28
997.83	-0.92
998.256	-4.42
998.682	-5.42
999.108	-3.22
999.534	2.68
999.959	-1.82
1000.385	-3.32
1000.811	3.68
1001.236	-10.42
1001.662	-8.12
1002.087	-9.22
1002.513	-0.42
1002.938	5.88
1003.364	-3.22
1003.789	-1.62
1004.215	-2.22
1004.64	-1.82
1005.066	4.48
1005.491	0.48
1005.916	-4.62
1006.342	4.08
1006.767	-6.32
1007.192	4.78
1007.617	0.08
1008.042	-3.92
1008.468	-4.42
1008.893	-2.02
1009.318	-6.12
1009.743	-10.32
1010.168	8.08
1010.593	2.98
1011.018	-11.22
1011.443	-6.62
1011.868	-3.02
1012.293	1.98
1012.718	-5.42
1013.143	2.18
1013.567	-2.22
1013.992	-3.52
1014.417	-9.82
1014.842	8.18
1015.267	-6.72
1015.691	-5.52
1016.116	7.18
1016.541	1.18
1016.965	4.58
1017.39	0.48
1017.814	6.88
1018.239	-1.72
1018.663	-4.22
1019.088	-8.32
1019.512	-0.82
1019.937	2.18
1020.361	-4.62
1020.785	-9.02
1021.21	-6.02
1021.634	-2.02
1022.058	-1.02
1022.483	4.38
1022.907	-2.92
1023.331	-4.72
1023.755	4.88
1024.179	-0.42
1024.604	-1.42
1025.028	-3.42
1025.452	-3.02
1025.876	-4.02
1026.3	-2.62
1026.724	-9.32
1027.148	-3.12
1027.572	-9.92
1027.996	-2.92
1028.42	-1.62
1028.843	-0.12
1029.267	-0.12
1029.691	-1.22
1030.115	-6.02
1030.539	-3.62
1030.962	-3.82
1031.386	-5.12
1031.81	-3.72
1032.233	-0.52
1032.657	-2.82
1033.08	2.78
1033.504	-8.22
1033.927	-5.12
1034.351	-1.72
1034.774	2.88
1035.198	5.68
1035.621	-6.52
1036.045	-7.52
1036.468	-0.92
1036.891	-4.42
1037.315	-10.52
1037.738	-14.72
1038.161	-1.82
1038.584	-3.12
1039.008	-4.52
1039.431	-2.52
1039.854	-1.42
1040.277	-7.92
1040.7	-9.02
1041.123	4.28
1041.546	-3.32
1041.969	-8.92
1042.392	-3.32
1042.815	-1.82
1043.238	3.78
1043.661	5.48
1044.084	-4.52
1044.507	-2.92
1044.93	-5.42
1045.352	-0.32
1045.775	-5.32
1046.198	-2.42
1046.621	1.08
1047.043	-0.12
1047.466	9.08
1047.889	0.18
1048.311	-6.32
1048.734	-1.52
1049.156	0.48
1049.579	-0.12
1050.001	-4.42
1050.424	-7.62
1050.846	-0.92
1051.269	-0.02
1051.691	-2.52
1052.113	-6.02
1052.536	-1.62
1052.958	-1.52
1053.38	-0.82
1053.802	-6.32
1054.225	0.18
1054.647	-8.82
1055.069	-4.22
1055.491	7.28
1055.913	-9.12
1056.335	2.28
1056.757	-5.82
1057.179	-6.42
1057.601	-1.02
1058.023	-4.92
1058.445	-1.02
1058.867	-5.52
1059.289	-6.22
1059.711	-7.42
1060.133	-2.02
1060.555	0.18
1060.976	-9.22
1061.398	-5.42
1061.82	-7.12
1062.241	-6.92
1062.663	-4.02
1063.085	-3.12
1063.506	4.28
1063.928	-5.12
1064.35	0.28
1064.771	-10.62
1065.193	-2.22
1065.614	-9.02
1066.035	3.68
1066.457	-6.12
1066.878	3.38
1067.3	-4.32
1067.721	-5.62
1068.142	-5.52
1068.564	-3.32
1068.985	-1.62
1069.406	-1.32
1069.827	6.18
1070.248	-0.52
1070.67	-6.12
1071.091	-1.62
1071.512	-5.32
1071.933	-2.62
1072.354	-6.82
1072.775	-2.62
1073.196	-11.32
1073.617	-7.32
1074.038	-7.12
1074.459	-4.12
1074.88	-8.92
1075.3	-5.12
1075.721	-6.52
1076.142	-2.42
1076.563	2.38
1076.983	-11.32
1077.404	-5.92
1077.825	-15.52
1078.246	-8.72
1078.666	-11.02
1079.087	-8.82
1079.507	-4.12
1079.928	-6.52
1080.348	1.88
1080.769	-9.82
1081.189	5.28
1081.61	-2.52
1082.03	-2.92
1082.451	-5.22
1082.871	-5.92
1083.291	-5.52
1083.711	-10.22
1084.132	-4.62
1084.552	-8.32
1084.972	-1.32
1085.392	-5.32
1085.813	-8.12
1086.233	-5.22
1086.653	-6.02
1087.073	1.88
1087.493	-6.52
1087.913	-8.72
1088.333	-11.02
1088.753	-3.12
1089.173	2.78
1089.593	-3.32
1090.013	-3.62
1090.433	-3.22
1090.852	-5.52
1091.272	-4.22
1091.692	-2.02
1092.112	-6.72
1092.531	-7.62
1092.951	-10.92
1093.371	4.78
1093.79	1.98
1094.21	-2.02
1094.63	-4.52
1095.049	-7.72
1095.469	-1.12
1095.888	-2.72
1096.308	1.58
1096.727	0.88
1097.146	-5.42
1097.566	-5.82
1097.985	-7.72
1098.405	-0.42
1098.824	-9.22
1099.243	-7.22
1099.662	0.18
1100.082	-8.62
1100.501	1.28
1100.92	-3.72
1101.339	-7.22
1101.758	-7.62
