Data from 20171114-ORNL-Ar_H_NY_Subt18_08-05-57-531.txt Node
Date: Tue Nov 14 08:05:57 EST 2017
User: Ender
Spectrometer: HR+D1039
Trigger mode: 0
Integration Time (sec): 2.730000E-2
Scans to average: 10
Electric dark correction enabled: true
Nonlinearity correction enabled: false
Boxcar width: 0
XAxis mode: Wavelengths
Number of Pixels in Spectrum: 2048
>>>>>Begin Spectral Data<<<<<
187.836	-2.77
188.309	-2.77
188.782	-2.77
189.255	1.33
189.728	-0.67
190.201	1.83
190.674	-2.17
191.147	3.03
191.619	-4.57
192.092	1.03
192.565	2.53
193.038	-2.37
193.511	-0.87
193.984	-2.57
194.456	-0.97
194.929	3.93
195.402	1.53
195.874	1.73
196.347	-1.57
196.82	-9.87
197.292	5.33
197.765	-3.77
198.237	-5.57
198.71	5.53
199.182	-3.87
199.655	-4.77
200.127	7.13
200.6	-1.37
201.072	3.13
201.544	-2.07
202.017	-0.67
202.489	5.03
202.961	2.33
203.433	-6.77
203.906	-9.67
204.378	-6.07
204.85	-2.17
205.322	-8.87
205.794	1.63
206.266	-2.97
206.739	-5.37
207.211	2.63
207.683	-1.37
208.155	-5.77
208.627	-3.07
209.099	0.53
209.57	-8.17
210.042	-1.67
210.514	0.23
210.986	-2.97
211.458	-3.57
211.93	1.03
212.402	2.63
212.873	-2.87
213.345	-5.27
213.817	-12.77
214.288	-0.37
214.76	-4.57
215.232	-1.57
215.703	-0.17
216.175	1.43
216.646	-2.87
217.118	-4.57
217.589	-5.17
218.061	-0.67
218.532	-3.27
219.004	-0.47
219.475	-4.47
219.946	1.23
220.418	-0.77
220.889	4.13
221.36	0.93
221.832	-2.37
222.303	-5.47
222.774	-2.17
223.245	-0.87
223.717	-8.47
224.188	-0.07
224.659	-6.17
225.13	-2.07
225.601	-5.67
226.072	-0.17
226.543	-1.37
227.014	5.53
227.485	-0.57
227.956	-6.17
228.427	2.03
228.898	1.03
229.369	4.73
229.839	-5.47
230.31	-6.77
230.781	3.23
231.252	-2.37
231.722	-0.47
232.193	3.13
232.664	-3.37
233.135	3.13
233.605	-2.47
234.076	-4.47
234.546	-0.97
235.017	2.63
235.487	2.33
235.958	0.43
236.428	-3.57
236.899	4.43
237.369	-3.47
237.84	-2.77
238.31	4.63
238.78	3.33
239.251	4.23
239.721	3.03
240.191	0.33
240.662	-1.77
241.132	1.43
241.602	-3.57
242.072	4.13
242.542	4.33
243.013	-2.67
243.483	4.73
243.953	1.63
244.423	0.63
244.893	-3.27
245.363	4.23
245.833	0.93
246.303	-1.67
246.773	5.63
247.243	7.23
247.712	5.23
248.182	11.93
248.652	3.93
249.122	-1.57
249.592	9.43
250.061	24.63
250.531	36.53
251.001	14.33
251.471	23.43
251.94	17.73
252.41	2.73
252.879	0.23
253.349	14.53
253.818	14.13
254.288	4.43
254.757	7.43
255.227	1.83
255.696	4.63
256.166	10.53
256.635	10.43
257.105	7.23
257.574	11.53
258.043	15.93
258.513	17.03
258.982	20.33
259.451	7.83
259.92	13.83
260.389	12.73
260.859	11.03
261.328	17.63
261.797	16.83
262.266	10.03
262.735	11.43
263.204	9.23
263.673	0.63
264.142	9.13
264.611	1.73
265.08	7.03
265.549	4.93
266.018	7.43
266.487	-5.27
266.955	-1.07
267.424	3.93
267.893	7.63
268.362	8.83
268.83	10.63
269.299	16.53
269.768	10.33
270.236	5.23
270.705	1.63
271.174	6.43
271.642	8.83
272.111	10.13
272.579	17.33
273.048	29.43
273.516	26.73
273.985	28.53
274.453	24.53
274.922	21.53
275.39	16.93
275.858	9.53
276.327	10.63
276.795	20.13
277.263	9.33
277.731	29.03
278.2	58.03
278.668	63.83
279.136	52.63
279.604	26.83
280.072	17.43
280.54	11.43
281.008	12.53
281.477	10.83
281.945	20.03
282.413	18.83
282.881	13.43
283.348	9.83
283.816	16.43
284.284	16.13
284.752	20.83
285.22	10.23
285.688	15.13
286.156	20.73
286.623	47.63
287.091	50.53
287.559	28.83
288.026	20.63
288.494	9.93
288.962	11.23
289.429	6.23
289.897	17.23
290.364	13.43
290.832	12.63
291.3	11.63
291.767	15.53
292.234	20.63
292.702	18.53
293.169	23.43
293.637	26.13
294.104	19.73
294.571	13.43
295.039	18.13
295.506	10.33
295.973	13.93
296.44	15.33
296.908	21.43
297.375	22.23
297.842	23.83
298.309	19.73
298.776	16.83
299.243	18.73
299.71	19.13
300.177	23.23
300.644	19.83
301.111	23.03
301.578	25.33
302.045	19.23
302.512	25.53
302.979	27.03
303.446	28.23
303.913	26.53
304.379	17.23
304.846	26.93
305.313	18.43
305.78	25.03
306.246	25.83
306.713	27.93
307.18	25.23
307.646	30.13
308.113	32.63
308.579	21.53
309.046	28.53
309.512	23.73
309.979	24.53
310.445	29.33
310.912	24.83
311.378	32.13
311.845	31.23
312.311	37.33
312.777	32.33
313.244	40.03
313.71	35.43
314.176	33.13
314.642	36.73
315.109	37.63
315.575	41.23
316.041	43.23
316.507	31.43
316.973	41.53
317.439	35.23
317.905	42.53
318.371	36.93
318.837	39.13
319.303	37.63
319.769	37.03
320.235	34.53
320.701	37.43
321.167	45.43
321.633	34.23
322.099	46.23
322.564	45.73
323.03	43.33
323.496	42.33
323.962	41.23
324.427	35.13
324.893	48.23
325.359	43.43
325.824	34.93
326.29	36.83
326.755	40.63
327.221	42.83
327.686	42.83
328.152	44.53
328.617	44.33
329.083	49.03
329.548	56.93
330.014	50.33
330.479	39.83
330.944	41.63
331.41	42.33
331.875	44.43
332.34	47.63
332.805	43.33
333.271	50.33
333.736	44.73
334.201	56.13
334.666	50.53
335.131	55.63
335.596	55.03
336.061	50.03
336.526	44.63
336.991	49.83
337.456	55.73
337.921	53.23
338.386	45.13
338.851	47.63
339.316	46.13
339.781	49.53
340.246	53.23
340.711	48.33
341.175	48.83
341.64	52.73
342.105	57.13
342.569	56.53
343.034	58.63
343.499	58.13
343.963	57.13
344.428	63.63
344.893	62.83
345.357	58.23
345.822	61.03
346.286	69.03
346.751	74.43
347.215	66.93
347.679	78.93
348.144	106.03
348.608	90.53
349.073	72.43
349.537	76.33
350.001	83.43
350.465	88.83
350.93	82.43
351.394	79.03
351.858	77.93
352.322	90.93
352.786	87.73
353.25	102.43
353.715	109.93
354.179	107.13
354.643	120.13
355.107	134.23
355.571	116.03
356.035	105.73
356.498	118.13
356.962	123.83
357.426	136.43
357.89	116.43
358.354	94.43
358.818	83.53
359.281	84.13
359.745	82.43
360.209	79.63
360.673	78.73
361.136	80.73
361.6	83.43
362.064	89.73
362.527	91.43
362.991	92.23
363.454	88.23
363.918	78.93
364.381	80.33
364.845	91.33
365.308	87.23
365.772	87.03
366.235	96.43
366.698	90.73
367.162	89.13
367.625	93.33
368.088	90.43
368.552	94.83
369.015	94.73
369.478	99.43
369.941	101.73
370.404	95.13
370.867	103.73
371.331	105.63
371.794	118.53
372.257	114.33
372.72	119.43
373.183	111.83
373.646	101.03
374.109	99.43
374.572	102.43
375.035	114.13
375.497	113.93
375.96	103.93
376.423	111.73
376.886	118.53
377.349	107.33
377.811	100.53
378.274	104.13
378.737	105.03
379.199	115.73
379.662	111.73
380.125	121.93
380.587	120.73
381.05	117.43
381.512	131.03
381.975	130.63
382.437	132.73
382.9	121.03
383.362	133.93
383.825	138.73
384.287	143.93
384.75	147.33
385.212	146.43
385.674	141.83
386.136	137.93
386.599	127.43
387.061	131.63
387.523	129.23
387.985	138.63
388.447	139.73
388.91	143.23
389.372	159.73
389.834	149.43
390.296	140.33
390.758	158.33
391.22	170.03
391.682	212.43
392.144	294.13
392.606	225.13
393.068	165.43
393.529	161.73
393.991	157.73
394.453	151.33
394.915	158.93
395.377	186.03
395.838	220.23
396.3	155.13
396.762	144.23
397.224	136.83
397.685	135.93
398.147	133.73
398.608	133.83
399.07	130.63
399.531	137.33
399.993	140.43
400.454	151.33
400.916	148.73
401.377	146.13
401.839	151.13
402.3	156.53
402.762	171.73
403.223	190.93
403.684	169.03
404.145	166.93
404.607	158.93
405.068	164.13
405.529	168.13
405.99	191.43
406.451	180.03
406.913	176.83
407.374	157.63
407.835	163.33
408.296	175.73
408.757	175.93
409.218	183.13
409.679	183.73
410.14	177.93
410.601	185.03
411.062	186.03
411.522	187.13
411.983	190.03
412.444	173.53
412.905	188.23
413.366	179.43
413.826	197.73
414.287	215.33
414.748	259.73
415.208	247.53
415.669	219.53
416.13	211.23
416.59	206.83
417.051	216.03
417.511	215.93
417.972	230.83
418.432	242.93
418.893	287.33
419.353	256.83
419.814	192.83
420.274	177.33
420.734	187.23
421.195	200.43
421.655	192.53
422.115	198.83
422.576	193.53
423.036	198.03
423.496	212.03
423.956	222.33
424.416	237.43
424.876	267.53
425.336	262.03
425.797	267.13
426.257	252.23
426.717	239.63
427.177	237.43
427.637	225.33
428.097	235.53
428.556	246.63
429.016	273.33
429.476	267.63
429.936	275.23
430.396	286.83
430.856	294.63
431.315	327.23
431.775	357.43
432.235	386.13
432.694	347.83
433.154	369.73
433.614	395.13
434.073	346.23
434.533	286.53
434.993	267.83
435.452	286.53
435.912	297.33
436.371	293.83
436.83	292.63
437.29	274.53
437.749	244.13
438.209	251.73
438.668	278.13
439.127	297.13
439.587	264.13
440.046	253.13
440.505	259.83
440.964	289.73
441.424	327.93
441.883	311.03
442.342	275.43
442.801	224.93
443.26	231.13
443.719	223.63
444.178	218.93
444.637	218.93
445.096	226.93
445.555	221.73
446.014	226.23
446.473	228.83
446.932	227.23
447.391	225.43
447.849	229.53
448.308	221.83
448.767	220.63
449.226	242.43
449.685	237.13
450.143	246.13
450.602	237.73
451.061	230.83
451.519	236.93
451.978	232.83
452.436	238.43
452.895	243.23
453.353	261.93
453.812	243.53
454.27	239.93
454.729	241.43
455.187	243.43
455.646	251.73
456.104	255.03
456.562	264.53
457.021	268.63
457.479	265.33
457.937	277.33
458.395	268.33
458.854	249.93
459.312	259.13
459.77	273.93
460.228	257.63
460.686	247.23
461.144	253.83
461.602	242.43
462.06	240.63
462.518	256.03
462.976	256.73
463.434	257.93
463.892	267.53
464.35	282.73
464.808	288.93
465.266	264.83
465.724	280.63
466.181	268.33
466.639	273.93
467.097	295.03
467.555	303.73
468.012	304.93
468.47	310.43
468.928	332.93
469.385	344.13
469.843	350.13
470.3	347.03
470.758	371.43
471.215	401.43
471.673	422.63
472.13	410.73
472.588	413.33
473.045	375.63
473.503	390.23
473.96	398.13
474.417	408.33
474.875	438.93
475.332	477.03
475.789	470.63
476.246	462.93
476.704	484.83
477.161	516.93
477.618	524.03
478.075	570.83
478.532	621.43
478.989	701.53
479.446	811.23
479.903	780.43
480.36	815.53
480.817	881.23
481.274	973.63
481.731	1079.03
482.188	1181.43
482.645	1313.23
483.102	1431.83
483.558	1548.33
484.015	1600.53
484.472	1592.63
484.929	1542.93
485.385	1482.93
485.842	1458.73
486.299	1383.83
486.755	1321.63
487.212	1116.13
487.668	923.33
488.125	858.23
488.582	784.23
489.038	773.33
489.494	725.63
489.951	695.53
490.407	672.13
490.864	658.03
491.32	655.23
491.776	643.53
492.233	646.13
492.689	619.33
493.145	605.23
493.602	604.13
494.058	620.53
494.514	626.13
494.97	643.53
495.426	652.73
495.882	630.43
496.338	622.63
496.794	630.23
497.251	628.83
497.707	642.33
498.163	645.53
498.618	654.23
499.074	648.83
499.53	690.63
499.986	689.03
500.442	662.33
500.898	636.53
501.354	623.83
501.809	643.03
502.265	649.93
502.721	670.43
503.177	679.53
503.632	678.83
504.088	690.23
504.543	721.93
504.999	711.63
505.455	655.03
505.91	633.53
506.366	630.23
506.821	620.93
507.277	638.03
507.732	628.63
508.187	635.63
508.643	638.93
509.098	632.13
509.553	656.53
510.009	668.33
510.464	674.93
510.919	702.23
511.375	702.73
511.83	702.03
512.285	735.13
512.74	778.23
513.195	786.03
513.65	778.63
514.105	784.03
514.56	782.83
515.015	795.23
515.47	816.33
515.925	794.63
516.38	797.93
516.835	806.43
517.29	793.13
517.745	789.53
518.2	769.53
518.655	756.43
519.109	745.43
519.564	745.53
520.019	737.43
520.474	729.33
520.928	728.63
521.383	729.73
521.838	711.73
522.292	717.63
522.747	712.23
523.201	712.03
523.656	702.73
524.11	702.93
524.565	701.53
525.019	698.33
525.474	709.03
525.928	702.83
526.382	710.33
526.837	706.03
527.291	715.93
527.745	701.23
528.2	710.53
528.654	699.13
529.108	690.03
529.562	698.93
530.016	697.93
530.47	693.73
530.925	693.53
531.379	701.23
531.833	707.73
532.287	704.73
532.741	706.03
533.195	704.63
533.649	719.73
534.103	724.33
534.556	717.53
535.01	714.93
535.464	713.33
535.918	729.23
536.372	729.63
536.826	721.83
537.279	708.33
537.733	728.33
538.187	721.43
538.64	718.23
539.094	737.43
539.548	734.53
540.001	730.33
540.455	742.63
540.908	734.73
541.362	745.53
541.815	751.83
542.269	760.23
542.722	768.63
543.175	768.93
543.629	776.73
544.082	795.83
544.536	797.63
544.989	789.13
545.442	795.33
545.895	809.03
546.349	799.03
546.802	797.73
547.255	798.43
547.708	809.03
548.161	811.63
548.614	821.73
549.067	834.93
549.52	815.83
549.973	811.83
550.426	816.03
550.879	796.73
551.332	791.83
551.785	804.83
552.238	808.13
552.691	821.43
553.144	835.23
553.596	851.83
554.049	867.23
554.502	902.53
554.955	928.53
555.407	903.63
555.86	912.23
556.313	904.03
556.765	888.43
557.218	889.03
557.67	889.83
558.123	875.53
558.576	883.13
559.028	891.73
559.48	889.63
559.933	888.03
560.385	841.83
560.838	819.13
561.29	787.53
561.742	780.43
562.195	771.03
562.647	773.73
563.099	767.93
563.551	765.73
564.004	790.93
564.456	779.03
564.908	776.43
565.36	759.73
565.812	739.03
566.264	723.33
566.716	730.03
567.168	719.23
567.62	733.23
568.072	709.33
568.524	707.03
568.976	694.63
569.428	681.53
569.88	672.43
570.332	682.83
570.784	684.63
571.235	681.03
571.687	688.93
572.139	702.43
572.59	716.53
573.042	715.13
573.494	710.03
573.945	707.43
574.397	688.13
574.849	698.73
575.3	688.03
575.752	680.53
576.203	669.03
576.655	680.03
577.106	673.13
577.557	670.33
578.009	670.63
578.46	659.33
578.912	664.13
579.363	672.93
579.814	676.23
580.265	655.03
580.717	672.33
581.168	674.53
581.619	679.83
582.07	688.03
582.521	677.53
582.972	674.63
583.423	677.13
583.875	684.23
584.326	705.83
584.777	739.53
585.227	820.73
585.678	914.53
586.129	997.73
586.58	1063.13
587.031	1144.03
587.482	1293.23
587.933	1477.73
588.384	1292.03
588.834	973.03
589.285	801.83
589.736	783.03
590.186	770.53
590.637	762.13
591.088	749.23
591.538	729.73
591.989	727.63
592.439	723.83
592.89	724.43
593.34	707.83
593.791	704.73
594.241	703.43
594.692	708.13
595.142	704.63
595.593	699.83
596.043	708.63
596.493	719.03
596.943	718.13
597.394	727.53
597.844	706.43
598.294	727.23
598.744	755.83
599.195	776.33
599.645	814.63
600.095	844.93
600.545	902.03
600.995	966.53
601.445	1025.33
601.895	1085.33
602.345	1139.73
602.795	1107.23
603.245	1047.83
603.695	1009.13
604.145	966.83
604.594	909.43
605.044	852.13
605.494	798.03
605.944	751.43
606.393	748.53
606.843	731.33
607.293	731.83
607.743	726.53
608.192	731.23
608.642	749.53
609.091	764.13
609.541	767.33
609.99	768.03
610.44	759.53
610.889	711.03
611.339	693.73
611.788	687.13
612.238	688.73
612.687	717.53
613.136	714.53
613.586	731.03
614.035	731.13
614.484	754.53
614.933	754.03
615.383	744.43
615.832	727.63
616.281	721.53
616.73	689.83
617.179	664.33
617.628	650.43
618.077	633.83
618.526	613.63
618.975	608.23
619.424	605.33
619.873	610.73
620.322	620.73
620.771	610.03
621.22	600.93
621.669	592.43
622.118	589.23
622.567	573.53
623.015	563.83
623.464	568.73
623.913	558.53
624.361	544.73
624.81	543.73
625.259	553.33
625.707	548.73
626.156	554.73
626.604	561.83
627.053	561.93
627.501	562.03
627.95	568.03
628.398	574.03
628.847	568.33
629.295	564.33
629.744	565.63
630.192	565.73
630.64	561.43
631.089	557.43
631.537	580.43
631.985	586.13
632.433	597.33
632.881	597.43
633.33	648.83
633.778	631.63
634.226	566.53
634.674	567.83
635.122	574.63
635.57	586.33
636.018	608.53
636.466	574.13
636.914	552.23
637.362	560.23
637.81	566.43
638.258	570.53
638.705	575.53
639.153	594.83
639.601	604.73
640.049	628.73
640.497	659.13
640.944	686.13
641.392	631.33
641.84	605.73
642.287	576.63
642.735	557.53
643.182	562.83
643.63	559.73
644.078	570.33
644.525	576.03
644.973	590.03
645.42	607.23
645.867	620.83
646.315	639.93
646.762	654.93
647.21	686.03
647.657	695.33
648.104	730.43
648.551	757.83
648.999	832.73
649.446	896.23
649.893	988.93
650.34	1150.83
650.787	1374.53
651.234	1712.93
651.682	2214.63
652.129	3021.33
652.576	4352.53
653.023	6403.53
653.47	8832.53
653.917	11070.13
654.363	12828.83
654.81	14152.23
655.257	13463.03
655.704	8851.33
656.151	5225.83
656.598	3388.53
657.044	2404.23
657.491	1844.43
657.938	1486.13
658.385	1230.13
658.831	1066.03
659.278	953.23
659.724	847.83
660.171	779.53
660.618	720.83
661.064	683.53
661.511	666.33
661.957	644.63
662.404	627.43
662.85	643.33
663.296	610.73
663.743	559.43
664.189	534.93
664.635	528.03
665.082	519.73
665.528	516.53
665.974	503.13
666.42	503.53
666.867	496.13
667.313	486.13
667.759	475.53
668.205	470.43
668.651	477.53
669.097	472.93
669.543	496.43
669.989	464.93
670.435	438.03
670.881	435.53
671.327	446.13
671.773	457.43
672.219	484.33
672.665	527.63
673.11	561.63
673.556	616.43
674.002	653.13
674.448	645.43
674.893	529.83
675.339	463.93
675.785	428.63
676.23	413.63
676.676	387.63
677.122	374.33
677.567	371.73
678.013	356.93
678.458	349.33
678.904	358.93
679.349	349.13
679.794	349.23
680.24	341.93
680.685	337.03
681.131	340.13
681.576	346.23
682.021	348.43
682.466	344.33
682.912	340.23
683.357	343.13
683.802	371.43
684.247	404.23
684.692	445.73
685.137	485.63
685.583	527.93
686.028	541.33
686.473	506.63
686.918	440.13
687.363	408.43
687.807	383.93
688.252	351.83
688.697	344.53
689.142	321.63
689.587	318.83
690.032	323.03
690.477	334.53
690.921	340.83
691.366	377.83
691.811	394.53
692.255	425.33
692.7	452.33
693.145	488.03
693.589	674.93
694.034	1083.53
694.478	1501.43
694.923	1696.43
695.367	2216.73
695.812	1173.23
696.256	486.63
696.701	365.03
697.145	334.53
697.59	322.23
698.034	319.23
698.478	316.93
698.922	310.93
699.367	320.83
699.811	332.73
700.255	348.63
700.699	368.73
701.143	413.13
701.588	465.63
702.032	502.13
702.476	492.83
702.92	474.03
703.364	468.93
703.808	611.83
704.252	995.13
704.696	1391.83
705.14	1632.93
705.584	2087.33
706.027	1040.43
706.471	503.83
706.915	384.43
707.359	340.33
707.803	308.83
708.246	311.43
708.69	308.73
709.134	310.43
709.577	301.33
710.021	314.53
710.465	301.83
710.908	291.43
711.352	293.83
711.795	304.73
712.239	341.43
712.682	370.33
713.126	412.83
713.569	454.33
714.012	368.23
714.456	314.43
714.899	284.93
715.342	262.93
715.786	263.53
716.229	255.33
716.672	253.23
717.115	241.83
717.558	246.73
718.002	244.73
718.445	258.63
718.888	271.63
719.331	285.23
719.774	289.23
720.217	303.63
720.66	278.63
721.103	256.53
721.546	251.03
721.989	250.33
722.432	228.63
722.874	233.93
723.317	225.03
723.76	222.53
724.203	250.53
724.645	315.03
725.088	428.33
725.531	548.23
725.974	629.03
726.416	534.63
726.859	295.83
727.301	240.33
727.744	232.63
728.187	225.43
728.629	239.43
729.071	238.23
729.514	250.13
729.956	269.63
730.399	275.43
730.841	281.83
731.283	258.93
731.726	269.13
732.168	262.63
732.61	257.43
733.053	284.63
733.495	307.33
733.937	341.83
734.379	383.03
734.821	418.93
735.263	525.43
735.705	794.93
736.148	1502.53
736.59	2506.03
737.032	2966.23
737.474	2422.33
737.916	795.63
738.357	421.43
738.799	320.03
739.241	289.83
739.683	274.13
740.125	282.53
740.567	287.93
741.008	304.73
741.45	306.13
741.892	312.03
742.334	330.83
742.775	346.93
743.217	325.43
743.658	260.33
744.1	247.63
744.542	252.03
744.983	305.33
745.425	327.23
745.866	335.73
746.307	274.23
746.749	275.33
747.19	314.23
747.632	441.23
748.073	842.83
748.514	1773.53
748.956	2775.43
749.397	3463.03
749.838	2861.23
750.279	2888.23
750.72	1462.63
751.162	537.73
751.603	315.23
752.044	253.93
752.485	217.23
752.926	207.23
753.367	197.03
753.808	187.33
754.249	185.03
754.69	181.53
755.131	180.13
755.572	177.43
756.013	181.33
756.453	180.93
756.894	183.13
757.335	191.03
757.776	185.13
758.216	185.53
758.657	197.83
759.098	202.23
759.538	222.53
759.979	250.83
760.42	354.93
760.86	667.23
761.301	1722.43
761.741	4238.43
762.182	6252.83
762.622	4396.53
763.063	1262.23
763.503	528.93
763.943	336.33
764.384	324.13
764.824	384.03
765.264	421.13
765.705	296.53
766.145	203.43
766.585	186.33
767.025	177.33
767.465	186.23
767.906	229.03
768.346	301.43
768.786	333.53
769.226	253.23
769.666	302.93
770.106	590.33
770.546	1474.93
770.986	2549.23
771.426	2314.83
771.866	770.83
772.306	323.43
772.745	212.43
773.185	168.33
773.625	164.73
774.065	163.13
774.505	193.73
774.944	297.63
775.384	631.53
775.824	1150.83
776.263	1136.63
776.703	486.73
777.142	206.93
777.582	151.53
778.021	136.33
778.461	131.93
778.9	136.43
779.34	127.53
779.779	116.63
780.219	101.23
780.658	104.03
781.097	113.13
781.537	113.93
781.976	113.63
782.415	102.93
782.855	100.93
783.294	100.03
783.733	107.43
784.172	112.43
784.611	96.53
785.05	105.93
785.489	105.23
785.928	115.03
786.367	119.43
786.806	116.23
787.245	125.53
787.684	130.13
788.123	149.23
788.562	138.73
789.001	125.33
789.44	124.83
789.879	118.23
790.317	115.33
790.756	126.03
791.195	134.43
791.634	143.33
792.072	201.93
792.511	353.73
792.95	949.33
793.388	2063.33
793.827	1889.63
794.265	657.33
794.704	274.63
795.142	178.83
795.581	151.23
796.019	135.73
796.458	128.43
796.896	114.43
797.334	127.43
797.773	146.83
798.211	215.03
798.649	414.93
799.087	984.03
799.526	1525.83
799.964	1933.23
800.402	1975.53
800.84	739.33
801.278	290.23
801.716	185.23
802.154	149.43
802.592	146.93
803.03	142.13
803.468	127.33
803.906	137.83
804.344	149.73
804.782	139.03
805.22	128.13
805.658	127.73
806.096	146.73
806.533	153.33
806.971	175.33
807.409	210.33
807.847	300.93
808.284	625.63
808.722	1779.43
809.16	3175.43
809.597	2984.43
810.035	5207.73
810.472	5608.83
810.91	2022.03
811.347	771.53
811.785	384.23
812.222	238.33
812.66	191.33
813.097	163.03
813.535	136.63
813.972	124.13
814.409	122.43
814.846	106.93
815.284	108.43
815.721	101.33
816.158	105.13
816.595	110.73
817.032	171.03
817.47	192.93
817.907	158.93
818.344	145.53
818.781	113.43
819.218	97.63
819.655	117.93
820.092	175.03
820.529	206.33
820.966	175.13
821.403	134.43
821.839	108.33
822.276	99.13
822.713	122.83
823.15	132.23
823.587	115.33
824.023	142.73
824.46	286.73
824.897	862.93
825.333	1311.23
825.77	558.13
826.206	221.53
826.643	130.53
827.08	100.23
827.516	86.33
827.953	78.23
828.389	80.23
828.825	70.33
829.262	66.23
829.698	61.53
830.135	59.73
830.571	61.83
831.007	67.63
831.443	61.23
831.88	59.83
832.316	65.53
832.752	67.63
833.188	62.73
833.624	68.93
834.06	64.23
834.497	60.53
834.933	71.63
835.369	71.73
835.805	60.23
836.241	76.83
836.677	74.73
837.112	90.33
837.548	100.33
837.984	128.03
838.42	189.83
838.856	472.83
839.292	1456.03
839.727	2235.03
840.163	1035.23
840.599	875.73
841.034	1945.63
841.47	2072.93
841.906	746.23
842.341	315.93
842.777	226.93
843.212	306.53
843.648	297.33
844.083	146.23
844.519	88.53
844.954	74.83
845.39	58.53
845.825	56.63
846.261	52.83
846.696	56.93
847.131	58.53
847.566	62.43
848.002	52.23
848.437	52.13
848.872	60.63
849.307	61.53
849.742	79.93
850.177	173.13
850.613	532.13
851.048	849.43
851.483	374.53
851.918	154.33
852.353	82.53
852.788	65.43
853.223	51.33
853.657	51.33
854.092	55.23
854.527	44.23
854.962	43.13
855.397	41.13
855.832	47.33
856.266	41.03
856.701	45.83
857.136	40.03
857.57	36.43
858.005	48.93
858.44	60.53
858.874	44.23
859.309	54.93
859.743	37.83
860.178	48.43
860.612	43.63
861.047	52.03
861.481	59.53
861.915	74.93
862.35	52.23
862.784	33.73
863.218	41.23
863.653	35.93
864.087	46.83
864.521	50.73
864.955	65.13
865.39	145.43
865.824	168.83
866.258	105.93
866.692	163.23
867.126	162.83
867.56	104.53
867.994	53.63
868.428	35.23
868.862	48.33
869.296	48.13
869.73	63.93
870.164	54.23
870.598	43.03
871.031	33.63
871.465	30.43
871.899	27.73
872.333	19.03
872.766	26.73
873.2	20.63
873.634	30.53
874.067	23.83
874.501	24.73
874.935	27.63
875.368	27.03
875.802	27.73
876.235	26.73
876.669	25.93
877.102	20.43
877.535	26.53
877.969	24.93
878.402	25.53
878.836	12.23
879.269	26.63
879.702	23.33
880.135	22.93
880.569	25.33
881.002	30.83
881.435	22.93
881.868	17.53
882.301	22.73
882.734	19.73
883.167	22.53
883.601	18.83
884.034	22.13
884.467	16.13
884.899	15.33
885.332	17.83
885.765	12.63
886.198	21.63
886.631	21.33
887.064	22.13
887.497	21.43
887.929	32.03
888.362	13.43
888.795	9.03
889.228	16.53
889.66	22.53
890.093	19.43
890.526	14.93
890.958	15.23
891.391	13.93
891.823	19.83
892.256	9.03
892.688	14.43
893.121	11.63
893.553	13.93
893.985	23.33
894.418	17.23
894.85	11.83
895.282	16.53
895.715	13.13
896.147	16.23
896.579	17.93
897.011	15.23
897.444	14.83
897.876	15.53
898.308	17.23
898.74	12.23
899.172	10.93
899.604	20.73
900.036	18.93
900.468	19.33
900.9	16.83
901.332	19.83
901.764	17.83
902.196	22.13
902.628	17.03
903.06	15.83
903.491	33.03
903.923	22.13
904.355	17.23
904.787	25.23
905.218	20.33
905.65	18.53
906.082	12.03
906.513	12.23
906.945	16.93
907.376	12.43
907.808	19.63
908.239	25.93
908.671	22.73
909.102	20.43
909.534	24.23
909.965	44.83
910.397	89.13
910.828	305.73
911.259	462.33
911.691	210.93
912.122	109.53
912.553	47.63
912.984	30.93
913.415	20.03
913.847	23.53
914.278	16.83
914.709	13.53
915.14	20.83
915.571	18.33
916.002	8.03
916.433	20.43
916.864	15.33
917.295	15.43
917.726	21.43
918.157	16.03
918.587	27.33
919.018	32.13
919.449	20.03
919.88	24.03
920.311	28.23
920.741	49.93
921.172	156.53
921.603	144.13
922.033	70.73
922.464	48.03
922.895	22.33
923.325	20.83
923.756	16.33
924.186	19.03
924.617	23.93
925.047	39.73
925.478	52.93
925.908	38.43
926.338	26.43
926.769	19.33
927.199	24.03
927.629	10.33
928.06	16.43
928.49	17.73
928.92	14.33
929.35	12.03
929.78	11.23
930.21	4.33
930.641	10.43
931.071	11.53
931.501	5.13
931.931	10.43
932.361	11.13
932.791	2.93
933.221	10.03
933.651	1.83
934.08	19.03
934.51	27.33
934.94	15.13
935.37	10.53
935.8	10.83
936.229	9.23
936.659	10.33
937.089	1.73
937.519	13.83
937.948	28.33
938.378	14.73
938.807	3.63
939.237	8.23
939.666	3.93
940.096	-2.37
940.525	2.93
940.955	0.93
941.384	-0.27
941.814	-6.17
942.243	-3.37
942.672	7.43
943.102	-4.37
943.531	-0.37
943.96	8.43
944.39	1.43
944.819	-1.67
945.248	4.63
945.677	3.03
946.106	3.13
946.535	3.83
946.964	0.53
947.393	7.43
947.822	0.53
948.251	-4.87
948.68	0.43
949.109	3.73
949.538	9.53
949.967	3.13
950.396	3.33
950.825	0.73
951.254	4.23
951.682	-2.77
952.111	12.73
952.54	5.03
952.969	-0.97
953.397	-3.77
953.826	6.23
954.254	-9.57
954.683	-0.77
955.112	-5.17
955.54	-2.07
955.969	-0.57
956.397	-0.07
956.826	-4.57
957.254	5.63
957.682	4.53
958.111	6.03
958.539	-0.57
958.967	4.23
959.396	-1.37
959.824	2.53
960.252	-0.27
960.68	-9.27
961.109	-5.77
961.537	-3.27
961.965	-0.47
962.393	-1.27
962.821	-7.07
963.249	2.03
963.677	6.53
964.105	6.13
964.533	43.43
964.961	38.73
965.389	17.73
965.817	9.43
966.245	3.93
966.672	1.23
967.1	-6.47
967.528	-1.57
967.956	-5.37
968.383	1.73
968.811	-0.47
969.239	-0.67
969.666	-1.17
970.094	2.93
970.522	1.43
970.949	0.03
971.377	-9.57
971.804	-6.57
972.232	-0.57
972.659	-0.07
973.087	-0.67
973.514	0.33
973.941	-2.67
974.369	3.73
974.796	2.13
975.223	-3.17
975.651	-4.67
976.078	1.43
976.505	-4.07
976.932	-1.07
977.359	20.03
977.786	14.73
978.214	2.43
978.641	0.83
979.068	-3.47
979.495	-3.37
979.922	-1.67
980.349	-5.57
980.776	2.73
981.202	-5.67
981.629	1.23
982.056	-3.57
982.483	-2.27
982.91	1.23
983.337	-4.17
983.763	3.43
984.19	-3.47
984.617	-2.97
985.043	-5.07
985.47	-0.47
985.897	-9.07
986.323	4.33
986.75	1.83
987.176	5.33
987.603	0.93
988.029	2.53
988.456	-6.17
988.882	6.93
989.308	-0.57
989.735	-2.17
990.161	-0.07
990.587	-5.57
991.014	4.83
991.44	8.13
991.866	-2.17
992.292	-2.67
992.719	-5.47
993.145	0.23
993.571	-5.97
993.997	-3.67
994.423	1.53
994.849	-6.27
995.275	4.63
995.701	1.43
996.127	-3.07
996.553	2.63
996.979	0.13
997.405	-2.07
997.83	-0.17
998.256	-2.27
998.682	-7.27
999.108	-5.07
999.534	1.23
999.959	-1.87
1000.385	-5.27
1000.811	1.03
1001.236	-9.07
1001.662	-6.07
1002.087	-8.07
1002.513	2.33
1002.938	0.33
1003.364	0.33
1003.789	1.03
1004.215	0.03
1004.64	-0.47
1005.066	-6.07
1005.491	2.83
1005.916	0.33
1006.342	-0.77
1006.767	-1.47
1007.192	4.03
1007.617	-2.67
1008.042	-9.27
1008.468	-6.47
1008.893	-4.97
1009.318	-7.97
1009.743	-0.57
1010.168	4.53
1010.593	3.23
1011.018	-4.77
1011.443	-3.97
1011.868	1.03
1012.293	-2.17
1012.718	-8.37
1013.143	0.73
1013.567	1.13
1013.992	3.43
1014.417	-12.27
1014.842	-0.07
1015.267	-2.77
1015.691	-6.97
1016.116	0.63
1016.541	0.33
1016.965	0.23
1017.39	0.03
1017.814	-1.77
1018.239	-0.97
1018.663	-4.87
1019.088	-9.37
1019.512	-1.27
1019.937	-0.27
1020.361	-6.07
1020.785	-8.87
1021.21	-4.87
1021.634	0.13
1022.058	-4.87
1022.483	6.23
1022.907	-3.57
1023.331	-3.27
1023.755	-4.27
1024.179	-2.17
1024.604	-6.27
1025.028	-5.57
1025.452	-1.17
1025.876	1.53
1026.3	0.83
1026.724	-8.77
1027.148	-8.37
1027.572	-3.17
1027.996	2.03
1028.42	-6.47
1028.843	-5.87
1029.267	-5.07
1029.691	-0.17
1030.115	-9.67
1030.539	-5.27
1030.962	-4.57
1031.386	-9.87
1031.81	0.93
1032.233	0.73
1032.657	-4.07
1033.08	-4.17
1033.504	-4.87
1033.927	-1.97
1034.351	0.63
1034.774	-4.57
1035.198	-5.57
1035.621	-5.57
1036.045	-6.37
1036.468	1.53
1036.891	-7.77
1037.315	-5.47
1037.738	-8.17
1038.161	0.13
1038.584	-5.77
1039.008	-9.37
1039.431	2.13
1039.854	-1.97
1040.277	-5.27
1040.7	-11.77
1041.123	-2.77
1041.546	-8.17
1041.969	-6.37
1042.392	-3.37
1042.815	0.53
1043.238	3.63
1043.661	1.73
1044.084	-6.67
1044.507	-3.07
1044.93	-5.37
1045.352	-4.87
1045.775	4.83
1046.198	-2.07
1046.621	-1.37
1047.043	-4.17
1047.466	6.13
1047.889	-2.27
1048.311	-3.77
1048.734	-2.57
1049.156	-0.37
1049.579	-0.17
1050.001	-7.17
1050.424	-1.27
1050.846	1.63
1051.269	2.43
1051.691	-3.37
1052.113	-5.37
1052.536	-5.57
1052.958	-3.67
1053.38	-8.27
1053.802	-5.37
1054.225	1.93
1054.647	-12.57
1055.069	-6.57
1055.491	2.93
1055.913	-3.57
1056.335	-0.67
1056.757	-1.17
1057.179	-7.27
1057.601	-1.97
1058.023	-4.27
1058.445	-8.97
1058.867	0.13
1059.289	-4.77
1059.711	-6.97
1060.133	1.93
1060.555	-5.97
1060.976	-1.87
1061.398	-2.57
1061.82	-6.17
1062.241	-4.37
1062.663	-10.17
1063.085	-3.77
1063.506	5.83
1063.928	-3.57
1064.35	0.33
1064.771	-12.07
1065.193	-3.47
1065.614	-10.07
1066.035	-3.27
1066.457	-2.37
1066.878	1.63
1067.3	-7.77
1067.721	-3.17
1068.142	2.33
1068.564	-5.17
1068.985	-4.87
1069.406	-3.47
1069.827	0.23
1070.248	-2.17
1070.67	-4.57
1071.091	-2.77
1071.512	-1.27
1071.933	-3.67
1072.354	-8.17
1072.775	-7.97
1073.196	-11.37
1073.617	-2.57
1074.038	-8.27
1074.459	-6.27
1074.88	-4.57
1075.3	-2.47
1075.721	-4.27
1076.142	-0.07
1076.563	2.23
1076.983	-14.17
1077.404	-3.97
1077.825	-11.57
1078.246	-2.67
1078.666	-14.17
1079.087	-5.07
1079.507	-8.27
1079.928	-0.37
1080.348	1.93
1080.769	-9.67
1081.189	-0.67
1081.61	-2.27
1082.03	-6.97
1082.451	-1.17
1082.871	-7.07
1083.291	-9.47
1083.711	-11.27
1084.132	-5.47
1084.552	-7.17
1084.972	-1.77
1085.392	-12.37
1085.813	-14.57
1086.233	-7.57
1086.653	-6.27
1087.073	-7.97
1087.493	-5.07
1087.913	-0.37
1088.333	-4.07
1088.753	-0.67
1089.173	2.23
1089.593	-4.37
1090.013	2.33
1090.433	0.43
1090.852	-4.97
1091.272	-2.87
1091.692	-3.07
1092.112	-9.47
1092.531	-5.87
1092.951	-11.77
1093.371	-8.27
1093.79	-6.27
1094.21	0.73
1094.63	-8.07
1095.049	0.43
1095.469	-3.07
1095.888	-4.97
1096.308	-0.07
1096.727	-2.07
1097.146	-7.27
1097.566	-0.47
1097.985	1.03
1098.405	-2.67
1098.824	-7.47
1099.243	-9.97
1099.662	-7.37
1100.082	1.53
1100.501	-3.77
1100.92	-5.67
1101.339	-7.27
1101.758	-9.27
