Data from 20171114-ORNL-Ar_H_NY_Subt18_08-07-25-975.txt Node
Date: Tue Nov 14 08:07:25 EST 2017
User: Ender
Spectrometer: HR+D1039
Trigger mode: 0
Integration Time (sec): 2.730000E-2
Scans to average: 10
Electric dark correction enabled: true
Nonlinearity correction enabled: false
Boxcar width: 0
XAxis mode: Wavelengths
Number of Pixels in Spectrum: 2048
>>>>>Begin Spectral Data<<<<<
187.836	-2.61
188.309	-2.61
188.782	-2.61
189.255	0.19
189.728	-3.61
190.201	4.89
190.674	2.99
191.147	3.19
191.619	-9.71
192.092	4.09
192.565	4.89
193.038	0.09
193.511	3.89
193.984	0.29
194.456	-3.01
194.929	-0.31
195.402	-3.61
195.874	-1.71
196.347	3.79
196.82	-5.61
197.292	6.49
197.765	-2.31
198.237	-7.81
198.71	0.59
199.182	-0.81
199.655	2.29
200.127	7.39
200.6	-1.41
201.072	0.09
201.544	-1.71
202.017	-3.41
202.489	5.19
202.961	0.99
203.433	-2.01
203.906	-5.11
204.378	-2.61
204.85	0.89
205.322	-7.01
205.794	-2.21
206.266	-8.51
206.739	-6.11
207.211	5.29
207.683	-5.11
208.155	-5.61
208.627	-7.81
209.099	-5.41
209.57	-3.01
210.042	-2.51
210.514	-4.51
210.986	0.59
211.458	-11.61
211.93	-1.01
212.402	5.39
212.873	-3.31
213.345	-5.01
213.817	-8.21
214.288	0.79
214.76	-12.41
215.232	-5.01
215.703	-3.31
216.175	-0.41
216.646	-2.71
217.118	-6.21
217.589	-2.71
218.061	-5.51
218.532	-2.41
219.004	-2.41
219.475	4.39
219.946	-1.81
220.418	-3.91
220.889	3.19
221.36	6.89
221.832	-4.31
222.303	-6.21
222.774	1.39
223.245	-11.71
223.717	-5.41
224.188	-11.21
224.659	-6.81
225.13	-8.11
225.601	-5.31
226.072	0.39
226.543	-0.21
227.014	-2.41
227.485	-1.11
227.956	-6.41
228.427	-1.11
228.898	6.69
229.369	3.69
229.839	-1.61
230.31	-6.11
230.781	1.59
231.252	1.59
231.722	-5.41
232.193	0.89
232.664	-1.11
233.135	1.09
233.605	-6.71
234.076	-7.71
234.546	0.29
235.017	2.59
235.487	2.99
235.958	-2.71
236.428	-4.31
236.899	-0.11
237.369	-0.91
237.84	-3.41
238.31	5.09
238.78	-2.81
239.251	-2.01
239.721	4.59
240.191	-2.81
240.662	0.39
241.132	-4.91
241.602	-0.81
242.072	3.79
242.542	3.59
243.013	-1.91
243.483	7.39
243.953	7.39
244.423	-1.61
244.893	-11.51
245.363	-0.91
245.833	2.89
246.303	1.59
246.773	9.49
247.243	-1.71
247.712	-2.91
248.182	12.69
248.652	7.49
249.122	-4.61
249.592	7.89
250.061	16.89
250.531	24.29
251.001	8.19
251.471	14.09
251.94	20.09
252.41	2.79
252.879	-0.21
253.349	7.89
253.818	5.59
254.288	4.49
254.757	-0.71
255.227	-6.01
255.696	2.39
256.166	-0.81
256.635	2.39
257.105	7.09
257.574	9.89
258.043	11.59
258.513	3.19
258.982	10.19
259.451	1.79
259.92	8.19
260.389	4.79
260.859	14.49
261.328	8.49
261.797	14.29
262.266	3.59
262.735	8.89
263.204	3.69
263.673	3.19
264.142	2.79
264.611	-4.31
265.08	-3.21
265.549	-2.01
266.018	4.59
266.487	-9.61
266.955	-7.01
267.424	-1.01
267.893	7.29
268.362	3.99
268.83	5.59
269.299	9.49
269.768	2.49
270.236	4.29
270.705	3.89
271.174	6.59
271.642	4.99
272.111	6.09
272.579	13.89
273.048	7.79
273.516	19.39
273.985	20.29
274.453	12.79
274.922	12.49
275.39	6.59
275.858	-3.51
276.327	3.99
276.795	10.39
277.263	4.19
277.731	16.79
278.2	41.59
278.668	40.19
279.136	35.29
279.604	11.19
280.072	6.99
280.54	2.89
281.008	1.59
281.477	9.99
281.945	5.19
282.413	7.49
282.881	14.69
283.348	8.99
283.816	10.79
284.284	7.49
284.752	14.69
285.22	7.89
285.688	8.89
286.156	12.19
286.623	36.49
287.091	40.99
287.559	23.69
288.026	6.09
288.494	13.99
288.962	0.69
289.429	8.59
289.897	10.99
290.364	4.79
290.832	14.29
291.3	8.69
291.767	9.79
292.234	9.29
292.702	10.29
293.169	13.39
293.637	12.79
294.104	13.49
294.571	3.79
295.039	3.19
295.506	6.29
295.973	7.89
296.44	12.29
296.908	13.89
297.375	16.89
297.842	9.89
298.309	11.49
298.776	4.99
299.243	19.19
299.71	7.69
300.177	15.49
300.644	16.39
301.111	10.09
301.578	15.59
302.045	4.09
302.512	16.89
302.979	16.39
303.446	12.59
303.913	12.79
304.379	8.19
304.846	15.89
305.313	14.69
305.78	15.09
306.246	17.19
306.713	19.19
307.18	18.39
307.646	23.89
308.113	18.39
308.579	16.09
309.046	15.99
309.512	19.49
309.979	14.09
310.445	22.59
310.912	21.69
311.378	21.49
311.845	22.69
312.311	19.99
312.777	25.19
313.244	26.29
313.71	31.79
314.176	28.69
314.642	17.99
315.109	27.89
315.575	26.79
316.041	27.69
316.507	24.79
316.973	30.59
317.439	25.89
317.905	28.49
318.371	24.59
318.837	25.09
319.303	27.79
319.769	27.49
320.235	26.59
320.701	24.59
321.167	31.89
321.633	28.79
322.099	22.49
322.564	39.69
323.03	22.99
323.496	32.39
323.962	28.79
324.427	32.79
324.893	33.19
325.359	28.39
325.824	29.89
326.29	28.79
326.755	27.59
327.221	29.09
327.686	27.79
328.152	31.99
328.617	28.89
329.083	32.09
329.548	39.49
330.014	34.09
330.479	32.09
330.944	35.09
331.41	33.29
331.875	37.99
332.34	32.29
332.805	31.79
333.271	39.39
333.736	30.09
334.201	38.89
334.666	41.49
335.131	45.79
335.596	42.49
336.061	36.89
336.526	29.59
336.991	40.09
337.456	41.69
337.921	37.09
338.386	32.89
338.851	31.69
339.316	34.39
339.781	38.69
340.246	45.89
340.711	38.19
341.175	40.09
341.64	30.19
342.105	41.29
342.569	47.09
343.034	51.59
343.499	42.29
343.963	45.59
344.428	51.19
344.893	47.99
345.357	54.39
345.822	53.79
346.286	53.29
346.751	58.59
347.215	49.59
347.679	56.79
348.144	70.69
348.608	57.89
349.073	55.19
349.537	60.79
350.001	56.99
350.465	66.99
350.93	63.59
351.394	68.69
351.858	57.79
352.322	67.09
352.786	65.59
353.25	79.19
353.715	86.89
354.179	85.79
354.643	96.89
355.107	99.59
355.571	87.19
356.035	82.49
356.498	91.89
356.962	94.29
357.426	103.99
357.89	90.69
358.354	66.39
358.818	71.39
359.281	65.69
359.745	59.99
360.209	67.79
360.673	60.59
361.136	66.19
361.6	69.89
362.064	69.99
362.527	69.49
362.991	79.79
363.454	62.99
363.918	66.29
364.381	65.59
364.845	71.29
365.308	77.29
365.772	74.29
366.235	73.69
366.698	68.09
367.162	72.29
367.625	73.89
368.088	78.89
368.552	76.79
369.015	69.69
369.478	79.79
369.941	84.29
370.404	83.69
370.867	88.69
371.331	87.09
371.794	91.79
372.257	92.19
372.72	99.29
373.183	90.59
373.646	85.39
374.109	83.49
374.572	97.19
375.035	87.29
375.497	96.59
375.96	96.19
376.423	87.09
376.886	97.39
377.349	93.09
377.811	90.49
378.274	93.19
378.737	94.29
379.199	100.09
379.662	97.49
380.125	102.29
380.587	96.89
381.05	106.89
381.512	110.69
381.975	113.29
382.437	112.09
382.9	112.59
383.362	118.79
383.825	121.79
384.287	123.19
384.75	122.19
385.212	121.99
385.674	118.79
386.136	112.39
386.599	113.79
387.061	107.79
387.523	118.59
387.985	116.89
388.447	129.79
388.91	125.99
389.372	149.29
389.834	134.59
390.296	135.99
390.758	136.69
391.22	143.09
391.682	186.69
392.144	266.69
392.606	206.39
393.068	145.99
393.529	151.09
393.991	138.69
394.453	132.49
394.915	138.99
395.377	176.69
395.838	193.69
396.3	143.29
396.762	131.69
397.224	120.39
397.685	114.99
398.147	115.79
398.608	120.99
399.07	115.89
399.531	124.79
399.993	133.49
400.454	136.39
400.916	131.19
401.377	130.09
401.839	131.29
402.3	132.29
402.762	145.39
403.223	163.09
403.684	153.49
404.145	147.39
404.607	145.99
405.068	151.89
405.529	158.59
405.99	169.69
406.451	157.39
406.913	158.49
407.374	147.79
407.835	149.59
408.296	155.79
408.757	157.09
409.218	166.19
409.679	161.99
410.14	161.19
410.601	163.09
411.062	164.29
411.522	176.99
411.983	181.89
412.444	165.59
412.905	168.69
413.366	168.19
413.826	175.29
414.287	201.49
414.748	236.39
415.208	223.29
415.669	191.79
416.13	194.79
416.59	187.99
417.051	196.79
417.511	202.29
417.972	217.89
418.432	229.19
418.893	268.69
419.353	232.59
419.814	186.69
420.274	165.19
420.734	167.09
421.195	187.49
421.655	179.09
422.115	181.59
422.576	172.69
423.036	181.49
423.496	191.09
423.956	202.19
424.416	216.19
424.876	248.99
425.336	238.39
425.797	241.49
426.257	235.79
426.717	218.49
427.177	218.49
427.637	211.99
428.097	223.39
428.556	226.69
429.016	252.39
429.476	248.89
429.936	252.59
430.396	252.99
430.856	272.69
431.315	293.29
431.775	325.39
432.235	353.39
432.694	328.99
433.154	333.69
433.614	365.69
434.073	312.39
434.533	274.49
434.993	248.59
435.452	261.49
435.912	266.49
436.371	259.49
436.83	264.29
437.29	260.69
437.749	234.39
438.209	219.99
438.668	252.29
439.127	262.49
439.587	243.69
440.046	228.59
440.505	237.59
440.964	254.19
441.424	294.99
441.883	286.99
442.342	238.99
442.801	210.99
443.26	210.59
443.719	210.69
444.178	210.39
444.637	196.99
445.096	206.19
445.555	206.39
446.014	212.89
446.473	205.29
446.932	222.39
447.391	212.69
447.849	217.49
448.308	204.09
448.767	211.59
449.226	218.99
449.685	221.29
450.143	241.39
450.602	221.99
451.061	218.29
451.519	214.99
451.978	222.19
452.436	218.59
452.895	224.69
453.353	237.69
453.812	226.59
454.27	225.59
454.729	224.09
455.187	226.09
455.646	231.39
456.104	235.99
456.562	245.49
457.021	259.49
457.479	252.19
457.937	265.59
458.395	252.79
458.854	232.69
459.312	228.39
459.77	252.19
460.228	248.69
460.686	229.49
461.144	234.89
461.602	231.39
462.06	230.89
462.518	242.49
462.976	245.39
463.434	241.29
463.892	246.99
464.35	258.69
464.808	266.69
465.266	245.09
465.724	245.69
466.181	256.39
466.639	255.79
467.097	274.19
467.555	288.39
468.012	290.89
468.47	289.29
468.928	304.29
469.385	320.79
469.843	329.09
470.3	325.69
470.758	342.79
471.215	362.19
471.673	394.19
472.13	381.49
472.588	399.79
473.045	364.29
473.503	367.39
473.96	375.79
474.417	385.39
474.875	406.19
475.332	452.09
475.789	447.09
476.246	453.19
476.704	460.29
477.161	484.09
477.618	498.49
478.075	540.29
478.532	579.69
478.989	649.89
479.446	758.49
479.903	731.29
480.36	778.59
480.817	822.89
481.274	925.49
481.731	1036.39
482.188	1115.59
482.645	1247.99
483.102	1353.49
483.558	1484.99
484.015	1532.39
484.472	1505.79
484.929	1459.39
485.385	1417.59
485.842	1375.29
486.299	1310.39
486.755	1226.29
487.212	1037.09
487.668	891.59
488.125	805.69
488.582	741.89
489.038	709.99
489.494	680.29
489.951	662.19
490.407	635.79
490.864	619.29
491.32	610.89
491.776	606.89
492.233	617.19
492.689	578.49
493.145	577.59
493.602	568.79
494.058	583.09
494.514	586.69
494.97	608.49
495.426	618.89
495.882	602.79
496.338	584.49
496.794	601.79
497.251	587.79
497.707	607.59
498.163	608.19
498.618	606.79
499.074	605.69
499.53	643.59
499.986	644.39
500.442	625.99
500.898	600.89
501.354	596.89
501.809	607.19
502.265	609.99
502.721	635.29
503.177	639.39
503.632	635.49
504.088	642.49
504.543	683.69
504.999	670.39
505.455	624.59
505.91	605.09
506.366	611.99
506.821	599.69
507.277	592.99
507.732	602.79
508.187	594.19
508.643	611.39
509.098	618.99
509.553	632.39
510.009	642.89
510.464	655.69
510.919	662.09
511.375	669.79
511.83	675.39
512.285	696.59
512.74	733.69
513.195	751.39
513.65	734.69
514.105	740.69
514.56	743.49
515.015	758.09
515.47	779.49
515.925	755.59
516.38	750.49
516.835	758.99
517.29	758.09
517.745	749.99
518.2	725.99
518.655	719.29
519.109	710.89
519.564	714.19
520.019	703.19
520.474	692.69
520.928	693.99
521.383	691.49
521.838	683.59
522.292	684.99
522.747	682.19
523.201	683.09
523.656	680.19
524.11	669.99
524.565	675.69
525.019	668.19
525.474	677.79
525.928	672.89
526.382	670.89
526.837	676.39
527.291	676.49
527.745	670.09
528.2	675.49
528.654	661.79
529.108	669.89
529.562	667.79
530.016	675.29
530.47	660.79
530.925	674.49
531.379	671.19
531.833	673.79
532.287	677.79
532.741	677.39
533.195	679.59
533.649	679.99
534.103	695.99
534.556	688.59
535.01	688.19
535.464	676.49
535.918	697.59
536.372	699.39
536.826	688.29
537.279	670.89
537.733	680.59
538.187	686.49
538.64	692.79
539.094	705.29
539.548	705.79
540.001	702.19
540.455	697.29
540.908	709.99
541.362	701.19
541.815	719.99
542.269	730.19
542.722	742.29
543.175	752.09
543.629	747.69
544.082	761.19
544.536	753.99
544.989	761.69
545.442	763.39
545.895	763.59
546.349	762.09
546.802	773.49
547.255	767.89
547.708	784.99
548.161	797.39
548.614	798.49
549.067	809.69
549.52	794.49
549.973	790.69
550.426	777.79
550.879	767.39
551.332	776.39
551.785	782.49
552.238	783.49
552.691	785.99
553.144	798.49
553.596	829.59
554.049	837.69
554.502	866.59
554.955	884.69
555.407	876.69
555.86	872.19
556.313	861.59
556.765	866.39
557.218	860.19
557.67	855.19
558.123	850.89
558.576	849.69
559.028	842.39
559.48	857.19
559.933	841.39
560.385	818.99
560.838	785.39
561.29	765.39
561.742	761.29
562.195	751.09
562.647	746.89
563.099	754.19
563.551	751.49
564.004	759.59
564.456	751.19
564.908	738.19
565.36	733.69
565.812	713.89
566.264	709.49
566.716	703.49
567.168	691.19
567.62	705.69
568.072	679.19
568.524	678.09
568.976	666.89
569.428	650.99
569.88	654.09
570.332	660.09
570.784	661.39
571.235	669.79
571.687	670.59
572.139	682.09
572.59	683.69
573.042	690.19
573.494	691.29
573.945	684.09
574.397	658.79
574.849	668.19
575.3	667.09
575.752	667.29
576.203	650.59
576.655	662.39
577.106	648.79
577.557	651.89
578.009	646.59
578.46	650.89
578.912	645.99
579.363	640.89
579.814	653.39
580.265	646.99
580.717	646.29
581.168	647.29
581.619	655.79
582.07	655.99
582.521	654.49
582.972	653.89
583.423	662.39
583.875	652.99
584.326	682.99
584.777	727.09
585.227	793.79
585.678	895.19
586.129	966.89
586.58	1043.39
587.031	1112.19
587.482	1265.69
587.933	1448.39
588.384	1250.79
588.834	934.99
589.285	788.39
589.736	763.29
590.186	762.39
590.637	750.19
591.088	730.29
591.538	728.49
591.989	715.09
592.439	707.79
592.89	708.29
593.34	693.29
593.791	693.69
594.241	677.79
594.692	695.79
595.142	687.79
595.593	673.99
596.043	685.59
596.493	691.39
596.943	700.39
597.394	706.49
597.844	698.19
598.294	707.39
598.744	731.59
599.195	756.69
599.645	794.69
600.095	831.19
600.545	897.29
600.995	952.79
601.445	990.49
601.895	1053.99
602.345	1095.59
602.795	1078.89
603.245	1035.99
603.695	987.79
604.145	923.99
604.594	876.59
605.044	827.39
605.494	772.09
605.944	730.99
606.393	721.59
606.843	702.69
607.293	706.89
607.743	715.99
608.192	722.89
608.642	745.39
609.091	751.09
609.541	749.69
609.99	752.59
610.44	745.39
610.889	702.69
611.339	681.19
611.788	662.09
612.238	674.49
612.687	703.29
613.136	705.69
613.586	728.59
614.035	715.29
614.484	720.79
614.933	745.59
615.383	734.79
615.832	731.79
616.281	694.99
616.73	672.99
617.179	650.39
617.628	635.69
618.077	621.39
618.526	602.79
618.975	600.79
619.424	590.59
619.873	592.69
620.322	603.69
620.771	590.39
621.22	585.89
621.669	576.89
622.118	572.09
622.567	562.69
623.015	559.19
623.464	560.19
623.913	544.69
624.361	536.99
624.81	541.39
625.259	538.09
625.707	542.89
626.156	540.59
626.604	547.59
627.053	550.09
627.501	547.69
627.95	566.09
628.398	560.59
628.847	557.49
629.295	550.59
629.744	561.89
630.192	560.59
630.64	558.49
631.089	548.79
631.537	554.59
631.985	556.89
632.433	570.29
632.881	590.39
633.33	623.79
633.778	610.29
634.226	550.29
634.674	558.39
635.122	560.19
635.57	574.89
636.018	605.49
636.466	568.89
636.914	545.59
637.362	555.99
637.81	560.39
638.258	565.59
638.705	555.19
639.153	596.69
639.601	608.89
640.049	633.99
640.497	655.09
640.944	682.79
641.392	621.19
641.84	596.39
642.287	570.09
642.735	557.39
643.182	552.89
643.63	556.89
644.078	563.39
644.525	575.09
644.973	587.59
645.42	595.09
645.867	613.69
646.315	621.29
646.762	647.19
647.21	678.79
647.657	696.19
648.104	729.79
648.551	751.19
648.999	818.59
649.446	900.49
649.893	983.79
650.34	1126.79
650.787	1365.39
651.234	1694.99
651.682	2221.99
652.129	3048.09
652.576	4410.69
653.023	6507.79
653.47	8955.29
653.917	11118.29
654.363	12809.89
654.81	14151.99
655.257	13455.29
655.704	8734.99
656.151	5134.59
656.598	3318.69
657.044	2358.39
657.491	1821.29
657.938	1448.09
658.385	1213.19
658.831	1052.49
659.278	940.09
659.724	835.69
660.171	779.79
660.618	702.59
661.064	669.69
661.511	651.99
661.957	636.79
662.404	613.19
662.85	632.69
663.296	602.79
663.743	551.69
664.189	529.29
664.635	524.79
665.082	516.09
665.528	516.09
665.974	514.19
666.42	499.79
666.867	491.59
667.313	469.79
667.759	464.59
668.205	467.09
668.651	464.99
669.097	472.29
669.543	479.59
669.989	463.99
670.435	432.89
670.881	438.39
671.327	444.49
671.773	453.69
672.219	481.79
672.665	524.29
673.11	572.39
673.556	614.99
674.002	652.99
674.448	636.69
674.893	536.59
675.339	470.29
675.785	424.99
676.23	412.59
676.676	381.19
677.122	378.79
677.567	361.79
678.013	359.39
678.458	344.89
678.904	354.49
679.349	345.49
679.794	343.69
680.24	343.09
680.685	336.99
681.131	341.69
681.576	334.79
682.021	344.99
682.466	340.99
682.912	341.99
683.357	338.39
683.802	364.99
684.247	405.59
684.692	453.09
685.137	484.29
685.583	511.39
686.028	552.89
686.473	502.69
686.918	428.79
687.363	407.79
687.807	382.09
688.252	359.29
688.697	352.49
689.142	324.79
689.587	317.89
690.032	314.69
690.477	341.29
690.921	342.39
691.366	372.19
691.811	390.29
692.255	422.49
692.7	451.69
693.145	490.19
693.589	691.29
694.034	1105.59
694.478	1502.69
694.923	1703.89
695.367	2216.79
695.812	1163.09
696.256	485.59
696.701	361.09
697.145	333.09
697.59	314.09
698.034	318.19
698.478	326.09
698.922	322.69
699.367	326.29
699.811	336.79
700.255	350.59
700.699	374.19
701.143	419.19
701.588	461.49
702.032	514.49
702.476	498.69
702.92	472.69
703.364	481.89
703.808	633.49
704.252	1026.09
704.696	1424.59
705.14	1634.49
705.584	2080.99
706.027	1038.69
706.471	503.99
706.915	393.49
707.359	337.59
707.803	315.19
708.246	308.19
708.69	305.99
709.134	306.89
709.577	298.49
710.021	314.29
710.465	299.29
710.908	289.29
711.352	293.99
711.795	312.39
712.239	356.29
712.682	375.79
713.126	401.09
713.569	451.69
714.012	363.09
714.456	308.39
714.899	294.99
715.342	267.39
715.786	249.09
716.229	249.89
716.672	246.29
717.115	247.89
717.558	244.99
718.002	249.99
718.445	260.09
718.888	281.49
719.331	287.89
719.774	300.69
720.217	297.49
720.66	279.29
721.103	260.19
721.546	249.39
721.989	246.29
722.432	223.59
722.874	239.79
723.317	217.49
723.76	235.39
724.203	261.19
724.645	311.69
725.088	443.19
725.531	558.99
725.974	628.99
726.416	534.09
726.859	302.39
727.301	242.99
727.744	232.59
728.187	225.79
728.629	232.39
729.071	247.89
729.514	251.99
729.956	269.29
730.399	270.19
730.841	277.09
731.283	262.59
731.726	251.99
732.168	249.79
732.61	257.89
733.053	280.49
733.495	312.39
733.937	348.99
734.379	390.99
734.821	429.19
735.263	530.69
735.705	845.49
736.148	1583.19
736.59	2536.89
737.032	2987.19
737.474	2408.39
737.916	787.99
738.357	415.59
738.799	321.69
739.241	285.89
739.683	278.79
740.125	289.19
740.567	291.59
741.008	306.19
741.45	300.29
741.892	306.79
742.334	341.39
742.775	352.39
743.217	331.29
743.658	257.99
744.1	246.89
744.542	258.29
744.983	303.49
745.425	333.39
745.866	329.09
746.307	284.89
746.749	285.89
747.19	321.39
747.632	458.19
748.073	887.59
748.514	1872.19
748.956	2816.39
749.397	3534.59
749.838	2905.49
750.279	2893.69
750.72	1459.49
751.162	540.69
751.603	305.19
752.044	247.49
752.485	210.59
752.926	207.49
753.367	198.89
753.808	188.49
754.249	184.59
754.69	186.19
755.131	181.59
755.572	177.79
756.013	173.49
756.453	181.99
756.894	187.99
757.335	186.09
757.776	195.89
758.216	195.79
758.657	191.59
759.098	198.69
759.538	221.59
759.979	259.09
760.42	367.89
760.86	707.89
761.301	1841.09
761.741	4392.59
762.182	6292.29
762.622	4417.39
763.063	1281.09
763.503	524.39
763.943	337.69
764.384	336.09
764.824	381.69
765.264	410.29
765.705	292.89
766.145	201.29
766.585	185.59
767.025	179.29
767.465	183.89
767.906	239.29
768.346	308.19
768.786	316.09
769.226	262.79
769.666	320.49
770.106	629.59
770.546	1550.39
770.986	2598.49
771.426	2299.49
771.866	770.09
772.306	320.59
772.745	205.99
773.185	172.89
773.625	170.99
774.065	155.29
774.505	190.99
774.944	307.99
775.384	664.49
775.824	1196.99
776.263	1166.89
776.703	491.59
777.142	215.69
777.582	151.39
778.021	135.09
778.461	136.29
778.9	131.39
779.34	130.59
779.779	116.49
780.219	116.49
780.658	106.19
781.097	110.29
781.537	115.19
781.976	104.79
782.415	109.29
782.855	99.39
783.294	103.29
783.733	102.99
784.172	100.69
784.611	103.79
785.05	107.59
785.489	107.59
785.928	116.69
786.367	116.09
786.806	115.89
787.245	127.59
787.684	139.09
788.123	142.89
788.562	135.19
789.001	125.99
789.44	122.29
789.879	106.69
790.317	115.49
790.756	130.29
791.195	129.19
791.634	141.49
792.072	202.39
792.511	366.29
792.95	1019.89
793.388	2123.69
793.827	1887.29
794.265	658.29
794.704	272.99
795.142	182.89
795.581	143.89
796.019	139.39
796.458	127.79
796.896	114.59
797.334	130.39
797.773	146.49
798.211	212.59
798.649	440.39
799.087	1014.49
799.526	1561.49
799.964	2004.89
800.402	1959.19
800.84	735.59
801.278	301.49
801.716	182.09
802.154	157.19
802.592	143.69
803.03	138.39
803.468	125.39
803.906	143.79
804.344	149.49
804.782	140.99
805.22	126.99
805.658	125.29
806.096	149.99
806.533	158.09
806.971	169.89
807.409	215.49
807.847	312.59
808.284	666.19
808.722	1869.69
809.16	3229.59
809.597	3099.39
810.035	5367.89
810.472	5613.69
810.91	2028.29
811.347	774.59
811.785	394.99
812.222	242.39
812.66	192.59
813.097	158.49
813.535	139.39
813.972	121.69
814.409	115.79
814.846	107.99
815.284	109.69
815.721	107.79
816.158	100.49
816.595	121.09
817.032	171.99
817.47	193.79
817.907	155.89
818.344	145.39
818.781	110.69
819.218	97.89
819.655	117.69
820.092	182.09
820.529	207.59
820.966	178.19
821.403	129.09
821.839	103.09
822.276	95.89
822.713	117.19
823.15	132.09
823.587	114.79
824.023	140.99
824.46	302.09
824.897	898.19
825.333	1332.59
825.77	565.99
826.206	222.29
826.643	133.99
827.08	96.19
827.516	81.99
827.953	76.49
828.389	83.69
828.825	73.29
829.262	64.49
829.698	58.99
830.135	61.89
830.571	57.39
831.007	60.39
831.443	62.59
831.88	58.29
832.316	63.19
832.752	69.09
833.188	63.59
833.624	60.69
834.06	67.79
834.497	63.69
834.933	64.09
835.369	70.99
835.805	68.99
836.241	84.29
836.677	75.19
837.112	85.99
837.548	102.89
837.984	132.49
838.42	197.29
838.856	497.59
839.292	1502.59
839.727	2255.79
840.163	1044.69
840.599	927.69
841.034	2026.89
841.47	2082.49
841.906	768.09
842.341	329.19
842.777	228.99
843.212	312.39
843.648	304.09
844.083	150.19
844.519	93.59
844.954	78.69
845.39	57.99
845.825	57.19
846.261	56.79
846.696	55.19
847.131	51.19
847.566	56.19
848.002	53.99
848.437	51.39
848.872	62.19
849.307	64.19
849.742	81.09
850.177	176.49
850.613	545.39
851.048	864.29
851.483	370.89
851.918	151.49
852.353	89.89
852.788	68.59
853.223	55.49
853.657	53.39
854.092	46.19
854.527	37.39
854.962	32.79
855.397	44.19
855.832	48.49
856.266	41.89
856.701	43.49
857.136	34.79
857.57	40.89
858.005	51.69
858.44	52.49
858.874	45.39
859.309	54.59
859.743	42.39
860.178	46.69
860.612	45.69
861.047	56.69
861.481	62.19
861.915	63.69
862.35	44.19
862.784	35.69
863.218	37.39
863.653	33.39
864.087	50.49
864.521	51.29
864.955	68.99
865.39	152.69
865.824	171.89
866.258	105.89
866.692	160.29
867.126	165.09
867.56	100.79
867.994	55.59
868.428	39.69
868.862	48.19
869.296	51.99
869.73	62.39
870.164	46.49
870.598	44.99
871.031	41.29
871.465	35.59
871.899	30.29
872.333	28.19
872.766	25.19
873.2	26.49
873.634	31.99
874.067	26.29
874.501	26.89
874.935	40.79
875.368	29.89
875.802	26.79
876.235	25.19
876.669	28.29
877.102	25.59
877.535	24.19
877.969	21.19
878.402	26.89
878.836	19.79
879.269	24.49
879.702	25.79
880.135	26.69
880.569	19.39
881.002	31.89
881.435	22.79
881.868	19.39
882.301	22.29
882.734	15.09
883.167	25.49
883.601	13.99
884.034	23.69
884.467	19.99
884.899	24.29
885.332	19.29
885.765	17.09
886.198	18.39
886.631	17.29
887.064	20.79
887.497	22.29
887.929	29.89
888.362	10.39
888.795	13.59
889.228	15.19
889.66	19.29
890.093	20.49
890.526	18.09
890.958	19.69
891.391	18.99
891.823	23.39
892.256	17.69
892.688	16.29
893.121	11.49
893.553	11.39
893.985	27.29
894.418	15.99
894.85	14.49
895.282	17.19
895.715	16.29
896.147	18.49
896.579	19.39
897.011	10.79
897.444	19.89
897.876	17.99
898.308	17.79
898.74	13.29
899.172	13.39
899.604	21.89
900.036	15.99
900.468	18.49
900.9	15.79
901.332	19.29
901.764	13.89
902.196	19.89
902.628	14.69
903.06	14.09
903.491	31.19
903.923	20.89
904.355	22.19
904.787	22.69
905.218	21.49
905.65	14.79
906.082	14.59
906.513	13.69
906.945	15.79
907.376	17.09
907.808	21.19
908.239	23.49
908.671	20.19
909.102	21.49
909.534	22.49
909.965	46.29
910.397	99.39
910.828	316.89
911.259	466.39
911.691	212.59
912.122	105.79
912.553	53.29
912.984	34.19
913.415	20.99
913.847	25.79
914.278	13.29
914.709	8.49
915.14	22.89
915.571	22.39
916.002	14.49
916.433	18.99
916.864	16.49
917.295	11.09
917.726	21.99
918.157	12.49
918.587	24.39
919.018	23.49
919.449	21.69
919.88	24.09
920.311	25.99
920.741	52.89
921.172	164.49
921.603	149.19
922.033	70.99
922.464	44.99
922.895	28.19
923.325	23.49
923.756	20.59
924.186	16.79
924.617	23.79
925.047	41.59
925.478	54.59
925.908	45.29
926.338	25.19
926.769	20.39
927.199	15.89
927.629	6.19
928.06	16.29
928.49	20.99
928.92	14.99
929.35	8.59
929.78	10.19
930.21	7.59
930.641	12.49
931.071	7.99
931.501	8.89
931.931	7.79
932.361	10.29
932.791	8.39
933.221	9.59
933.651	7.49
934.08	18.29
934.51	30.89
934.94	9.39
935.37	7.59
935.8	11.29
936.229	9.89
936.659	12.09
937.089	3.09
937.519	11.19
937.948	22.49
938.378	17.79
938.807	7.99
939.237	6.29
939.666	10.89
940.096	-2.41
940.525	1.89
940.955	6.49
941.384	-3.41
941.814	-8.01
942.243	-3.11
942.672	5.49
943.102	0.09
943.531	-0.21
943.96	4.59
944.39	2.39
944.819	2.79
945.248	5.69
945.677	7.69
946.106	10.69
946.535	6.99
946.964	1.09
947.393	1.79
947.822	6.69
948.251	-1.61
948.68	5.39
949.109	5.89
949.538	9.19
949.967	3.89
950.396	2.09
950.825	0.59
951.254	4.59
951.682	-4.81
952.111	4.39
952.54	3.59
952.969	-2.91
953.397	-2.21
953.826	3.29
954.254	-7.31
954.683	7.09
955.112	-2.61
955.54	-3.71
955.969	-1.31
956.397	1.99
956.826	-2.01
957.254	0.49
957.682	1.49
958.111	5.59
958.539	4.79
958.967	-0.11
959.396	2.49
959.824	2.79
960.252	2.39
960.68	-2.81
961.109	0.99
961.537	-3.21
961.965	-1.71
962.393	-1.41
962.821	0.19
963.249	2.39
963.677	5.59
964.105	3.09
964.533	43.39
964.961	40.09
965.389	23.89
965.817	7.29
966.245	2.79
966.672	-1.51
967.1	-4.91
967.528	-1.91
967.956	5.19
968.383	-0.51
968.811	-5.51
969.239	4.19
969.666	1.99
970.094	3.09
970.522	1.69
970.949	-1.11
971.377	-3.61
971.804	1.89
972.232	-4.01
972.659	1.69
973.087	-0.51
973.514	-6.41
973.941	-4.71
974.369	5.19
974.796	1.49
975.223	-1.21
975.651	2.69
976.078	6.19
976.505	1.29
976.932	2.29
977.359	9.89
977.786	14.69
978.214	4.19
978.641	-2.01
979.068	-5.41
979.495	-2.11
979.922	-0.21
980.349	-7.11
980.776	1.89
981.202	-1.51
981.629	3.69
982.056	5.09
982.483	0.09
982.91	7.19
983.337	-2.51
983.763	2.39
984.19	-5.01
984.617	-4.51
985.043	-1.11
985.47	-5.11
985.897	-4.51
986.323	-4.31
986.75	3.89
987.176	-6.41
987.603	-5.11
988.029	-1.71
988.456	-0.71
988.882	-2.11
989.308	-8.31
989.735	-6.71
990.161	3.39
990.587	-7.71
991.014	3.89
991.44	2.99
991.866	0.09
992.292	-3.21
992.719	-5.71
993.145	6.19
993.571	-4.91
993.997	-5.11
994.423	1.09
994.849	-2.01
995.275	2.09
995.701	4.19
996.127	-3.51
996.553	6.79
996.979	-0.81
997.405	1.99
997.83	-2.81
998.256	-2.61
998.682	-6.41
999.108	-7.01
999.534	2.89
999.959	-1.31
1000.385	0.49
1000.811	0.69
1001.236	-5.51
1001.662	-6.81
1002.087	-6.91
1002.513	0.99
1002.938	-2.31
1003.364	-0.51
1003.789	1.69
1004.215	2.29
1004.64	-3.31
1005.066	7.29
1005.491	0.49
1005.916	0.79
1006.342	2.19
1006.767	-1.21
1007.192	8.69
1007.617	-5.21
1008.042	-0.01
1008.468	-4.91
1008.893	-5.21
1009.318	0.69
1009.743	-0.91
1010.168	9.99
1010.593	-3.11
1011.018	-9.51
1011.443	-4.81
1011.868	4.69
1012.293	-3.01
1012.718	-6.21
1013.143	-4.61
1013.567	4.79
1013.992	-1.71
1014.417	-12.61
1014.842	2.19
1015.267	-4.21
1015.691	-1.51
1016.116	4.69
1016.541	3.29
1016.965	1.99
1017.39	0.79
1017.814	0.59
1018.239	1.49
1018.663	-7.31
1019.088	-13.51
1019.512	-5.81
1019.937	-4.11
1020.361	-6.81
1020.785	-3.31
1021.21	-0.81
1021.634	-0.21
1022.058	1.89
1022.483	4.59
1022.907	-0.81
1023.331	-3.11
1023.755	-1.51
1024.179	0.29
1024.604	-1.21
1025.028	-6.61
1025.452	-4.81
1025.876	-3.11
1026.3	4.09
1026.724	-7.91
1027.148	-1.31
1027.572	-7.51
1027.996	-2.21
1028.42	-0.21
1028.843	-1.31
1029.267	-6.81
1029.691	-3.01
1030.115	-2.31
1030.539	-12.71
1030.962	-2.31
1031.386	-13.41
1031.81	0.99
1032.233	-2.81
1032.657	-0.71
1033.08	-4.01
1033.504	-1.61
1033.927	0.39
1034.351	-2.41
1034.774	-1.01
1035.198	1.39
1035.621	-2.01
1036.045	-8.91
1036.468	-3.31
1036.891	-8.51
1037.315	-6.51
1037.738	-1.81
1038.161	2.19
1038.584	-0.21
1039.008	-4.01
1039.431	-4.71
1039.854	-3.31
1040.277	-6.81
1040.7	-8.31
1041.123	5.09
1041.546	-3.81
1041.969	-7.91
1042.392	0.09
1042.815	3.79
1043.238	7.09
1043.661	5.09
1044.084	-9.31
1044.507	-7.71
1044.93	-7.01
1045.352	-2.21
1045.775	-2.61
1046.198	-3.31
1046.621	-0.41
1047.043	-0.91
1047.466	8.59
1047.889	1.09
1048.311	-3.31
1048.734	-1.51
1049.156	1.89
1049.579	3.39
1050.001	-0.41
1050.424	-6.31
1050.846	0.09
1051.269	-2.51
1051.691	-2.31
1052.113	-7.51
1052.536	0.19
1052.958	-3.31
1053.38	-3.91
1053.802	-5.91
1054.225	-1.71
1054.647	-8.31
1055.069	-9.91
1055.491	3.59
1055.913	-2.71
1056.335	3.79
1056.757	-0.91
1057.179	-3.91
1057.601	-1.51
1058.023	-4.61
1058.445	-3.61
1058.867	-11.31
1059.289	-4.31
1059.711	-4.61
1060.133	-0.31
1060.555	-2.61
1060.976	-3.61
1061.398	-6.11
1061.82	-1.81
1062.241	-4.71
1062.663	-9.81
1063.085	-6.11
1063.506	3.39
1063.928	-2.91
1064.35	-0.71
1064.771	-8.11
1065.193	1.29
1065.614	-10.91
1066.035	3.49
1066.457	-6.61
1066.878	2.89
1067.3	-2.41
1067.721	-6.01
1068.142	-3.11
1068.564	-5.71
1068.985	-4.01
1069.406	-5.11
1069.827	-8.81
1070.248	1.29
1070.67	-4.91
1071.091	-9.41
1071.512	1.59
1071.933	-1.31
1072.354	-8.51
1072.775	-0.81
1073.196	-8.81
1073.617	-3.31
1074.038	-11.01
1074.459	3.89
1074.88	-11.01
1075.3	0.39
1075.721	-6.91
1076.142	2.59
1076.563	2.79
1076.983	-9.01
1077.404	-6.01
1077.825	-10.01
1078.246	-2.61
1078.666	-9.71
1079.087	-2.01
1079.507	-3.81
1079.928	-0.11
1080.348	-0.81
1080.769	-7.91
1081.189	2.79
1081.61	-2.81
1082.03	1.39
1082.451	-4.01
1082.871	-3.01
1083.291	-3.41
1083.711	-10.01
1084.132	-7.31
1084.552	-3.41
1084.972	1.59
1085.392	-8.01
1085.813	-10.61
1086.233	-8.51
1086.653	-3.01
1087.073	0.59
1087.493	-6.91
1087.913	-7.91
1088.333	-10.11
1088.753	-2.81
1089.173	-6.01
1089.593	-1.41
1090.013	4.29
1090.433	-1.31
1090.852	-7.51
1091.272	-0.01
1091.692	-3.71
1092.112	-3.11
1092.531	-6.41
1092.951	-10.61
1093.371	3.79
1093.79	-0.61
1094.21	-4.61
1094.63	0.09
1095.049	-0.51
1095.469	-3.31
1095.888	-3.91
1096.308	-0.91
1096.727	1.69
1097.146	-7.01
1097.566	0.59
1097.985	-6.01
1098.405	1.99
1098.824	-5.81
1099.243	-2.01
1099.662	-6.11
1100.082	-5.71
1100.501	1.19
1100.92	-6.81
1101.339	-4.61
1101.758	-3.71
