Data from 20171114-ORNL-Ar_H_NY_Subt18_08-05-07-303.txt Node
Date: Tue Nov 14 08:05:07 EST 2017
User: Ender
Spectrometer: HR+D1039
Trigger mode: 0
Integration Time (sec): 2.730000E-2
Scans to average: 10
Electric dark correction enabled: true
Nonlinearity correction enabled: false
Boxcar width: 0
XAxis mode: Wavelengths
Number of Pixels in Spectrum: 2048
>>>>>Begin Spectral Data<<<<<
187.836	1.42
188.309	1.42
188.782	1.42
189.255	3.82
189.728	-2.78
190.201	2.22
190.674	-2.28
191.147	-2.58
191.619	-8.98
192.092	2.52
192.565	5.32
193.038	4.02
193.511	2.22
193.984	1.62
194.456	-1.98
194.929	-0.78
195.402	-2.68
195.874	-1.18
196.347	-4.68
196.82	-4.58
197.292	6.62
197.765	-1.88
198.237	-1.58
198.71	1.22
199.182	1.92
199.655	-3.28
200.127	1.62
200.6	2.92
201.072	2.12
201.544	-4.98
202.017	-8.18
202.489	-0.38
202.961	1.42
203.433	-0.78
203.906	-9.08
204.378	-13.88
204.85	2.52
205.322	-8.38
205.794	-1.48
206.266	-0.08
206.739	-9.48
207.211	3.02
207.683	-9.18
208.155	-6.68
208.627	-4.98
209.099	-3.78
209.57	-9.28
210.042	-6.68
210.514	-5.08
210.986	3.02
211.458	-5.68
211.93	-2.38
212.402	3.12
212.873	-10.38
213.345	-13.28
213.817	-9.18
214.288	-6.98
214.76	-14.48
215.232	1.72
215.703	2.92
216.175	-4.78
216.646	-6.38
217.118	-9.98
217.589	-5.08
218.061	-2.38
218.532	-0.08
219.004	-3.68
219.475	-4.18
219.946	-1.78
220.418	-3.48
220.889	0.82
221.36	-3.38
221.832	-8.18
222.303	-7.28
222.774	1.22
223.245	-5.88
223.717	-2.88
224.188	0.22
224.659	-9.48
225.13	-7.98
225.601	-6.78
226.072	3.32
226.543	1.42
227.014	2.32
227.485	-5.68
227.956	-3.58
228.427	-1.38
228.898	-1.88
229.369	5.02
229.839	-4.28
230.31	-6.98
230.781	-1.88
231.252	-0.58
231.722	-5.78
232.193	0.12
232.664	2.92
233.135	0.62
233.605	-1.78
234.076	-2.28
234.546	5.62
235.017	1.02
235.487	-0.48
235.958	-1.98
236.428	4.32
236.899	1.92
237.369	6.82
237.84	2.52
238.31	3.52
238.78	3.52
239.251	1.12
239.721	5.82
240.191	-0.58
240.662	-2.38
241.132	0.82
241.602	-4.28
242.072	-2.08
242.542	9.42
243.013	1.12
243.483	5.42
243.953	7.02
244.423	-1.28
244.893	-0.68
245.363	3.12
245.833	-1.28
246.303	-1.68
246.773	10.62
247.243	7.12
247.712	4.52
248.182	8.62
248.652	9.02
249.122	-1.58
249.592	14.02
250.061	26.02
250.531	34.02
251.001	18.92
251.471	22.22
251.94	20.72
252.41	7.82
252.879	7.32
253.349	17.72
253.818	13.32
254.288	2.72
254.757	6.02
255.227	1.82
255.696	3.12
256.166	7.82
256.635	10.12
257.105	16.12
257.574	12.82
258.043	5.12
258.513	9.22
258.982	20.42
259.451	9.82
259.92	18.22
260.389	15.52
260.859	20.92
261.328	9.72
261.797	23.82
262.266	9.02
262.735	6.62
263.204	3.42
263.673	2.62
264.142	10.02
264.611	0.32
265.08	0.82
265.549	0.62
266.018	3.22
266.487	-5.18
266.955	0.62
267.424	6.92
267.893	4.92
268.362	2.72
268.83	5.62
269.299	8.12
269.768	9.62
270.236	16.12
270.705	5.62
271.174	10.92
271.642	10.72
272.111	11.32
272.579	21.92
273.048	23.42
273.516	34.62
273.985	34.32
274.453	27.92
274.922	22.92
275.39	11.72
275.858	-0.88
276.327	13.62
276.795	20.02
277.263	7.92
277.731	34.52
278.2	56.62
278.668	61.82
279.136	50.12
279.604	23.42
280.072	21.32
280.54	11.32
281.008	14.52
281.477	22.22
281.945	17.02
282.413	13.12
282.881	18.02
283.348	2.82
283.816	17.42
284.284	16.92
284.752	24.62
285.22	14.12
285.688	23.62
286.156	20.32
286.623	52.92
287.091	56.52
287.559	32.02
288.026	21.92
288.494	20.02
288.962	4.32
289.429	8.62
289.897	22.82
290.364	14.82
290.832	23.82
291.3	19.72
291.767	20.32
292.234	24.12
292.702	14.52
293.169	22.92
293.637	27.52
294.104	23.82
294.571	19.22
295.039	14.62
295.506	18.12
295.973	16.92
296.44	19.62
296.908	16.32
297.375	20.12
297.842	22.62
298.309	20.12
298.776	12.02
299.243	22.92
299.71	13.92
300.177	17.52
300.644	25.82
301.111	26.12
301.578	22.62
302.045	21.72
302.512	26.92
302.979	28.22
303.446	26.12
303.913	29.32
304.379	22.32
304.846	29.42
305.313	27.82
305.78	26.82
306.246	25.62
306.713	25.12
307.18	22.52
307.646	34.72
308.113	27.92
308.579	30.62
309.046	30.92
309.512	26.52
309.979	25.12
310.445	27.62
310.912	24.02
311.378	33.32
311.845	27.12
312.311	34.32
312.777	36.32
313.244	30.32
313.71	39.92
314.176	36.72
314.642	37.32
315.109	40.32
315.575	35.62
316.041	34.12
316.507	36.82
316.973	47.72
317.439	38.02
317.905	33.72
318.371	44.12
318.837	35.62
319.303	35.32
319.769	33.42
320.235	33.02
320.701	39.72
321.167	43.92
321.633	35.22
322.099	43.12
322.564	43.42
323.03	45.52
323.496	41.42
323.962	40.82
324.427	41.42
324.893	46.92
325.359	39.42
325.824	34.52
326.29	39.12
326.755	39.12
327.221	41.92
327.686	37.92
328.152	49.22
328.617	50.12
329.083	48.12
329.548	57.82
330.014	48.42
330.479	41.22
330.944	38.82
331.41	42.02
331.875	51.32
332.34	48.42
332.805	44.52
333.271	51.42
333.736	48.32
334.201	54.72
334.666	53.52
335.131	52.12
335.596	51.12
336.061	54.82
336.526	41.62
336.991	50.42
337.456	53.92
337.921	51.02
338.386	50.42
338.851	46.12
339.316	52.92
339.781	50.02
340.246	54.72
340.711	41.02
341.175	52.62
341.64	44.62
342.105	54.72
342.569	57.22
343.034	63.92
343.499	59.62
343.963	50.12
344.428	65.92
344.893	61.72
345.357	62.62
345.822	59.42
346.286	73.72
346.751	74.22
347.215	75.32
347.679	74.92
348.144	101.22
348.608	88.02
349.073	76.62
349.537	74.42
350.001	82.22
350.465	92.72
350.93	83.22
351.394	86.62
351.858	77.82
352.322	87.52
352.786	90.32
353.25	98.72
353.715	111.62
354.179	104.12
354.643	124.62
355.107	128.12
355.571	114.12
356.035	103.82
356.498	126.92
356.962	131.72
357.426	132.72
357.89	119.52
358.354	93.12
358.818	90.62
359.281	84.72
359.745	79.62
360.209	73.32
360.673	82.22
361.136	82.12
361.6	84.12
362.064	88.22
362.527	86.12
362.991	91.32
363.454	79.12
363.918	81.02
364.381	87.62
364.845	87.62
365.308	88.62
365.772	86.92
366.235	88.22
366.698	86.72
367.162	93.12
367.625	86.92
368.088	88.02
368.552	92.52
369.015	91.22
369.478	98.52
369.941	104.72
370.404	93.82
370.867	101.92
371.331	112.62
371.794	113.52
372.257	112.52
372.72	116.52
373.183	114.02
373.646	102.02
374.109	99.72
374.572	104.22
375.035	107.12
375.497	112.72
375.96	103.22
376.423	108.82
376.886	117.12
377.349	116.62
377.811	107.42
378.274	106.12
378.737	105.12
379.199	108.22
379.662	114.92
380.125	116.72
380.587	119.42
381.05	125.12
381.512	123.72
381.975	137.62
382.437	123.42
382.9	123.62
383.362	131.22
383.825	146.22
384.287	142.22
384.75	144.42
385.212	134.72
385.674	141.22
386.136	136.52
386.599	120.82
387.061	131.32
387.523	133.72
387.985	135.82
388.447	146.22
388.91	142.12
389.372	158.32
389.834	151.22
390.296	155.12
390.758	157.62
391.22	165.42
391.682	206.92
392.144	297.42
392.606	229.92
393.068	168.82
393.529	173.52
393.991	154.72
394.453	146.82
394.915	159.12
395.377	189.12
395.838	210.32
396.3	156.72
396.762	141.02
397.224	132.52
397.685	127.32
398.147	133.52
398.608	126.12
399.07	126.02
399.531	138.62
399.993	142.02
400.454	148.02
400.916	144.72
401.377	141.52
401.839	148.92
402.3	145.12
402.762	165.32
403.223	177.82
403.684	167.82
404.145	159.32
404.607	164.22
405.068	160.62
405.529	164.42
405.99	187.62
406.451	172.92
406.913	173.32
407.374	166.02
407.835	158.92
408.296	164.22
408.757	171.02
409.218	176.22
409.679	177.72
410.14	172.82
410.601	176.32
411.062	186.62
411.522	195.92
411.983	185.42
412.444	182.22
412.905	175.42
413.366	182.42
413.826	185.72
414.287	207.92
414.748	258.02
415.208	253.72
415.669	209.52
416.13	201.02
416.59	203.22
417.051	214.02
417.511	212.32
417.972	229.33
418.432	244.52
418.893	283.82
419.353	240.12
419.814	190.62
420.274	183.32
420.734	180.52
421.195	192.72
421.655	190.02
422.115	191.52
422.576	193.72
423.036	201.12
423.496	203.62
423.956	214.62
424.416	228.92
424.876	259.22
425.336	251.72
425.797	254.92
426.257	248.02
426.717	246.22
427.177	227.82
427.637	223.22
428.097	239.02
428.556	234.92
429.016	261.32
429.476	269.42
429.936	273.62
430.396	275.62
430.856	283.62
431.315	306.62
431.775	347.52
432.235	372.12
432.694	335.82
433.154	360.12
433.614	382.52
434.073	326.22
434.533	281.62
434.993	265.42
435.452	279.92
435.912	292.52
436.371	280.72
436.83	281.33
437.29	263.82
437.749	246.73
438.209	243.72
438.668	266.22
439.127	276.62
439.587	266.72
440.046	240.23
440.505	259.02
440.964	271.52
441.424	320.82
441.883	304.52
442.342	254.22
442.801	223.62
443.26	210.62
443.719	217.32
444.178	210.52
444.637	210.22
445.096	210.22
445.555	215.42
446.014	218.22
446.473	220.73
446.932	225.72
447.391	224.12
447.849	228.52
448.308	216.82
448.767	220.92
449.226	227.12
449.685	222.72
450.143	243.92
450.602	237.92
451.061	224.22
451.519	230.42
451.978	231.72
452.436	226.42
452.895	229.62
453.353	244.02
453.812	232.22
454.27	229.12
454.729	232.83
455.187	238.92
455.646	238.02
456.104	248.02
456.562	253.92
457.021	260.32
457.479	254.52
457.937	267.42
458.395	259.42
458.854	236.12
459.312	248.42
459.77	270.42
460.228	255.02
460.686	240.42
461.144	239.72
461.602	238.52
462.06	234.42
462.518	238.32
462.976	248.02
463.434	250.32
463.892	258.42
464.35	275.72
464.808	282.73
465.266	267.73
465.724	265.72
466.181	271.42
466.639	265.22
467.097	290.52
467.555	297.92
468.012	299.32
468.47	302.52
468.928	325.02
469.385	337.52
469.843	341.62
470.3	348.22
470.758	353.02
471.215	385.62
471.673	405.02
472.13	403.82
472.588	412.62
473.045	364.72
473.503	367.33
473.96	386.42
474.417	398.22
474.875	424.42
475.332	466.73
475.789	455.72
476.246	458.72
476.704	482.12
477.161	497.62
477.618	506.72
478.075	543.72
478.532	605.82
478.989	688.73
479.446	803.12
479.903	761.12
480.36	791.62
480.817	856.42
481.274	963.62
481.731	1060.22
482.188	1148.22
482.645	1292.93
483.102	1406.03
483.558	1539.62
484.015	1584.93
484.472	1573.03
484.929	1512.72
485.385	1463.12
485.842	1427.22
486.299	1360.12
486.755	1294.33
487.212	1080.32
487.668	918.22
488.125	843.52
488.582	767.52
489.038	741.62
489.494	711.42
489.951	678.23
490.407	653.12
490.864	638.02
491.32	629.82
491.776	626.02
492.233	627.52
492.689	593.73
493.145	597.42
493.602	598.22
494.058	597.32
494.514	607.02
494.97	625.42
495.426	635.62
495.882	612.52
496.338	598.73
496.794	614.82
497.251	608.22
497.707	633.12
498.163	622.42
498.618	631.22
499.074	643.52
499.53	658.72
499.986	668.12
500.442	636.22
500.898	626.22
501.354	620.62
501.809	630.92
502.265	629.82
502.721	642.42
503.177	660.62
503.632	649.12
504.088	669.22
504.543	692.62
504.999	701.23
505.455	639.22
505.91	626.82
506.366	619.82
506.821	605.12
507.277	613.32
507.732	617.72
508.187	619.62
508.643	615.73
509.098	625.02
509.553	636.32
510.009	653.22
510.464	656.72
510.919	668.82
511.375	681.92
511.83	691.72
512.285	706.92
512.74	745.62
513.195	768.42
513.65	757.92
514.105	761.62
514.56	768.32
515.015	784.72
515.47	790.73
515.925	778.42
516.38	772.62
516.835	775.82
517.29	777.02
517.745	767.02
518.2	750.82
518.655	732.02
519.109	727.12
519.564	717.02
520.019	717.62
520.474	717.33
520.928	708.22
521.383	714.22
521.838	697.42
522.292	696.62
522.747	698.23
523.201	687.92
523.656	672.92
524.11	675.02
524.565	683.32
525.019	680.32
525.474	704.12
525.928	694.83
526.382	682.02
526.837	676.02
527.291	686.62
527.745	684.22
528.2	688.62
528.654	685.73
529.108	682.72
529.562	675.52
530.016	676.12
530.47	675.72
530.925	677.12
531.379	682.92
531.833	693.82
532.287	697.32
532.741	689.33
533.195	682.02
533.649	696.32
534.103	710.42
534.556	689.62
535.01	700.72
535.464	704.22
535.918	705.22
536.372	703.52
536.826	701.22
537.279	677.52
537.733	697.52
538.187	695.22
538.64	708.12
539.094	712.12
539.548	714.42
540.001	705.42
540.455	716.42
540.908	705.32
541.362	715.92
541.815	730.42
542.269	733.12
542.722	731.92
543.175	756.12
543.629	746.72
544.082	765.02
544.536	771.62
544.989	763.72
545.442	771.52
545.895	766.92
546.349	762.12
546.802	763.92
547.255	768.82
547.708	780.62
548.161	789.02
548.614	799.82
549.067	807.62
549.52	794.92
549.973	791.92
550.426	786.22
550.879	766.02
551.332	762.82
551.785	783.72
552.238	774.72
552.691	788.22
553.144	800.02
553.596	814.33
554.049	841.02
554.502	867.22
554.955	895.12
555.407	883.92
555.86	870.42
556.313	874.02
556.765	850.22
557.218	844.62
557.67	864.32
558.123	858.02
558.576	839.62
559.028	854.62
559.48	863.22
559.933	845.92
560.385	810.02
560.838	785.82
561.29	768.22
561.742	751.83
562.195	744.12
562.647	738.62
563.099	743.42
563.551	744.23
564.004	757.22
564.456	736.12
564.908	730.12
565.36	718.82
565.812	719.02
566.264	706.02
566.716	708.22
567.168	680.82
567.62	697.72
568.072	674.62
568.524	680.12
568.976	659.92
569.428	649.32
569.88	647.52
570.332	653.22
570.784	653.32
571.235	659.02
571.687	658.32
572.139	674.52
572.59	688.62
573.042	685.42
573.494	677.32
573.945	681.62
574.397	664.62
574.849	669.82
575.3	673.62
575.752	652.42
576.203	645.92
576.655	659.52
577.106	644.42
577.557	643.22
578.009	644.33
578.46	638.92
578.912	629.62
579.363	636.23
579.814	646.52
580.265	647.22
580.717	636.92
581.168	636.22
581.619	643.12
582.07	653.72
582.521	651.52
582.972	642.32
583.423	648.12
583.875	640.23
584.326	671.12
584.777	715.62
585.227	778.82
585.678	868.42
586.129	961.22
586.58	1025.83
587.031	1117.62
587.482	1271.52
587.933	1436.82
588.384	1240.53
588.834	933.32
589.285	766.12
589.736	745.82
590.186	740.72
590.637	728.72
591.088	702.62
591.538	703.92
591.989	690.52
592.439	699.52
592.89	680.02
593.34	684.32
593.791	673.62
594.241	666.92
594.692	677.62
595.142	666.42
595.593	672.62
596.043	678.62
596.493	673.82
596.943	676.22
597.394	686.82
597.844	673.12
598.294	684.22
598.744	714.92
599.195	734.32
599.645	779.62
600.095	804.62
600.545	859.02
600.995	915.52
601.445	976.22
601.895	1029.22
602.345	1068.82
602.795	1047.72
603.245	1009.22
603.695	960.02
604.145	905.32
604.594	861.83
605.044	809.92
605.494	757.92
605.944	706.72
606.393	702.52
606.843	677.72
607.293	686.22
607.743	684.42
608.192	712.02
608.642	721.52
609.091	722.52
609.541	726.62
609.99	726.72
610.44	724.92
610.889	676.72
611.339	671.12
611.788	634.42
612.238	654.82
612.687	683.52
613.136	685.73
613.586	700.92
614.035	698.52
614.484	715.12
614.933	712.12
615.383	710.82
615.832	701.83
616.281	681.42
616.73	646.73
617.179	629.22
617.628	615.22
618.077	598.52
618.526	581.32
618.975	587.12
619.424	578.02
619.873	570.62
620.322	579.42
620.771	567.02
621.22	565.72
621.669	556.02
622.118	552.12
622.567	544.02
623.015	530.42
623.464	538.42
623.913	533.32
624.361	517.52
624.81	519.22
625.259	521.62
625.707	522.12
626.156	511.52
626.604	530.72
627.053	525.22
627.501	525.82
627.95	529.62
628.398	542.52
628.847	530.12
629.295	528.02
629.744	537.72
630.192	537.32
630.64	534.92
631.089	524.02
631.537	531.02
631.985	544.73
632.433	554.92
632.881	572.22
633.33	613.72
633.778	595.62
634.226	537.42
634.674	528.62
635.122	528.52
635.57	554.42
636.018	578.22
636.466	536.12
636.914	509.02
637.362	538.83
637.81	532.62
638.258	542.83
638.705	544.92
639.153	565.52
639.601	577.82
640.049	589.52
640.497	616.42
640.944	636.52
641.392	599.72
641.84	567.92
642.287	541.02
642.735	530.32
643.182	540.72
643.63	533.12
644.078	536.33
644.525	552.42
644.973	558.52
645.42	562.02
645.867	569.02
646.315	585.52
646.762	618.22
647.21	639.02
647.657	658.22
648.104	694.82
648.551	713.02
648.999	770.02
649.446	850.82
649.893	942.22
650.34	1072.02
650.787	1276.12
651.234	1583.32
651.682	2074.22
652.129	2839.42
652.576	4079.52
653.023	6046.72
653.47	8312.73
653.917	10499.42
654.363	12229.03
654.81	13649.33
655.257	12957.23
655.704	8457.32
656.151	4978.32
656.598	3198.72
657.044	2275.02
657.491	1742.72
657.938	1390.72
658.385	1160.22
658.831	1006.02
659.278	899.02
659.724	802.52
660.171	732.32
660.618	672.32
661.064	643.22
661.511	619.82
661.957	609.12
662.404	595.42
662.85	607.02
663.296	572.22
663.743	524.42
664.189	504.92
664.635	488.52
665.082	492.12
665.528	489.32
665.974	473.42
666.42	474.32
666.867	475.42
667.313	453.52
667.759	445.52
668.205	436.82
668.651	446.22
669.097	448.82
669.543	472.92
669.989	432.92
670.435	414.52
670.881	413.42
671.327	412.72
671.773	430.42
672.219	448.62
672.665	497.72
673.11	527.22
673.556	565.32
674.002	608.92
674.448	603.82
674.893	499.52
675.339	439.92
675.785	397.12
676.23	387.22
676.676	356.73
677.122	350.22
677.567	339.12
678.013	335.02
678.458	331.42
678.904	331.62
679.349	315.12
679.794	319.62
680.24	323.72
680.685	314.42
681.131	313.82
681.576	317.82
682.021	318.32
682.466	317.42
682.912	314.22
683.357	314.73
683.802	340.22
684.247	379.82
684.692	407.32
685.137	446.42
685.583	493.22
686.028	514.82
686.473	472.52
686.918	404.92
687.363	386.42
687.807	355.92
688.252	325.92
688.697	318.42
689.142	300.12
689.587	307.02
690.032	294.42
690.477	313.02
690.921	321.02
691.366	347.62
691.811	361.72
692.255	401.23
692.7	422.42
693.145	449.12
693.589	617.72
694.034	1006.12
694.478	1400.83
694.923	1591.62
695.367	2088.82
695.812	1106.12
696.256	457.62
696.701	348.52
697.145	312.73
697.59	299.92
698.034	292.02
698.478	297.33
698.922	302.42
699.367	300.73
699.811	311.52
700.255	315.33
700.699	352.62
701.143	390.22
701.588	438.22
702.032	472.73
702.476	470.12
702.92	446.62
703.364	446.02
703.808	565.92
704.252	914.72
704.696	1306.23
705.14	1534.32
705.584	1973.03
706.027	970.12
706.471	467.42
706.915	358.42
707.359	317.72
707.803	292.72
708.246	277.22
708.69	281.72
709.134	283.52
709.577	281.62
710.021	292.02
710.465	277.22
710.908	278.52
711.352	272.12
711.795	282.42
712.239	317.42
712.682	341.22
713.126	381.82
713.569	429.52
714.012	330.23
714.456	294.02
714.899	276.32
715.342	251.02
715.786	232.12
716.229	235.22
716.672	229.52
717.115	229.12
717.558	218.83
718.002	223.42
718.445	241.52
718.888	256.92
719.331	264.33
719.774	278.02
720.217	273.42
720.66	255.82
721.103	245.02
721.546	233.42
721.989	219.32
722.432	214.12
722.874	217.32
723.317	210.73
723.76	213.42
724.203	232.42
724.645	285.23
725.088	405.92
725.531	517.52
725.974	602.42
726.416	502.22
726.859	272.12
727.301	216.73
727.744	218.52
728.187	204.02
728.629	220.32
729.071	225.62
729.514	235.72
729.956	250.62
730.399	251.62
730.841	261.72
731.283	248.62
731.726	243.72
732.168	235.82
732.61	242.82
733.053	258.92
733.495	287.02
733.937	314.72
734.379	362.42
734.821	394.32
735.263	486.82
735.705	733.72
736.148	1394.32
736.59	2310.32
737.032	2811.02
737.474	2283.22
737.916	726.42
738.357	384.72
738.799	297.22
739.241	262.62
739.683	255.02
740.125	262.02
740.567	269.72
741.008	290.72
741.45	281.23
741.892	280.32
742.334	317.52
742.775	326.52
743.217	312.32
743.658	243.22
744.1	234.92
744.542	231.32
744.983	278.02
745.425	320.32
745.866	314.92
746.307	259.73
746.749	253.02
747.19	297.52
747.632	402.92
748.073	768.02
748.514	1649.52
748.956	2566.72
749.397	3220.82
749.838	2674.23
750.279	2722.72
750.72	1368.33
751.162	499.02
751.603	293.72
752.044	229.92
752.485	191.73
752.926	190.52
753.367	178.42
753.808	172.12
754.249	174.32
754.69	168.92
755.131	164.12
755.572	163.52
756.013	163.42
756.453	169.82
756.894	164.02
757.335	172.12
757.776	178.02
758.216	182.02
758.657	184.52
759.098	176.02
759.538	204.32
759.979	245.32
760.42	326.32
760.86	617.92
761.301	1578.32
761.741	3935.62
762.182	5935.52
762.622	4159.43
763.063	1189.12
763.503	491.02
763.943	308.52
764.384	300.32
764.824	366.42
765.264	403.52
765.705	272.92
766.145	193.22
766.585	169.42
767.025	160.72
767.465	168.72
767.906	214.92
768.346	293.12
768.786	311.62
769.226	231.23
769.666	284.72
770.106	542.72
770.546	1354.82
770.986	2409.73
771.426	2183.02
771.866	726.02
772.306	292.02
772.745	188.02
773.185	158.52
773.625	162.02
774.065	152.72
774.505	180.32
774.944	273.62
775.384	613.02
775.824	1136.52
776.263	1118.32
776.703	467.22
777.142	204.52
777.582	141.62
778.021	129.12
778.461	125.02
778.9	129.52
779.34	125.22
779.779	101.02
780.219	105.02
780.658	101.22
781.097	101.92
781.537	104.62
781.976	98.82
782.415	94.12
782.855	90.42
783.294	93.22
783.733	101.52
784.172	98.72
784.611	92.72
785.05	94.72
785.489	98.72
785.928	104.62
786.367	109.22
786.806	107.62
787.245	120.72
787.684	125.92
788.123	129.42
788.562	122.22
789.001	113.22
789.44	110.72
789.879	103.52
790.317	101.62
790.756	119.62
791.195	116.92
791.634	140.02
792.072	184.82
792.511	329.52
792.95	881.32
793.388	1930.02
793.827	1794.53
794.265	615.42
794.704	251.02
795.142	165.52
795.581	140.92
796.019	129.82
796.458	120.92
796.896	109.42
797.334	121.12
797.773	139.02
798.211	199.62
798.649	382.12
799.087	905.92
799.526	1431.32
799.964	1786.32
800.402	1863.62
800.84	689.12
801.278	276.42
801.716	163.32
802.154	134.72
802.592	133.62
803.03	120.42
803.468	116.32
803.906	129.82
804.344	134.32
804.782	125.62
805.22	117.72
805.658	117.92
806.096	131.62
806.533	135.42
806.971	155.32
807.409	201.02
807.847	277.82
808.284	576.52
808.722	1642.12
809.16	2979.03
809.597	2787.52
810.035	4881.93
810.472	5372.32
810.91	1916.93
811.347	718.33
811.785	367.42
812.222	227.72
812.66	175.12
813.097	154.02
813.535	129.12
813.972	123.42
814.409	113.92
814.846	109.12
815.284	100.52
815.721	84.12
816.158	93.12
816.595	106.12
817.032	152.32
817.47	177.92
817.907	154.62
818.344	132.62
818.781	104.32
819.218	91.12
819.655	105.92
820.092	169.72
820.529	195.62
820.966	166.42
821.403	121.92
821.839	102.22
822.276	90.82
822.713	104.82
823.15	120.52
823.587	105.72
824.023	132.22
824.46	259.22
824.897	791.52
825.333	1230.72
825.77	532.12
826.206	207.82
826.643	119.82
827.08	91.82
827.516	65.02
827.953	69.12
828.389	66.82
828.825	63.92
829.262	55.62
829.698	57.62
830.135	52.02
830.571	59.02
831.007	58.72
831.443	55.92
831.88	56.72
832.316	54.72
832.752	58.62
833.188	60.42
833.624	61.42
834.06	61.82
834.497	57.52
834.933	65.02
835.369	71.72
835.805	62.92
836.241	70.02
836.677	72.12
837.112	79.72
837.548	98.62
837.984	118.82
838.42	176.42
838.856	426.72
839.292	1341.12
839.727	2099.52
840.163	981.12
840.599	810.02
841.034	1824.03
841.47	1956.32
841.906	719.92
842.341	306.12
842.777	208.22
843.212	289.12
843.648	292.22
844.083	137.82
844.519	89.22
844.954	65.22
845.39	58.52
845.825	55.12
846.261	50.12
846.696	47.42
847.131	45.32
847.566	54.02
848.002	44.62
848.437	45.32
848.872	59.52
849.307	58.22
849.742	73.62
850.177	160.12
850.613	492.12
851.048	812.32
851.483	356.02
851.918	139.72
852.353	80.62
852.788	54.62
853.223	52.12
853.657	51.92
854.092	45.12
854.527	36.92
854.962	34.42
855.397	39.62
855.832	44.52
856.266	33.32
856.701	33.32
857.136	32.32
857.57	41.12
858.005	48.12
858.44	50.92
858.874	36.32
859.309	52.52
859.743	30.62
860.178	38.22
860.612	40.52
861.047	49.42
861.481	57.42
861.915	66.12
862.35	44.22
862.784	29.72
863.218	36.42
863.653	30.62
864.087	44.32
864.521	47.72
864.955	61.72
865.39	139.52
865.824	159.82
866.258	101.32
866.692	149.82
867.126	163.52
867.56	99.12
867.994	47.32
868.428	30.32
868.862	40.22
869.296	47.82
869.73	44.42
870.164	46.92
870.598	44.82
871.031	38.32
871.465	28.52
871.899	25.92
872.333	17.02
872.766	23.32
873.2	23.52
873.634	29.02
874.067	19.42
874.501	31.32
874.935	28.62
875.368	26.92
875.802	27.12
876.235	20.12
876.669	19.62
877.102	21.22
877.535	21.02
877.969	18.52
878.402	21.12
878.836	13.42
879.269	20.32
879.702	24.72
880.135	15.82
880.569	19.52
881.002	26.32
881.435	21.52
881.868	10.72
882.301	16.02
882.734	17.92
883.167	22.62
883.601	13.92
884.034	21.12
884.467	19.02
884.899	17.42
885.332	14.12
885.765	13.82
886.198	12.42
886.631	11.82
887.064	19.32
887.497	20.22
887.929	23.72
888.362	12.62
888.795	12.72
889.228	14.62
889.66	17.52
890.093	13.32
890.526	11.42
890.958	11.62
891.391	9.02
891.823	23.42
892.256	16.22
892.688	9.42
893.121	16.72
893.553	11.32
893.985	18.82
894.418	19.12
894.85	12.62
895.282	12.02
895.715	15.52
896.147	15.82
896.579	17.02
897.011	13.82
897.444	13.42
897.876	12.72
898.308	16.62
898.74	9.22
899.172	10.82
899.604	18.92
900.036	12.22
900.468	12.72
900.9	15.62
901.332	8.72
901.764	11.62
902.196	12.82
902.628	21.42
903.06	14.52
903.491	30.02
903.923	18.92
904.355	14.72
904.787	23.12
905.218	18.82
905.65	19.32
906.082	10.22
906.513	12.72
906.945	15.02
907.376	12.52
907.808	20.62
908.239	27.52
908.671	16.82
909.102	20.62
909.534	22.32
909.965	41.02
910.397	93.92
910.828	287.82
911.259	436.72
911.691	200.32
912.122	95.52
912.553	48.52
912.984	34.02
913.415	21.82
913.847	22.22
914.278	14.02
914.709	13.92
915.14	17.32
915.571	13.62
916.002	10.02
916.433	16.72
916.864	8.62
917.295	10.82
917.726	20.52
918.157	17.22
918.587	26.92
919.018	19.62
919.449	21.62
919.88	18.62
920.311	24.22
920.741	46.92
921.172	151.62
921.603	136.92
922.033	69.32
922.464	35.12
922.895	20.12
923.325	22.02
923.756	9.72
924.186	14.02
924.617	26.12
925.047	40.12
925.478	44.22
925.908	45.22
926.338	21.92
926.769	22.22
927.199	19.42
927.629	9.92
928.06	15.12
928.49	13.32
928.92	15.02
929.35	7.62
929.78	10.62
930.21	7.42
930.641	7.72
931.071	8.12
931.501	6.62
931.931	7.72
932.361	5.82
932.791	-1.68
933.221	3.72
933.651	9.82
934.08	8.72
934.51	26.72
934.94	8.22
935.37	9.62
935.8	12.02
936.229	9.02
936.659	11.52
937.089	1.12
937.519	9.12
937.948	21.22
938.378	20.32
938.807	2.92
939.237	2.82
939.666	6.32
940.096	-3.58
940.525	4.32
940.955	-0.88
941.384	6.62
941.814	-9.98
942.243	-2.98
942.672	2.12
943.102	0.72
943.531	2.32
943.96	-3.68
944.39	3.12
944.819	3.92
945.248	3.92
945.677	4.02
946.106	7.42
946.535	5.12
946.964	-2.08
947.393	-1.48
947.822	2.12
948.251	-5.48
948.68	2.32
949.109	7.12
949.538	7.72
949.967	5.52
950.396	4.02
950.825	-1.38
951.254	8.82
951.682	-3.48
952.111	0.52
952.54	5.52
952.969	-5.88
953.397	-6.58
953.826	0.92
954.254	-13.08
954.683	0.22
955.112	-2.38
955.54	-3.78
955.969	-3.08
956.397	0.42
956.826	-5.68
957.254	6.82
957.682	3.72
958.111	-0.58
958.539	0.22
958.967	3.92
959.396	1.32
959.824	1.52
960.252	2.32
960.68	-2.88
961.109	-3.58
961.537	-5.08
961.965	-4.18
962.393	2.32
962.821	-6.68
963.249	2.32
963.677	3.62
964.105	5.92
964.533	37.72
964.961	39.12
965.389	17.82
965.817	13.92
966.245	7.12
966.672	-4.28
967.1	-7.28
967.528	-5.58
967.956	-1.08
968.383	1.12
968.811	-2.88
969.239	-0.88
969.666	-10.88
970.094	-1.38
970.522	1.62
970.949	-0.08
971.377	-8.48
971.804	1.12
972.232	2.62
972.659	-5.48
973.087	-5.98
973.514	-6.38
973.941	-4.88
974.369	0.92
974.796	-0.98
975.223	-1.38
975.651	-2.18
976.078	-3.68
976.505	-0.58
976.932	1.52
977.359	14.42
977.786	20.52
978.214	-0.98
978.641	-5.08
979.068	-6.08
979.495	-2.88
979.922	-0.68
980.349	-0.18
980.776	2.62
981.202	-2.38
981.629	7.82
982.056	-2.58
982.483	-3.88
982.91	1.82
983.337	-3.98
983.763	-0.68
984.19	-6.78
984.617	-8.18
985.043	-9.38
985.47	4.12
985.897	-3.48
986.323	-12.68
986.75	0.62
987.176	0.72
987.603	-1.08
988.029	3.02
988.456	-4.28
988.882	2.02
989.308	-2.98
989.735	-3.38
990.161	-2.28
990.587	-5.18
991.014	5.62
991.44	6.82
991.866	-3.68
992.292	-3.88
992.719	1.82
993.145	0.82
993.571	-12.88
993.997	-6.58
994.423	0.42
994.849	-3.48
995.275	4.32
995.701	-3.08
996.127	-4.38
996.553	0.92
996.979	-0.48
997.405	-0.28
997.83	-7.08
998.256	-5.58
998.682	-6.78
999.108	-10.08
999.534	-5.08
999.959	2.42
1000.385	-3.78
1000.811	2.32
1001.236	-5.58
1001.662	-8.48
1002.087	-10.88
1002.513	-1.88
1002.938	3.12
1003.364	-5.08
1003.789	-1.88
1004.215	4.62
1004.64	-3.18
1005.066	0.12
1005.491	-3.08
1005.916	1.12
1006.342	-0.18
1006.767	-12.28
1007.192	3.72
1007.617	-6.88
1008.042	-4.98
1008.468	-7.78
1008.893	-2.78
1009.318	-4.48
1009.743	-8.08
1010.168	1.02
1010.593	4.82
1011.018	-12.28
1011.443	-3.28
1011.868	0.22
1012.293	-2.68
1012.718	-2.28
1013.143	-0.78
1013.567	7.02
1013.992	1.62
1014.417	-12.98
1014.842	1.42
1015.267	-0.88
1015.691	-6.18
1016.116	0.52
1016.541	0.72
1016.965	5.22
1017.39	2.82
1017.814	-4.28
1018.239	1.52
1018.663	-3.58
1019.088	-8.08
1019.512	-3.48
1019.937	-0.98
1020.361	-6.28
1020.785	-6.18
1021.21	-0.58
1021.634	-2.28
1022.058	-2.08
1022.483	2.22
1022.907	-9.18
1023.331	-3.08
1023.755	-2.78
1024.179	-4.38
1024.604	-5.68
1025.028	-7.28
1025.452	-4.18
1025.876	0.52
1026.3	-2.78
1026.724	-1.88
1027.148	-0.58
1027.572	-4.18
1027.996	-10.18
1028.42	-7.58
1028.843	-4.28
1029.267	-8.08
1029.691	-3.18
1030.115	-5.18
1030.539	-7.48
1030.962	-6.28
1031.386	-5.58
1031.81	-4.18
1032.233	-2.18
1032.657	-2.38
1033.08	-7.08
1033.504	-3.68
1033.927	-2.28
1034.351	-3.08
1034.774	-4.68
1035.198	-2.28
1035.621	-3.28
1036.045	-10.58
1036.468	-2.98
1036.891	-10.28
1037.315	-11.08
1037.738	-9.48
1038.161	2.52
1038.584	-3.28
1039.008	-1.58
1039.431	-6.48
1039.854	-0.48
1040.277	-6.28
1040.7	-11.38
1041.123	0.12
1041.546	-4.18
1041.969	-4.38
1042.392	-5.78
1042.815	-3.38
1043.238	0.12
1043.661	0.92
1044.084	-5.58
1044.507	-4.38
1044.93	-14.88
1045.352	-6.08
1045.775	1.02
1046.198	-5.08
1046.621	1.92
1047.043	-1.18
1047.466	10.32
1047.889	-5.58
1048.311	-3.48
1048.734	-7.88
1049.156	-6.58
1049.579	-2.68
1050.001	-2.78
1050.424	3.32
1050.846	-3.98
1051.269	-6.88
1051.691	-9.08
1052.113	-3.18
1052.536	-4.98
1052.958	-4.88
1053.38	-7.58
1053.802	-5.58
1054.225	0.62
1054.647	-9.68
1055.069	-9.18
1055.491	0.82
1055.913	-3.88
1056.335	1.62
1056.757	-7.78
1057.179	-5.08
1057.601	-5.18
1058.023	-6.18
1058.445	-6.48
1058.867	-4.28
1059.289	-7.18
1059.711	-8.78
1060.133	-7.48
1060.555	-2.88
1060.976	-7.38
1061.398	-3.38
1061.82	-9.98
1062.241	-3.48
1062.663	-9.88
1063.085	5.12
1063.506	5.12
1063.928	-5.08
1064.35	-4.08
1064.771	-12.98
1065.193	-4.88
1065.614	-5.18
1066.035	-2.78
1066.457	-3.78
1066.878	5.12
1067.3	-1.88
1067.721	-10.38
1068.142	1.72
1068.564	-3.48
1068.985	-3.18
1069.406	-5.88
1069.827	-0.18
1070.248	1.62
1070.67	-0.78
1071.091	-5.98
1071.512	-7.08
1071.933	-8.48
1072.354	-7.28
1072.775	-7.18
1073.196	-12.88
1073.617	-8.78
1074.038	-4.38
1074.459	-2.48
1074.88	-7.88
1075.3	-1.08
1075.721	-2.78
1076.142	1.12
1076.563	-2.28
1076.983	-16.38
1077.404	-12.88
1077.825	-9.78
1078.246	-2.98
1078.666	-8.88
1079.087	-6.68
1079.507	-3.28
1079.928	0.92
1080.348	-3.38
1080.769	-7.88
1081.189	-2.38
1081.61	-1.48
1082.03	-8.48
1082.451	-8.78
1082.871	-4.08
1083.291	-6.88
1083.711	-8.58
1084.132	-8.88
1084.552	-0.18
1084.972	1.22
1085.392	-9.08
1085.813	-6.48
1086.233	-9.18
1086.653	-7.28
1087.073	-3.78
1087.493	-7.78
1087.913	-6.28
1088.333	-6.38
1088.753	-9.48
1089.173	1.52
1089.593	-3.18
1090.013	-3.38
1090.433	-1.48
1090.852	-5.38
1091.272	-0.68
1091.692	-5.08
1092.112	0.02
1092.531	-7.38
1092.951	-13.78
1093.371	1.32
1093.79	0.22
1094.21	-3.58
1094.63	-3.58
1095.049	-4.28
1095.469	-6.88
1095.888	-8.98
1096.308	3.32
1096.727	1.12
1097.146	-7.18
1097.566	-3.38
1097.985	-3.68
1098.405	-0.38
1098.824	-6.58
1099.243	-4.48
1099.662	-8.48
1100.082	-4.08
1100.501	-6.28
1100.92	-3.48
1101.339	-2.68
1101.758	-1.38
