Data from 20171114-ORNL-Ar_H_NY_Subt18_08-07-25-156.txt Node
Date: Tue Nov 14 08:07:25 EST 2017
User: Ender
Spectrometer: HR+D1039
Trigger mode: 0
Integration Time (sec): 2.730000E-2
Scans to average: 10
Electric dark correction enabled: true
Nonlinearity correction enabled: false
Boxcar width: 0
XAxis mode: Wavelengths
Number of Pixels in Spectrum: 2048
>>>>>Begin Spectral Data<<<<<
187.836	-1.72
188.309	-1.72
188.782	-1.72
189.255	1.98
189.728	-2.42
190.201	5.68
190.674	-2.62
191.147	4.18
191.619	-1.72
192.092	1.38
192.565	2.08
193.038	-0.72
193.511	1.58
193.984	-1.32
194.456	-5.72
194.929	2.18
195.402	-2.42
195.874	-0.42
196.347	-1.32
196.82	-4.92
197.292	9.28
197.765	-2.32
198.237	-5.42
198.71	3.08
199.182	-0.12
199.655	-0.42
200.127	3.98
200.6	-1.92
201.072	-3.02
201.544	-1.42
202.017	-0.62
202.489	6.68
202.961	-5.52
203.433	-3.52
203.906	-5.32
204.378	-4.72
204.85	-4.52
205.322	-6.82
205.794	-1.22
206.266	0.98
206.739	-9.12
207.211	4.78
207.683	-6.92
208.155	-3.12
208.627	-7.02
209.099	-1.12
209.57	-5.42
210.042	-2.32
210.514	-7.52
210.986	-1.12
211.458	-7.42
211.93	-2.12
212.402	2.38
212.873	-4.52
213.345	-1.42
213.817	-7.62
214.288	-5.92
214.76	-13.82
215.232	0.08
215.703	-2.92
216.175	-2.42
216.646	-10.62
217.118	-7.82
217.589	-5.52
218.061	-2.22
218.532	-7.52
219.004	-1.62
219.475	-3.82
219.946	-0.52
220.418	-4.72
220.889	2.08
221.36	1.68
221.832	-5.82
222.303	-6.32
222.774	2.68
223.245	-10.42
223.717	-7.52
224.188	-1.82
224.659	-10.72
225.13	-12.12
225.601	-0.32
226.072	-8.92
226.543	-0.52
227.014	3.08
227.485	-5.32
227.956	-9.22
228.427	1.88
228.898	2.88
229.369	8.08
229.839	-6.12
230.31	-7.12
230.781	2.38
231.252	-1.22
231.722	-6.72
232.193	-9.52
232.664	-3.02
233.135	-0.82
233.605	-1.32
234.076	-5.82
234.546	3.08
235.017	4.08
235.487	1.38
235.958	3.48
236.428	-3.52
236.899	-0.72
237.369	1.78
237.84	-4.02
238.31	8.08
238.78	-3.92
239.251	-5.62
239.721	-0.32
240.191	-1.32
240.662	-2.72
241.132	-2.62
241.602	-5.32
242.072	-1.22
242.542	0.88
243.013	-5.92
243.483	5.38
243.953	3.88
244.423	-0.82
244.893	1.68
245.363	6.18
245.833	2.68
246.303	-3.42
246.773	1.18
247.243	2.58
247.712	0.08
248.182	3.68
248.652	4.48
249.122	-5.02
249.592	7.98
250.061	19.18
250.531	23.48
251.001	6.28
251.471	11.68
251.94	12.98
252.41	5.98
252.879	-1.72
253.349	8.98
253.818	5.58
254.288	0.38
254.757	1.78
255.227	-2.02
255.696	-3.42
256.166	9.18
256.635	5.68
257.105	6.38
257.574	0.68
258.043	3.78
258.513	6.18
258.982	6.08
259.451	3.98
259.92	9.08
260.389	4.38
260.859	11.98
261.328	3.78
261.797	15.78
262.266	3.78
262.735	0.38
263.204	3.28
263.673	-4.22
264.142	0.28
264.611	-6.72
265.08	-4.32
265.549	-1.32
266.018	3.88
266.487	-6.32
266.955	-4.62
267.424	-5.32
267.893	5.38
268.362	-0.92
268.83	0.48
269.299	6.28
269.768	0.88
270.236	5.98
270.705	-0.72
271.174	4.78
271.642	6.08
272.111	8.08
272.579	4.08
273.048	8.58
273.516	16.88
273.985	18.68
274.453	15.88
274.922	16.18
275.39	10.18
275.858	-3.32
276.327	9.58
276.795	7.18
277.263	3.98
277.731	17.48
278.2	33.78
278.668	34.48
279.136	29.28
279.604	4.58
280.072	4.98
280.54	1.48
281.008	10.28
281.477	13.58
281.945	5.98
282.413	5.98
282.881	7.48
283.348	4.08
283.816	9.28
284.284	9.58
284.752	17.38
285.22	10.08
285.688	10.38
286.156	14.18
286.623	33.28
287.091	36.18
287.559	18.28
288.026	17.18
288.494	13.18
288.962	-2.42
289.429	3.68
289.897	7.28
290.364	11.78
290.832	13.68
291.3	7.28
291.767	17.58
292.234	15.78
292.702	14.28
293.169	13.98
293.637	20.68
294.104	9.28
294.571	4.88
295.039	9.08
295.506	7.08
295.973	14.48
296.44	10.38
296.908	15.48
297.375	8.88
297.842	12.98
298.309	9.68
298.776	4.88
299.243	13.18
299.71	8.08
300.177	13.08
300.644	12.28
301.111	10.08
301.578	14.78
302.045	8.48
302.512	13.88
302.979	18.58
303.446	15.68
303.913	10.78
304.379	9.98
304.846	19.68
305.313	19.38
305.78	7.98
306.246	21.08
306.713	18.88
307.18	16.38
307.646	20.18
308.113	18.68
308.579	21.88
309.046	16.68
309.512	24.38
309.979	8.98
310.445	20.68
310.912	22.58
311.378	21.88
311.845	20.28
312.311	23.18
312.777	19.78
313.244	20.08
313.71	26.58
314.176	20.58
314.642	25.68
315.109	20.58
315.575	23.08
316.041	30.88
316.507	21.88
316.973	27.68
317.439	21.28
317.905	28.68
318.371	28.78
318.837	24.08
319.303	22.88
319.769	23.78
320.235	27.48
320.701	22.38
321.167	27.38
321.633	21.88
322.099	30.28
322.564	33.18
323.03	27.58
323.496	29.58
323.962	30.68
324.427	30.48
324.893	27.98
325.359	24.38
325.824	29.98
326.29	26.98
326.755	33.88
327.221	30.68
327.686	35.68
328.152	29.18
328.617	29.68
329.083	36.98
329.548	37.68
330.014	34.38
330.479	32.88
330.944	28.08
331.41	29.18
331.875	39.58
332.34	29.28
332.805	33.08
333.271	30.78
333.736	33.28
334.201	43.68
334.666	39.38
335.131	45.08
335.596	42.48
336.061	36.48
336.526	27.48
336.991	32.88
337.456	41.18
337.921	38.98
338.386	38.38
338.851	38.18
339.316	38.98
339.781	36.08
340.246	39.88
340.711	37.28
341.175	41.08
341.64	37.48
342.105	36.98
342.569	47.88
343.034	51.18
343.499	43.38
343.963	42.48
344.428	45.48
344.893	47.98
345.357	50.88
345.822	51.58
346.286	52.48
346.751	55.88
347.215	53.88
347.679	51.58
348.144	78.78
348.608	66.98
349.073	52.48
349.537	59.98
350.001	55.98
350.465	71.58
350.93	60.38
351.394	67.18
351.858	56.18
352.322	67.08
352.786	61.98
353.25	70.58
353.715	81.68
354.179	74.68
354.643	95.18
355.107	98.78
355.571	84.28
356.035	86.48
356.498	89.28
356.962	90.18
357.426	99.78
357.89	90.48
358.354	66.78
358.818	67.48
359.281	62.58
359.745	59.08
360.209	58.78
360.673	64.58
361.136	66.08
361.6	68.88
362.064	62.78
362.527	66.48
362.991	71.68
363.454	65.18
363.918	62.28
364.381	64.58
364.845	66.08
365.308	69.78
365.772	73.28
366.235	72.68
366.698	68.18
367.162	75.28
367.625	73.48
368.088	68.98
368.552	70.48
369.015	72.08
369.478	79.98
369.941	81.68
370.404	81.38
370.867	84.28
371.331	81.78
371.794	95.78
372.257	88.78
372.72	95.28
373.183	97.98
373.646	86.08
374.109	85.78
374.572	83.58
375.035	90.08
375.497	93.58
375.96	90.28
376.423	87.58
376.886	97.08
377.349	91.88
377.811	88.08
378.274	96.48
378.737	93.38
379.199	96.78
379.662	91.58
380.125	99.98
380.587	96.88
381.05	104.48
381.512	111.08
381.975	112.98
382.437	109.98
382.9	106.18
383.362	114.58
383.825	124.68
384.287	127.28
384.75	116.98
385.212	120.58
385.674	112.98
386.136	118.68
386.599	110.38
387.061	115.28
387.523	116.68
387.985	119.18
388.447	130.98
388.91	123.08
389.372	133.98
389.834	130.98
390.296	121.88
390.758	135.68
391.22	143.78
391.682	182.38
392.144	259.08
392.606	196.88
393.068	144.88
393.529	144.88
393.991	138.78
394.453	128.28
394.915	138.08
395.377	165.78
395.838	183.98
396.3	139.38
396.762	125.78
397.224	117.18
397.685	119.98
398.147	115.38
398.608	109.88
399.07	114.58
399.531	123.38
399.993	127.28
400.454	134.18
400.916	129.18
401.377	131.08
401.839	138.78
402.3	134.08
402.762	146.78
403.223	161.68
403.684	156.78
404.145	140.08
404.607	137.28
405.068	143.28
405.529	146.48
405.99	168.48
406.451	155.88
406.913	155.68
407.374	143.38
407.835	149.98
408.296	154.18
408.757	156.38
409.218	166.98
409.679	154.08
410.14	156.48
410.601	161.68
411.062	166.08
411.522	171.08
411.983	179.08
412.444	164.38
412.905	161.18
413.366	163.68
413.826	179.88
414.287	189.78
414.748	240.98
415.208	224.78
415.669	197.48
416.13	190.18
416.59	190.08
417.051	198.58
417.511	203.98
417.972	218.78
418.432	233.88
418.893	270.28
419.353	232.38
419.814	183.18
420.274	162.78
420.734	165.38
421.195	182.28
421.655	176.88
422.115	170.58
422.576	181.18
423.036	178.68
423.496	191.98
423.956	192.48
424.416	211.28
424.876	242.48
425.336	234.08
425.797	244.68
426.257	234.68
426.717	221.98
427.177	220.58
427.637	203.28
428.097	215.78
428.556	233.68
429.016	250.88
429.476	249.58
429.936	257.18
430.396	254.38
430.856	269.78
431.315	288.98
431.775	328.98
432.235	353.08
432.694	328.08
433.154	330.58
433.614	366.18
434.073	311.28
434.533	266.18
434.993	246.68
435.452	256.18
435.912	268.98
436.371	260.48
436.83	262.58
437.29	247.98
437.749	232.08
438.209	228.58
438.668	244.58
439.127	268.58
439.587	246.88
440.046	236.68
440.505	249.08
440.964	252.38
441.424	297.18
441.883	280.18
442.342	238.98
442.801	211.18
443.26	208.08
443.719	204.48
444.178	206.68
444.637	195.28
445.096	207.18
445.555	213.18
446.014	210.88
446.473	205.98
446.932	220.78
447.391	215.08
447.849	212.68
448.308	203.48
448.767	210.88
449.226	225.88
449.685	218.98
450.143	236.68
450.602	222.18
451.061	218.08
451.519	218.18
451.978	218.08
452.436	222.18
452.895	220.58
453.353	227.58
453.812	226.08
454.27	221.88
454.729	224.88
455.187	221.08
455.646	230.18
456.104	233.38
456.562	241.38
457.021	253.28
457.479	239.68
457.937	256.48
458.395	244.28
458.854	233.98
459.312	238.08
459.77	253.78
460.228	240.88
460.686	225.98
461.144	237.98
461.602	235.38
462.06	230.98
462.518	247.28
462.976	237.48
463.434	245.78
463.892	248.48
464.35	256.88
464.808	268.88
465.266	254.78
465.724	252.38
466.181	260.08
466.639	251.18
467.097	266.48
467.555	289.08
468.012	292.58
468.47	290.08
468.928	304.28
469.385	324.18
469.843	323.28
470.3	330.38
470.758	335.88
471.215	356.58
471.673	389.08
472.13	380.38
472.588	384.98
473.045	359.38
473.503	354.78
473.96	381.68
474.417	394.38
474.875	411.48
475.332	453.68
475.789	439.78
476.246	444.28
476.704	464.58
477.161	478.58
477.618	503.98
478.075	530.88
478.532	573.78
478.989	642.28
479.446	749.68
479.903	737.28
480.36	768.28
480.817	817.98
481.274	913.28
481.731	1012.38
482.188	1104.08
482.645	1226.68
483.102	1327.18
483.558	1454.38
484.015	1502.48
484.472	1485.68
484.929	1440.28
485.385	1396.28
485.842	1337.38
486.299	1287.88
486.755	1219.08
487.212	1025.38
487.668	874.08
488.125	798.18
488.582	746.88
489.038	719.38
489.494	687.88
489.951	646.38
490.407	626.08
490.864	610.68
491.32	611.98
491.776	607.28
492.233	618.38
492.689	582.58
493.145	570.38
493.602	566.28
494.058	586.28
494.514	579.38
494.97	600.48
495.426	609.28
495.882	594.88
496.338	582.88
496.794	604.18
497.251	591.78
497.707	604.18
498.163	608.38
498.618	606.98
499.074	608.08
499.53	642.48
499.986	638.48
500.442	626.38
500.898	595.88
501.354	598.58
501.809	601.78
502.265	608.88
502.721	625.68
503.177	633.38
503.632	622.98
504.088	635.08
504.543	676.18
504.999	674.78
505.455	624.38
505.91	599.18
506.366	599.08
506.821	594.88
507.277	598.28
507.732	596.18
508.187	592.98
508.643	597.58
509.098	603.68
509.553	624.38
510.009	627.58
510.464	636.48
510.919	657.38
511.375	663.08
511.83	682.18
512.285	688.28
512.74	734.58
513.195	745.78
513.65	740.88
514.105	738.58
514.56	739.98
515.015	754.78
515.47	775.48
515.925	753.38
516.38	751.98
516.835	760.18
517.29	749.58
517.745	755.38
518.2	743.28
518.655	723.98
519.109	708.68
519.564	703.98
520.019	707.98
520.474	701.38
520.928	698.38
521.383	694.18
521.838	683.58
522.292	682.78
522.747	683.98
523.201	684.88
523.656	664.68
524.11	677.38
524.565	674.18
525.019	665.58
525.474	678.28
525.928	670.78
526.382	668.18
526.837	672.48
527.291	664.48
527.745	667.58
528.2	662.48
528.654	664.58
529.108	662.48
529.562	668.08
530.016	660.08
530.47	663.78
530.925	665.78
531.379	665.68
531.833	679.38
532.287	668.78
532.741	671.88
533.195	674.68
533.649	693.08
534.103	689.08
534.556	683.78
535.01	695.08
535.464	682.98
535.918	688.48
536.372	698.48
536.826	689.98
537.279	672.68
537.733	682.38
538.187	687.08
538.64	693.48
539.094	694.38
539.548	704.18
540.001	695.88
540.455	702.68
540.908	707.38
541.362	709.78
541.815	723.98
542.269	736.78
542.722	742.38
543.175	739.48
543.629	741.48
544.082	753.18
544.536	758.68
544.989	752.58
545.442	768.58
545.895	764.18
546.349	761.68
546.802	757.48
547.255	769.98
547.708	778.58
548.161	782.08
548.614	785.38
549.067	793.58
549.52	789.28
549.973	778.48
550.426	767.98
550.879	754.38
551.332	765.28
551.785	777.78
552.238	775.58
552.691	788.18
553.144	802.48
553.596	814.28
554.049	833.28
554.502	857.98
554.955	875.88
555.407	877.78
555.86	875.48
556.313	860.58
556.765	848.18
557.218	850.58
557.67	850.88
558.123	846.78
558.576	846.58
559.028	849.68
559.48	845.28
559.933	837.28
560.385	799.58
560.838	778.18
561.29	750.88
561.742	755.58
562.195	748.18
562.647	740.28
563.099	748.88
563.551	754.28
564.004	760.88
564.456	747.98
564.908	730.48
565.36	728.78
565.812	719.78
566.264	703.18
566.716	697.48
567.168	686.28
567.62	697.48
568.072	676.58
568.524	675.18
568.976	665.98
569.428	648.48
569.88	653.48
570.332	655.08
570.784	657.78
571.235	669.18
571.687	676.68
572.139	684.48
572.59	688.88
573.042	686.38
573.494	687.28
573.945	685.18
574.397	662.78
574.849	664.58
575.3	667.88
575.752	662.08
576.203	652.38
576.655	662.78
577.106	646.58
577.557	642.98
578.009	643.18
578.46	644.08
578.912	640.38
579.363	646.88
579.814	641.58
580.265	634.58
580.717	648.18
581.168	647.98
581.619	656.38
582.07	656.78
582.521	652.58
582.972	650.38
583.423	661.78
583.875	658.38
584.326	675.08
584.777	715.38
585.227	794.18
585.678	867.48
586.129	945.98
586.58	1008.88
587.031	1081.48
587.482	1219.58
587.933	1380.88
588.384	1203.58
588.834	923.18
589.285	775.38
589.736	752.98
590.186	750.48
590.637	739.58
591.088	715.68
591.538	710.38
591.989	717.38
592.439	703.88
592.89	693.98
593.34	683.08
593.791	690.18
594.241	683.98
594.692	686.48
595.142	678.98
595.593	682.88
596.043	688.18
596.493	684.08
596.943	689.08
597.394	698.88
597.844	681.78
598.294	696.88
598.744	726.28
599.195	749.78
599.645	795.88
600.095	830.68
600.545	892.18
600.995	944.48
601.445	990.48
601.895	1061.38
602.345	1097.58
602.795	1090.28
603.245	1032.58
603.695	980.38
604.145	931.98
604.594	875.58
605.044	829.18
605.494	771.18
605.944	729.38
606.393	720.68
606.843	705.78
607.293	716.68
607.743	703.78
608.192	718.88
608.642	740.28
609.091	742.28
609.541	748.98
609.99	743.58
610.44	736.28
610.889	700.78
611.339	680.78
611.788	665.38
612.238	674.08
612.687	696.98
613.136	702.88
613.586	715.28
614.035	727.88
614.484	728.48
614.933	728.58
615.383	724.98
615.832	721.48
616.281	702.78
616.73	676.88
617.179	646.88
617.628	630.88
618.077	616.58
618.526	609.78
618.975	607.08
619.424	590.98
619.873	598.98
620.322	594.28
620.771	587.28
621.22	582.48
621.669	579.68
622.118	561.18
622.567	563.68
623.015	545.38
623.464	556.88
623.913	538.08
624.361	536.38
624.81	533.88
625.259	532.38
625.707	526.98
626.156	542.38
626.604	545.28
627.053	552.38
627.501	543.78
627.95	545.48
628.398	566.88
628.847	549.68
629.295	556.28
629.744	561.48
630.192	545.18
630.64	559.18
631.089	539.68
631.537	550.58
631.985	561.98
632.433	567.78
632.881	576.08
633.33	614.88
633.778	604.48
634.226	549.58
634.674	553.58
635.122	551.68
635.57	571.58
636.018	599.68
636.466	553.68
636.914	543.68
637.362	553.18
637.81	557.48
638.258	561.18
638.705	553.18
639.153	591.38
639.601	605.28
640.049	615.38
640.497	642.58
640.944	678.18
641.392	620.28
641.84	601.48
642.287	568.48
642.735	544.18
643.182	541.28
643.63	552.98
644.078	560.08
644.525	572.08
644.973	574.98
645.42	585.18
645.867	598.28
646.315	621.98
646.762	642.08
647.21	668.48
647.657	700.98
648.104	724.38
648.551	752.78
648.999	808.48
649.446	884.58
649.893	973.18
650.34	1122.98
650.787	1351.28
651.234	1675.18
651.682	2181.58
652.129	3009.98
652.576	4362.18
653.023	6383.58
653.47	8780.48
653.917	10918.88
654.363	12596.28
654.81	13921.18
655.257	13180.18
655.704	8619.78
656.151	5089.08
656.598	3292.78
657.044	2322.48
657.491	1792.28
657.938	1441.48
658.385	1216.78
658.831	1049.38
659.278	937.58
659.724	833.38
660.171	758.08
660.618	698.28
661.064	663.08
661.511	643.28
661.957	637.98
662.404	619.38
662.85	632.98
663.296	598.98
663.743	541.08
664.189	521.58
664.635	517.78
665.082	509.58
665.528	516.68
665.974	493.68
666.42	489.48
666.867	491.98
667.313	471.98
667.759	463.68
668.205	457.98
668.651	473.08
669.097	461.98
669.543	473.58
669.989	452.88
670.435	434.08
670.881	435.28
671.327	434.88
671.773	452.98
672.219	473.38
672.665	523.48
673.11	572.28
673.556	604.78
674.002	656.78
674.448	643.88
674.893	533.68
675.339	463.08
675.785	420.58
676.23	403.18
676.676	381.68
677.122	367.58
677.567	358.48
678.013	352.18
678.458	344.98
678.904	346.78
679.349	332.48
679.794	336.18
680.24	344.48
680.685	347.78
681.131	332.68
681.576	336.18
682.021	336.58
682.466	335.58
682.912	334.38
683.357	336.58
683.802	372.18
684.247	393.58
684.692	437.08
685.137	487.98
685.583	516.18
686.028	548.98
686.473	501.18
686.918	427.88
687.363	402.18
687.807	369.68
688.252	354.58
688.697	338.98
689.142	321.48
689.587	321.58
690.032	313.28
690.477	340.78
690.921	345.28
691.366	375.88
691.811	389.38
692.255	413.08
692.7	450.28
693.145	493.18
693.589	683.18
694.034	1106.88
694.478	1494.88
694.923	1696.88
695.367	2193.48
695.812	1157.78
696.256	484.38
696.701	361.58
697.145	334.68
697.59	324.78
698.034	313.48
698.478	314.38
698.922	320.38
699.367	316.58
699.811	337.18
700.255	347.08
700.699	368.28
701.143	412.68
701.588	468.18
702.032	504.68
702.476	499.08
702.92	476.18
703.364	476.28
703.808	625.48
704.252	1021.08
704.696	1437.38
705.14	1626.58
705.584	2069.08
706.027	1030.78
706.471	507.98
706.915	386.58
707.359	337.48
707.803	309.88
708.246	303.68
708.69	312.28
709.134	310.48
709.577	307.68
710.021	310.28
710.465	293.08
710.908	296.48
711.352	299.68
711.795	296.58
712.239	349.98
712.682	375.28
713.126	397.78
713.569	446.78
714.012	351.78
714.456	302.58
714.899	284.28
715.342	272.98
715.786	252.28
716.229	258.28
716.672	256.08
717.115	231.78
717.558	245.18
718.002	249.58
718.445	258.28
718.888	281.28
719.331	285.58
719.774	302.28
720.217	299.28
720.66	283.68
721.103	255.38
721.546	245.48
721.989	246.88
722.432	224.68
722.874	228.28
723.317	225.28
723.76	229.08
724.203	252.28
724.645	319.18
725.088	441.28
725.531	557.78
725.974	621.98
726.416	536.98
726.859	296.98
727.301	230.98
727.744	234.18
728.187	225.28
728.629	230.28
729.071	237.88
729.514	250.68
729.956	260.18
730.399	276.38
730.841	278.28
731.283	256.88
731.726	255.48
732.168	252.78
732.61	260.18
733.053	278.38
733.495	315.38
733.937	338.88
734.379	387.88
734.821	425.08
735.263	519.48
735.705	831.98
736.148	1561.38
736.59	2539.78
737.032	2968.18
737.474	2410.48
737.916	790.68
738.357	418.48
738.799	311.08
739.241	291.68
739.683	273.88
740.125	278.68
740.567	289.68
741.008	308.28
741.45	308.48
741.892	312.28
742.334	338.48
742.775	345.28
743.217	330.08
743.658	266.38
744.1	247.28
744.542	253.88
744.983	304.98
745.425	330.28
745.866	333.28
746.307	276.98
746.749	273.48
747.19	318.48
747.632	463.98
748.073	871.88
748.514	1832.38
748.956	2797.48
749.397	3504.18
749.838	2908.48
750.279	2885.88
750.72	1448.38
751.162	529.58
751.603	311.08
752.044	247.58
752.485	215.88
752.926	200.78
753.367	196.28
753.808	190.98
754.249	187.18
754.69	181.18
755.131	181.78
755.572	179.48
756.013	172.78
756.453	180.18
756.894	180.38
757.335	183.88
757.776	192.28
758.216	198.28
758.657	188.58
759.098	196.18
759.538	219.08
759.979	261.68
760.42	366.88
760.86	699.58
761.301	1821.88
761.741	4367.48
762.182	6280.98
762.622	4383.08
763.063	1275.78
763.503	529.68
763.943	331.38
764.384	320.38
764.824	376.18
765.264	397.18
765.705	278.98
766.145	195.58
766.585	180.28
767.025	177.08
767.465	186.88
767.906	233.08
768.346	289.28
768.786	304.38
769.226	249.28
769.666	311.68
770.106	628.98
770.546	1551.88
770.986	2588.38
771.426	2289.58
771.866	759.88
772.306	323.88
772.745	201.08
773.185	168.08
773.625	161.68
774.065	158.18
774.505	191.88
774.944	295.58
775.384	643.18
775.824	1127.78
776.263	1090.18
776.703	470.68
777.142	207.58
777.582	148.18
778.021	134.48
778.461	131.78
778.9	130.58
779.34	125.88
779.779	118.98
780.219	105.38
780.658	106.78
781.097	109.78
781.537	112.68
781.976	105.78
782.415	113.58
782.855	99.58
783.294	103.38
783.733	107.98
784.172	106.58
784.611	98.78
785.05	105.48
785.489	110.88
785.928	120.78
786.367	120.48
786.806	116.58
787.245	127.78
787.684	130.88
788.123	144.38
788.562	130.88
789.001	120.78
789.44	119.78
789.879	111.98
790.317	114.28
790.756	130.98
791.195	117.88
791.634	142.98
792.072	195.78
792.511	361.18
792.95	1015.68
793.388	2106.98
793.827	1871.58
794.265	655.38
794.704	274.68
795.142	180.18
795.581	145.28
796.019	136.68
796.458	126.38
796.896	122.68
797.334	126.58
797.773	152.08
798.211	215.18
798.649	443.08
799.087	996.08
799.526	1564.38
799.964	1983.58
800.402	1937.68
800.84	731.28
801.278	292.38
801.716	182.68
802.154	143.68
802.592	137.08
803.03	139.98
803.468	133.38
803.906	137.88
804.344	144.88
804.782	135.38
805.22	125.48
805.658	125.58
806.096	142.08
806.533	146.78
806.971	170.08
807.409	214.38
807.847	309.78
808.284	661.18
808.722	1859.98
809.16	3233.48
809.597	3089.58
810.035	5359.08
810.472	5597.78
810.91	2041.18
811.347	772.08
811.785	393.18
812.222	252.08
812.66	193.58
813.097	156.48
813.535	141.78
813.972	121.98
814.409	109.98
814.846	106.68
815.284	102.58
815.721	98.08
816.158	108.08
816.595	115.58
817.032	166.48
817.47	191.98
817.907	155.38
818.344	141.38
818.781	109.78
819.218	97.88
819.655	124.78
820.092	173.18
820.529	209.08
820.966	168.08
821.403	129.68
821.839	107.88
822.276	99.08
822.713	123.98
823.15	130.88
823.587	109.78
824.023	141.38
824.46	307.28
824.897	894.78
825.333	1326.68
825.77	563.28
826.206	217.48
826.643	123.88
827.08	97.58
827.516	87.68
827.953	68.68
828.389	78.78
828.825	64.78
829.262	67.38
829.698	61.58
830.135	62.38
830.571	59.78
831.007	61.98
831.443	69.18
831.88	61.88
832.316	53.28
832.752	63.18
833.188	59.58
833.624	67.18
834.06	67.68
834.497	69.88
834.933	75.88
835.369	76.08
835.805	64.68
836.241	75.78
836.677	79.78
837.112	86.98
837.548	101.08
837.984	122.28
838.42	195.28
838.856	492.38
839.292	1499.48
839.727	2240.28
840.163	1050.88
840.599	911.88
841.034	1999.48
841.47	2058.08
841.906	766.28
842.341	322.08
842.777	225.58
843.212	301.88
843.648	291.08
844.083	147.38
844.519	92.78
844.954	75.08
845.39	58.38
845.825	55.38
846.261	55.78
846.696	59.08
847.131	52.18
847.566	64.58
848.002	50.28
848.437	55.08
848.872	60.58
849.307	57.38
849.742	86.88
850.177	181.78
850.613	548.98
851.048	861.28
851.483	368.08
851.918	147.48
852.353	82.18
852.788	58.98
853.223	55.48
853.657	58.28
854.092	45.48
854.527	45.68
854.962	42.88
855.397	46.58
855.832	51.28
856.266	41.38
856.701	39.68
857.136	41.08
857.57	35.28
858.005	49.28
858.44	56.78
858.874	45.38
859.309	51.98
859.743	34.58
860.178	45.78
860.612	44.48
861.047	45.08
861.481	60.28
861.915	68.48
862.35	50.18
862.784	33.78
863.218	39.88
863.653	32.88
864.087	37.68
864.521	50.78
864.955	70.38
865.39	155.48
865.824	170.38
866.258	114.18
866.692	157.48
867.126	168.28
867.56	102.68
867.994	49.68
868.428	37.58
868.862	50.58
869.296	54.88
869.73	62.68
870.164	52.78
870.598	45.28
871.031	35.48
871.465	31.68
871.899	32.08
872.333	29.58
872.766	23.38
873.2	21.78
873.634	30.48
874.067	25.08
874.501	23.98
874.935	33.28
875.368	29.38
875.802	22.58
876.235	25.28
876.669	23.38
877.102	23.68
877.535	26.68
877.969	23.88
878.402	24.18
878.836	18.08
879.269	23.68
879.702	21.58
880.135	21.78
880.569	17.08
881.002	25.78
881.435	25.38
881.868	18.38
882.301	26.38
882.734	12.48
883.167	26.38
883.601	21.48
884.034	17.98
884.467	10.28
884.899	22.88
885.332	18.78
885.765	15.58
886.198	12.78
886.631	14.08
887.064	20.28
887.497	17.98
887.929	23.08
888.362	8.88
888.795	12.88
889.228	18.18
889.66	24.38
890.093	13.38
890.526	15.58
890.958	14.48
891.391	20.28
891.823	18.08
892.256	11.78
892.688	19.08
893.121	20.18
893.553	16.18
893.985	24.88
894.418	19.88
894.85	13.98
895.282	16.48
895.715	18.08
896.147	16.68
896.579	22.28
897.011	15.58
897.444	17.98
897.876	13.48
898.308	24.88
898.74	16.28
899.172	8.98
899.604	18.98
900.036	19.78
900.468	8.48
900.9	13.88
901.332	11.58
901.764	6.58
902.196	18.38
902.628	13.58
903.06	13.38
903.491	26.28
903.923	23.58
904.355	21.78
904.787	24.88
905.218	19.18
905.65	21.38
906.082	11.18
906.513	9.38
906.945	11.78
907.376	18.28
907.808	21.58
908.239	22.58
908.671	24.38
909.102	18.68
909.534	22.08
909.965	50.68
910.397	92.38
910.828	315.68
911.259	458.48
911.691	211.58
912.122	105.08
912.553	58.18
912.984	32.88
913.415	29.28
913.847	29.98
914.278	10.98
914.709	17.98
915.14	21.98
915.571	19.78
916.002	10.58
916.433	22.98
916.864	13.08
917.295	10.88
917.726	23.48
918.157	19.08
918.587	30.08
919.018	22.58
919.449	23.58
919.88	24.38
920.311	32.48
920.741	41.68
921.172	165.28
921.603	151.28
922.033	75.48
922.464	44.48
922.895	23.58
923.325	24.58
923.756	16.08
924.186	20.68
924.617	27.48
925.047	41.48
925.478	55.08
925.908	43.48
926.338	25.68
926.769	20.08
927.199	19.18
927.629	8.68
928.06	18.38
928.49	12.58
928.92	16.28
929.35	20.08
929.78	5.48
930.21	5.98
930.641	13.68
931.071	12.08
931.501	5.98
931.931	10.48
932.361	16.58
932.791	7.08
933.221	6.38
933.651	8.78
934.08	21.28
934.51	34.28
934.94	7.78
935.37	7.68
935.8	11.78
936.229	10.18
936.659	9.08
937.089	4.48
937.519	7.88
937.948	22.78
938.378	14.08
938.807	2.78
939.237	-6.62
939.666	2.78
940.096	-7.72
940.525	3.78
940.955	5.58
941.384	1.68
941.814	-3.22
942.243	-2.82
942.672	5.08
943.102	-2.12
943.531	-0.22
943.96	3.78
944.39	1.28
944.819	4.38
945.248	-0.42
945.677	4.58
946.106	4.68
946.535	8.68
946.964	3.28
947.393	4.38
947.822	1.58
948.251	-5.92
948.68	3.38
949.109	11.38
949.538	9.68
949.967	1.78
950.396	-1.32
950.825	-1.62
951.254	1.88
951.682	-3.12
952.111	4.18
952.54	1.78
952.969	-4.62
953.397	-4.62
953.826	4.98
954.254	-0.62
954.683	6.68
955.112	0.08
955.54	2.78
955.969	0.58
956.397	0.68
956.826	-1.72
957.254	7.18
957.682	2.48
958.111	6.48
958.539	3.08
958.967	7.18
959.396	4.78
959.824	1.68
960.252	-0.42
960.68	-4.52
961.109	-1.42
961.537	-2.72
961.965	-5.62
962.393	-1.62
962.821	-0.32
963.249	-1.62
963.677	8.18
964.105	5.98
964.533	48.78
964.961	39.78
965.389	23.78
965.817	8.68
966.245	0.48
966.672	-0.72
967.1	-7.02
967.528	0.78
967.956	-2.32
968.383	0.58
968.811	-1.62
969.239	-1.22
969.666	-5.22
970.094	-1.52
970.522	2.78
970.949	-0.92
971.377	-5.72
971.804	-6.32
972.232	-0.52
972.659	-4.62
973.087	-0.12
973.514	4.48
973.941	-2.32
974.369	3.58
974.796	2.58
975.223	4.88
975.651	-3.42
976.078	6.58
976.505	3.28
976.932	11.18
977.359	12.28
977.786	14.88
978.214	5.88
978.641	-2.12
979.068	-3.12
979.495	-6.52
979.922	-2.92
980.349	1.58
980.776	4.88
981.202	1.98
981.629	3.18
982.056	1.68
982.483	-4.42
982.91	2.08
983.337	-1.62
983.763	5.48
984.19	-6.62
984.617	-2.82
985.043	3.48
985.47	-0.12
985.897	-5.52
986.323	-8.42
986.75	1.38
987.176	1.08
987.603	2.18
988.029	0.48
988.456	-1.92
988.882	7.38
989.308	-5.32
989.735	-2.12
990.161	1.68
990.587	-6.82
991.014	-2.42
991.44	1.78
991.866	2.28
992.292	-5.52
992.719	2.28
993.145	3.08
993.571	-1.42
993.997	0.48
994.423	-3.82
994.849	-1.92
995.275	0.48
995.701	-6.82
996.127	-2.42
996.553	-2.22
996.979	-5.42
997.405	3.88
997.83	-11.32
998.256	0.08
998.682	-0.12
999.108	-7.72
999.534	-4.22
999.959	0.88
1000.385	-2.72
1000.811	1.98
1001.236	-8.52
1001.662	-7.32
1002.087	-7.62
1002.513	0.98
1002.938	5.28
1003.364	-1.82
1003.789	-6.92
1004.215	0.88
1004.64	-0.42
1005.066	2.88
1005.491	0.48
1005.916	1.08
1006.342	-1.22
1006.767	-11.32
1007.192	3.18
1007.617	-2.62
1008.042	-0.52
1008.468	-10.52
1008.893	-6.12
1009.318	0.48
1009.743	-0.92
1010.168	1.18
1010.593	3.48
1011.018	-10.42
1011.443	-3.32
1011.868	2.28
1012.293	-2.92
1012.718	-5.92
1013.143	-5.72
1013.567	-1.62
1013.992	-1.62
1014.417	-10.82
1014.842	-0.82
1015.267	-5.12
1015.691	-1.32
1016.116	6.78
1016.541	-2.02
1016.965	2.88
1017.39	1.28
1017.814	-3.52
1018.239	-3.42
1018.663	-3.12
1019.088	-6.82
1019.512	-4.52
1019.937	-3.52
1020.361	-2.92
1020.785	-8.42
1021.21	-6.82
1021.634	-4.92
1022.058	4.78
1022.483	4.58
1022.907	-0.22
1023.331	-0.62
1023.755	-1.42
1024.179	-0.22
1024.604	-8.42
1025.028	-5.52
1025.452	-4.32
1025.876	0.88
1026.3	3.18
1026.724	-7.42
1027.148	0.58
1027.572	-9.02
1027.996	-2.32
1028.42	0.78
1028.843	-1.42
1029.267	-1.12
1029.691	-2.22
1030.115	-2.52
1030.539	-2.92
1030.962	-6.82
1031.386	-4.92
1031.81	1.08
1032.233	-3.52
1032.657	2.08
1033.08	2.68
1033.504	3.68
1033.927	-7.32
1034.351	0.68
1034.774	-7.42
1035.198	-7.02
1035.621	-2.62
1036.045	-6.52
1036.468	4.38
1036.891	-10.02
1037.315	-13.42
1037.738	-12.32
1038.161	-1.12
1038.584	-7.42
1039.008	-2.62
1039.431	3.68
1039.854	-1.02
1040.277	-5.22
1040.7	-11.32
1041.123	-4.12
1041.546	-9.42
1041.969	-2.72
1042.392	-3.62
1042.815	2.48
1043.238	4.88
1043.661	-1.82
1044.084	-2.52
1044.507	-3.12
1044.93	-4.72
1045.352	-5.22
1045.775	2.18
1046.198	-1.92
1046.621	-0.12
1047.043	1.18
1047.466	4.28
1047.889	-1.32
1048.311	-5.52
1048.734	0.28
1049.156	-7.02
1049.579	1.08
1050.001	-6.92
1050.424	4.08
1050.846	-4.72
1051.269	-4.02
1051.691	-0.92
1052.113	-4.02
1052.536	1.28
1052.958	-1.82
1053.38	-0.22
1053.802	-7.52
1054.225	0.98
1054.647	-7.12
1055.069	-8.32
1055.491	3.08
1055.913	0.08
1056.335	2.28
1056.757	0.28
1057.179	-5.42
1057.601	-5.22
1058.023	-4.32
1058.445	0.68
1058.867	-2.42
1059.289	-4.72
1059.711	-3.82
1060.133	0.68
1060.555	-3.22
1060.976	-3.22
1061.398	-7.42
1061.82	-4.62
1062.241	-7.12
1062.663	-8.32
1063.085	-6.62
1063.506	4.38
1063.928	-0.62
1064.35	0.88
1064.771	-11.62
1065.193	-8.12
1065.614	-12.92
1066.035	-0.32
1066.457	1.88
1066.878	2.28
1067.3	-3.12
1067.721	0.38
1068.142	-9.52
1068.564	-3.92
1068.985	-4.82
1069.406	-2.22
1069.827	-3.12
1070.248	-0.92
1070.67	-3.52
1071.091	-3.82
1071.512	-0.82
1071.933	-7.92
1072.354	-5.62
1072.775	-9.52
1073.196	-9.82
1073.617	1.38
1074.038	-3.22
1074.459	-3.22
1074.88	-7.62
1075.3	-0.52
1075.721	-9.52
1076.142	-5.02
1076.563	-6.02
1076.983	-11.32
1077.404	-2.12
1077.825	-10.72
1078.246	2.88
1078.666	-12.82
1079.087	-2.32
1079.507	-4.42
1079.928	-0.52
1080.348	-2.82
1080.769	-5.92
1081.189	6.18
1081.61	-1.22
1082.03	-2.32
1082.451	-12.12
1082.871	-4.62
1083.291	-5.52
1083.711	-6.62
1084.132	2.48
1084.552	-1.02
1084.972	0.68
1085.392	-10.32
1085.813	-11.92
1086.233	-7.22
1086.653	-5.22
1087.073	-2.92
1087.493	-6.52
1087.913	-10.92
1088.333	-9.62
1088.753	-2.12
1089.173	-1.62
1089.593	-2.32
1090.013	4.48
1090.433	-3.22
1090.852	-7.72
1091.272	0.78
1091.692	2.28
1092.112	-5.32
1092.531	-10.22
1092.951	-15.72
1093.371	-2.12
1093.79	-4.42
1094.21	-3.42
1094.63	-8.52
1095.049	-3.92
1095.469	-5.42
1095.888	-1.22
1096.308	3.98
1096.727	6.38
1097.146	-10.12
1097.566	1.68
1097.985	-5.42
1098.405	-0.12
1098.824	-4.42
1099.243	-4.22
1099.662	-8.12
1100.082	-5.92
1100.501	-2.52
1100.92	-5.22
1101.339	-8.72
1101.758	-4.62
