Data from 20171114-ORNL-Ar_H_NY_Subt18_08-09-12-768.txt Node
Date: Tue Nov 14 08:09:12 EST 2017
User: Ender
Spectrometer: HR+D1039
Trigger mode: 0
Integration Time (sec): 2.730000E-2
Scans to average: 10
Electric dark correction enabled: true
Nonlinearity correction enabled: false
Boxcar width: 0
XAxis mode: Wavelengths
Number of Pixels in Spectrum: 2048
>>>>>Begin Spectral Data<<<<<
187.836	-1.21
188.309	-1.21
188.782	-1.21
189.255	2.99
189.728	-1.51
190.201	7.49
190.674	1.09
191.147	5.69
191.619	-7.91
192.092	1.79
192.565	2.39
193.038	-2.51
193.511	0.49
193.984	2.29
194.456	-3.51
194.929	-1.81
195.402	-8.81
195.874	2.99
196.347	7.99
196.82	-4.21
197.292	1.09
197.765	4.29
198.237	-4.41
198.71	2.99
199.182	-0.91
199.655	-0.01
200.127	0.49
200.6	-3.91
201.072	-3.71
201.544	-0.11
202.017	1.49
202.489	-0.21
202.961	-3.91
203.433	-0.11
203.906	-4.71
204.378	-6.11
204.85	-4.51
205.322	-5.71
205.794	0.69
206.266	-0.41
206.739	-4.81
207.211	1.59
207.683	-6.21
208.155	-5.61
208.627	-6.71
209.099	-6.51
209.57	-11.41
210.042	-8.21
210.514	-5.21
210.986	-3.71
211.458	-11.71
211.93	-6.11
212.402	2.29
212.873	-0.91
213.345	-11.71
213.817	-15.41
214.288	-4.71
214.76	-8.91
215.232	-6.91
215.703	-3.91
216.175	-3.61
216.646	-6.01
217.118	-4.91
217.589	-6.21
218.061	-4.71
218.532	-1.21
219.004	-0.01
219.475	-2.21
219.946	-0.11
220.418	-1.51
220.889	2.79
221.36	2.19
221.832	1.29
222.303	-0.21
222.774	-0.91
223.245	-7.81
223.717	-5.31
224.188	-4.81
224.659	-8.91
225.13	-8.41
225.601	-2.31
226.072	1.09
226.543	0.19
227.014	-5.71
227.485	-2.41
227.956	-8.51
228.427	-4.31
228.898	1.19
229.369	3.39
229.839	0.29
230.31	-3.31
230.781	0.49
231.252	-0.41
231.722	-7.31
232.193	-5.21
232.664	-1.41
233.135	-7.81
233.605	-5.11
234.076	-10.11
234.546	-2.81
235.017	9.29
235.487	-1.51
235.958	-0.31
236.428	-8.51
236.899	-0.71
237.369	2.49
237.84	-5.11
238.31	-3.11
238.78	-2.11
239.251	-5.71
239.721	-0.31
240.191	-2.71
240.662	-0.71
241.132	-3.01
241.602	-9.51
242.072	-2.71
242.542	3.59
243.013	-1.91
243.483	5.19
243.953	-1.61
244.423	-2.51
244.893	-11.31
245.363	-0.61
245.833	1.09
246.303	0.69
246.773	5.29
247.243	1.09
247.712	-5.61
248.182	1.19
248.652	-2.91
249.122	-8.01
249.592	-4.51
250.061	0.79
250.531	6.09
251.001	-9.61
251.471	-0.91
251.94	-1.21
252.41	-6.51
252.879	-5.11
253.349	0.79
253.818	5.59
254.288	-2.71
254.757	-2.51
255.227	-6.81
255.696	2.39
256.166	-0.91
256.635	1.79
257.105	-3.41
257.574	3.89
258.043	1.99
258.513	-4.31
258.982	-1.41
259.451	-1.61
259.92	-1.71
260.389	-2.81
260.859	6.69
261.328	3.39
261.797	2.29
262.266	-1.01
262.735	11.79
263.204	-2.91
263.673	-1.01
264.142	-3.31
264.611	-4.01
265.08	-2.61
265.549	-6.11
266.018	-0.11
266.487	-9.61
266.955	-4.81
267.424	0.09
267.893	-1.01
268.362	-3.41
268.83	-0.21
269.299	8.79
269.768	1.09
270.236	5.09
270.705	0.49
271.174	-3.31
271.642	0.69
272.111	-1.01
272.579	-0.01
273.048	-2.41
273.516	-0.61
273.985	1.69
274.453	8.09
274.922	5.29
275.39	0.99
275.858	-0.01
276.327	3.49
276.795	9.49
277.263	2.79
277.731	9.29
278.2	0.99
278.668	-2.41
279.136	3.19
279.604	-2.41
280.072	5.49
280.54	6.89
281.008	5.79
281.477	7.19
281.945	0.69
282.413	10.09
282.881	6.29
283.348	2.69
283.816	11.19
284.284	8.49
284.752	13.69
285.22	3.89
285.688	4.89
286.156	5.19
286.623	7.29
287.091	3.49
287.559	6.69
288.026	9.99
288.494	6.29
288.962	-7.11
289.429	2.49
289.897	13.79
290.364	8.09
290.832	9.89
291.3	6.99
291.767	3.29
292.234	9.99
292.702	12.29
293.169	14.89
293.637	8.39
294.104	11.59
294.571	-1.51
295.039	6.39
295.506	14.39
295.973	14.59
296.44	7.69
296.908	8.69
297.375	5.39
297.842	14.19
298.309	12.49
298.776	7.89
299.243	9.09
299.71	7.59
300.177	18.69
300.644	16.39
301.111	14.19
301.578	8.89
302.045	9.49
302.512	20.99
302.979	13.59
303.446	11.49
303.913	6.09
304.379	10.29
304.846	17.19
305.313	15.79
305.78	12.59
306.246	16.49
306.713	11.79
307.18	18.79
307.646	17.49
308.113	18.89
308.579	11.89
309.046	14.19
309.512	20.49
309.979	11.49
310.445	15.09
310.912	21.29
311.378	23.89
311.845	14.89
312.311	25.39
312.777	19.69
313.244	23.79
313.71	31.49
314.176	19.09
314.642	18.49
315.109	24.19
315.575	27.69
316.041	26.59
316.507	26.99
316.973	25.79
317.439	23.09
317.905	26.99
318.371	31.19
318.837	26.59
319.303	28.99
319.769	20.09
320.235	20.49
320.701	28.49
321.167	25.99
321.633	20.29
322.099	28.69
322.564	32.29
323.03	24.89
323.496	26.29
323.962	30.09
324.427	26.89
324.893	31.39
325.359	27.69
325.824	22.69
326.29	25.09
326.755	27.99
327.221	29.89
327.686	29.39
328.152	34.69
328.617	32.79
329.083	37.09
329.548	39.79
330.014	41.29
330.479	30.69
330.944	30.39
331.41	30.99
331.875	28.39
332.34	35.39
332.805	35.09
333.271	35.59
333.736	22.49
334.201	34.39
334.666	41.89
335.131	39.49
335.596	39.89
336.061	36.19
336.526	30.29
336.991	37.89
337.456	40.89
337.921	40.59
338.386	36.29
338.851	37.49
339.316	37.79
339.781	33.79
340.246	39.59
340.711	37.09
341.175	39.99
341.64	33.09
342.105	42.29
342.569	49.79
343.034	45.09
343.499	44.09
343.963	35.99
344.428	51.09
344.893	49.19
345.357	49.39
345.822	49.09
346.286	48.29
346.751	56.29
347.215	54.59
347.679	55.19
348.144	72.89
348.608	58.99
349.073	53.29
349.537	50.39
350.001	60.39
350.465	75.39
350.93	64.49
351.394	70.29
351.858	63.19
352.322	70.39
352.786	68.49
353.25	77.29
353.715	90.09
354.179	76.89
354.643	93.49
355.107	90.49
355.571	76.19
356.035	78.49
356.498	91.29
356.962	84.29
357.426	104.29
357.89	87.99
358.354	70.39
358.818	68.99
359.281	65.09
359.745	61.89
360.209	64.69
360.673	61.29
361.136	60.59
361.6	71.79
362.064	63.49
362.527	66.99
362.991	76.89
363.454	67.39
363.918	57.99
364.381	63.69
364.845	71.59
365.308	70.99
365.772	73.19
366.235	70.69
366.698	68.99
367.162	70.49
367.625	70.29
368.088	76.79
368.552	73.09
369.015	78.99
369.478	71.79
369.941	80.29
370.404	78.89
370.867	83.59
371.331	93.69
371.794	89.59
372.257	79.29
372.72	88.69
373.183	89.89
373.646	82.09
374.109	82.09
374.572	89.69
375.035	79.19
375.497	89.39
375.96	84.29
376.423	84.19
376.886	97.79
377.349	94.99
377.811	82.49
378.274	89.89
378.737	91.69
379.199	82.69
379.662	85.29
380.125	91.09
380.587	90.79
381.05	94.49
381.512	97.59
381.975	112.09
382.437	98.49
382.9	102.99
383.362	109.79
383.825	114.99
384.287	109.29
384.75	101.59
385.212	112.09
385.674	114.69
386.136	113.19
386.599	108.19
387.061	112.89
387.523	104.19
387.985	104.19
388.447	120.79
388.91	102.49
389.372	112.49
389.834	119.69
390.296	116.29
390.758	122.49
391.22	125.39
391.682	131.49
392.144	136.79
392.606	132.29
393.068	126.19
393.529	136.39
393.991	124.19
394.453	118.79
394.915	126.99
395.377	119.69
395.838	119.59
396.3	123.79
396.762	128.49
397.224	125.49
397.685	118.89
398.147	121.39
398.608	120.29
399.07	124.09
399.531	124.89
399.993	129.79
400.454	143.99
400.916	134.79
401.377	132.69
401.839	135.59
402.3	139.49
402.762	155.39
403.223	161.99
403.684	158.49
404.145	148.49
404.607	146.19
405.068	152.59
405.529	153.29
405.99	168.09
406.451	160.49
406.913	165.49
407.374	155.39
407.835	151.19
408.296	152.29
408.757	157.59
409.218	170.49
409.679	162.49
410.14	154.29
410.601	164.89
411.062	169.19
411.522	168.99
411.983	165.39
412.444	156.09
412.905	170.69
413.366	174.09
413.826	190.99
414.287	206.39
414.748	256.29
415.208	241.49
415.669	206.09
416.13	202.09
416.59	199.69
417.051	205.19
417.511	211.39
417.972	227.79
418.432	238.99
418.893	286.59
419.353	240.59
419.814	197.89
420.274	174.09
420.734	170.59
421.195	184.99
421.655	189.19
422.115	179.99
422.576	182.99
423.036	193.49
423.496	202.49
423.956	207.19
424.416	221.59
424.876	259.79
425.336	247.29
425.797	255.89
426.257	245.39
426.717	224.69
427.177	219.49
427.637	211.79
428.097	223.39
428.556	233.59
429.016	253.19
429.476	244.59
429.936	257.89
430.396	260.29
430.856	273.89
431.315	298.99
431.775	319.39
432.235	353.49
432.694	326.99
433.154	332.99
433.614	356.69
434.073	314.09
434.533	276.39
434.993	256.39
435.452	257.59
435.912	264.99
436.371	274.59
436.83	264.59
437.29	247.49
437.749	229.39
438.209	240.59
438.668	268.09
439.127	273.89
439.587	256.29
440.046	239.79
440.505	248.69
440.964	263.39
441.424	307.09
441.883	292.19
442.342	252.69
442.801	216.59
443.26	222.39
443.719	220.89
444.178	218.79
444.637	207.29
445.096	214.29
445.555	219.59
446.014	219.39
446.473	235.39
446.932	231.89
447.391	221.59
447.849	227.89
448.308	218.49
448.767	224.49
449.226	233.69
449.685	237.99
450.143	245.69
450.602	228.99
451.061	229.69
451.519	232.49
451.978	227.49
452.436	232.39
452.895	237.19
453.353	248.49
453.812	240.79
454.27	234.09
454.729	233.39
455.187	240.69
455.646	245.99
456.104	236.99
456.562	265.19
457.021	257.29
457.479	256.79
457.937	270.29
458.395	262.29
458.854	249.99
459.312	256.29
459.77	271.79
460.228	260.19
460.686	240.59
461.144	249.89
461.602	250.99
462.06	244.69
462.518	257.69
462.976	251.79
463.434	260.59
463.892	263.09
464.35	270.29
464.808	282.99
465.266	264.69
465.724	270.39
466.181	272.09
466.639	272.99
467.097	281.99
467.555	309.69
468.012	302.29
468.47	311.59
468.928	318.49
469.385	341.49
469.843	338.89
470.3	346.89
470.758	357.89
471.215	377.19
471.673	401.79
472.13	403.59
472.588	419.69
473.045	371.59
473.503	376.19
473.96	383.89
474.417	405.59
474.875	432.29
475.332	465.69
475.789	461.39
476.246	464.89
476.704	468.49
477.161	500.69
477.618	520.79
478.075	547.39
478.532	603.59
478.989	670.59
479.446	771.89
479.903	738.29
480.36	770.89
480.817	817.79
481.274	896.89
481.731	984.99
482.188	1068.79
482.645	1180.79
483.102	1261.49
483.558	1380.59
484.015	1419.89
484.472	1397.39
484.929	1351.49
485.385	1311.49
485.842	1286.39
486.299	1243.89
486.755	1196.49
487.212	1017.49
487.668	877.49
488.125	819.49
488.582	753.79
489.038	726.59
489.494	694.49
489.951	670.59
490.407	657.79
490.864	621.19
491.32	622.49
491.776	627.19
492.233	638.89
492.689	610.29
493.145	601.89
493.602	593.29
494.058	608.69
494.514	604.49
494.97	626.69
495.426	640.59
495.882	607.39
496.338	602.09
496.794	618.79
497.251	592.09
497.707	620.39
498.163	615.89
498.618	632.89
499.074	634.59
499.53	652.99
499.986	657.49
500.442	643.49
500.898	616.79
501.354	610.79
501.809	624.09
502.265	620.49
502.721	622.59
503.177	639.99
503.632	643.29
504.088	644.49
504.543	659.49
504.999	675.59
505.455	654.39
505.91	624.49
506.366	633.59
506.821	639.19
507.277	626.29
507.732	634.29
508.187	638.39
508.643	647.29
509.098	643.79
509.553	668.79
510.009	672.29
510.464	680.59
510.919	691.19
511.375	698.29
511.83	706.29
512.285	728.29
512.74	758.09
513.195	785.79
513.65	769.89
514.105	757.19
514.56	757.99
515.015	786.59
515.47	799.09
515.925	786.89
516.38	784.19
516.835	789.89
517.29	780.79
517.745	777.69
518.2	772.39
518.655	754.99
519.109	746.99
519.564	744.49
520.019	737.09
520.474	728.29
520.928	733.59
521.383	729.79
521.838	712.99
522.292	721.59
522.747	710.49
523.201	704.79
523.656	695.79
524.11	692.49
524.565	706.09
525.019	700.79
525.474	699.09
525.928	700.59
526.382	701.59
526.837	704.69
527.291	710.79
527.745	704.49
528.2	705.39
528.654	698.39
529.108	692.09
529.562	695.49
530.016	682.69
530.47	689.49
530.925	699.59
531.379	703.19
531.833	703.19
532.287	707.59
532.741	696.39
533.195	700.29
533.649	712.09
534.103	719.09
534.556	704.19
535.01	720.89
535.464	712.99
535.918	719.59
536.372	717.79
536.826	724.19
537.279	704.49
537.733	709.99
538.187	712.89
538.64	724.39
539.094	724.49
539.548	732.69
540.001	740.09
540.455	726.69
540.908	731.09
541.362	742.09
541.815	750.49
542.269	767.59
542.722	766.09
543.175	781.09
543.629	782.39
544.082	795.49
544.536	790.19
544.989	791.99
545.442	802.39
545.895	805.79
546.349	805.99
546.802	803.49
547.255	814.99
547.708	811.69
548.161	828.69
548.614	832.09
549.067	837.79
549.52	833.59
549.973	819.19
550.426	824.59
550.879	813.69
551.332	812.09
551.785	818.09
552.238	825.59
552.691	833.49
553.144	851.89
553.596	861.79
554.049	873.69
554.502	911.29
554.955	918.59
555.407	912.69
555.86	911.89
556.313	903.29
556.765	897.59
557.218	887.99
557.67	888.19
558.123	889.99
558.576	888.49
559.028	891.49
559.48	898.29
559.933	892.59
560.385	848.89
560.838	820.89
561.29	805.29
561.742	799.29
562.195	776.39
562.647	789.89
563.099	805.39
563.551	792.39
564.004	792.19
564.456	791.49
564.908	768.89
565.36	763.09
565.812	737.79
566.264	733.29
566.716	730.39
567.168	714.79
567.62	723.79
568.072	712.39
568.524	707.49
568.976	700.49
569.428	690.79
569.88	685.59
570.332	696.89
570.784	696.89
571.235	692.99
571.687	714.79
572.139	720.69
572.59	735.79
573.042	728.29
573.494	721.99
573.945	721.99
574.397	704.19
574.849	706.59
575.3	710.99
575.752	695.39
576.203	698.19
576.655	692.59
577.106	681.09
577.557	684.09
578.009	689.39
578.46	681.29
578.912	675.69
579.363	680.39
579.814	678.79
580.265	680.49
580.717	688.39
581.168	684.59
581.619	687.69
582.07	694.99
582.521	683.79
582.972	684.69
583.423	681.89
583.875	689.49
584.326	702.09
584.777	712.19
585.227	734.49
585.678	749.99
586.129	754.59
586.58	770.99
587.031	794.99
587.482	828.49
587.933	846.39
588.384	836.29
588.834	797.19
589.285	785.69
589.736	788.19
590.186	783.89
590.637	785.19
591.088	766.19
591.538	752.99
591.989	742.89
592.439	740.39
592.89	737.59
593.34	721.69
593.791	726.39
594.241	714.19
594.692	715.09
595.142	714.79
595.593	711.89
596.043	718.99
596.493	724.19
596.943	720.99
597.394	731.09
597.844	736.29
598.294	748.09
598.744	782.39
599.195	808.29
599.645	858.09
600.095	880.69
600.545	947.39
600.995	998.09
601.445	1045.49
601.895	1116.59
602.345	1169.39
602.795	1134.99
603.245	1094.09
603.695	1042.59
604.145	984.89
604.594	938.49
605.044	884.09
605.494	814.89
605.944	771.29
606.393	764.89
606.843	745.49
607.293	747.59
607.743	746.69
608.192	769.79
608.642	776.99
609.091	773.39
609.541	775.99
609.99	784.29
610.44	769.99
610.889	739.29
611.339	709.89
611.788	692.69
612.238	709.49
612.687	713.69
613.136	703.99
613.586	723.29
614.035	708.69
614.484	722.19
614.933	724.09
615.383	722.19
615.832	722.69
616.281	710.89
616.73	682.29
617.179	668.59
617.628	662.49
618.077	647.29
618.526	635.19
618.975	634.39
619.424	619.29
619.873	630.39
620.322	635.19
620.771	625.69
621.22	619.89
621.669	610.39
622.118	598.09
622.567	594.09
623.015	575.09
623.464	580.79
623.913	582.09
624.361	565.69
624.81	558.89
625.259	571.19
625.707	576.29
626.156	568.49
626.604	575.59
627.053	576.09
627.501	575.79
627.95	589.39
628.398	597.99
628.847	588.89
629.295	587.19
629.744	595.29
630.192	581.39
630.64	577.09
631.089	552.49
631.537	546.99
631.985	546.59
632.433	551.79
632.881	543.49
633.33	552.19
633.778	532.39
634.226	542.19
634.674	552.69
635.122	554.79
635.57	565.39
636.018	567.39
636.466	576.19
636.914	570.89
637.362	587.89
637.81	589.99
638.258	599.09
638.705	597.89
639.153	630.09
639.601	631.59
640.049	670.99
640.497	690.39
640.944	718.89
641.392	665.79
641.84	633.99
642.287	596.29
642.735	579.69
643.182	582.69
643.63	585.09
644.078	578.09
644.525	586.69
644.973	591.79
645.42	610.79
645.867	625.99
646.315	637.49
646.762	669.39
647.21	700.69
647.657	713.09
648.104	754.09
648.551	759.69
648.999	835.09
649.446	896.99
649.893	990.69
650.34	1132.99
650.787	1345.09
651.234	1666.49
651.682	2131.59
652.129	2910.69
652.576	4183.49
653.023	6055.89
653.47	8159.59
653.917	10065.59
654.363	11486.39
654.81	12580.69
655.257	11954.69
655.704	7923.79
656.151	4786.19
656.598	3148.69
657.044	2252.29
657.491	1750.59
657.938	1428.89
658.385	1200.99
658.831	1037.89
659.278	945.09
659.724	845.09
660.171	783.69
660.618	721.79
661.064	684.29
661.511	671.99
661.957	659.29
662.404	654.39
662.85	652.79
663.296	638.99
663.743	571.39
664.189	551.79
664.635	546.19
665.082	542.59
665.528	536.69
665.974	531.89
666.42	522.09
666.867	519.39
667.313	499.89
667.759	477.89
668.205	464.29
668.651	458.99
669.097	456.99
669.543	456.09
669.989	461.79
670.435	463.29
670.881	460.49
671.327	467.89
671.773	489.49
672.219	508.89
672.665	569.49
673.11	608.99
673.556	657.49
674.002	692.89
674.448	673.19
674.893	564.49
675.339	493.19
675.785	464.39
676.23	439.39
676.676	405.59
677.122	396.29
677.567	390.39
678.013	379.39
678.458	372.69
678.904	375.89
679.349	362.09
679.794	368.39
680.24	360.79
680.685	362.99
681.131	359.49
681.576	365.59
682.021	365.49
682.466	364.69
682.912	363.69
683.357	372.39
683.802	398.09
684.247	431.19
684.692	479.49
685.137	518.69
685.583	569.59
686.028	592.39
686.473	538.39
686.918	468.49
687.363	436.79
687.807	409.89
688.252	377.69
688.697	367.99
689.142	356.49
689.587	347.99
690.032	352.09
690.477	362.29
690.921	368.69
691.366	399.49
691.811	426.59
692.255	446.59
692.7	483.19
693.145	546.39
693.589	763.49
694.034	1230.59
694.478	1657.39
694.923	1815.39
695.367	2350.99
695.812	1267.59
696.256	520.39
696.701	383.39
697.145	357.59
697.59	333.79
698.034	328.29
698.478	338.09
698.922	328.89
699.367	335.89
699.811	345.09
700.255	359.59
700.699	408.39
701.143	442.19
701.588	501.89
702.032	541.19
702.476	539.69
702.92	510.09
703.364	528.09
703.808	704.59
704.252	1135.29
704.696	1554.39
705.14	1751.79
705.584	2224.49
706.027	1120.29
706.471	550.69
706.915	421.19
707.359	373.09
707.803	336.99
708.246	331.39
708.69	330.29
709.134	329.39
709.577	318.09
710.021	328.19
710.465	318.39
710.908	318.89
711.352	315.09
711.795	332.29
712.239	378.49
712.682	411.19
713.126	435.49
713.569	475.79
714.012	368.69
714.456	311.19
714.899	306.99
715.342	288.59
715.786	275.09
716.229	269.19
716.672	261.59
717.115	261.39
717.558	256.39
718.002	270.19
718.445	271.09
718.888	290.99
719.331	311.09
719.774	318.79
720.217	316.49
720.66	294.89
721.103	275.79
721.546	267.09
721.989	262.99
722.432	245.49
722.874	245.49
723.317	241.59
723.76	246.49
724.203	274.99
724.645	335.79
725.088	478.59
725.531	605.49
725.974	668.59
726.416	573.29
726.859	323.19
727.301	256.79
727.744	247.09
728.187	245.19
728.629	254.09
729.071	253.19
729.514	273.89
729.956	289.09
730.399	295.59
730.841	301.69
731.283	285.89
731.726	281.39
732.168	280.19
732.61	286.79
733.053	301.49
733.495	336.39
733.937	371.49
734.379	417.59
734.821	472.09
735.263	589.39
735.705	932.19
736.148	1757.59
736.59	2773.59
737.032	3197.29
737.474	2605.09
737.916	867.99
738.357	452.59
738.799	353.39
739.241	314.99
739.683	307.29
740.125	307.19
740.567	319.59
741.008	329.29
741.45	329.09
741.892	340.39
742.334	380.89
742.775	380.89
743.217	366.69
743.658	283.69
744.1	269.99
744.542	286.19
744.983	342.39
745.425	372.99
745.866	370.99
746.307	288.39
746.749	293.89
747.19	353.39
747.632	502.69
748.073	996.19
748.514	2062.79
748.956	3038.99
749.397	3843.99
749.838	3189.19
750.279	3099.89
750.72	1594.09
751.162	594.09
751.603	336.89
752.044	264.69
752.485	225.39
752.926	215.59
753.367	216.29
753.808	207.09
754.249	197.99
754.69	194.79
755.131	189.09
755.572	196.99
756.013	193.19
756.453	198.69
756.894	207.09
757.335	205.49
757.776	209.59
758.216	208.19
758.657	210.29
759.098	213.09
759.538	234.99
759.979	291.29
760.42	415.59
760.86	801.39
761.301	2094.89
761.741	4874.59
762.182	6678.79
762.622	4731.49
763.063	1403.79
763.503	576.19
763.943	338.89
764.384	285.59
764.824	264.99
765.264	243.39
765.705	219.19
766.145	194.99
766.585	182.09
767.025	176.99
767.465	171.59
767.906	186.29
768.346	207.69
768.786	210.79
769.226	225.49
769.666	334.39
770.106	696.09
770.546	1737.09
770.986	2778.59
771.426	2447.79
771.866	831.49
772.306	346.09
772.745	219.29
773.185	178.99
773.625	165.39
774.065	160.59
774.505	173.79
774.944	213.59
775.384	384.39
775.824	600.69
776.263	573.79
776.703	289.59
777.142	166.69
777.582	144.19
778.021	135.79
778.461	128.79
778.9	131.79
779.34	135.69
779.779	120.69
780.219	116.79
780.658	114.69
781.097	113.49
781.537	117.59
781.976	102.89
782.415	108.39
782.855	103.99
783.294	100.39
783.733	114.19
784.172	107.19
784.611	105.19
785.05	111.09
785.489	113.69
785.928	117.79
786.367	129.49
786.806	122.19
787.245	134.19
787.684	145.59
788.123	155.69
788.562	136.89
789.001	134.99
789.44	129.09
789.879	124.29
790.317	133.89
790.756	136.49
791.195	132.29
791.634	155.69
792.072	216.49
792.511	402.99
792.95	1124.99
793.388	2250.39
793.827	1969.49
794.265	709.79
794.704	305.89
795.142	195.09
795.581	160.19
796.019	144.09
796.458	136.99
796.896	133.09
797.334	147.49
797.773	162.89
798.211	242.19
798.649	503.59
799.087	1111.59
799.526	1726.49
799.964	2173.09
800.402	2086.19
800.84	802.89
801.278	331.29
801.716	198.69
802.154	163.19
802.592	156.69
803.03	152.19
803.468	148.39
803.906	154.09
804.344	157.59
804.782	148.69
805.22	142.59
805.658	136.49
806.096	155.49
806.533	162.69
806.971	183.39
807.409	232.99
807.847	352.49
808.284	760.39
808.722	2071.39
809.16	3490.79
809.597	3467.99
810.035	5871.59
810.472	5984.39
810.91	2230.09
811.347	865.39
811.785	432.49
812.222	275.49
812.66	214.49
813.097	181.79
813.535	144.89
813.972	144.79
814.409	126.19
814.846	114.59
815.284	114.29
815.721	112.59
816.158	111.39
816.595	115.19
817.032	160.99
817.47	185.69
817.907	129.39
818.344	107.49
818.781	103.79
819.218	102.59
819.655	134.39
820.092	198.19
820.529	224.69
820.966	181.79
821.403	129.59
821.839	104.39
822.276	105.69
822.713	132.09
823.15	139.39
823.587	129.09
824.023	160.29
824.46	339.19
824.897	985.99
825.333	1399.79
825.77	618.29
826.206	252.79
826.643	145.19
827.08	105.89
827.516	87.99
827.953	83.39
828.389	84.39
828.825	78.79
829.262	71.29
829.698	71.19
830.135	66.89
830.571	66.19
831.007	69.29
831.443	70.59
831.88	66.39
832.316	66.19
832.752	61.89
833.188	73.19
833.624	70.29
834.06	65.59
834.497	73.69
834.933	79.59
835.369	81.49
835.805	73.69
836.241	82.39
836.677	83.29
837.112	94.19
837.548	112.59
837.984	151.59
838.42	227.29
838.856	570.39
839.292	1655.49
839.727	2414.89
840.163	1150.69
840.599	1034.59
841.034	2204.49
841.47	2203.49
841.906	816.39
842.341	356.99
842.777	215.99
843.212	210.69
843.648	191.89
844.083	114.29
844.519	85.29
844.954	77.99
845.39	68.19
845.825	64.79
846.261	59.99
846.696	57.89
847.131	53.69
847.566	66.19
848.002	53.19
848.437	58.79
848.872	67.79
849.307	59.59
849.742	91.49
850.177	203.89
850.613	606.49
851.048	924.49
851.483	397.29
851.918	166.09
852.353	93.39
852.788	52.89
853.223	52.19
853.657	52.09
854.092	50.39
854.527	38.29
854.962	42.09
855.397	51.39
855.832	49.69
856.266	40.29
856.701	43.19
857.136	40.59
857.57	40.19
858.005	52.99
858.44	63.79
858.874	51.79
859.309	56.79
859.743	45.79
860.178	47.69
860.612	48.59
861.047	59.49
861.481	79.69
861.915	77.29
862.35	48.59
862.784	39.79
863.218	40.59
863.653	34.09
864.087	45.89
864.521	60.49
864.955	80.09
865.39	168.49
865.824	192.09
866.258	127.09
866.692	184.99
867.126	189.39
867.56	108.89
867.994	59.49
868.428	40.09
868.862	48.59
869.296	58.69
869.73	63.29
870.164	56.29
870.598	49.29
871.031	39.29
871.465	32.09
871.899	35.59
872.333	33.89
872.766	27.79
873.2	24.09
873.634	31.19
874.067	30.39
874.501	31.79
874.935	36.29
875.368	31.49
875.802	31.19
876.235	30.09
876.669	23.99
877.102	22.29
877.535	29.49
877.969	25.89
878.402	30.79
878.836	22.39
879.269	26.59
879.702	26.09
880.135	22.79
880.569	25.49
881.002	25.69
881.435	25.09
881.868	13.99
882.301	21.69
882.734	18.69
883.167	22.99
883.601	25.19
884.034	24.09
884.467	18.39
884.899	22.19
885.332	14.79
885.765	20.49
886.198	19.79
886.631	17.49
887.064	22.99
887.497	17.79
887.929	24.79
888.362	13.79
888.795	7.59
889.228	20.89
889.66	22.99
890.093	14.09
890.526	20.49
890.958	12.59
891.391	15.79
891.823	23.29
892.256	16.09
892.688	11.69
893.121	17.49
893.553	15.49
893.985	24.79
894.418	20.99
894.85	13.49
895.282	15.99
895.715	22.69
896.147	20.99
896.579	19.69
897.011	15.39
897.444	20.89
897.876	13.39
898.308	20.29
898.74	19.89
899.172	16.79
899.604	28.59
900.036	21.49
900.468	17.79
900.9	12.79
901.332	19.49
901.764	13.59
902.196	15.69
902.628	8.89
903.06	19.49
903.491	29.89
903.923	26.79
904.355	22.79
904.787	28.29
905.218	18.39
905.65	22.29
906.082	12.59
906.513	12.09
906.945	16.99
907.376	14.49
907.808	20.89
908.239	20.19
908.671	23.99
909.102	19.19
909.534	23.79
909.965	49.49
910.397	106.19
910.828	347.79
911.259	497.99
911.691	228.69
912.122	116.09
912.553	56.19
912.984	33.59
913.415	31.99
913.847	27.89
914.278	17.59
914.709	17.59
915.14	20.29
915.571	15.29
916.002	14.09
916.433	14.99
916.864	17.99
917.295	14.59
917.726	29.69
918.157	23.59
918.587	28.99
919.018	24.29
919.449	24.89
919.88	25.59
920.311	30.19
920.741	52.09
921.172	178.19
921.603	156.39
922.033	80.29
922.464	49.29
922.895	26.89
923.325	20.99
923.756	16.19
924.186	14.19
924.617	19.49
925.047	21.19
925.478	25.49
925.908	27.59
926.338	15.79
926.769	8.29
927.199	19.79
927.629	3.59
928.06	17.19
928.49	17.89
928.92	12.49
929.35	12.39
929.78	13.49
930.21	5.39
930.641	8.39
931.071	15.79
931.501	9.59
931.931	11.49
932.361	9.59
932.791	7.19
933.221	5.69
933.651	3.19
934.08	24.79
934.51	35.99
934.94	14.39
935.37	12.19
935.8	7.39
936.229	10.19
936.659	7.19
937.089	9.49
937.519	20.29
937.948	25.69
938.378	10.89
938.807	4.09
939.237	2.99
939.666	6.69
940.096	-6.31
940.525	9.09
940.955	4.59
941.384	4.29
941.814	-4.61
942.243	-3.81
942.672	6.29
943.102	-6.41
943.531	3.99
943.96	1.79
944.39	1.39
944.819	2.69
945.248	6.29
945.677	0.79
946.106	4.39
946.535	8.79
946.964	1.59
947.393	9.09
947.822	-2.41
948.251	-2.51
948.68	2.49
949.109	3.29
949.538	7.39
949.967	9.39
950.396	7.49
950.825	0.19
951.254	-3.91
951.682	-3.31
952.111	8.59
952.54	9.49
952.969	5.79
953.397	-2.81
953.826	0.59
954.254	-1.81
954.683	5.09
955.112	0.99
955.54	2.29
955.969	3.09
956.397	-2.71
956.826	0.99
957.254	5.09
957.682	3.79
958.111	5.59
958.539	-3.11
958.967	5.49
959.396	-1.51
959.824	4.19
960.252	1.59
960.68	-0.01
961.109	-1.11
961.537	2.19
961.965	2.29
962.393	1.39
962.821	-0.31
963.249	3.99
963.677	3.39
964.105	5.19
964.533	48.89
964.961	41.39
965.389	22.59
965.817	9.29
966.245	2.09
966.672	-2.71
967.1	-7.01
967.528	-3.11
967.956	0.29
968.383	6.69
968.811	1.99
969.239	0.49
969.666	-5.31
970.094	-1.01
970.522	5.99
970.949	-2.11
971.377	-3.11
971.804	-2.21
972.232	1.59
972.659	-0.41
973.087	-7.01
973.514	0.49
973.941	-2.51
974.369	5.09
974.796	-2.31
975.223	-0.61
975.651	-6.61
976.078	4.19
976.505	-2.71
976.932	7.19
977.359	14.99
977.786	10.99
978.214	1.79
978.641	-0.91
979.068	-0.61
979.495	-2.41
979.922	0.29
980.349	-2.01
980.776	2.19
981.202	1.09
981.629	3.59
982.056	2.69
982.483	-2.31
982.91	4.29
983.337	-4.21
983.763	2.39
984.19	-5.91
984.617	-6.21
985.043	-1.21
985.47	-1.11
985.897	-7.21
986.323	-7.91
986.75	3.59
987.176	-6.31
987.603	-1.61
988.029	5.39
988.456	-2.61
988.882	1.79
989.308	-3.51
989.735	-10.81
990.161	2.19
990.587	-1.71
991.014	6.89
991.44	10.99
991.866	-0.61
992.292	-2.41
992.719	-6.41
993.145	3.19
993.571	-10.21
993.997	-2.21
994.423	2.89
994.849	1.29
995.275	2.29
995.701	1.79
996.127	-2.21
996.553	4.19
996.979	1.09
997.405	-2.61
997.83	-0.01
998.256	-5.11
998.682	-6.01
999.108	-1.21
999.534	-4.61
999.959	1.89
1000.385	-5.21
1000.811	1.79
1001.236	-8.51
1001.662	-4.61
1002.087	-7.21
1002.513	0.69
1002.938	-1.11
1003.364	-4.81
1003.789	-1.71
1004.215	3.89
1004.64	1.59
1005.066	-5.81
1005.491	-0.61
1005.916	0.99
1006.342	-1.61
1006.767	-2.21
1007.192	7.39
1007.617	-9.61
1008.042	-8.41
1008.468	-6.71
1008.893	-1.81
1009.318	-4.01
1009.743	-3.41
1010.168	0.09
1010.593	5.09
1011.018	-7.51
1011.443	2.39
1011.868	-2.51
1012.293	-0.21
1012.718	-4.51
1013.143	-0.61
1013.567	4.99
1013.992	-7.41
1014.417	-14.71
1014.842	-1.71
1015.267	-9.01
1015.691	-4.71
1016.116	7.49
1016.541	2.59
1016.965	0.89
1017.39	2.69
1017.814	-5.41
1018.239	-0.61
1018.663	-7.01
1019.088	-9.21
1019.512	1.19
1019.937	-2.61
1020.361	-2.61
1020.785	-11.21
1021.21	-2.01
1021.634	0.29
1022.058	-5.51
1022.483	4.49
1022.907	-5.51
1023.331	-0.01
1023.755	-4.11
1024.179	-5.61
1024.604	-7.11
1025.028	1.49
1025.452	-5.11
1025.876	-1.01
1026.3	2.19
1026.724	-9.61
1027.148	-8.21
1027.572	-9.61
1027.996	-3.91
1028.42	-2.01
1028.843	-0.21
1029.267	-8.51
1029.691	1.19
1030.115	-5.31
1030.539	-8.61
1030.962	-10.11
1031.386	-8.01
1031.81	0.19
1032.233	-4.51
1032.657	3.39
1033.08	1.39
1033.504	-2.01
1033.927	-1.91
1034.351	-1.81
1034.774	-3.81
1035.198	-2.91
1035.621	-4.91
1036.045	-6.01
1036.468	1.09
1036.891	-15.41
1037.315	-11.01
1037.738	-10.21
1038.161	-1.51
1038.584	-6.11
1039.008	-5.71
1039.431	3.19
1039.854	-4.91
1040.277	-8.51
1040.7	-13.51
1041.123	-3.11
1041.546	-9.21
1041.969	-5.31
1042.392	-2.01
1042.815	0.89
1043.238	1.79
1043.661	-1.61
1044.084	-3.81
1044.507	-5.71
1044.93	-4.91
1045.352	-5.31
1045.775	-8.01
1046.198	-2.31
1046.621	0.99
1047.043	-7.81
1047.466	0.89
1047.889	-4.41
1048.311	-6.51
1048.734	-1.81
1049.156	-4.01
1049.579	-4.61
1050.001	-5.71
1050.424	4.49
1050.846	-5.71
1051.269	0.19
1051.691	-5.61
1052.113	2.19
1052.536	-1.31
1052.958	-6.41
1053.38	-0.61
1053.802	-12.61
1054.225	2.09
1054.647	-7.81
1055.069	-5.81
1055.491	6.29
1055.913	-8.21
1056.335	-1.01
1056.757	-6.01
1057.179	-7.71
1057.601	-1.71
1058.023	-5.11
1058.445	-5.31
1058.867	-6.11
1059.289	-4.01
1059.711	-10.21
1060.133	-5.01
1060.555	-6.61
1060.976	-7.31
1061.398	-11.41
1061.82	-6.11
1062.241	-3.41
1062.663	-12.61
1063.085	-2.41
1063.506	2.09
1063.928	-0.41
1064.35	-0.31
1064.771	-13.71
1065.193	-4.81
1065.614	-8.71
1066.035	-5.31
1066.457	-4.51
1066.878	1.29
1067.3	-2.21
1067.721	-3.71
1068.142	-0.41
1068.564	-6.81
1068.985	-4.11
1069.406	0.69
1069.827	-4.71
1070.248	2.69
1070.67	-5.91
1071.091	-3.71
1071.512	1.49
1071.933	-7.81
1072.354	-8.61
1072.775	-7.11
1073.196	-7.41
1073.617	-2.41
1074.038	-7.31
1074.459	-2.41
1074.88	-7.61
1075.3	1.09
1075.721	-2.91
1076.142	6.29
1076.563	2.49
1076.983	-7.31
1077.404	-5.51
1077.825	-15.21
1078.246	-7.01
1078.666	-15.31
1079.087	-6.21
1079.507	-2.91
1079.928	3.89
1080.348	-0.21
1080.769	-1.31
1081.189	-2.41
1081.61	-2.21
1082.03	-8.21
1082.451	-6.01
1082.871	-4.51
1083.291	-7.61
1083.711	-12.11
1084.132	-8.61
1084.552	-1.91
1084.972	3.99
1085.392	-9.41
1085.813	-12.01
1086.233	-6.21
1086.653	-4.41
1087.073	0.89
1087.493	-3.31
1087.913	-10.81
1088.333	-6.51
1088.753	0.09
1089.173	-6.51
1089.593	-1.61
1090.013	-2.21
1090.433	-6.01
1090.852	-8.11
1091.272	2.59
1091.692	-1.01
1092.112	-5.11
1092.531	-9.41
1092.951	-12.21
1093.371	2.09
1093.79	1.89
1094.21	-7.71
1094.63	-6.61
1095.049	-5.81
1095.469	-0.01
1095.888	-2.11
1096.308	-0.21
1096.727	6.09
1097.146	-8.71
1097.566	3.49
1097.985	-9.11
1098.405	4.29
1098.824	-5.41
1099.243	-13.51
1099.662	-12.31
1100.082	-3.01
1100.501	-0.51
1100.92	-1.91
1101.339	-2.01
1101.758	-6.31
