Data from 20171114-ORNL-Ar_H_NY_Subt18_08-05-29-144.txt Node
Date: Tue Nov 14 08:05:29 EST 2017
User: Ender
Spectrometer: HR+D1039
Trigger mode: 0
Integration Time (sec): 2.730000E-2
Scans to average: 10
Electric dark correction enabled: true
Nonlinearity correction enabled: false
Boxcar width: 0
XAxis mode: Wavelengths
Number of Pixels in Spectrum: 2048
>>>>>Begin Spectral Data<<<<<
187.836	-1.44
188.309	-1.44
188.782	-1.44
189.255	-4.04
189.728	-1.44
190.201	7.76
190.674	3.66
191.147	-1.14
191.619	-7.54
192.092	0.46
192.565	-1.54
193.038	0.76
193.511	0.16
193.984	2.26
194.456	0.16
194.929	-3.74
195.402	3.96
195.874	1.76
196.347	2.06
196.82	-6.94
197.292	4.96
197.765	-1.94
198.237	-1.94
198.71	4.76
199.182	-1.64
199.655	3.36
200.127	-2.84
200.6	0.66
201.072	1.56
201.544	-0.64
202.017	2.26
202.489	5.46
202.961	2.76
203.433	-1.94
203.906	-1.44
204.378	-2.74
204.85	0.86
205.322	-6.34
205.794	1.76
206.266	-5.14
206.739	-9.14
207.211	6.56
207.683	-6.34
208.155	-4.44
208.627	-12.64
209.099	-4.34
209.57	-14.54
210.042	-6.34
210.514	-1.84
210.986	1.66
211.458	-10.64
211.93	-3.54
212.402	4.66
212.873	-1.54
213.345	-8.34
213.817	-7.34
214.288	-0.04
214.76	-7.84
215.232	-1.94
215.703	-4.14
216.175	-1.84
216.646	5.26
217.118	-7.44
217.589	3.56
218.061	-4.84
218.532	-0.14
219.004	0.26
219.475	-4.24
219.946	1.26
220.418	-1.94
220.889	8.86
221.36	-1.74
221.832	4.56
222.303	-11.64
222.774	0.56
223.245	-5.34
223.717	0.86
224.188	-6.24
224.659	-3.54
225.13	-4.54
225.601	-3.84
226.072	4.86
226.543	-5.54
227.014	4.16
227.485	2.26
227.956	-3.94
228.427	0.26
228.898	0.96
229.369	7.66
229.839	0.56
230.31	-9.14
230.781	-2.14
231.252	-5.84
231.722	-7.24
232.193	2.26
232.664	1.46
233.135	0.26
233.605	-3.24
234.076	-3.54
234.546	2.06
235.017	1.76
235.487	7.56
235.958	2.96
236.428	-2.14
236.899	-0.34
237.369	4.56
237.84	0.46
238.31	8.86
238.78	3.56
239.251	4.26
239.721	5.46
240.191	3.56
240.662	0.06
241.132	0.86
241.602	2.26
242.072	4.76
242.542	11.86
243.013	-0.34
243.483	2.36
243.953	4.66
244.423	1.36
244.893	0.76
245.363	10.16
245.833	7.66
246.303	-1.24
246.773	9.36
247.243	7.76
247.712	0.66
248.182	4.06
248.652	12.16
249.122	3.06
249.592	11.96
250.061	21.66
250.531	38.26
251.001	20.76
251.471	20.76
251.94	22.66
252.41	12.56
252.879	-2.34
253.349	14.96
253.818	6.56
254.288	1.86
254.757	5.06
255.227	4.06
255.696	3.86
256.166	6.16
256.635	11.06
257.105	6.46
257.574	8.76
258.043	10.16
258.513	12.86
258.982	18.76
259.451	9.46
259.92	17.86
260.389	16.86
260.859	25.06
261.328	11.16
261.797	19.86
262.266	10.46
262.735	17.86
263.204	5.36
263.673	5.26
264.142	7.76
264.611	-6.44
265.08	5.16
265.549	0.76
266.018	14.96
266.487	-0.24
266.955	3.66
267.424	4.36
267.893	10.16
268.362	12.16
268.83	7.66
269.299	13.36
269.768	10.16
270.236	11.06
270.705	10.96
271.174	10.76
271.642	6.26
272.111	13.46
272.579	26.76
273.048	27.26
273.516	30.66
273.985	28.86
274.453	22.86
274.922	25.66
275.39	15.06
275.858	5.86
276.327	11.86
276.795	26.76
277.263	11.76
277.731	36.36
278.2	55.16
278.668	60.76
279.136	50.16
279.604	22.56
280.072	18.86
280.54	21.46
281.008	13.76
281.477	17.16
281.945	24.06
282.413	20.26
282.881	17.06
283.348	10.06
283.816	19.66
284.284	19.06
284.752	18.16
285.22	16.26
285.688	16.96
286.156	20.26
286.623	47.36
287.091	60.66
287.559	35.16
288.026	22.16
288.494	17.56
288.962	14.56
289.429	11.96
289.897	17.46
290.364	17.06
290.832	18.96
291.3	19.46
291.767	16.06
292.234	19.96
292.702	19.86
293.169	23.16
293.637	25.06
294.104	23.86
294.571	11.56
295.039	13.06
295.506	19.86
295.973	21.76
296.44	19.06
296.908	23.66
297.375	24.16
297.842	20.16
298.309	19.06
298.776	18.16
299.243	18.46
299.71	15.86
300.177	23.86
300.644	28.66
301.111	22.16
301.578	25.46
302.045	21.36
302.512	22.16
302.979	26.76
303.446	20.06
303.913	19.46
304.379	23.66
304.846	31.86
305.313	31.76
305.78	29.16
306.246	26.76
306.713	26.66
307.18	29.76
307.646	32.46
308.113	31.56
308.579	26.26
309.046	35.66
309.512	31.46
309.979	24.86
310.445	30.96
310.912	36.76
311.378	40.76
311.845	38.46
312.311	32.26
312.777	36.96
313.244	36.06
313.71	35.06
314.176	30.86
314.642	28.86
315.109	28.36
315.575	37.56
316.041	40.76
316.507	40.16
316.973	35.06
317.439	38.36
317.905	39.06
318.371	40.46
318.837	34.36
319.303	34.46
319.769	38.46
320.235	36.26
320.701	35.86
321.167	39.46
321.633	36.26
322.099	44.46
322.564	42.86
323.03	45.66
323.496	40.56
323.962	48.26
324.427	43.66
324.893	42.96
325.359	41.66
325.824	47.36
326.29	39.06
326.755	39.56
327.221	37.06
327.686	45.56
328.152	52.86
328.617	43.56
329.083	49.46
329.548	55.46
330.014	50.66
330.479	43.76
330.944	45.46
331.41	41.56
331.875	49.86
332.34	50.76
332.805	52.06
333.271	52.26
333.736	44.56
334.201	58.26
334.666	57.06
335.131	57.76
335.596	51.76
336.061	52.86
336.526	49.96
336.991	49.56
337.456	55.66
337.921	49.06
338.386	49.86
338.851	49.16
339.316	52.06
339.781	49.16
340.246	57.76
340.711	52.36
341.175	53.86
341.64	48.36
342.105	52.26
342.569	56.66
343.034	59.06
343.499	59.66
343.963	58.76
344.428	64.06
344.893	66.06
345.357	64.76
345.822	61.86
346.286	65.96
346.751	81.46
347.215	74.16
347.679	74.96
348.144	102.96
348.608	89.36
349.073	73.76
349.537	82.66
350.001	80.76
350.465	91.06
350.93	83.66
351.394	83.86
351.858	79.46
352.322	92.76
352.786	94.06
353.25	103.46
353.715	114.66
354.179	99.76
354.643	127.06
355.107	131.26
355.571	109.66
356.035	104.46
356.498	120.16
356.962	128.66
357.426	137.76
357.89	115.46
358.354	90.46
358.818	81.96
359.281	80.96
359.745	80.36
360.209	75.86
360.673	69.56
361.136	86.06
361.6	88.26
362.064	87.66
362.527	83.76
362.991	98.36
363.454	86.46
363.918	78.46
364.381	83.06
364.845	81.36
365.308	88.06
365.772	87.76
366.235	85.76
366.698	88.06
367.162	87.46
367.625	86.16
368.088	93.06
368.552	90.16
369.015	92.16
369.478	103.16
369.941	100.96
370.404	97.26
370.867	103.76
371.331	111.06
371.794	119.96
372.257	113.06
372.72	116.36
373.183	111.26
373.646	105.16
374.109	103.16
374.572	113.36
375.035	105.76
375.497	113.56
375.96	108.86
376.423	111.16
376.886	107.26
377.349	113.86
377.811	104.76
378.274	106.96
378.737	108.46
379.199	113.06
379.662	121.46
380.125	114.46
380.587	116.76
381.05	131.96
381.512	132.26
381.975	134.66
382.437	128.66
382.9	127.96
383.362	134.36
383.825	141.46
384.287	144.66
384.75	139.66
385.212	135.26
385.674	142.86
386.136	143.16
386.599	124.66
387.061	127.46
387.523	127.26
387.985	132.86
388.447	146.86
388.91	138.46
389.372	159.06
389.834	152.36
390.296	140.56
390.758	149.56
391.22	169.76
391.682	206.56
392.144	287.76
392.606	221.36
393.068	162.16
393.529	165.66
393.991	154.56
394.453	153.26
394.915	165.86
395.377	188.76
395.838	210.96
396.3	155.96
396.762	141.36
397.224	137.66
397.685	128.46
398.147	134.06
398.608	137.86
399.07	124.26
399.531	137.76
399.993	138.16
400.454	152.66
400.916	142.36
401.377	151.46
401.839	151.96
402.3	154.46
402.762	166.66
403.223	180.16
403.684	176.16
404.145	163.56
404.607	163.76
405.068	166.66
405.529	170.76
405.99	190.26
406.451	176.76
406.913	178.46
407.374	164.36
407.835	165.76
408.296	164.46
408.757	177.66
409.218	183.66
409.679	185.86
410.14	171.26
410.601	171.96
411.062	189.96
411.522	192.36
411.983	190.56
412.444	171.06
412.905	181.16
413.366	184.66
413.826	198.36
414.287	218.56
414.748	264.66
415.208	240.86
415.669	221.26
416.13	209.66
416.59	201.36
417.051	208.86
417.511	222.46
417.972	236.96
418.432	251.76
418.893	283.76
419.353	249.06
419.814	194.66
420.274	188.36
420.734	178.56
421.195	203.06
421.655	195.96
422.115	191.76
422.576	186.06
423.036	197.06
423.496	203.66
423.956	210.26
424.416	231.26
424.876	265.96
425.336	261.96
425.797	258.46
426.257	261.16
426.717	235.36
427.177	233.76
427.637	222.16
428.097	240.06
428.556	249.96
429.016	266.06
429.476	260.96
429.936	274.46
430.396	283.06
430.856	292.36
431.315	314.36
431.775	345.36
432.235	374.66
432.694	358.26
433.154	369.56
433.614	395.16
434.073	345.06
434.533	295.16
434.993	270.96
435.452	277.36
435.912	290.26
436.371	290.76
436.83	283.66
437.29	270.06
437.749	246.26
438.209	246.36
438.668	282.16
439.127	298.06
439.587	267.96
440.046	245.36
440.505	264.16
440.964	277.66
441.424	322.96
441.883	315.46
442.342	260.36
442.801	225.06
443.26	215.06
443.719	219.86
444.178	218.26
444.637	214.86
445.096	218.16
445.555	221.16
446.014	224.46
446.473	232.66
446.932	232.66
447.391	219.86
447.849	225.56
448.308	216.26
448.767	218.46
449.226	238.16
449.685	234.36
450.143	252.86
450.602	233.96
451.061	231.46
451.519	230.16
451.978	235.66
452.436	234.96
452.895	239.56
453.353	254.36
453.812	244.66
454.27	248.46
454.729	239.86
455.187	234.16
455.646	246.16
456.104	252.76
456.562	261.76
457.021	271.46
457.479	264.06
457.937	270.96
458.395	264.96
458.854	241.76
459.312	254.86
459.77	276.76
460.228	259.46
460.686	241.06
461.144	250.66
461.602	245.96
462.06	243.76
462.518	260.76
462.976	255.46
463.434	256.36
463.892	266.56
464.35	275.56
464.808	290.56
465.266	264.26
465.724	267.56
466.181	273.16
466.639	268.26
467.097	280.96
467.555	294.26
468.012	306.16
468.47	316.56
468.928	331.26
469.385	348.46
469.843	344.16
470.3	360.46
470.758	372.26
471.215	380.46
471.673	402.06
472.13	405.66
472.588	411.46
473.045	369.26
473.503	378.16
473.96	395.46
474.417	405.86
474.875	435.56
475.332	477.06
475.789	456.56
476.246	463.76
476.704	491.76
477.161	510.96
477.618	524.96
478.075	558.86
478.532	613.66
478.989	692.76
479.446	818.36
479.903	775.26
480.36	809.66
480.817	870.06
481.274	967.76
481.731	1079.46
482.188	1166.66
482.645	1315.76
483.102	1432.86
483.558	1560.76
484.015	1621.96
484.472	1586.96
484.929	1540.86
485.385	1485.26
485.842	1453.66
486.299	1385.66
486.755	1312.06
487.212	1121.66
487.668	932.16
488.125	852.56
488.582	790.36
489.038	755.66
489.494	719.96
489.951	692.46
490.407	673.56
490.864	654.36
491.32	644.26
491.776	642.76
492.233	643.56
492.689	607.66
493.145	610.76
493.602	602.26
494.058	615.26
494.514	611.06
494.97	636.46
495.426	651.66
495.882	623.06
496.338	620.06
496.794	625.06
497.251	629.16
497.707	635.76
498.163	642.36
498.618	654.96
499.074	647.86
499.53	673.86
499.986	671.96
500.442	656.56
500.898	635.66
501.354	624.26
501.809	636.36
502.265	641.36
502.721	652.66
503.177	675.36
503.632	659.36
504.088	675.86
504.543	708.36
504.999	706.56
505.455	661.56
505.91	634.36
506.366	633.26
506.821	621.96
507.277	622.86
507.732	621.66
508.187	616.26
508.643	632.56
509.098	629.36
509.553	662.86
510.009	663.36
510.464	662.26
510.919	694.26
511.375	692.36
511.83	706.56
512.285	734.06
512.74	759.66
513.195	784.26
513.65	774.76
514.105	766.76
514.56	776.96
515.015	802.06
515.47	809.86
515.925	793.46
516.38	789.06
516.835	795.26
517.29	784.46
517.745	781.66
518.2	764.96
518.655	746.16
519.109	742.36
519.564	740.86
520.019	734.36
520.474	727.16
520.928	728.76
521.383	721.96
521.838	710.46
522.292	705.76
522.747	705.06
523.201	699.26
523.656	696.66
524.11	691.06
524.565	691.56
525.019	682.26
525.474	699.76
525.928	692.26
526.382	692.36
526.837	689.46
527.291	692.46
527.745	697.96
528.2	701.96
528.654	695.06
529.108	691.66
529.562	687.96
530.016	681.56
530.47	686.86
530.925	690.76
531.379	697.96
531.833	705.66
532.287	700.26
532.741	706.16
533.195	694.86
533.649	705.06
534.103	717.66
534.556	705.56
535.01	717.36
535.464	708.16
535.918	716.26
536.372	713.56
536.826	716.86
537.279	714.76
537.733	712.76
538.187	711.86
538.64	710.86
539.094	718.06
539.548	727.46
540.001	731.46
540.455	725.16
540.908	727.96
541.362	733.16
541.815	741.36
542.269	753.66
542.722	757.06
543.175	761.06
543.629	772.56
544.082	778.46
544.536	783.96
544.989	780.96
545.442	791.56
545.895	787.06
546.349	771.96
546.802	786.66
547.255	782.46
547.708	784.96
548.161	811.76
548.614	813.96
549.067	822.06
549.52	802.86
549.973	805.66
550.426	801.76
550.879	788.46
551.332	794.96
551.785	797.96
552.238	801.56
552.691	812.46
553.144	834.36
553.596	841.76
554.049	853.56
554.502	887.26
554.955	899.46
555.407	897.06
555.86	886.46
556.313	884.66
556.765	872.66
557.218	873.26
557.67	866.66
558.123	863.56
558.576	863.16
559.028	865.46
559.48	881.26
559.933	872.06
560.385	829.56
560.838	802.26
561.29	779.56
561.742	777.66
562.195	761.86
562.647	758.36
563.099	756.66
563.551	768.76
564.004	776.56
564.456	761.56
564.908	761.96
565.36	738.36
565.812	726.26
566.264	717.26
566.716	719.56
567.168	698.16
567.62	712.16
568.072	689.06
568.524	685.66
568.976	680.66
569.428	661.46
569.88	657.76
570.332	670.86
570.784	667.06
571.235	676.56
571.687	685.06
572.139	691.06
572.59	691.26
573.042	706.16
573.494	701.26
573.945	695.36
574.397	673.26
574.849	677.56
575.3	681.26
575.752	669.26
576.203	663.86
576.655	666.36
577.106	671.76
577.557	660.06
578.009	669.66
578.46	659.66
578.912	649.76
579.363	655.06
579.814	664.06
580.265	636.66
580.717	651.56
581.168	649.66
581.619	671.96
582.07	675.26
582.521	661.66
582.972	653.76
583.423	663.86
583.875	666.86
584.326	691.76
584.777	732.36
585.227	802.46
585.678	883.66
586.129	977.26
586.58	1048.56
587.031	1127.36
587.482	1290.26
587.933	1466.06
588.384	1285.96
588.834	945.56
589.285	792.16
589.736	766.36
590.186	760.56
590.637	747.46
591.088	727.16
591.538	723.76
591.989	708.46
592.439	706.56
592.89	699.16
593.34	694.36
593.791	698.56
594.241	690.56
594.692	688.36
595.142	691.86
595.593	694.46
596.043	689.26
596.493	702.56
596.943	709.96
597.394	704.56
597.844	703.86
598.294	710.56
598.744	735.76
599.195	749.86
599.645	805.06
600.095	836.86
600.545	890.96
600.995	941.76
601.445	996.86
601.895	1064.26
602.345	1102.56
602.795	1085.96
603.245	1033.86
603.695	992.86
604.145	931.56
604.594	891.16
605.044	833.76
605.494	781.06
605.944	737.26
606.393	719.66
606.843	713.76
607.293	705.86
607.743	718.66
608.192	721.16
608.642	738.26
609.091	742.36
609.541	751.16
609.99	752.56
610.44	751.16
610.889	710.96
611.339	681.56
611.788	668.26
612.238	688.86
612.687	698.96
613.136	694.36
613.586	720.76
614.035	713.46
614.484	734.96
614.933	741.36
615.383	737.56
615.832	714.46
616.281	703.16
616.73	673.86
617.179	641.86
617.628	632.86
618.077	612.16
618.526	610.66
618.975	598.56
619.424	598.56
619.873	586.36
620.322	602.56
620.771	584.16
621.22	584.26
621.669	567.46
622.118	565.16
622.567	558.76
623.015	555.26
623.464	545.16
623.913	543.76
624.361	528.06
624.81	533.66
625.259	528.66
625.707	545.16
626.156	542.76
626.604	553.16
627.053	543.86
627.501	540.06
627.95	547.56
628.398	559.26
628.847	557.66
629.295	549.76
629.744	552.96
630.192	549.46
630.64	547.36
631.089	544.86
631.537	564.36
631.985	573.76
632.433	569.86
632.881	584.66
633.33	631.76
633.778	615.76
634.226	538.06
634.674	546.06
635.122	550.96
635.57	571.96
636.018	599.76
636.466	559.46
636.914	530.46
637.362	552.36
637.81	550.26
638.258	552.76
638.705	555.86
639.153	584.76
639.601	590.96
640.049	612.86
640.497	645.46
640.944	665.76
641.392	622.96
641.84	585.56
642.287	557.96
642.735	539.36
643.182	547.76
643.63	547.96
644.078	553.16
644.525	565.26
644.973	575.36
645.42	576.46
645.867	604.26
646.315	616.56
646.762	640.96
647.21	664.26
647.657	678.06
648.104	721.26
648.551	750.66
648.999	801.26
649.446	878.36
649.893	953.26
650.34	1114.96
650.787	1340.96
651.234	1658.86
651.682	2145.96
652.129	2963.66
652.576	4253.86
653.023	6282.06
653.47	8643.26
653.917	10862.96
654.363	12641.76
654.81	14026.86
655.257	13382.66
655.704	8710.36
656.151	5167.36
656.598	3317.56
657.044	2360.36
657.491	1816.36
657.938	1441.46
658.385	1201.16
658.831	1043.26
659.278	936.06
659.724	830.36
660.171	757.46
660.618	702.56
661.064	659.26
661.511	641.56
661.957	628.26
662.404	625.96
662.85	632.06
663.296	595.26
663.743	538.56
664.189	517.26
664.635	508.86
665.082	502.86
665.528	496.56
665.974	494.36
666.42	489.56
666.867	484.76
667.313	467.06
667.759	461.66
668.205	452.76
668.651	466.76
669.097	461.76
669.543	474.76
669.989	452.06
670.435	429.46
670.881	428.36
671.327	429.86
671.773	454.66
672.219	460.96
672.665	521.16
673.11	558.66
673.556	603.16
674.002	633.96
674.448	622.66
674.893	523.66
675.339	449.46
675.785	413.96
676.23	400.56
676.676	374.76
677.122	361.46
677.567	354.36
678.013	356.56
678.458	339.96
678.904	343.36
679.349	326.36
679.794	337.16
680.24	334.46
680.685	328.36
681.131	326.96
681.576	328.96
682.021	341.66
682.466	330.16
682.912	332.56
683.357	333.56
683.802	363.96
684.247	391.06
684.692	438.96
685.137	473.26
685.583	510.36
686.028	533.16
686.473	487.26
686.918	419.26
687.363	391.06
687.807	372.16
688.252	340.46
688.697	334.96
689.142	308.66
689.587	315.46
690.032	305.96
690.477	327.86
690.921	334.16
691.366	353.06
691.811	379.56
692.255	402.86
692.7	439.96
693.145	476.16
693.589	641.66
694.034	1039.66
694.478	1444.26
694.923	1640.76
695.367	2158.86
695.812	1134.36
696.256	476.16
696.701	353.16
697.145	326.06
697.59	309.36
698.034	307.66
698.478	310.16
698.922	306.56
699.367	313.06
699.811	314.66
700.255	327.36
700.699	370.06
701.143	403.26
701.588	451.36
702.032	489.36
702.476	479.06
702.92	461.26
703.364	454.06
703.808	592.96
704.252	954.56
704.696	1353.46
705.14	1567.36
705.584	2030.36
706.027	1005.86
706.471	485.46
706.915	370.36
707.359	335.96
707.803	302.06
708.246	287.46
708.69	299.06
709.134	294.16
709.577	293.46
710.021	298.36
710.465	290.26
710.908	282.26
711.352	279.16
711.795	292.26
712.239	326.96
712.682	361.66
713.126	396.56
713.569	440.66
714.012	351.66
714.456	307.96
714.899	291.46
715.342	262.56
715.786	248.16
716.229	248.66
716.672	244.26
717.115	236.36
717.558	238.96
718.002	243.86
718.445	251.06
718.888	270.66
719.331	282.26
719.774	289.46
720.217	285.16
720.66	265.16
721.103	247.96
721.546	241.66
721.989	232.96
722.432	216.76
722.874	224.76
723.317	221.76
723.76	221.26
724.203	236.16
724.645	296.26
725.088	417.26
725.531	535.76
725.974	603.76
726.416	520.46
726.859	288.56
727.301	230.86
727.744	223.76
728.187	216.66
728.629	222.76
729.071	227.56
729.514	249.96
729.956	263.36
730.399	256.36
730.841	278.06
731.283	258.76
731.726	251.56
732.168	246.86
732.61	255.06
733.053	268.56
733.495	290.76
733.937	328.76
734.379	374.76
734.821	403.26
735.263	498.56
735.705	763.06
736.148	1438.26
736.59	2393.76
737.032	2902.76
737.474	2338.76
737.916	763.66
738.357	407.96
738.799	306.76
739.241	282.06
739.683	272.96
740.125	273.06
740.567	283.26
741.008	294.26
741.45	298.56
741.892	296.96
742.334	329.46
742.775	343.06
743.217	315.26
743.658	252.86
744.1	237.16
744.542	243.16
744.983	290.96
745.425	328.66
745.866	333.86
746.307	268.76
746.749	257.86
747.19	295.96
747.632	419.66
748.073	801.36
748.514	1707.56
748.956	2670.46
749.397	3334.36
749.838	2760.76
750.279	2819.66
750.72	1401.46
751.162	511.66
751.603	306.16
752.044	235.16
752.485	203.06
752.926	200.66
753.367	191.26
753.808	182.26
754.249	182.86
754.69	178.16
755.131	169.06
755.572	163.36
756.013	168.46
756.453	172.56
756.894	175.66
757.335	177.66
757.776	187.76
758.216	184.66
758.657	185.26
759.098	191.16
759.538	212.06
759.979	248.46
760.42	350.16
760.86	641.56
761.301	1661.16
761.741	4062.16
762.182	6083.46
762.622	4320.46
763.063	1230.46
763.503	500.86
763.943	320.26
764.384	320.56
764.824	377.66
765.264	415.86
765.705	288.16
766.145	192.96
766.585	172.86
767.025	178.06
767.465	167.96
767.906	221.56
768.346	300.06
768.786	325.96
769.226	250.56
769.666	295.76
770.106	557.56
770.546	1401.86
770.986	2486.26
771.426	2235.36
771.866	745.76
772.306	309.66
772.745	191.06
773.185	157.46
773.625	163.56
774.065	156.46
774.505	184.06
774.944	285.66
775.384	642.16
775.824	1181.66
776.263	1157.76
776.703	485.76
777.142	216.66
777.582	147.66
778.021	128.46
778.461	126.66
778.9	132.46
779.34	126.76
779.779	112.06
780.219	109.36
780.658	102.86
781.097	100.46
781.537	112.06
781.976	103.96
782.415	103.56
782.855	97.16
783.294	99.06
783.733	101.76
784.172	99.46
784.611	95.66
785.05	102.46
785.489	103.96
785.928	104.56
786.367	111.26
786.806	110.46
787.245	121.06
787.684	130.56
788.123	139.56
788.562	129.26
789.001	121.66
789.44	112.16
789.879	111.66
790.317	111.16
790.756	124.06
791.195	122.16
791.634	139.16
792.072	187.06
792.511	327.66
792.95	914.36
793.388	1985.06
793.827	1849.86
794.265	635.96
794.704	266.06
795.142	168.06
795.581	139.56
796.019	135.56
796.458	122.36
796.896	115.76
797.334	125.46
797.773	144.16
798.211	197.06
798.649	402.86
799.087	930.06
799.526	1475.56
799.964	1855.56
800.402	1904.76
800.84	706.86
801.278	277.06
801.716	175.26
802.154	142.76
802.592	133.46
803.03	128.76
803.468	124.86
803.906	134.26
804.344	142.66
804.782	131.76
805.22	122.26
805.658	116.56
806.096	138.96
806.533	147.76
806.971	156.16
807.409	203.46
807.847	295.16
808.284	593.56
808.722	1704.46
809.16	3074.96
809.597	2866.46
810.035	5031.66
810.472	5499.86
810.91	1963.16
811.347	732.46
811.785	370.46
812.222	236.76
812.66	179.76
813.097	155.66
813.535	136.76
813.972	119.26
814.409	106.96
814.846	107.96
815.284	103.56
815.721	96.96
816.158	104.96
816.595	108.96
817.032	165.26
817.47	187.46
817.907	170.36
818.344	137.66
818.781	104.16
819.218	95.06
819.655	111.46
820.092	170.36
820.529	203.96
820.966	161.16
821.403	120.86
821.839	101.16
822.276	97.66
822.713	115.06
823.15	129.26
823.587	106.66
824.023	132.56
824.46	273.26
824.897	818.36
825.333	1270.76
825.77	547.46
826.206	219.56
826.643	123.46
827.08	95.56
827.516	81.76
827.953	79.46
828.389	75.26
828.825	68.56
829.262	68.66
829.698	59.46
830.135	62.96
830.571	59.46
831.007	65.66
831.443	58.16
831.88	59.36
832.316	58.46
832.752	59.16
833.188	61.26
833.624	62.56
834.06	63.46
834.497	63.36
834.933	69.96
835.369	69.86
835.805	59.46
836.241	72.96
836.677	75.36
837.112	90.16
837.548	99.86
837.984	119.66
838.42	189.66
838.856	444.96
839.292	1383.36
839.727	2177.46
840.163	1011.86
840.599	836.66
841.034	1890.06
841.47	2008.76
841.906	736.76
842.341	320.56
842.777	214.46
843.212	299.66
843.648	299.96
844.083	144.56
844.519	94.46
844.954	73.56
845.39	66.26
845.825	60.16
846.261	53.86
846.696	55.06
847.131	53.36
847.566	52.46
848.002	56.86
848.437	55.96
848.872	55.46
849.307	57.56
849.742	80.76
850.177	159.96
850.613	509.76
851.048	832.56
851.483	362.76
851.918	145.16
852.353	85.16
852.788	60.36
853.223	52.36
853.657	55.86
854.092	46.46
854.527	37.96
854.962	37.16
855.397	42.66
855.832	48.76
856.266	40.56
856.701	40.66
857.136	40.06
857.57	43.26
858.005	48.56
858.44	54.16
858.874	44.06
859.309	53.56
859.743	34.66
860.178	47.26
860.612	43.36
861.047	47.16
861.481	61.96
861.915	63.76
862.35	45.56
862.784	30.16
863.218	33.96
863.653	31.36
864.087	43.86
864.521	52.16
864.955	65.36
865.39	145.86
865.824	161.76
866.258	108.36
866.692	152.46
867.126	164.56
867.56	103.36
867.994	53.56
868.428	35.56
868.862	45.06
869.296	45.96
869.73	55.76
870.164	50.16
870.598	39.66
871.031	37.56
871.465	31.46
871.899	27.56
872.333	19.06
872.766	30.06
873.2	27.76
873.634	33.26
874.067	19.66
874.501	24.26
874.935	34.36
875.368	26.46
875.802	20.06
876.235	21.36
876.669	24.16
877.102	22.76
877.535	24.06
877.969	23.66
878.402	18.56
878.836	20.86
879.269	25.56
879.702	19.66
880.135	20.76
880.569	18.26
881.002	31.26
881.435	19.76
881.868	16.66
882.301	21.36
882.734	18.86
883.167	21.76
883.601	15.66
884.034	21.26
884.467	14.16
884.899	23.36
885.332	21.66
885.765	19.26
886.198	16.16
886.631	18.76
887.064	17.56
887.497	23.26
887.929	25.66
888.362	16.76
888.795	8.96
889.228	16.36
889.66	18.36
890.093	15.16
890.526	13.56
890.958	14.96
891.391	20.36
891.823	19.06
892.256	10.56
892.688	12.66
893.121	17.96
893.553	11.76
893.985	24.56
894.418	20.26
894.85	14.26
895.282	16.96
895.715	19.96
896.147	18.26
896.579	17.66
897.011	10.56
897.444	12.46
897.876	14.56
898.308	16.46
898.74	13.46
899.172	17.96
899.604	16.76
900.036	20.66
900.468	12.66
900.9	15.56
901.332	22.66
901.764	13.86
902.196	19.56
902.628	11.66
903.06	15.56
903.491	24.56
903.923	19.66
904.355	15.66
904.787	28.06
905.218	22.06
905.65	15.86
906.082	7.36
906.513	10.96
906.945	16.26
907.376	13.46
907.808	17.66
908.239	17.76
908.671	17.76
909.102	18.66
909.534	21.86
909.965	46.46
910.397	81.06
910.828	287.86
911.259	442.96
911.691	205.46
912.122	98.56
912.553	51.36
912.984	31.96
913.415	28.46
913.847	28.96
914.278	18.16
914.709	18.96
915.14	22.26
915.571	20.16
916.002	10.46
916.433	22.46
916.864	13.46
917.295	11.76
917.726	19.06
918.157	11.06
918.587	21.56
919.018	19.76
919.449	21.56
919.88	13.36
920.311	26.06
920.741	47.16
921.172	154.96
921.603	139.06
922.033	72.26
922.464	48.96
922.895	23.26
923.325	22.96
923.756	18.26
924.186	14.16
924.617	27.86
925.047	35.36
925.478	48.56
925.908	44.16
926.338	22.76
926.769	19.86
927.199	24.56
927.629	10.96
928.06	18.66
928.49	12.46
928.92	14.16
929.35	9.96
929.78	13.06
930.21	11.86
930.641	6.26
931.071	11.76
931.501	3.96
931.931	6.56
932.361	4.26
932.791	5.66
933.221	4.46
933.651	0.36
934.08	15.16
934.51	29.36
934.94	9.76
935.37	8.26
935.8	8.36
936.229	10.46
936.659	10.86
937.089	1.66
937.519	8.76
937.948	24.66
938.378	11.96
938.807	6.76
939.237	6.06
939.666	17.76
940.096	-0.44
940.525	-1.24
940.955	5.06
941.384	3.76
941.814	-0.94
942.243	-1.84
942.672	1.66
943.102	1.16
943.531	3.76
943.96	3.76
944.39	8.86
944.819	2.56
945.248	4.66
945.677	1.06
946.106	5.56
946.535	9.76
946.964	2.66
947.393	5.96
947.822	4.46
948.251	-2.04
948.68	0.56
949.109	6.56
949.538	9.16
949.967	4.26
950.396	-0.74
950.825	-1.84
951.254	4.66
951.682	-2.94
952.111	4.96
952.54	5.76
952.969	-3.24
953.397	-6.14
953.826	5.86
954.254	-6.54
954.683	2.26
955.112	0.36
955.54	-0.34
955.969	-0.64
956.397	2.36
956.826	-3.14
957.254	3.66
957.682	5.46
958.111	4.36
958.539	-4.64
958.967	0.86
959.396	-1.04
959.824	1.86
960.252	6.26
960.68	1.86
961.109	-3.94
961.537	-2.24
961.965	-2.04
962.393	-0.64
962.821	-1.84
963.249	-2.94
963.677	0.46
964.105	9.06
964.533	44.96
964.961	45.06
965.389	21.26
965.817	8.76
966.245	0.96
966.672	-0.34
967.1	-7.74
967.528	2.56
967.956	0.26
968.383	4.06
968.811	-5.64
969.239	-5.24
969.666	-1.44
970.094	-2.24
970.522	-2.54
970.949	1.06
971.377	-5.14
971.804	-4.54
972.232	-1.44
972.659	-0.14
973.087	-1.54
973.514	-1.54
973.941	-6.24
974.369	4.76
974.796	-0.74
975.223	0.46
975.651	0.06
976.078	2.46
976.505	1.26
976.932	9.16
977.359	16.96
977.786	15.86
978.214	4.86
978.641	-2.24
979.068	-2.94
979.495	-6.74
979.922	1.76
980.349	-2.34
980.776	5.76
981.202	1.66
981.629	1.16
982.056	6.26
982.483	-1.74
982.91	4.86
983.337	-1.74
983.763	7.36
984.19	-3.24
984.617	3.06
985.043	-1.04
985.47	2.16
985.897	-2.64
986.323	-9.94
986.75	0.56
987.176	2.16
987.603	-0.74
988.029	3.86
988.456	-6.04
988.882	1.36
989.308	-4.44
989.735	-3.14
990.161	-0.24
990.587	1.46
991.014	-2.74
991.44	9.26
991.866	2.06
992.292	0.86
992.719	-0.24
993.145	2.66
993.571	-6.94
993.997	-7.54
994.423	0.76
994.849	-3.24
995.275	6.66
995.701	3.76
996.127	0.56
996.553	1.16
996.979	2.76
997.405	0.36
997.83	-5.24
998.256	-7.24
998.682	-5.04
999.108	-9.84
999.534	-0.24
999.959	1.16
1000.385	-4.34
1000.811	-3.14
1001.236	-10.34
1001.662	-5.44
1002.087	-5.44
1002.513	-2.74
1002.938	7.76
1003.364	-0.84
1003.789	1.76
1004.215	8.96
1004.64	1.06
1005.066	1.36
1005.491	-6.34
1005.916	-1.94
1006.342	-9.44
1006.767	-4.44
1007.192	-1.14
1007.617	-2.74
1008.042	-6.44
1008.468	-2.44
1008.893	-0.74
1009.318	-0.44
1009.743	-6.04
1010.168	3.06
1010.593	0.86
1011.018	-8.94
1011.443	0.46
1011.868	-1.34
1012.293	-3.14
1012.718	-9.14
1013.143	-1.64
1013.567	-1.14
1013.992	0.66
1014.417	-13.54
1014.842	-0.94
1015.267	-7.74
1015.691	-8.34
1016.116	1.06
1016.541	-1.04
1016.965	1.76
1017.39	4.36
1017.814	-5.54
1018.239	-1.24
1018.663	-7.14
1019.088	-9.64
1019.512	-0.34
1019.937	0.16
1020.361	-2.94
1020.785	-8.04
1021.21	1.36
1021.634	0.66
1022.058	0.06
1022.483	6.36
1022.907	-2.54
1023.331	-8.94
1023.755	-5.14
1024.179	0.96
1024.604	-2.74
1025.028	-5.14
1025.452	-4.14
1025.876	-3.74
1026.3	-2.04
1026.724	-5.84
1027.148	0.36
1027.572	-2.74
1027.996	-5.24
1028.42	0.36
1028.843	0.56
1029.267	-0.24
1029.691	1.66
1030.115	1.06
1030.539	-8.34
1030.962	-2.84
1031.386	-13.14
1031.81	3.76
1032.233	0.16
1032.657	-2.84
1033.08	-1.84
1033.504	-4.14
1033.927	-4.24
1034.351	5.76
1034.774	0.56
1035.198	0.86
1035.621	-6.04
1036.045	-5.54
1036.468	-0.84
1036.891	-8.54
1037.315	-11.74
1037.738	-10.24
1038.161	0.96
1038.584	-1.84
1039.008	-0.44
1039.431	-0.84
1039.854	-1.84
1040.277	-4.24
1040.7	-11.24
1041.123	-1.94
1041.546	-7.34
1041.969	-4.34
1042.392	-8.74
1042.815	-2.04
1043.238	-1.64
1043.661	-2.14
1044.084	-11.14
1044.507	-3.44
1044.93	-5.74
1045.352	-9.14
1045.775	-1.54
1046.198	0.56
1046.621	-5.84
1047.043	2.46
1047.466	9.36
1047.889	1.36
1048.311	-7.94
1048.734	0.36
1049.156	-6.74
1049.579	-4.04
1050.001	-4.34
1050.424	-1.64
1050.846	1.86
1051.269	-0.34
1051.691	-7.14
1052.113	-1.44
1052.536	1.86
1052.958	3.56
1053.38	-0.64
1053.802	-15.74
1054.225	1.56
1054.647	-1.14
1055.069	-6.94
1055.491	0.86
1055.913	-6.84
1056.335	1.76
1056.757	-4.84
1057.179	-5.14
1057.601	-6.84
1058.023	-4.74
1058.445	-9.14
1058.867	-3.34
1059.289	-4.44
1059.711	-8.24
1060.133	-4.44
1060.555	-2.74
1060.976	-8.64
1061.398	-10.04
1061.82	-1.44
1062.241	-5.84
1062.663	-1.94
1063.085	-0.64
1063.506	-3.74
1063.928	-5.84
1064.35	1.36
1064.771	-12.94
1065.193	-1.94
1065.614	-8.34
1066.035	-5.84
1066.457	-5.04
1066.878	2.76
1067.3	4.36
1067.721	-5.74
1068.142	-3.74
1068.564	-8.04
1068.985	-7.84
1069.406	-1.84
1069.827	-1.74
1070.248	1.46
1070.67	-2.24
1071.091	-0.54
1071.512	-5.14
1071.933	-9.84
1072.354	-9.34
1072.775	1.06
1073.196	-4.24
1073.617	-11.54
1074.038	-10.84
1074.459	1.66
1074.88	-7.14
1075.3	1.06
1075.721	-7.84
1076.142	2.36
1076.563	-4.74
1076.983	-9.44
1077.404	-7.64
1077.825	-13.04
1078.246	-1.54
1078.666	-10.14
1079.087	-0.84
1079.507	-5.54
1079.928	-5.24
1080.348	-2.74
1080.769	2.06
1081.189	2.86
1081.61	0.86
1082.03	-10.64
1082.451	-7.74
1082.871	-3.34
1083.291	-2.84
1083.711	-12.54
1084.132	-8.74
1084.552	-7.44
1084.972	-0.14
1085.392	-6.14
1085.813	-10.14
1086.233	-8.34
1086.653	-4.44
1087.073	1.06
1087.493	-2.54
1087.913	-2.54
1088.333	-8.24
1088.753	-3.34
1089.173	6.06
1089.593	-0.94
1090.013	-2.14
1090.433	-3.14
1090.852	-1.24
1091.272	-1.34
1091.692	0.06
1092.112	-2.74
1092.531	-8.54
1092.951	-9.84
1093.371	-3.74
1093.79	-2.54
1094.21	-3.44
1094.63	-4.84
1095.049	-6.24
1095.469	-0.84
1095.888	-3.24
1096.308	4.96
1096.727	8.86
1097.146	-4.94
1097.566	1.16
1097.985	-2.34
1098.405	1.26
1098.824	-10.34
1099.243	-5.94
1099.662	-4.14
1100.082	-4.54
1100.501	-0.44
1100.92	-8.04
1101.339	-3.44
1101.758	-7.04
