Data from 20171114-ORNL-Ar_H_NY_Subt18_08-08-29-306.txt Node
Date: Tue Nov 14 08:08:29 EST 2017
User: Ender
Spectrometer: HR+D1039
Trigger mode: 0
Integration Time (sec): 2.730000E-2
Scans to average: 10
Electric dark correction enabled: true
Nonlinearity correction enabled: false
Boxcar width: 0
XAxis mode: Wavelengths
Number of Pixels in Spectrum: 2048
>>>>>Begin Spectral Data<<<<<
187.836	-1.87
188.309	-1.87
188.782	-1.87
189.255	2.03
189.728	0.13
190.201	2.13
190.674	4.23
191.147	-0.67
191.619	-6.17
192.092	-3.77
192.565	3.23
193.038	1.43
193.511	2.93
193.984	-0.07
194.456	-6.97
194.929	4.83
195.402	-2.37
195.874	0.93
196.347	-1.87
196.82	-6.47
197.292	0.93
197.765	-2.57
198.237	-6.77
198.71	3.23
199.182	-0.47
199.655	-1.77
200.127	2.83
200.6	-6.57
201.072	-3.07
201.544	-11.27
202.017	-3.27
202.489	0.93
202.961	2.23
203.433	-0.67
203.906	-9.67
204.378	-6.97
204.85	-9.47
205.322	-5.37
205.794	-5.57
206.266	-7.37
206.739	-10.57
207.211	0.83
207.683	-3.37
208.155	-6.57
208.627	-7.47
209.099	-7.87
209.57	-6.17
210.042	-4.97
210.514	-2.17
210.986	-4.47
211.458	-9.47
211.93	-3.47
212.402	2.33
212.873	-1.97
213.345	-7.97
213.817	-14.67
214.288	-7.87
214.76	-13.27
215.232	-2.77
215.703	1.23
216.175	-3.57
216.646	-8.77
217.118	-6.87
217.589	-8.57
218.061	-5.37
218.532	-5.57
219.004	-2.47
219.475	-5.67
219.946	-1.27
220.418	-7.87
220.889	-3.07
221.36	-4.57
221.832	-12.57
222.303	-8.47
222.774	3.43
223.245	-8.37
223.717	-7.67
224.188	-9.37
224.659	-4.37
225.13	-10.17
225.601	0.63
226.072	-1.07
226.543	0.93
227.014	-5.37
227.485	-4.77
227.956	-9.07
228.427	-5.07
228.898	1.13
229.369	3.53
229.839	-9.97
230.31	-4.27
230.781	3.63
231.252	-6.07
231.722	-8.87
232.193	-3.97
232.664	-5.67
233.135	-6.07
233.605	-6.07
234.076	-14.77
234.546	-9.77
235.017	0.23
235.487	-3.57
235.958	1.93
236.428	-7.57
236.899	-0.57
237.369	-7.17
237.84	-5.77
238.31	-3.67
238.78	-5.87
239.251	-11.57
239.721	-3.77
240.191	-7.07
240.662	-0.77
241.132	-3.57
241.602	-6.27
242.072	-1.17
242.542	6.33
243.013	-5.17
243.483	4.33
243.953	0.33
244.423	-2.67
244.893	-9.87
245.363	-1.47
245.833	0.13
246.303	-4.87
246.773	3.43
247.243	-5.47
247.712	-5.77
248.182	1.63
248.652	4.43
249.122	-8.47
249.592	-1.37
250.061	0.13
250.531	7.83
251.001	-4.27
251.471	4.93
251.94	10.83
252.41	-0.17
252.879	-6.77
253.349	7.33
253.818	3.03
254.288	4.63
254.757	2.43
255.227	-1.77
255.696	0.33
256.166	0.53
256.635	0.73
257.105	3.63
257.574	5.43
258.043	-1.97
258.513	-1.97
258.982	3.53
259.451	-3.47
259.92	3.73
260.389	-0.97
260.859	11.93
261.328	4.53
261.797	4.43
262.266	5.83
262.735	6.13
263.204	1.33
263.673	-4.27
264.142	4.83
264.611	-4.67
265.08	-2.27
265.549	1.23
266.018	5.63
266.487	-1.67
266.955	0.33
267.424	-1.37
267.893	1.63
268.362	-0.07
268.83	3.63
269.299	6.43
269.768	1.13
270.236	6.43
270.705	0.73
271.174	5.23
271.642	7.63
272.111	2.43
272.579	1.43
273.048	7.73
273.516	-1.27
273.985	8.33
274.453	10.03
274.922	12.73
275.39	4.93
275.858	-0.27
276.327	9.93
276.795	13.83
277.263	0.93
277.731	17.03
278.2	13.43
278.668	6.43
279.136	11.93
279.604	6.63
280.072	8.43
280.54	5.23
281.008	6.53
281.477	13.73
281.945	8.13
282.413	10.43
282.881	11.13
283.348	0.93
283.816	9.93
284.284	9.53
284.752	17.03
285.22	10.13
285.688	9.93
286.156	8.73
286.623	15.03
287.091	5.23
287.559	15.53
288.026	14.43
288.494	12.33
288.962	2.13
289.429	7.63
289.897	12.23
290.364	9.73
290.832	12.23
291.3	12.33
291.767	12.83
292.234	13.43
292.702	7.73
293.169	14.03
293.637	17.13
294.104	17.03
294.571	3.03
295.039	10.73
295.506	13.63
295.973	17.63
296.44	10.83
296.908	12.43
297.375	15.93
297.842	14.93
298.309	17.23
298.776	5.53
299.243	16.63
299.71	13.03
300.177	16.93
300.644	20.53
301.111	14.03
301.578	22.93
302.045	18.73
302.512	24.13
302.979	23.63
303.446	18.03
303.913	15.93
304.379	18.13
304.846	21.13
305.313	19.03
305.78	15.03
306.246	18.13
306.713	25.83
307.18	23.63
307.646	29.63
308.113	23.03
308.579	17.83
309.046	24.43
309.512	21.33
309.979	16.53
310.445	25.83
310.912	25.73
311.378	31.23
311.845	29.43
312.311	29.23
312.777	27.43
313.244	28.13
313.71	34.13
314.176	25.63
314.642	26.23
315.109	27.63
315.575	34.43
316.041	37.93
316.507	25.23
316.973	25.63
317.439	28.03
317.905	30.23
318.371	33.03
318.837	31.13
319.303	33.73
319.769	27.63
320.235	32.13
320.701	33.53
321.167	35.93
321.633	33.03
322.099	34.13
322.564	35.03
323.03	31.63
323.496	35.33
323.962	31.13
324.427	35.33
324.893	40.83
325.359	36.03
325.824	32.13
326.29	40.23
326.755	42.03
327.221	37.93
327.686	39.63
328.152	46.53
328.617	37.73
329.083	44.73
329.548	48.53
330.014	47.83
330.479	38.93
330.944	38.03
331.41	35.33
331.875	38.93
332.34	40.63
332.805	44.23
333.271	39.63
333.736	34.93
334.201	40.33
334.666	42.63
335.131	52.03
335.596	46.73
336.061	48.13
336.526	37.43
336.991	45.43
337.456	51.23
337.921	50.83
338.386	44.33
338.851	39.13
339.316	45.23
339.781	46.73
340.246	52.43
340.711	44.93
341.175	44.23
341.64	38.13
342.105	47.43
342.569	51.23
343.034	59.43
343.499	55.73
343.963	46.93
344.428	59.83
344.893	60.43
345.357	56.33
345.822	57.13
346.286	70.83
346.751	69.73
347.215	62.13
347.679	68.03
348.144	94.13
348.608	80.73
349.073	67.23
349.537	75.93
350.001	74.13
350.465	83.53
350.93	81.83
351.394	84.73
351.858	75.03
352.322	89.73
352.786	81.23
353.25	97.33
353.715	114.53
354.179	102.63
354.643	119.63
355.107	116.63
355.571	97.13
356.035	101.53
356.498	115.03
356.962	117.63
357.426	119.23
357.89	112.33
358.354	90.33
358.818	84.33
359.281	74.13
359.745	75.53
360.209	70.83
360.673	74.73
361.136	82.93
361.6	82.73
362.064	83.73
362.527	83.93
362.991	86.03
363.454	80.53
363.918	76.63
364.381	77.43
364.845	81.43
365.308	83.93
365.772	78.63
366.235	78.43
366.698	76.63
367.162	84.63
367.625	85.43
368.088	87.43
368.552	93.43
369.015	91.73
369.478	91.03
369.941	97.53
370.404	88.83
370.867	92.63
371.331	103.43
371.794	108.13
372.257	100.93
372.72	108.03
373.183	100.63
373.646	93.43
374.109	98.43
374.572	107.73
375.035	102.63
375.497	106.63
375.96	104.93
376.423	106.83
376.886	110.03
377.349	107.93
377.811	97.83
378.274	109.23
378.737	107.93
379.199	107.13
379.662	110.23
380.125	113.83
380.587	110.03
381.05	108.33
381.512	118.53
381.975	119.93
382.437	117.43
382.9	118.33
383.362	121.23
383.825	134.73
384.287	131.23
384.75	123.63
385.212	126.23
385.674	127.33
386.136	130.73
386.599	118.93
387.061	120.23
387.523	121.73
387.985	126.93
388.447	129.23
388.91	121.63
389.372	122.43
389.834	127.83
390.296	130.53
390.758	135.73
391.22	140.23
391.682	152.33
392.144	160.03
392.606	151.73
393.068	145.53
393.529	159.93
393.991	143.33
394.453	130.23
394.915	144.83
395.377	141.23
395.838	142.53
396.3	141.33
396.762	145.03
397.224	134.33
397.685	129.43
398.147	135.23
398.608	136.23
399.07	139.03
399.531	139.63
399.993	144.53
400.454	163.93
400.916	146.83
401.377	148.13
401.839	162.33
402.3	157.13
402.762	170.23
403.223	178.13
403.684	172.03
404.145	158.53
404.607	160.53
405.068	161.83
405.529	171.93
405.99	194.13
406.451	180.33
406.913	180.03
407.374	175.53
407.835	166.93
408.296	170.53
408.757	179.03
409.218	191.83
409.679	182.53
410.14	180.03
410.601	182.33
411.062	179.93
411.522	180.53
411.983	183.03
412.444	185.03
412.905	189.33
413.366	189.73
413.826	205.73
414.287	222.03
414.748	277.93
415.208	264.03
415.669	220.03
416.13	219.83
416.59	219.53
417.051	228.93
417.511	230.73
417.972	252.63
418.432	256.13
418.893	314.43
419.353	266.63
419.814	207.33
420.274	198.93
420.734	197.03
421.195	209.93
421.655	198.83
422.115	213.33
422.576	203.33
423.036	209.53
423.496	223.83
423.956	226.53
424.416	244.23
424.876	271.13
425.336	271.43
425.797	272.03
426.257	268.63
426.717	254.83
427.177	244.43
427.637	229.73
428.097	255.33
428.556	262.33
429.016	280.13
429.476	276.23
429.936	281.23
430.396	284.03
430.856	299.53
431.315	323.73
431.775	352.83
432.235	392.93
432.694	367.03
433.154	377.23
433.614	413.73
434.073	353.03
434.533	301.23
434.993	270.83
435.452	291.83
435.912	304.73
436.371	297.53
436.83	294.73
437.29	275.13
437.749	260.83
438.209	266.23
438.668	293.13
439.127	291.53
439.587	279.63
440.046	252.43
440.505	275.93
440.964	290.43
441.424	342.83
441.883	327.43
442.342	272.13
442.801	240.43
443.26	235.13
443.719	244.33
444.178	232.13
444.637	229.13
445.096	239.83
445.555	235.43
446.014	233.53
446.473	243.13
446.932	254.23
447.391	244.73
447.849	240.93
448.308	230.03
448.767	243.03
449.226	247.23
449.685	246.93
450.143	265.73
450.602	251.73
451.061	243.83
451.519	244.03
451.978	249.13
452.436	249.53
452.895	259.43
453.353	265.53
453.812	257.93
454.27	253.63
454.729	257.43
455.187	258.13
455.646	260.83
456.104	260.33
456.562	285.03
457.021	290.23
457.479	283.13
457.937	291.83
458.395	285.63
458.854	264.03
459.312	264.93
459.77	284.93
460.228	277.23
460.686	262.83
461.144	267.03
461.602	261.23
462.06	265.33
462.518	273.13
462.976	276.73
463.434	276.33
463.892	274.53
464.35	287.63
464.808	307.53
465.266	288.03
465.724	289.83
466.181	296.43
466.639	290.23
467.097	301.83
467.555	312.13
468.012	316.93
468.47	333.53
468.928	342.33
469.385	360.63
469.843	378.13
470.3	379.13
470.758	383.13
471.215	406.03
471.673	441.03
472.13	436.93
472.588	447.33
473.045	399.23
473.503	405.13
473.96	419.93
474.417	428.23
474.875	458.93
475.332	499.93
475.789	480.93
476.246	489.43
476.704	505.23
477.161	530.43
477.618	543.63
478.075	589.03
478.532	646.53
478.989	711.23
479.446	827.73
479.903	781.73
480.36	820.13
480.817	859.13
481.274	946.03
481.731	1046.63
482.188	1128.33
482.645	1239.53
483.102	1336.13
483.558	1465.83
484.015	1488.93
484.472	1464.83
484.929	1418.23
485.385	1396.03
485.842	1357.83
486.299	1320.43
486.755	1279.33
487.212	1089.13
487.668	930.43
488.125	863.93
488.582	797.83
489.038	764.63
489.494	721.83
489.951	711.53
490.407	691.13
490.864	680.83
491.32	666.83
491.776	669.03
492.233	671.83
492.689	642.13
493.145	634.23
493.602	624.73
494.058	637.73
494.514	644.93
494.97	669.23
495.426	674.73
495.882	638.23
496.338	636.63
496.794	649.23
497.251	636.43
497.707	656.43
498.163	652.13
498.618	665.23
499.074	657.53
499.53	701.83
499.986	692.13
500.442	675.23
500.898	650.73
501.354	638.83
501.809	649.63
502.265	651.83
502.721	660.03
503.177	664.33
503.632	670.23
504.088	674.43
504.543	705.73
504.999	716.13
505.455	689.43
505.91	663.43
506.366	662.73
506.821	664.73
507.277	656.73
507.732	662.63
508.187	662.73
508.643	670.33
509.098	673.23
509.553	695.43
510.009	695.43
510.464	704.33
510.919	732.73
511.375	724.43
511.83	735.93
512.285	758.33
512.74	787.63
513.195	816.23
513.65	800.43
514.105	799.13
514.56	810.33
515.015	817.23
515.47	835.23
515.925	805.03
516.38	816.43
516.835	826.23
517.29	814.73
517.745	812.43
518.2	794.43
518.655	780.53
519.109	771.03
519.564	769.63
520.019	757.03
520.474	757.73
520.928	757.33
521.383	750.03
521.838	730.43
522.292	738.73
522.747	751.83
523.201	737.93
523.656	730.73
524.11	731.23
524.565	721.03
525.019	724.13
525.474	731.23
525.928	725.13
526.382	717.63
526.837	738.03
527.291	732.83
527.745	731.83
528.2	723.53
528.654	714.83
529.108	713.23
529.562	716.83
530.016	720.23
530.47	717.13
530.925	710.23
531.379	719.03
531.833	718.13
532.287	729.43
532.741	721.73
533.195	725.33
533.649	735.23
534.103	742.63
534.556	732.33
535.01	735.53
535.464	724.63
535.918	743.53
536.372	743.23
536.826	748.53
537.279	729.53
537.733	745.83
538.187	742.53
538.64	736.33
539.094	749.73
539.548	747.73
540.001	756.13
540.455	752.43
540.908	766.33
541.362	770.73
541.815	788.13
542.269	794.03
542.722	791.73
543.175	801.03
543.629	795.93
544.082	808.33
544.536	813.43
544.989	821.83
545.442	828.23
545.895	831.63
546.349	824.73
546.802	831.03
547.255	834.93
547.708	842.03
548.161	862.33
548.614	860.63
549.067	860.43
549.52	845.83
549.973	840.03
550.426	844.73
550.879	829.03
551.332	834.63
551.785	837.43
552.238	836.33
552.691	854.03
553.144	870.63
553.596	878.73
554.049	907.23
554.502	920.03
554.955	937.53
555.407	940.23
555.86	936.93
556.313	932.53
556.765	921.93
557.218	917.53
557.67	920.93
558.123	910.53
558.576	905.73
559.028	919.43
559.48	913.53
559.933	911.93
560.385	878.73
560.838	849.23
561.29	835.03
561.742	821.03
562.195	803.13
562.647	796.93
563.099	813.13
563.551	811.33
564.004	822.73
564.456	801.43
564.908	788.53
565.36	766.63
565.812	755.13
566.264	746.63
566.716	745.53
567.168	729.93
567.62	733.83
568.072	727.23
568.524	718.93
568.976	716.23
569.428	705.73
569.88	705.13
570.332	722.43
570.784	705.63
571.235	714.93
571.687	729.73
572.139	730.33
572.59	745.63
573.042	742.03
573.494	737.73
573.945	734.43
574.397	715.93
574.849	715.03
575.3	717.93
575.752	714.43
576.203	705.63
576.655	708.23
577.106	707.53
577.557	695.13
578.009	708.13
578.46	688.23
578.912	694.63
579.363	692.23
579.814	698.93
580.265	694.63
580.717	695.13
581.168	697.63
581.619	703.83
582.07	710.43
582.521	709.63
582.972	702.63
583.423	710.13
583.875	703.53
584.326	709.23
584.777	729.63
585.227	748.93
585.678	771.43
586.129	785.63
586.58	809.43
587.031	826.73
587.482	878.43
587.933	908.63
588.384	879.63
588.834	828.83
589.285	791.13
589.736	797.83
590.186	805.43
590.637	800.33
591.088	772.13
591.538	767.73
591.989	759.83
592.439	755.83
592.89	754.33
593.34	731.53
593.791	728.03
594.241	719.63
594.692	738.53
595.142	720.43
595.593	713.43
596.043	721.83
596.493	728.93
596.943	729.13
597.394	755.13
597.844	753.43
598.294	775.93
598.744	789.03
599.195	812.33
599.645	854.03
600.095	897.73
600.545	950.73
600.995	997.33
601.445	1056.03
601.895	1121.33
602.345	1164.13
602.795	1158.03
603.245	1117.33
603.695	1047.73
604.145	996.13
604.594	953.23
605.044	908.63
605.494	831.23
605.944	787.23
606.393	768.43
606.843	756.33
607.293	766.03
607.743	757.83
608.192	764.63
608.642	773.53
609.091	790.13
609.541	788.73
609.99	794.93
610.44	787.93
610.889	748.73
611.339	717.93
611.788	700.53
612.238	724.73
612.687	728.73
613.136	716.93
613.586	740.43
614.035	730.13
614.484	724.23
614.933	733.23
615.383	730.63
615.832	728.93
616.281	724.63
616.73	697.13
617.179	670.93
617.628	668.63
618.077	656.53
618.526	651.83
618.975	639.73
619.424	647.03
619.873	644.43
620.322	640.53
620.771	631.63
621.22	620.83
621.669	616.23
622.118	616.23
622.567	608.73
623.015	584.93
623.464	591.93
623.913	579.03
624.361	571.33
624.81	566.23
625.259	580.33
625.707	575.83
626.156	583.33
626.604	589.83
627.053	591.23
627.501	587.43
627.95	581.53
628.398	608.53
628.847	595.63
629.295	597.23
629.744	597.63
630.192	587.33
630.64	580.53
631.089	567.53
631.537	551.83
631.985	556.23
632.433	553.13
632.881	545.43
633.33	552.13
633.778	553.73
634.226	540.03
634.674	553.03
635.122	557.03
635.57	568.33
636.018	582.03
636.466	572.63
636.914	576.13
637.362	585.23
637.81	595.13
638.258	603.53
638.705	593.13
639.153	646.73
639.601	649.83
640.049	670.13
640.497	699.83
640.944	715.93
641.392	664.83
641.84	636.53
642.287	604.93
642.735	580.63
643.182	582.13
643.63	591.23
644.078	586.53
644.525	596.13
644.973	605.93
645.42	609.83
645.867	630.33
646.315	657.53
646.762	673.53
647.21	710.03
647.657	724.93
648.104	762.83
648.551	775.83
648.999	840.73
649.446	913.03
649.893	998.03
650.34	1144.93
650.787	1350.83
651.234	1673.03
651.682	2163.93
652.129	2937.73
652.576	4154.53
653.023	6057.73
653.47	8158.53
653.917	10101.33
654.363	11554.63
654.81	12703.93
655.257	12039.53
655.704	7990.73
656.151	4844.63
656.598	3169.63
657.044	2279.83
657.491	1785.93
657.938	1441.43
658.385	1212.13
658.831	1063.73
659.278	952.43
659.724	845.23
660.171	781.13
660.618	724.23
661.064	694.73
661.511	676.33
661.957	665.83
662.404	655.83
662.85	667.63
663.296	639.93
663.743	575.83
664.189	550.53
664.635	549.33
665.082	544.83
665.528	540.13
665.974	532.93
666.42	522.93
666.867	525.03
667.313	503.73
667.759	479.03
668.205	476.83
668.651	467.23
669.097	467.23
669.543	455.63
669.989	462.53
670.435	459.63
670.881	460.13
671.327	473.63
671.773	493.73
672.219	520.63
672.665	560.23
673.11	605.03
673.556	648.63
674.002	690.73
674.448	675.33
674.893	564.13
675.339	487.13
675.785	460.03
676.23	438.23
676.676	417.33
677.122	397.63
677.567	386.43
678.013	387.43
678.458	384.83
678.904	379.73
679.349	360.83
679.794	360.23
680.24	351.83
680.685	363.43
681.131	366.03
681.576	372.13
682.021	365.33
682.466	365.23
682.912	364.33
683.357	372.13
683.802	401.93
684.247	432.33
684.692	476.63
685.137	525.43
685.583	554.43
686.028	583.33
686.473	542.93
686.918	462.33
687.363	442.63
687.807	412.13
688.252	390.43
688.697	375.53
689.142	355.83
689.587	347.73
690.032	347.93
690.477	357.03
690.921	378.73
691.366	396.13
691.811	420.83
692.255	456.03
692.7	484.23
693.145	537.83
693.589	751.03
694.034	1217.93
694.478	1639.13
694.923	1808.63
695.367	2345.83
695.812	1246.03
696.256	523.93
696.701	391.63
697.145	358.13
697.59	343.03
698.034	333.03
698.478	337.73
698.922	326.93
699.367	337.93
699.811	342.73
700.255	379.83
700.699	403.03
701.143	454.53
701.588	504.43
702.032	540.43
702.476	543.43
702.92	521.53
703.364	535.73
703.808	685.53
704.252	1133.13
704.696	1543.53
705.14	1737.63
705.584	2199.23
706.027	1120.03
706.471	548.93
706.915	423.63
707.359	367.23
707.803	336.33
708.246	326.23
708.69	331.33
709.134	331.23
709.577	323.13
710.021	329.33
710.465	325.33
710.908	311.73
711.352	313.73
711.795	326.93
712.239	367.03
712.682	406.13
713.126	430.23
713.569	468.53
714.012	371.83
714.456	322.43
714.899	304.43
715.342	282.03
715.786	271.33
716.229	269.43
716.672	267.43
717.115	260.53
717.558	259.73
718.002	264.03
718.445	283.63
718.888	298.13
719.331	310.33
719.774	316.03
720.217	317.23
720.66	291.43
721.103	279.03
721.546	262.93
721.989	257.53
722.432	240.23
722.874	243.03
723.317	244.53
723.76	247.33
724.203	269.13
724.645	331.53
725.088	475.43
725.531	601.83
725.974	660.73
726.416	570.03
726.859	318.13
727.301	257.13
727.744	252.53
728.187	238.13
728.629	249.63
729.071	258.03
729.514	272.63
729.956	282.83
730.399	293.43
730.841	298.43
731.283	281.33
731.726	281.13
732.168	274.23
732.61	274.23
733.053	304.63
733.495	331.33
733.937	372.73
734.379	418.03
734.821	468.73
735.263	581.53
735.705	905.53
736.148	1713.33
736.59	2739.33
737.032	3170.93
737.474	2607.33
737.916	859.23
738.357	455.03
738.799	345.63
739.241	316.43
739.683	300.73
740.125	307.03
740.567	309.83
741.008	331.03
741.45	332.23
741.892	340.43
742.334	367.53
742.775	386.23
743.217	366.23
743.658	295.63
744.1	272.93
744.542	279.73
744.983	334.13
745.425	361.83
745.866	368.63
746.307	294.13
746.749	288.43
747.19	344.43
747.632	493.53
748.073	971.43
748.514	2017.63
748.956	3011.03
749.397	3782.13
749.838	3156.63
750.279	3068.83
750.72	1578.63
751.162	590.23
751.603	342.33
752.044	268.83
752.485	230.83
752.926	226.63
753.367	211.83
753.808	200.73
754.249	202.53
754.69	193.33
755.131	187.33
755.572	189.63
756.013	189.73
756.453	194.93
756.894	189.43
757.335	196.73
757.776	215.93
758.216	208.53
758.657	212.63
759.098	212.33
759.538	228.93
759.979	282.73
760.42	407.53
760.86	773.03
761.301	2037.53
761.741	4755.73
762.182	6628.13
762.622	4710.73
763.063	1399.03
763.503	571.63
763.943	338.03
764.384	294.63
764.824	272.73
765.264	256.03
765.705	226.83
766.145	196.73
766.585	185.53
767.025	172.93
767.465	172.63
767.906	189.93
768.346	211.43
768.786	226.23
769.226	234.13
769.666	334.23
770.106	667.73
770.546	1683.93
770.986	2758.73
771.426	2452.93
771.866	826.43
772.306	341.23
772.745	215.13
773.185	172.03
773.625	173.33
774.065	158.53
774.505	175.73
774.944	215.63
775.384	388.23
775.824	614.53
776.263	590.13
776.703	292.53
777.142	167.83
777.582	138.53
778.021	124.83
778.461	129.53
778.9	134.83
779.34	127.83
779.779	116.23
780.219	112.93
780.658	105.73
781.097	117.13
781.537	122.53
781.976	113.93
782.415	112.13
782.855	106.03
783.294	107.13
783.733	116.23
784.172	118.73
784.611	111.43
785.05	109.93
785.489	115.73
785.928	123.73
786.367	121.43
786.806	121.63
787.245	130.23
787.684	143.33
788.123	154.03
788.562	138.73
789.001	133.43
789.44	127.43
789.879	113.63
790.317	125.33
790.756	133.43
791.195	137.03
791.634	160.03
792.072	211.83
792.511	399.73
792.95	1095.03
793.388	2226.73
793.827	1966.83
794.265	701.53
794.704	297.33
795.142	187.73
795.581	158.73
796.019	139.43
796.458	135.73
796.896	127.63
797.334	140.53
797.773	159.53
798.211	234.13
798.649	472.73
799.087	1088.63
799.526	1693.03
799.964	2129.93
800.402	2080.43
800.84	799.03
801.278	318.53
801.716	198.13
802.154	165.33
802.592	151.13
803.03	150.23
803.468	140.73
803.906	145.13
804.344	157.93
804.782	144.43
805.22	145.93
805.658	143.43
806.096	162.03
806.533	163.13
806.971	184.33
807.409	235.83
807.847	343.53
808.284	729.43
808.722	2014.53
809.16	3455.13
809.597	3391.73
810.035	5731.83
810.472	5947.13
810.91	2202.53
811.347	840.03
811.785	421.23
812.222	273.93
812.66	206.63
813.097	173.23
813.535	152.93
813.972	134.03
814.409	122.23
814.846	119.33
815.284	121.53
815.721	109.33
816.158	111.63
816.595	118.73
817.032	158.13
817.47	193.73
817.907	135.63
818.344	100.83
818.781	100.93
819.218	99.53
819.655	130.73
820.092	204.93
820.529	224.13
820.966	179.23
821.403	130.63
821.839	99.53
822.276	94.43
822.713	130.13
823.15	141.23
823.587	124.13
824.023	161.83
824.46	334.43
824.897	969.73
825.333	1416.93
825.77	605.63
826.206	247.53
826.643	145.63
827.08	110.53
827.516	92.13
827.953	82.43
828.389	87.43
828.825	74.53
829.262	77.43
829.698	63.43
830.135	60.63
830.571	68.83
831.007	66.03
831.443	64.93
831.88	66.03
832.316	66.43
832.752	62.43
833.188	67.23
833.624	67.13
834.06	65.63
834.497	78.03
834.933	76.63
835.369	76.33
835.805	72.23
836.241	81.43
836.677	82.73
837.112	95.13
837.548	107.63
837.984	147.43
838.42	218.03
838.856	552.53
839.292	1621.43
839.727	2378.93
840.163	1139.43
840.599	999.73
841.034	2152.93
841.47	2187.43
841.906	806.53
842.341	353.83
842.777	208.73
843.212	211.53
843.648	192.63
844.083	113.73
844.519	94.33
844.954	69.93
845.39	58.63
845.825	62.03
846.261	54.83
846.696	53.93
847.131	57.63
847.566	53.63
848.002	55.03
848.437	59.43
848.872	63.83
849.307	66.73
849.742	93.73
850.177	198.03
850.613	597.13
851.048	916.43
851.483	392.53
851.918	156.83
852.353	91.43
852.788	60.13
853.223	48.03
853.657	49.23
854.092	49.33
854.527	50.43
854.962	44.53
855.397	46.93
855.832	50.73
856.266	49.03
856.701	41.73
857.136	48.23
857.57	47.53
858.005	51.13
858.44	62.93
858.874	45.03
859.309	55.93
859.743	45.33
860.178	50.23
860.612	43.73
861.047	56.53
861.481	70.73
861.915	71.33
862.35	55.83
862.784	46.33
863.218	40.63
863.653	32.43
864.087	43.93
864.521	55.13
864.955	68.43
865.39	155.03
865.824	177.63
866.258	119.53
866.692	186.83
867.126	194.43
867.56	116.83
867.994	64.83
868.428	39.13
868.862	50.23
869.296	55.23
869.73	63.23
870.164	54.53
870.598	54.03
871.031	35.63
871.465	29.23
871.899	33.93
872.333	27.83
872.766	33.33
873.2	25.23
873.634	30.23
874.067	25.93
874.501	26.03
874.935	39.43
875.368	33.53
875.802	28.53
876.235	23.63
876.669	26.93
877.102	23.73
877.535	26.93
877.969	22.13
878.402	27.63
878.836	21.33
879.269	23.73
879.702	19.83
880.135	21.93
880.569	22.13
881.002	22.73
881.435	21.33
881.868	19.43
882.301	19.03
882.734	8.73
883.167	24.03
883.601	15.43
884.034	23.13
884.467	21.53
884.899	18.93
885.332	18.83
885.765	14.03
886.198	17.43
886.631	13.43
887.064	21.33
887.497	25.23
887.929	26.43
888.362	15.63
888.795	10.33
889.228	18.23
889.66	13.03
890.093	22.33
890.526	18.13
890.958	14.43
891.391	13.83
891.823	22.63
892.256	12.53
892.688	19.13
893.121	18.53
893.553	16.03
893.985	21.23
894.418	17.43
894.85	12.63
895.282	20.83
895.715	12.93
896.147	23.53
896.579	17.03
897.011	19.33
897.444	17.83
897.876	17.03
898.308	11.53
898.74	7.23
899.172	11.23
899.604	23.23
900.036	23.93
900.468	16.13
900.9	18.93
901.332	18.93
901.764	17.73
902.196	13.93
902.628	19.73
903.06	17.73
903.491	30.53
903.923	24.43
904.355	11.73
904.787	18.93
905.218	21.43
905.65	27.63
906.082	13.83
906.513	15.63
906.945	12.43
907.376	8.93
907.808	20.43
908.239	19.23
908.671	17.43
909.102	19.83
909.534	27.83
909.965	49.73
910.397	95.63
910.828	337.23
911.259	491.63
911.691	232.93
912.122	112.83
912.553	55.43
912.984	31.93
913.415	28.33
913.847	16.53
914.278	19.53
914.709	13.73
915.14	13.53
915.571	17.93
916.002	12.13
916.433	13.03
916.864	18.93
917.295	20.53
917.726	21.03
918.157	18.33
918.587	31.73
919.018	23.53
919.449	22.53
919.88	25.43
920.311	29.53
920.741	54.73
921.172	183.73
921.603	161.43
922.033	81.43
922.464	51.43
922.895	26.13
923.325	19.33
923.756	13.93
924.186	12.43
924.617	17.93
925.047	22.73
925.478	25.83
925.908	15.93
926.338	11.83
926.769	14.33
927.199	17.13
927.629	8.13
928.06	14.33
928.49	12.93
928.92	13.73
929.35	7.73
929.78	17.03
930.21	3.03
930.641	8.83
931.071	5.43
931.501	9.93
931.931	15.43
932.361	11.33
932.791	10.63
933.221	0.33
933.651	6.33
934.08	20.73
934.51	26.83
934.94	9.53
935.37	10.23
935.8	9.73
936.229	7.83
936.659	10.63
937.089	5.43
937.519	11.33
937.948	15.73
938.378	11.03
938.807	7.93
939.237	4.13
939.666	8.23
940.096	-3.67
940.525	-1.77
940.955	0.43
941.384	1.23
941.814	-5.27
942.243	-3.37
942.672	-0.47
943.102	-6.17
943.531	2.43
943.96	-0.47
944.39	1.73
944.819	-2.17
945.248	2.23
945.677	-0.87
946.106	3.93
946.535	3.43
946.964	1.53
947.393	1.73
947.822	2.63
948.251	-10.17
948.68	3.53
949.109	4.73
949.538	3.43
949.967	2.73
950.396	-2.47
950.825	-6.27
951.254	-1.77
951.682	-6.87
952.111	4.23
952.54	8.53
952.969	-3.57
953.397	-11.37
953.826	-0.77
954.254	-10.77
954.683	0.13
955.112	-4.47
955.54	-3.77
955.969	5.43
956.397	1.03
956.826	-1.07
957.254	3.43
957.682	1.83
958.111	-0.67
958.539	-3.77
958.967	-0.87
959.396	-0.57
959.824	-3.17
960.252	0.53
960.68	-9.77
961.109	-5.87
961.537	2.23
961.965	1.53
962.393	4.43
962.821	-0.27
963.249	-3.27
963.677	7.23
964.105	0.03
964.533	46.83
964.961	42.43
965.389	28.43
965.817	2.33
966.245	1.63
966.672	4.63
967.1	-9.97
967.528	-1.77
967.956	-6.67
968.383	-1.87
968.811	-3.67
969.239	-0.17
969.666	-6.67
970.094	2.53
970.522	1.23
970.949	5.03
971.377	-4.87
971.804	-3.47
972.232	4.73
972.659	-2.67
973.087	-2.87
973.514	-5.07
973.941	-6.97
974.369	1.43
974.796	-5.27
975.223	3.83
975.651	-4.17
976.078	3.03
976.505	-8.67
976.932	1.73
977.359	21.13
977.786	11.03
978.214	-0.67
978.641	-4.87
979.068	-4.57
979.495	-2.27
979.922	2.63
980.349	-1.97
980.776	6.63
981.202	-4.17
981.629	-0.17
982.056	4.33
982.483	-2.67
982.91	-1.17
983.337	-4.67
983.763	2.03
984.19	-11.27
984.617	-4.97
985.043	-10.17
985.47	-2.87
985.897	-2.47
986.323	-12.57
986.75	0.43
987.176	1.73
987.603	-3.07
988.029	-2.77
988.456	-1.87
988.882	-1.97
989.308	-7.87
989.735	-7.57
990.161	-3.87
990.587	-8.77
991.014	-6.57
991.44	-0.67
991.866	-1.87
992.292	-3.17
992.719	-5.67
993.145	4.03
993.571	-8.67
993.997	-4.07
994.423	-4.07
994.849	-4.87
995.275	-1.17
995.701	-3.27
996.127	-0.97
996.553	2.93
996.979	-6.87
997.405	-2.97
997.83	-4.07
998.256	-8.97
998.682	-5.87
999.108	-7.77
999.534	-6.97
999.959	-2.37
1000.385	-10.27
1000.811	5.13
1001.236	-8.07
1001.662	-9.17
1002.087	-6.87
1002.513	0.73
1002.938	-0.67
1003.364	-1.47
1003.789	-4.17
1004.215	3.13
1004.64	-8.87
1005.066	1.03
1005.491	5.53
1005.916	-4.07
1006.342	-4.67
1006.767	-4.07
1007.192	2.13
1007.617	-1.27
1008.042	-8.17
1008.468	-8.17
1008.893	-3.67
1009.318	-4.77
1009.743	-2.97
1010.168	1.53
1010.593	0.23
1011.018	-10.47
1011.443	-4.87
1011.868	-3.27
1012.293	-10.77
1012.718	-14.77
1013.143	-1.97
1013.567	1.43
1013.992	-2.97
1014.417	-10.87
1014.842	2.83
1015.267	0.03
1015.691	-3.57
1016.116	7.63
1016.541	-4.87
1016.965	0.13
1017.39	4.73
1017.814	-0.17
1018.239	-0.87
1018.663	-10.37
1019.088	-14.57
1019.512	-1.97
1019.937	-1.27
1020.361	-5.97
1020.785	-11.47
1021.21	-2.57
1021.634	-2.97
1022.058	-2.37
1022.483	6.43
1022.907	-4.07
1023.331	-5.57
1023.755	-2.07
1024.179	-2.87
1024.604	-5.17
1025.028	-4.67
1025.452	-8.37
1025.876	-3.47
1026.3	-0.17
1026.724	-11.77
1027.148	-6.57
1027.572	-10.47
1027.996	-6.67
1028.42	-1.17
1028.843	-8.17
1029.267	-4.27
1029.691	-1.27
1030.115	-8.77
1030.539	-8.17
1030.962	-9.47
1031.386	-12.27
1031.81	-5.97
1032.233	1.53
1032.657	-6.17
1033.08	-4.27
1033.504	-6.97
1033.927	-9.77
1034.351	1.53
1034.774	-6.97
1035.198	0.03
1035.621	-3.57
1036.045	-12.17
1036.468	-2.67
1036.891	-7.27
1037.315	-7.97
1037.738	-11.17
1038.161	0.63
1038.584	-5.67
1039.008	-9.17
1039.431	-6.17
1039.854	-5.27
1040.277	-10.57
1040.7	-8.27
1041.123	0.43
1041.546	-8.87
1041.969	-2.37
1042.392	-6.67
1042.815	2.43
1043.238	-4.77
1043.661	-4.77
1044.084	-6.47
1044.507	-11.67
1044.93	-10.27
1045.352	-2.07
1045.775	-1.87
1046.198	-1.87
1046.621	0.23
1047.043	-2.97
1047.466	9.93
1047.889	-5.67
1048.311	-5.87
1048.734	-10.77
1049.156	-3.27
1049.579	-8.97
1050.001	-7.17
1050.424	-0.37
1050.846	-5.77
1051.269	-3.67
1051.691	-10.97
1052.113	-7.07
1052.536	-2.67
1052.958	-2.77
1053.38	-3.17
1053.802	-10.07
1054.225	-3.47
1054.647	-16.47
1055.069	1.73
1055.491	-2.87
1055.913	-7.07
1056.335	-8.37
1056.757	-6.37
1057.179	-10.07
1057.601	-10.37
1058.023	-9.87
1058.445	-9.47
1058.867	-7.47
1059.289	-9.37
1059.711	-7.67
1060.133	-3.57
1060.555	-2.67
1060.976	-11.77
1061.398	-12.47
1061.82	-8.97
1062.241	-7.07
1062.663	-7.07
1063.085	-2.07
1063.506	-5.17
1063.928	-4.97
1064.35	-10.27
1064.771	-9.37
1065.193	-4.67
1065.614	-8.27
1066.035	-8.97
1066.457	-3.87
1066.878	-0.67
1067.3	-1.57
1067.721	-1.57
1068.142	-5.47
1068.564	-2.07
1068.985	-1.17
1069.406	-3.77
1069.827	-7.27
1070.248	-1.27
1070.67	-8.47
1071.091	-6.77
1071.512	-5.47
1071.933	-12.17
1072.354	-5.97
1072.775	-7.77
1073.196	-10.77
1073.617	-7.37
1074.038	-8.77
1074.459	-3.47
1074.88	-10.87
1075.3	-3.67
1075.721	-7.27
1076.142	-1.47
1076.563	-2.87
1076.983	-11.47
1077.404	-8.87
1077.825	-8.67
1078.246	-2.77
1078.666	-10.47
1079.087	-4.67
1079.507	-4.87
1079.928	-1.57
1080.348	2.93
1080.769	-5.27
1081.189	-3.77
1081.61	-8.27
1082.03	-12.67
1082.451	-7.77
1082.871	-3.47
1083.291	-14.57
1083.711	-13.77
1084.132	-5.97
1084.552	-1.17
1084.972	-4.97
1085.392	-7.77
1085.813	-9.67
1086.233	-5.77
1086.653	-3.97
1087.073	-3.97
1087.493	-2.27
1087.913	-7.77
1088.333	-8.47
1088.753	-4.17
1089.173	2.43
1089.593	-6.77
1090.013	-3.47
1090.433	-1.77
1090.852	-5.97
1091.272	0.03
1091.692	2.33
1092.112	-3.47
1092.531	-12.97
1092.951	-9.37
1093.371	-2.77
1093.79	-6.27
1094.21	-8.27
1094.63	-4.57
1095.049	-4.27
1095.469	-4.07
1095.888	-4.27
1096.308	-2.07
1096.727	0.43
1097.146	-10.07
1097.566	-1.37
1097.985	-4.87
1098.405	0.13
1098.824	-3.37
1099.243	-3.87
1099.662	-9.67
1100.082	-5.67
1100.501	-2.77
1100.92	-9.27
1101.339	-1.67
1101.758	-7.27
