Data from 20171114-ORNL-Ar_H_NY_Subt18_08-03-43-500.txt Node
Date: Tue Nov 14 08:03:43 EST 2017
User: Ender
Spectrometer: HR+D1039
Trigger mode: 0
Integration Time (sec): 2.730000E-2
Scans to average: 10
Electric dark correction enabled: true
Nonlinearity correction enabled: false
Boxcar width: 0
XAxis mode: Wavelengths
Number of Pixels in Spectrum: 2048
>>>>>Begin Spectral Data<<<<<
187.836	-5.59
188.309	-5.59
188.782	-5.59
189.255	-0.39
189.728	2.21
190.201	7.81
190.674	0.81
191.147	3.21
191.619	-6.39
192.092	2.41
192.565	6.71
193.038	-2.49
193.511	-5.19
193.984	-0.79
194.456	0.21
194.929	0.01
195.402	-1.39
195.874	-1.19
196.347	-0.69
196.82	-5.29
197.292	4.11
197.765	2.81
198.237	-4.99
198.71	2.21
199.182	-1.29
199.655	0.41
200.127	6.21
200.6	-1.89
201.072	-1.19
201.544	-4.69
202.017	0.31
202.489	3.41
202.961	-1.79
203.433	-3.19
203.906	-3.49
204.378	-6.89
204.85	-3.09
205.322	-5.99
205.794	-1.19
206.266	-4.49
206.739	-6.59
207.211	0.41
207.683	-7.79
208.155	-1.89
208.627	-5.49
209.099	-4.99
209.57	-11.09
210.042	-2.69
210.514	-1.99
210.986	0.21
211.458	-12.49
211.93	-2.99
212.402	0.61
212.873	-6.29
213.345	-6.39
213.817	-7.99
214.288	-3.39
214.76	-8.19
215.232	-3.39
215.703	-6.29
216.175	0.11
216.646	-1.09
217.118	-1.49
217.589	-10.99
218.061	0.61
218.532	-3.69
219.004	1.91
219.475	2.81
219.946	1.01
220.418	-3.19
220.889	2.71
221.36	-3.99
221.832	-7.49
222.303	-7.49
222.774	0.61
223.245	-9.99
223.717	-7.99
224.188	-0.59
224.659	-6.99
225.13	-6.89
225.601	1.51
226.072	2.61
226.543	-4.69
227.014	-0.09
227.485	-6.79
227.956	-8.99
228.427	-3.19
228.898	1.91
229.369	0.01
229.839	-1.99
230.31	1.41
230.781	2.11
231.252	-6.39
231.722	-6.29
232.193	-2.99
232.664	-2.79
233.135	2.21
233.605	-1.99
234.076	-7.39
234.546	2.81
235.017	4.11
235.487	-2.59
235.958	1.61
236.428	-1.69
236.899	-6.29
237.369	-4.59
237.84	-5.79
238.31	-4.29
238.78	-4.39
239.251	-4.99
239.721	-4.69
240.191	-6.59
240.662	1.21
241.132	-6.29
241.602	-8.09
242.072	-1.79
242.542	6.11
243.013	-8.39
243.483	0.11
243.953	-0.19
244.423	3.91
244.893	-7.79
245.363	3.21
245.833	1.71
246.303	-3.69
246.773	1.21
247.243	1.41
247.712	-5.29
248.182	0.01
248.652	3.91
249.122	-7.69
249.592	-2.49
250.061	1.81
250.531	9.21
251.001	3.61
251.471	6.01
251.94	5.21
252.41	-2.79
252.879	-4.39
253.349	7.71
253.818	6.51
254.288	3.71
254.757	0.91
255.227	-1.69
255.696	-1.29
256.166	-4.59
256.635	4.01
257.105	-3.49
257.574	2.71
258.043	-1.09
258.513	-8.49
258.982	-1.59
259.451	-4.49
259.92	-0.09
260.389	7.41
260.859	10.91
261.328	-0.49
261.797	-0.99
262.266	3.31
262.735	8.71
263.204	0.21
263.673	-0.89
264.142	0.91
264.611	-5.19
265.08	-4.49
265.549	-1.69
266.018	7.41
266.487	0.31
266.955	-5.49
267.424	-3.39
267.893	-2.99
268.362	-2.39
268.83	5.71
269.299	2.81
269.768	6.91
270.236	-1.89
270.705	-4.59
271.174	2.21
271.642	5.81
272.111	2.01
272.579	4.01
273.048	0.51
273.516	1.51
273.985	-0.89
274.453	6.51
274.922	12.51
275.39	3.71
275.858	1.11
276.327	6.71
276.795	9.31
277.263	2.41
277.731	7.21
278.2	7.71
278.668	2.01
279.136	5.41
279.604	-1.89
280.072	5.41
280.54	2.41
281.008	4.51
281.477	11.71
281.945	9.21
282.413	10.41
282.881	5.51
283.348	6.71
283.816	10.81
284.284	4.61
284.752	14.31
285.22	9.71
285.688	6.21
286.156	9.41
286.623	16.01
287.091	1.41
287.559	8.91
288.026	13.31
288.494	11.31
288.962	-2.99
289.429	7.11
289.897	16.21
290.364	5.21
290.832	10.41
291.3	8.01
291.767	14.31
292.234	12.21
292.702	5.71
293.169	13.81
293.637	17.11
294.104	17.01
294.571	0.81
295.039	4.51
295.506	8.41
295.973	6.51
296.44	10.11
296.908	12.01
297.375	10.71
297.842	12.81
298.309	9.91
298.776	6.21
299.243	13.61
299.71	7.01
300.177	13.81
300.644	10.61
301.111	14.01
301.578	9.71
302.045	6.71
302.512	20.81
302.979	15.41
303.446	10.41
303.913	11.71
304.379	9.71
304.846	20.01
305.313	15.11
305.78	12.81
306.246	18.01
306.713	9.41
307.18	15.71
307.646	20.11
308.113	19.71
308.579	15.61
309.046	17.81
309.512	13.41
309.979	10.51
310.445	18.41
310.912	23.21
311.378	26.91
311.845	23.41
312.311	23.21
312.777	25.91
313.244	19.81
313.71	33.71
314.176	21.81
314.642	18.61
315.109	19.51
315.575	33.51
316.041	26.81
316.507	19.11
316.973	29.01
317.439	25.21
317.905	30.61
318.371	27.81
318.837	27.81
319.303	26.11
319.769	29.21
320.235	25.61
320.701	26.81
321.167	29.21
321.633	30.61
322.099	30.71
322.564	38.21
323.03	30.01
323.496	35.21
323.962	29.31
324.427	30.11
324.893	39.61
325.359	30.31
325.824	33.01
326.29	38.21
326.755	37.81
327.221	34.91
327.686	32.81
328.152	36.81
328.617	35.91
329.083	42.11
329.548	38.61
330.014	39.11
330.479	34.81
330.944	38.21
331.41	34.41
331.875	41.31
332.34	36.61
332.805	41.41
333.271	38.91
333.736	33.41
334.201	42.91
334.666	45.91
335.131	46.91
335.596	45.41
336.061	44.81
336.526	35.41
336.991	42.81
337.456	51.51
337.921	42.61
338.386	35.81
338.851	42.21
339.316	43.41
339.781	42.91
340.246	49.21
340.711	49.51
341.175	45.01
341.64	42.41
342.105	44.71
342.569	51.31
343.034	56.01
343.499	53.41
343.963	49.61
344.428	58.81
344.893	51.61
345.357	60.61
345.822	55.91
346.286	65.01
346.751	65.41
347.215	57.31
347.679	69.91
348.144	83.31
348.608	73.31
349.073	65.11
349.537	68.31
350.001	70.81
350.465	79.71
350.93	76.31
351.394	74.51
351.858	69.81
352.322	77.81
352.786	72.01
353.25	82.91
353.715	98.21
354.179	84.51
354.643	105.61
355.107	108.41
355.571	98.41
356.035	100.21
356.498	95.31
356.962	98.21
357.426	109.31
357.89	97.81
358.354	78.21
358.818	76.41
359.281	81.81
359.745	80.01
360.209	72.41
360.673	74.61
361.136	75.31
361.6	81.91
362.064	85.21
362.527	89.31
362.991	89.41
363.454	82.11
363.918	80.31
364.381	80.61
364.845	89.31
365.308	85.71
365.772	88.91
366.235	89.01
366.698	95.01
367.162	81.11
367.625	87.91
368.088	93.61
368.552	90.91
369.015	90.11
369.478	98.11
369.941	102.21
370.404	97.41
370.867	99.41
371.331	104.71
371.794	110.11
372.257	101.81
372.72	109.71
373.183	107.91
373.646	96.81
374.109	96.91
374.572	100.01
375.035	95.81
375.497	111.21
375.96	113.41
376.423	102.41
376.886	108.81
377.349	109.41
377.811	103.31
378.274	110.21
378.737	113.31
379.199	112.71
379.662	109.01
380.125	117.41
380.587	111.51
381.05	114.21
381.512	121.11
381.975	129.61
382.437	125.71
382.9	124.91
383.362	125.41
383.825	129.81
384.287	135.71
384.75	128.01
385.212	129.91
385.674	142.81
386.136	137.51
386.599	128.21
387.061	131.81
387.523	134.71
387.985	141.01
388.447	140.21
388.91	133.81
389.372	139.21
389.834	141.21
390.296	139.41
390.758	140.01
391.22	147.51
391.682	146.71
392.144	151.41
392.606	150.51
393.068	145.01
393.529	157.91
393.991	153.31
394.453	145.51
394.915	149.61
395.377	144.81
395.838	147.81
396.3	148.31
396.762	153.91
397.224	154.81
397.685	145.91
398.147	155.01
398.608	142.61
399.07	143.11
399.531	151.21
399.993	157.81
400.454	168.21
400.916	155.21
401.377	151.51
401.839	171.71
402.3	167.11
402.762	184.21
403.223	194.41
403.684	189.91
404.145	179.71
404.607	178.41
405.068	176.71
405.529	179.91
405.99	189.41
406.451	186.21
406.913	193.21
407.374	186.61
407.835	176.41
408.296	178.41
408.757	190.11
409.218	200.11
409.679	194.81
410.14	192.31
410.601	187.71
411.062	189.41
411.522	190.51
411.983	199.71
412.444	193.01
412.905	200.91
413.366	198.91
413.826	216.61
414.287	244.51
414.748	299.31
415.208	280.51
415.669	235.41
416.13	227.41
416.59	230.11
417.051	242.11
417.511	254.01
417.972	273.41
418.432	283.81
418.893	326.91
419.353	291.91
419.814	226.51
420.274	206.11
420.734	203.61
421.195	213.21
421.655	217.11
422.115	210.21
422.576	211.11
423.036	217.81
423.496	230.91
423.956	241.51
424.416	255.11
424.876	288.01
425.336	284.91
425.797	278.91
426.257	278.61
426.717	256.71
427.177	252.41
427.637	244.21
428.097	259.71
428.556	263.71
429.016	287.01
429.476	282.81
429.936	293.01
430.396	286.51
430.856	307.61
431.315	327.81
431.775	353.21
432.235	398.61
432.694	366.21
433.154	363.01
433.614	393.21
434.073	349.41
434.533	304.21
434.993	281.21
435.452	294.61
435.912	293.01
436.371	292.71
436.83	276.11
437.29	272.61
437.749	263.11
438.209	257.91
438.668	281.31
439.127	291.81
439.587	269.91
440.046	255.61
440.505	265.51
440.964	281.81
441.424	320.11
441.883	301.61
442.342	271.51
442.801	243.61
443.26	240.91
443.719	237.51
444.178	234.81
444.637	232.51
445.096	247.51
445.555	248.11
446.014	246.81
446.473	250.71
446.932	257.11
447.391	245.81
447.849	251.51
448.308	240.81
448.767	239.91
449.226	255.81
449.685	252.51
450.143	273.91
450.602	259.91
451.061	253.61
451.519	250.21
451.978	246.01
452.436	242.31
452.895	250.41
453.353	270.81
453.812	258.91
454.27	252.51
454.729	254.91
455.187	262.51
455.646	257.51
456.104	259.71
456.562	270.71
457.021	284.21
457.479	271.11
457.937	283.41
458.395	279.61
458.854	258.61
459.312	271.51
459.77	278.01
460.228	274.11
460.686	263.51
461.144	265.91
461.602	260.71
462.06	265.11
462.518	272.21
462.976	274.41
463.434	279.21
463.892	280.91
464.35	288.71
464.808	291.91
465.266	273.31
465.724	288.91
466.181	287.81
466.639	285.01
467.097	301.11
467.555	313.51
468.012	309.51
468.47	316.11
468.928	331.31
469.385	338.91
469.843	355.61
470.3	355.81
470.758	361.41
471.215	373.11
471.673	393.21
472.13	402.51
472.588	418.91
473.045	393.71
473.503	386.61
473.96	396.71
474.417	409.21
474.875	440.21
475.332	468.41
475.789	460.11
476.246	464.31
476.704	484.71
477.161	497.61
477.618	510.61
478.075	546.41
478.532	594.31
478.989	653.61
479.446	737.21
479.903	728.11
480.36	762.21
480.817	805.61
481.274	881.41
481.731	975.81
482.188	1048.01
482.645	1159.01
483.102	1250.11
483.558	1350.91
484.015	1399.81
484.472	1390.91
484.929	1341.41
485.385	1316.61
485.842	1290.31
486.299	1238.71
486.755	1188.91
487.212	1032.71
487.668	887.31
488.125	822.81
488.582	767.81
489.038	728.31
489.494	697.41
489.951	680.61
490.407	667.21
490.864	644.31
491.32	641.61
491.776	630.71
492.233	637.21
492.689	604.01
493.145	601.91
493.602	596.01
494.058	595.21
494.514	591.21
494.97	613.51
495.426	607.81
495.882	590.51
496.338	592.91
496.794	598.01
497.251	574.51
497.707	599.31
498.163	605.71
498.618	612.71
499.074	610.31
499.53	627.31
499.986	631.51
500.442	605.71
500.898	592.11
501.354	590.61
501.809	598.81
502.265	599.91
502.721	598.81
503.177	615.41
503.632	625.51
504.088	615.81
504.543	629.21
504.999	655.51
505.455	620.81
505.91	609.81
506.366	605.61
506.821	605.71
507.277	614.51
507.732	612.01
508.187	608.41
508.643	611.51
509.098	618.31
509.553	636.91
510.009	635.11
510.464	640.71
510.919	646.71
511.375	654.31
511.83	665.21
512.285	664.11
512.74	693.61
513.195	712.71
513.65	710.21
514.105	701.41
514.56	713.01
515.015	725.31
515.47	733.11
515.925	719.51
516.38	723.51
516.835	736.51
517.29	724.41
517.745	719.31
518.2	717.81
518.655	705.21
519.109	693.41
519.564	693.61
520.019	673.71
520.474	661.41
520.928	665.21
521.383	661.41
521.838	650.51
522.292	646.91
522.747	663.61
523.201	654.01
523.656	644.71
524.11	647.01
524.565	644.31
525.019	639.91
525.474	644.71
525.928	628.51
526.382	636.01
526.837	643.91
527.291	631.81
527.745	636.51
528.2	639.61
528.654	631.91
529.108	624.11
529.562	618.81
530.016	628.11
530.47	621.61
530.925	626.81
531.379	634.41
531.833	631.91
532.287	624.71
532.741	630.31
533.195	624.51
533.649	634.51
534.103	640.21
534.556	615.41
535.01	629.41
535.464	617.71
535.918	633.91
536.372	620.41
536.826	633.41
537.279	629.41
537.733	629.31
538.187	635.21
538.64	642.01
539.094	640.21
539.548	637.91
540.001	634.01
540.455	643.11
540.908	637.91
541.362	657.01
541.815	663.61
542.269	671.01
542.722	667.91
543.175	666.81
543.629	667.61
544.082	691.31
544.536	691.31
544.989	694.71
545.442	702.91
545.895	691.01
546.349	696.11
546.802	686.71
547.255	698.81
547.708	705.31
548.161	708.21
548.614	714.81
549.067	712.71
549.52	708.21
549.973	699.41
550.426	700.81
550.879	685.71
551.332	687.51
551.785	695.51
552.238	692.81
552.691	691.91
553.144	722.21
553.596	721.71
554.049	735.11
554.502	752.31
554.955	767.81
555.407	767.41
555.86	763.51
556.313	745.61
556.765	754.91
557.218	749.21
557.67	745.11
558.123	740.71
558.576	740.81
559.028	730.41
559.48	743.51
559.933	744.81
560.385	706.81
560.838	698.01
561.29	676.01
561.742	671.01
562.195	654.51
562.647	648.91
563.099	648.51
563.551	653.61
564.004	666.61
564.456	643.71
564.908	634.21
565.36	622.31
565.812	610.21
566.264	604.31
566.716	605.41
567.168	582.61
567.62	584.71
568.072	578.91
568.524	582.61
568.976	578.21
569.428	561.81
569.88	557.71
570.332	570.81
570.784	567.21
571.235	563.91
571.687	576.41
572.139	582.31
572.59	586.51
573.042	582.41
573.494	592.71
573.945	581.91
574.397	565.21
574.849	563.61
575.3	559.21
575.752	556.61
576.203	552.31
576.655	549.01
577.106	547.41
577.557	527.61
578.009	543.51
578.46	542.11
578.912	541.61
579.363	542.91
579.814	534.61
580.265	530.41
580.717	534.41
581.168	539.51
581.619	541.81
582.07	546.71
582.521	540.01
582.972	539.81
583.423	543.81
583.875	536.91
584.326	547.31
584.777	549.81
585.227	571.11
585.678	574.61
586.129	588.21
586.58	594.91
587.031	613.01
587.482	644.21
587.933	656.51
588.384	651.31
588.834	622.71
589.285	613.01
589.736	619.61
590.186	614.41
590.637	604.81
591.088	588.31
591.538	585.41
591.989	585.41
592.439	571.91
592.89	570.31
593.34	550.01
593.791	550.51
594.241	536.11
594.692	556.61
595.142	551.61
595.593	540.71
596.043	544.21
596.493	555.31
596.943	550.21
597.394	559.51
597.844	553.31
598.294	568.81
598.744	596.21
599.195	598.51
599.645	635.51
600.095	660.01
600.545	696.41
600.995	733.01
601.445	773.81
601.895	828.41
602.345	859.41
602.795	848.01
603.245	812.01
603.695	782.41
604.145	732.41
604.594	706.51
605.044	656.91
605.494	618.81
605.944	588.11
606.393	577.61
606.843	551.41
607.293	562.61
607.743	553.41
608.192	566.41
608.642	566.11
609.091	575.61
609.541	581.91
609.99	574.11
610.44	570.81
610.889	550.81
611.339	526.11
611.788	511.41
612.238	518.21
612.687	539.71
613.136	523.21
613.586	540.41
614.035	529.41
614.484	537.21
614.933	535.41
615.383	538.01
615.832	537.61
616.281	528.51
616.73	508.61
617.179	494.91
617.628	477.61
618.077	474.21
618.526	474.31
618.975	461.51
619.424	463.31
619.873	454.91
620.322	455.81
620.771	445.41
621.22	456.71
621.669	442.11
622.118	432.71
622.567	429.61
623.015	413.51
623.464	421.21
623.913	416.21
624.361	406.71
624.81	406.51
625.259	409.11
625.707	415.71
626.156	416.81
626.604	416.61
627.053	426.01
627.501	421.81
627.95	415.61
628.398	429.21
628.847	421.51
629.295	417.21
629.744	419.31
630.192	422.81
630.64	411.21
631.089	405.21
631.537	393.41
631.985	385.31
632.433	402.11
632.881	384.41
633.33	383.71
633.778	383.71
634.226	377.51
634.674	393.01
635.122	386.01
635.57	407.11
636.018	405.81
636.466	415.41
636.914	408.21
637.362	420.11
637.81	425.21
638.258	428.21
638.705	426.01
639.153	443.41
639.601	439.91
640.049	461.61
640.497	496.11
640.944	505.11
641.392	470.21
641.84	455.11
642.287	421.41
642.735	411.11
643.182	417.31
643.63	415.81
644.078	409.61
644.525	418.81
644.973	425.11
645.42	423.81
645.867	452.71
646.315	459.71
646.762	479.11
647.21	494.21
647.657	502.91
648.104	537.41
648.551	546.41
648.999	580.51
649.446	624.81
649.893	671.41
650.34	773.91
650.787	906.31
651.234	1106.01
651.682	1419.61
652.129	1892.41
652.576	2661.91
653.023	3881.11
653.47	5354.41
653.917	6745.21
654.363	7912.21
654.81	8953.91
655.257	8521.51
655.704	5680.51
656.151	3399.71
656.598	2236.01
657.044	1608.61
657.491	1238.41
657.938	999.21
658.385	839.91
658.831	738.41
659.278	659.31
659.724	585.81
660.171	546.11
660.618	490.51
661.064	474.31
661.511	453.71
661.957	442.81
662.404	430.01
662.85	441.81
663.296	422.31
663.743	402.21
664.189	380.81
664.635	381.71
665.082	379.31
665.528	362.91
665.974	358.81
666.42	358.61
666.867	361.11
667.313	326.91
667.759	324.61
668.205	322.61
668.651	315.91
669.097	311.81
669.543	307.91
669.989	310.71
670.435	312.61
670.881	318.31
671.327	322.61
671.773	340.81
672.219	353.11
672.665	380.91
673.11	406.61
673.556	441.21
674.002	483.41
674.448	470.21
674.893	401.91
675.339	344.01
675.785	317.91
676.23	295.61
676.676	279.81
677.122	268.91
677.567	262.91
678.013	265.51
678.458	257.51
678.904	252.51
679.349	247.91
679.794	242.01
680.24	253.91
680.685	244.91
681.131	246.71
681.576	242.91
682.021	247.71
682.466	242.01
682.912	248.81
683.357	242.51
683.802	269.81
684.247	288.91
684.692	317.71
685.137	336.51
685.583	381.21
686.028	396.21
686.473	371.01
686.918	314.51
687.363	298.41
687.807	279.81
688.252	257.11
688.697	255.21
689.142	239.11
689.587	229.41
690.032	228.31
690.477	241.61
690.921	244.31
691.366	269.81
691.811	273.31
692.255	306.91
692.7	326.11
693.145	353.61
693.589	461.21
694.034	759.71
694.478	1066.11
694.923	1239.01
695.367	1667.31
695.812	872.51
696.256	353.11
696.701	258.41
697.145	242.01
697.59	239.31
698.034	220.61
698.478	233.31
698.922	224.11
699.367	218.91
699.811	232.31
700.255	238.01
700.699	258.01
701.143	291.21
701.588	330.51
702.032	359.21
702.476	360.41
702.92	338.01
703.364	328.61
703.808	427.51
704.252	694.81
704.696	990.51
705.14	1203.91
705.584	1546.21
706.027	770.81
706.471	375.51
706.915	276.91
707.359	245.01
707.803	224.61
708.246	218.81
708.69	224.91
709.134	222.51
709.577	215.41
710.021	221.61
710.465	215.71
710.908	213.91
711.352	210.21
711.795	213.71
712.239	242.71
712.682	255.01
713.126	284.81
713.569	325.91
714.012	252.01
714.456	213.11
714.899	197.61
715.342	197.31
715.786	181.61
716.229	177.41
716.672	175.31
717.115	175.81
717.558	176.91
718.002	171.01
718.445	180.71
718.888	196.31
719.331	203.31
719.774	211.51
720.217	210.01
720.66	197.11
721.103	183.71
721.546	179.31
721.989	174.71
722.432	157.51
722.874	166.51
723.317	154.41
723.76	156.31
724.203	178.21
724.645	216.21
725.088	298.81
725.531	389.11
725.974	460.31
726.416	396.61
726.859	218.11
727.301	170.91
727.744	165.81
728.187	160.21
728.629	167.61
729.071	166.61
729.514	178.41
729.956	186.71
730.399	184.51
730.841	200.31
731.283	193.11
731.726	187.21
732.168	184.11
732.61	187.01
733.053	195.01
733.495	216.91
733.937	240.91
734.379	267.51
734.821	294.51
735.263	362.91
735.705	556.11
736.148	1041.81
736.59	1772.71
737.032	2222.11
737.474	1823.31
737.916	588.31
738.357	300.31
738.799	236.21
739.241	208.91
739.683	196.61
740.125	203.91
740.567	210.21
741.008	232.31
741.45	239.21
741.892	226.91
742.334	250.31
742.775	273.61
743.217	262.11
743.658	198.51
744.1	176.21
744.542	190.81
744.983	237.11
745.425	268.71
745.866	265.91
746.307	198.51
746.749	193.61
747.19	219.91
747.632	294.21
748.073	565.01
748.514	1236.11
748.956	1990.21
749.397	2502.51
749.838	2088.21
750.279	2158.61
750.72	1093.91
751.162	397.41
751.603	226.11
752.044	180.91
752.485	150.91
752.926	143.21
753.367	140.91
753.808	131.11
754.249	127.91
754.69	128.01
755.131	128.01
755.572	124.01
756.013	122.71
756.453	129.11
756.894	132.71
757.335	133.41
757.776	135.11
758.216	132.01
758.657	137.61
759.098	138.71
759.538	153.71
759.979	179.21
760.42	244.61
760.86	462.91
761.301	1200.51
761.741	3032.11
762.182	4795.61
762.622	3415.81
763.063	962.91
763.503	390.41
763.943	234.51
764.384	187.11
764.824	167.61
765.264	165.81
765.705	150.01
766.145	125.01
766.585	113.41
767.025	115.91
767.465	107.31
767.906	129.01
768.346	137.81
768.786	129.11
769.226	143.31
769.666	206.61
770.106	398.61
770.546	1020.71
770.986	1885.91
771.426	1753.91
771.866	565.91
772.306	229.01
772.745	145.21
773.185	115.91
773.625	110.41
774.065	101.81
774.505	114.91
774.944	150.21
775.384	282.91
775.824	502.61
776.263	492.61
776.703	223.11
777.142	120.31
777.582	93.21
778.021	84.41
778.461	88.01
778.9	83.71
779.34	88.81
779.779	76.81
780.219	76.31
780.658	67.41
781.097	71.51
781.537	75.61
781.976	71.71
782.415	68.51
782.855	76.11
783.294	68.81
783.733	66.51
784.172	76.21
784.611	70.51
785.05	73.11
785.489	74.31
785.928	81.81
786.367	89.31
786.806	83.81
787.245	91.61
787.684	93.31
788.123	106.61
788.562	90.61
789.001	91.91
789.44	83.51
789.879	79.41
790.317	80.21
790.756	87.21
791.195	84.71
791.634	99.21
792.072	136.41
792.511	233.91
792.95	653.51
793.388	1486.51
793.827	1426.41
794.265	492.91
794.704	192.41
795.142	126.11
795.581	104.41
796.019	91.71
796.458	88.31
796.896	74.31
797.334	85.31
797.773	106.21
798.211	147.31
798.649	284.51
799.087	680.61
799.526	1111.31
799.964	1406.41
800.402	1491.91
800.84	554.61
801.278	216.21
801.716	128.21
802.154	107.41
802.592	105.01
803.03	93.91
803.468	87.31
803.906	99.91
804.344	97.61
804.782	96.51
805.22	89.01
805.658	84.91
806.096	107.11
806.533	111.81
806.971	117.41
807.409	153.11
807.847	218.61
808.284	430.91
808.722	1269.51
809.16	2364.31
809.597	2191.41
810.035	3893.21
810.472	4472.71
810.91	1605.21
811.347	585.71
811.785	295.21
812.222	188.81
812.66	143.01
813.097	117.51
813.535	96.81
813.972	90.91
814.409	82.31
814.846	76.81
815.284	80.21
815.721	71.31
816.158	75.61
816.595	82.31
817.032	121.21
817.47	155.01
817.907	115.91
818.344	79.91
818.781	73.61
819.218	72.61
819.655	95.11
820.092	157.11
820.529	192.01
820.966	146.71
821.403	105.41
821.839	65.11
822.276	61.51
822.713	91.01
823.15	98.61
823.587	86.51
824.023	103.31
824.46	196.01
824.897	607.11
825.333	990.71
825.77	438.01
826.206	165.41
826.643	94.81
827.08	71.11
827.516	58.21
827.953	53.11
828.389	63.21
828.825	50.01
829.262	43.31
829.698	41.71
830.135	36.81
830.571	39.01
831.007	46.61
831.443	44.71
831.88	43.51
832.316	43.51
832.752	47.41
833.188	50.61
833.624	43.81
834.06	40.91
834.497	45.91
834.933	52.71
835.369	56.61
835.805	46.71
836.241	49.21
836.677	52.81
837.112	63.11
837.548	72.11
837.984	91.91
838.42	136.41
838.856	331.61
839.292	1053.91
839.727	1711.21
840.163	796.71
840.599	636.51
841.034	1436.71
841.47	1625.81
841.906	585.31
842.341	232.11
842.777	141.31
843.212	158.61
843.648	146.11
844.083	82.41
844.519	60.81
844.954	47.71
845.39	45.91
845.825	43.21
846.261	37.91
846.696	40.01
847.131	35.91
847.566	38.51
848.002	35.41
848.437	35.81
848.872	41.81
849.307	45.01
849.742	56.21
850.177	119.21
850.613	379.61
851.048	632.31
851.483	270.31
851.918	110.71
852.353	65.81
852.788	38.01
853.223	37.41
853.657	36.31
854.092	37.31
854.527	30.61
854.962	30.31
855.397	29.91
855.832	40.71
856.266	35.01
856.701	35.81
857.136	24.41
857.57	30.71
858.005	41.51
858.44	50.31
858.874	34.01
859.309	40.61
859.743	28.01
860.178	30.11
860.612	22.41
861.047	36.11
861.481	52.31
861.915	61.71
862.35	40.61
862.784	25.01
863.218	33.01
863.653	27.01
864.087	36.51
864.521	37.11
864.955	46.81
865.39	107.61
865.824	122.51
866.258	88.51
866.692	148.41
867.126	166.71
867.56	97.21
867.994	39.61
868.428	28.51
868.862	35.41
869.296	45.31
869.73	50.71
870.164	48.71
870.598	37.31
871.031	26.51
871.465	22.31
871.899	27.71
872.333	13.21
872.766	16.01
873.2	15.31
873.634	25.61
874.067	21.71
874.501	23.21
874.935	29.31
875.368	16.81
875.802	15.61
876.235	17.21
876.669	17.11
877.102	13.21
877.535	24.41
877.969	16.21
878.402	13.31
878.836	11.61
879.269	16.51
879.702	20.21
880.135	16.61
880.569	19.41
881.002	20.81
881.435	15.21
881.868	14.71
882.301	22.61
882.734	14.31
883.167	18.71
883.601	18.01
884.034	22.31
884.467	5.81
884.899	11.81
885.332	5.91
885.765	4.81
886.198	12.51
886.631	13.01
887.064	13.71
887.497	16.71
887.929	22.61
888.362	9.31
888.795	1.81
889.228	11.91
889.66	16.51
890.093	24.01
890.526	17.21
890.958	12.91
891.391	11.51
891.823	14.61
892.256	6.01
892.688	5.91
893.121	10.91
893.553	3.41
893.985	22.71
894.418	10.21
894.85	13.11
895.282	13.01
895.715	12.31
896.147	12.81
896.579	9.21
897.011	8.71
897.444	10.91
897.876	7.41
898.308	9.71
898.74	9.31
899.172	6.81
899.604	14.91
900.036	22.81
900.468	9.51
900.9	11.71
901.332	11.31
901.764	9.11
902.196	13.21
902.628	13.11
903.06	13.31
903.491	23.71
903.923	16.31
904.355	7.71
904.787	14.21
905.218	15.91
905.65	20.31
906.082	8.31
906.513	4.71
906.945	13.91
907.376	5.41
907.808	12.31
908.239	16.11
908.671	11.21
909.102	11.81
909.534	15.81
909.965	34.11
910.397	65.11
910.828	223.71
911.259	351.91
911.691	164.71
912.122	72.91
912.553	37.41
912.984	26.31
913.415	20.21
913.847	19.51
914.278	16.51
914.709	10.81
915.14	14.11
915.571	17.31
916.002	10.41
916.433	11.81
916.864	14.11
917.295	9.21
917.726	13.71
918.157	11.41
918.587	17.91
919.018	12.91
919.449	20.81
919.88	15.61
920.311	20.71
920.741	31.11
921.172	112.01
921.603	108.01
922.033	50.11
922.464	37.01
922.895	13.11
923.325	18.61
923.756	16.21
924.186	14.01
924.617	15.01
925.047	16.21
925.478	22.21
925.908	23.61
926.338	12.71
926.769	13.31
927.199	16.31
927.629	2.41
928.06	9.81
928.49	8.81
928.92	10.61
929.35	9.61
929.78	9.51
930.21	4.31
930.641	3.21
931.071	5.61
931.501	-1.49
931.931	10.71
932.361	0.81
932.791	1.41
933.221	6.31
933.651	0.41
934.08	13.21
934.51	27.91
934.94	10.61
935.37	9.01
935.8	13.61
936.229	7.91
936.659	8.01
937.089	-0.39
937.519	9.61
937.948	21.61
938.378	12.21
938.807	3.11
939.237	3.01
939.666	8.51
940.096	-3.99
940.525	3.51
940.955	2.41
941.384	6.01
941.814	-7.09
942.243	0.81
942.672	1.21
943.102	-3.09
943.531	0.21
943.96	6.71
944.39	-1.19
944.819	2.21
945.248	1.61
945.677	1.01
946.106	9.31
946.535	6.01
946.964	-2.89
947.393	4.61
947.822	-3.89
948.251	-1.69
948.68	-0.19
949.109	2.11
949.538	8.81
949.967	-2.39
950.396	0.51
950.825	0.91
951.254	1.51
951.682	-7.89
952.111	5.01
952.54	8.21
952.969	-0.99
953.397	-4.59
953.826	-3.39
954.254	-7.39
954.683	7.21
955.112	-2.89
955.54	-5.69
955.969	5.01
956.397	2.01
956.826	-1.79
957.254	-5.09
957.682	0.41
958.111	-0.99
958.539	-2.19
958.967	0.51
959.396	-1.59
959.824	-0.19
960.252	0.31
960.68	-2.99
961.109	1.31
961.537	-3.99
961.965	3.31
962.393	3.01
962.821	-7.19
963.249	-0.89
963.677	4.51
964.105	3.31
964.533	35.21
964.961	32.61
965.389	16.11
965.817	9.11
966.245	-4.79
966.672	1.51
967.1	-5.49
967.528	-1.09
967.956	-2.39
968.383	-0.19
968.811	-6.69
969.239	0.11
969.666	1.21
970.094	-0.19
970.522	5.51
970.949	-6.99
971.377	-8.89
971.804	0.41
972.232	-0.29
972.659	-1.89
973.087	-1.39
973.514	0.91
973.941	-8.29
974.369	-3.59
974.796	2.01
975.223	0.61
975.651	-2.69
976.078	-0.39
976.505	1.41
976.932	-2.89
977.359	10.21
977.786	12.61
978.214	3.71
978.641	-2.89
979.068	-2.29
979.495	-5.69
979.922	-0.09
980.349	-4.79
980.776	-1.89
981.202	1.61
981.629	5.11
982.056	5.21
982.483	-4.89
982.91	8.61
983.337	-7.49
983.763	5.91
984.19	-7.59
984.617	-4.39
985.043	-6.09
985.47	3.31
985.897	-1.89
986.323	-5.49
986.75	0.61
987.176	-0.19
987.603	-6.29
988.029	-0.39
988.456	-2.89
988.882	6.61
989.308	-10.29
989.735	-3.99
990.161	-2.59
990.587	-7.79
991.014	1.71
991.44	5.41
991.866	3.11
992.292	-4.39
992.719	-4.09
993.145	10.41
993.571	-8.19
993.997	-7.29
994.423	-0.49
994.849	-4.09
995.275	3.01
995.701	4.41
996.127	-7.89
996.553	5.71
996.979	3.01
997.405	-0.79
997.83	-6.19
998.256	-8.69
998.682	-8.49
999.108	-8.49
999.534	-0.19
999.959	-1.59
1000.385	-4.09
1000.811	2.01
1001.236	-8.39
1001.662	-9.69
1002.087	-5.19
1002.513	-0.69
1002.938	0.81
1003.364	-2.99
1003.789	0.51
1004.215	7.81
1004.64	3.71
1005.066	1.21
1005.491	1.11
1005.916	-0.09
1006.342	-1.59
1006.767	-10.09
1007.192	0.21
1007.617	-7.09
1008.042	-0.49
1008.468	-5.99
1008.893	-3.99
1009.318	-11.49
1009.743	-3.69
1010.168	9.51
1010.593	-0.89
1011.018	-0.59
1011.443	-7.79
1011.868	-3.19
1012.293	-2.79
1012.718	-5.69
1013.143	0.71
1013.567	0.71
1013.992	-7.39
1014.417	-15.29
1014.842	-0.79
1015.267	-7.89
1015.691	-0.39
1016.116	4.21
1016.541	-1.39
1016.965	5.01
1017.39	4.31
1017.814	3.41
1018.239	2.61
1018.663	-9.49
1019.088	-8.89
1019.512	0.11
1019.937	-1.29
1020.361	-4.89
1020.785	-9.29
1021.21	-5.19
1021.634	-0.29
1022.058	-1.89
1022.483	5.01
1022.907	-3.29
1023.331	-8.79
1023.755	-1.39
1024.179	3.51
1024.604	-3.39
1025.028	-6.19
1025.452	0.01
1025.876	-2.69
1026.3	2.41
1026.724	-12.19
1027.148	-8.59
1027.572	-5.39
1027.996	-0.99
1028.42	-3.69
1028.843	-0.19
1029.267	-6.39
1029.691	3.51
1030.115	-0.29
1030.539	-7.69
1030.962	-4.99
1031.386	-10.39
1031.81	-0.49
1032.233	0.51
1032.657	-5.09
1033.08	-2.59
1033.504	-7.09
1033.927	-0.49
1034.351	-2.49
1034.774	-1.69
1035.198	-0.89
1035.621	-0.39
1036.045	-6.19
1036.468	3.01
1036.891	-8.49
1037.315	-5.49
1037.738	-1.59
1038.161	2.01
1038.584	-9.29
1039.008	-1.09
1039.431	-3.79
1039.854	0.71
1040.277	-7.99
1040.7	-7.49
1041.123	0.21
1041.546	-6.59
1041.969	-4.99
1042.392	-4.79
1042.815	0.11
1043.238	-0.09
1043.661	-3.29
1044.084	-5.19
1044.507	-3.39
1044.93	-3.89
1045.352	-0.79
1045.775	-4.69
1046.198	-0.69
1046.621	0.11
1047.043	1.61
1047.466	6.01
1047.889	-7.49
1048.311	-4.49
1048.734	-5.19
1049.156	-5.49
1049.579	-1.39
1050.001	-1.39
1050.424	-1.59
1050.846	-3.29
1051.269	-5.89
1051.691	-6.19
1052.113	-3.49
1052.536	-6.99
1052.958	-2.49
1053.38	-3.89
1053.802	-8.79
1054.225	-0.29
1054.647	-11.99
1055.069	-3.79
1055.491	3.31
1055.913	-6.29
1056.335	0.21
1056.757	-6.89
1057.179	-6.89
1057.601	-7.09
1058.023	-1.69
1058.445	-5.49
1058.867	-2.29
1059.289	0.01
1059.711	-5.19
1060.133	-0.09
1060.555	-1.69
1060.976	-5.79
1061.398	-5.49
1061.82	-4.59
1062.241	-0.79
1062.663	-10.69
1063.085	-2.79
1063.506	-2.09
1063.928	-7.39
1064.35	-0.29
1064.771	-13.69
1065.193	-0.79
1065.614	-4.59
1066.035	-4.19
1066.457	-6.29
1066.878	5.61
1067.3	-6.39
1067.721	-2.79
1068.142	-1.29
1068.564	-5.99
1068.985	-0.49
1069.406	-4.09
1069.827	0.71
1070.248	-5.09
1070.67	-6.89
1071.091	-4.89
1071.512	-2.09
1071.933	-8.39
1072.354	-5.79
1072.775	-7.89
1073.196	-6.39
1073.617	-7.79
1074.038	-3.89
1074.459	-4.09
1074.88	-9.19
1075.3	-0.79
1075.721	-4.29
1076.142	3.71
1076.563	-2.09
1076.983	-8.69
1077.404	-3.89
1077.825	-6.79
1078.246	3.31
1078.666	-5.99
1079.087	-5.49
1079.507	0.51
1079.928	1.21
1080.348	-1.29
1080.769	-9.69
1081.189	0.31
1081.61	-2.59
1082.03	-7.69
1082.451	-9.39
1082.871	-6.79
1083.291	-3.59
1083.711	-10.09
1084.132	-3.99
1084.552	-3.99
1084.972	0.01
1085.392	-3.49
1085.813	-6.29
1086.233	-10.89
1086.653	-6.39
1087.073	-4.29
1087.493	-7.39
1087.913	-2.89
1088.333	-7.49
1088.753	-2.69
1089.173	1.51
1089.593	-0.89
1090.013	-2.09
1090.433	2.61
1090.852	-4.09
1091.272	1.21
1091.692	0.91
1092.112	4.71
1092.531	-6.79
1092.951	-12.09
1093.371	-3.99
1093.79	6.11
1094.21	-7.09
1094.63	-7.29
1095.049	-3.19
1095.469	-5.69
1095.888	-1.29
1096.308	2.01
1096.727	6.41
1097.146	-2.19
1097.566	2.31
1097.985	-5.49
1098.405	4.41
1098.824	-6.09
1099.243	-5.09
1099.662	-6.89
1100.082	0.21
1100.501	0.71
1100.92	-3.99
1101.339	-6.69
1101.758	-2.79
