Data from 20171114-ORNL-Ar_H_NY_Subt18_08-06-02-172.txt Node
Date: Tue Nov 14 08:06:02 EST 2017
User: Ender
Spectrometer: HR+D1039
Trigger mode: 0
Integration Time (sec): 2.730000E-2
Scans to average: 10
Electric dark correction enabled: true
Nonlinearity correction enabled: false
Boxcar width: 0
XAxis mode: Wavelengths
Number of Pixels in Spectrum: 2048
>>>>>Begin Spectral Data<<<<<
187.836	-4.07
188.309	-4.07
188.782	-4.07
189.255	-2.17
189.728	0.03
190.201	4.63
190.674	1.33
191.147	5.83
191.619	-4.97
192.092	0.73
192.565	7.03
193.038	-0.47
193.511	-0.47
193.984	0.23
194.456	-5.17
194.929	1.83
195.402	-1.97
195.874	-2.37
196.347	3.13
196.82	-6.17
197.292	3.63
197.765	0.13
198.237	-4.27
198.71	2.73
199.182	-2.37
199.655	1.43
200.127	-1.37
200.6	0.13
201.072	-0.67
201.544	0.13
202.017	0.33
202.489	1.23
202.961	-5.87
203.433	-1.87
203.906	-5.97
204.378	-4.87
204.85	-1.27
205.322	-7.77
205.794	3.53
206.266	1.03
206.739	-1.97
207.211	7.03
207.683	-3.07
208.155	-0.47
208.627	-3.77
209.099	-5.27
209.57	-5.17
210.042	-4.77
210.514	-6.97
210.986	1.63
211.458	-6.87
211.93	-4.37
212.402	2.93
212.873	-7.17
213.345	-8.97
213.817	-15.97
214.288	-0.87
214.76	-9.37
215.232	-4.17
215.703	0.43
216.175	1.63
216.646	-5.27
217.118	-6.07
217.589	-0.87
218.061	1.03
218.532	-1.37
219.004	3.83
219.475	-1.17
219.946	-1.57
220.418	-2.77
220.889	3.73
221.36	0.33
221.832	-3.67
222.303	-11.17
222.774	1.53
223.245	-11.37
223.717	-8.57
224.188	-6.37
224.659	-4.97
225.13	-8.17
225.601	-6.07
226.072	3.03
226.543	1.63
227.014	-1.57
227.485	-4.77
227.956	-10.97
228.427	2.63
228.898	3.03
229.369	1.93
229.839	-6.07
230.31	-8.97
230.781	5.03
231.252	-4.97
231.722	-4.07
232.193	-3.97
232.664	0.63
233.135	4.13
233.605	7.33
234.076	-2.57
234.546	4.13
235.017	5.43
235.487	0.43
235.958	-1.47
236.428	-4.97
236.899	4.93
237.369	2.03
237.84	1.43
238.31	8.03
238.78	1.13
239.251	3.83
239.721	-0.37
240.191	1.43
240.662	0.13
241.132	3.23
241.602	-1.27
242.072	5.33
242.542	5.13
243.013	0.83
243.483	5.53
243.953	4.93
244.423	3.83
244.893	-3.87
245.363	4.43
245.833	-2.37
246.303	-3.87
246.773	10.33
247.243	7.23
247.712	4.33
248.182	5.03
248.652	10.93
249.122	2.93
249.592	14.43
250.061	25.73
250.531	26.33
251.001	22.23
251.471	22.23
251.94	17.73
252.41	6.83
252.879	-0.07
253.349	17.63
253.818	7.93
254.288	3.53
254.757	7.33
255.227	1.93
255.696	-1.07
256.166	1.83
256.635	7.83
257.105	6.13
257.574	8.43
258.043	6.73
258.513	7.23
258.982	16.43
259.451	9.73
259.92	13.83
260.389	11.73
260.859	18.13
261.328	12.93
261.797	19.03
262.266	5.73
262.735	15.43
263.204	9.03
263.673	5.13
264.142	9.73
264.611	-3.27
265.08	-2.57
265.549	2.73
266.018	6.03
266.487	2.13
266.955	-2.27
267.424	0.53
267.893	5.53
268.362	6.83
268.83	7.13
269.299	6.43
269.768	8.13
270.236	7.53
270.705	1.03
271.174	5.53
271.642	7.93
272.111	15.23
272.579	22.43
273.048	23.63
273.516	31.03
273.985	33.73
274.453	24.23
274.922	19.43
275.39	13.13
275.858	4.83
276.327	11.43
276.795	23.03
277.263	13.43
277.731	27.13
278.2	53.33
278.668	56.63
279.136	53.33
279.604	24.93
280.072	13.63
280.54	9.03
281.008	12.13
281.477	17.43
281.945	13.43
282.413	11.33
282.881	15.13
283.348	7.23
283.816	18.23
284.284	16.13
284.752	22.13
285.22	17.73
285.688	17.43
286.156	24.33
286.623	46.83
287.091	52.73
287.559	30.43
288.026	18.63
288.494	20.83
288.962	13.13
289.429	8.33
289.897	23.03
290.364	12.83
290.832	13.73
291.3	16.73
291.767	23.43
292.234	17.53
292.702	19.13
293.169	18.53
293.637	26.53
294.104	22.23
294.571	11.83
295.039	8.63
295.506	14.43
295.973	15.53
296.44	17.63
296.908	21.13
297.375	22.03
297.842	16.93
298.309	19.53
298.776	15.13
299.243	22.13
299.71	13.43
300.177	19.33
300.644	27.13
301.111	20.03
301.578	22.73
302.045	16.43
302.512	23.13
302.979	30.83
303.446	22.73
303.913	24.13
304.379	24.53
304.846	28.53
305.313	29.23
305.78	23.93
306.246	25.83
306.713	24.73
307.18	29.13
307.646	30.03
308.113	31.33
308.579	23.73
309.046	27.43
309.512	29.43
309.979	22.03
310.445	34.33
310.912	35.03
311.378	32.43
311.845	35.13
312.311	31.93
312.777	34.63
313.244	35.73
313.71	43.13
314.176	31.83
314.642	34.23
315.109	37.63
315.575	43.43
316.041	43.93
316.507	31.93
316.973	39.43
317.439	32.73
317.905	37.93
318.371	40.43
318.837	35.13
319.303	38.43
319.769	39.23
320.235	42.03
320.701	41.43
321.167	41.83
321.633	39.83
322.099	47.33
322.564	49.93
323.03	44.73
323.496	39.53
323.962	46.03
324.427	41.23
324.893	44.73
325.359	44.23
325.824	45.83
326.29	45.93
326.755	39.43
327.221	36.93
327.686	40.43
328.152	53.83
328.617	45.23
329.083	49.23
329.548	57.03
330.014	53.23
330.479	41.73
330.944	51.53
331.41	50.53
331.875	51.43
332.34	46.73
332.805	49.23
333.271	51.23
333.736	53.33
334.201	57.43
334.666	56.03
335.131	55.33
335.596	55.43
336.061	51.53
336.526	49.83
336.991	60.63
337.456	58.33
337.921	58.93
338.386	52.33
338.851	47.53
339.316	48.73
339.781	53.83
340.246	57.03
340.711	52.73
341.175	52.23
341.64	48.03
342.105	50.13
342.569	61.23
343.034	63.03
343.499	54.83
343.963	57.93
344.428	67.03
344.893	62.03
345.357	70.03
345.822	65.13
346.286	68.13
346.751	72.23
347.215	72.23
347.679	78.03
348.144	103.73
348.608	89.23
349.073	79.23
349.537	76.53
350.001	79.03
350.465	93.33
350.93	78.63
351.394	83.63
351.858	78.53
352.322	92.13
352.786	91.23
353.25	110.83
353.715	116.03
354.179	109.93
354.643	129.03
355.107	134.33
355.571	109.23
356.035	108.43
356.498	128.43
356.962	130.13
357.426	133.63
357.89	119.73
358.354	91.03
358.818	84.23
359.281	84.23
359.745	81.63
360.209	78.53
360.673	78.63
361.136	87.13
361.6	87.93
362.064	85.93
362.527	87.93
362.991	95.93
363.454	87.73
363.918	85.73
364.381	88.83
364.845	82.73
365.308	92.63
365.772	92.43
366.235	93.33
366.698	94.63
367.162	90.13
367.625	91.83
368.088	92.03
368.552	94.93
369.015	93.73
369.478	101.03
369.941	106.43
370.404	96.83
370.867	108.63
371.331	115.33
371.794	126.63
372.257	114.03
372.72	121.43
373.183	121.43
373.646	114.23
374.109	111.13
374.572	102.33
375.035	112.43
375.497	115.93
375.96	116.33
376.423	109.43
376.886	117.83
377.349	111.93
377.811	105.63
378.274	112.83
378.737	112.83
379.199	124.93
379.662	120.23
380.125	125.83
380.587	122.93
381.05	123.23
381.512	139.43
381.975	137.23
382.437	130.23
382.9	135.73
383.362	143.33
383.825	146.93
384.287	161.43
384.75	143.13
385.212	151.53
385.674	151.83
386.136	142.83
386.599	129.63
387.061	132.63
387.523	135.13
387.985	143.33
388.447	152.23
388.91	146.83
389.372	168.73
389.834	160.83
390.296	152.73
390.758	162.83
391.22	178.63
391.682	218.23
392.144	307.53
392.606	247.73
393.068	174.83
393.529	167.23
393.991	161.53
394.453	155.43
394.915	166.93
395.377	199.53
395.838	222.63
396.3	158.13
396.762	152.13
397.224	138.83
397.685	140.93
398.147	142.73
398.608	134.93
399.07	138.83
399.531	145.83
399.993	149.83
400.454	162.43
400.916	160.73
401.377	150.23
401.839	161.53
402.3	159.63
402.762	171.33
403.223	189.53
403.684	182.03
404.145	173.23
404.607	169.43
405.068	171.73
405.529	173.73
405.99	198.33
406.451	187.13
406.913	189.23
407.374	173.43
407.835	173.43
408.296	178.33
408.757	188.03
409.218	200.83
409.679	191.83
410.14	189.83
410.601	185.73
411.062	196.43
411.522	203.63
411.983	205.23
412.444	185.63
412.905	187.23
413.366	198.23
413.826	206.43
414.287	225.03
414.748	267.73
415.208	256.73
415.669	228.13
416.13	218.33
416.59	213.73
417.051	226.93
417.511	229.73
417.972	246.73
418.432	260.63
418.893	298.03
419.353	265.83
419.814	199.03
420.274	193.03
420.734	198.53
421.195	212.13
421.655	206.33
422.115	201.93
422.576	207.13
423.036	208.33
423.496	219.73
423.956	224.13
424.416	240.43
424.876	280.63
425.336	272.83
425.797	276.73
426.257	267.83
426.717	255.63
427.177	236.03
427.637	233.73
428.097	245.83
428.556	253.33
429.016	282.83
429.476	274.13
429.936	294.13
430.396	297.43
430.856	302.73
431.315	335.73
431.775	375.23
432.235	398.13
432.694	371.53
433.154	386.33
433.614	418.73
434.073	361.33
434.533	298.33
434.993	289.33
435.452	292.53
435.912	317.13
436.371	305.33
436.83	300.43
437.29	277.83
437.749	256.03
438.209	260.33
438.668	293.13
439.127	293.83
439.587	272.73
440.046	260.73
440.505	270.73
440.964	287.93
441.424	329.93
441.883	327.13
442.342	274.63
442.801	240.33
443.26	233.33
443.719	235.13
444.178	233.03
444.637	227.13
445.096	234.83
445.555	236.33
446.014	239.63
446.473	234.03
446.932	244.03
447.391	236.73
447.849	232.93
448.308	230.53
448.767	235.33
449.226	250.53
449.685	248.23
450.143	258.03
450.602	252.13
451.061	240.43
451.519	252.83
451.978	245.03
452.436	252.63
452.895	244.13
453.353	263.13
453.812	255.43
454.27	248.83
454.729	249.13
455.187	251.63
455.646	257.33
456.104	259.13
456.562	279.13
457.021	280.03
457.479	277.73
457.937	288.63
458.395	278.43
458.854	263.93
459.312	274.73
459.77	290.53
460.228	268.63
460.686	256.03
461.144	257.23
461.602	256.53
462.06	255.63
462.518	266.53
462.976	265.13
463.434	275.53
463.892	281.33
464.35	285.33
464.808	302.13
465.266	275.23
465.724	280.33
466.181	285.63
466.639	292.23
467.097	300.63
467.555	321.33
468.012	316.03
468.47	328.93
468.928	343.03
469.385	354.33
469.843	368.13
470.3	371.53
470.758	386.23
471.215	405.23
471.673	419.03
472.13	422.73
472.588	436.13
473.045	394.63
473.503	403.03
473.96	414.83
474.417	425.53
474.875	452.73
475.332	497.73
475.789	483.63
476.246	495.33
476.704	510.03
477.161	527.03
477.618	545.33
478.075	594.13
478.532	652.33
478.989	734.93
479.446	835.63
479.903	797.63
480.36	840.33
480.817	897.93
481.274	1000.13
481.731	1112.83
482.188	1216.53
482.645	1334.13
483.102	1461.63
483.558	1590.23
484.015	1648.03
484.472	1620.93
484.929	1575.03
485.385	1522.13
485.842	1481.03
486.299	1415.63
486.755	1347.13
487.212	1146.93
487.668	966.53
488.125	893.43
488.582	812.93
489.038	765.63
489.494	738.73
489.951	713.43
490.407	705.43
490.864	683.03
491.32	667.83
491.776	663.73
492.233	670.23
492.689	638.23
493.145	629.93
493.602	624.73
494.058	632.63
494.514	640.53
494.97	665.63
495.426	673.93
495.882	641.43
496.338	639.83
496.794	660.33
497.251	645.83
497.707	661.53
498.163	659.13
498.618	671.33
499.074	679.63
499.53	701.13
499.986	709.63
500.442	673.23
500.898	653.03
501.354	650.33
501.809	662.13
502.265	675.43
502.721	687.43
503.177	701.03
503.632	693.63
504.088	701.43
504.543	736.33
504.999	741.73
505.455	683.33
505.91	659.43
506.366	657.83
506.821	657.43
507.277	647.63
507.732	644.23
508.187	647.63
508.643	665.53
509.098	663.53
509.553	682.13
510.009	695.13
510.464	692.63
510.919	707.83
511.375	719.33
511.83	740.13
512.285	743.03
512.74	780.33
513.195	813.73
513.65	803.23
514.105	799.93
514.56	795.33
515.015	820.43
515.47	839.43
515.925	819.73
516.38	814.43
516.835	819.63
517.29	810.73
517.745	812.43
518.2	789.93
518.655	770.73
519.109	767.93
519.564	767.33
520.019	763.03
520.474	754.53
520.928	749.83
521.383	737.93
521.838	736.33
522.292	739.03
522.747	726.33
523.201	725.93
523.656	726.53
524.11	721.13
524.565	718.83
525.019	724.63
525.474	724.23
525.928	722.83
526.382	721.43
526.837	716.03
527.291	729.13
527.745	715.93
528.2	723.03
528.654	712.33
529.108	705.53
529.562	721.83
530.016	697.93
530.47	706.53
530.925	706.83
531.379	720.73
531.833	725.83
532.287	723.23
532.741	719.53
533.195	720.73
533.649	735.83
534.103	745.13
534.556	727.73
535.01	734.73
535.464	731.83
535.918	741.33
536.372	740.63
536.826	740.53
537.279	737.33
537.733	735.93
538.187	734.63
538.64	730.63
539.094	750.23
539.548	757.13
540.001	753.73
540.455	745.03
540.908	749.73
541.362	759.23
541.815	772.53
542.269	782.63
542.722	788.93
543.175	796.43
543.629	799.83
544.082	819.23
544.536	809.03
544.989	807.73
545.442	812.93
545.895	802.63
546.349	815.93
546.802	806.33
547.255	821.83
547.708	835.13
548.161	839.63
548.614	844.13
549.067	851.33
549.52	851.43
549.973	832.63
550.426	831.43
550.879	820.33
551.332	828.93
551.785	829.03
552.238	832.93
552.691	834.43
553.144	852.83
553.596	866.73
554.049	885.03
554.502	916.43
554.955	938.93
555.407	936.73
555.86	919.93
556.313	917.43
556.765	905.73
557.218	911.63
557.67	904.13
558.123	904.13
558.576	896.63
559.028	895.83
559.48	903.43
559.933	905.73
560.385	859.83
560.838	833.33
561.29	810.53
561.742	799.43
562.195	783.63
562.647	781.13
563.099	797.93
563.551	801.43
564.004	804.83
564.456	788.03
564.908	779.43
565.36	768.53
565.812	755.23
566.264	746.73
566.716	736.13
567.168	727.23
567.62	737.03
568.072	721.33
568.524	709.53
568.976	705.33
569.428	692.13
569.88	687.93
570.332	702.83
570.784	704.43
571.235	704.53
571.687	710.13
572.139	718.13
572.59	727.73
573.042	722.33
573.494	722.63
573.945	716.33
574.397	703.63
574.849	713.03
575.3	706.73
575.752	700.13
576.203	695.93
576.655	697.93
577.106	687.03
577.557	683.33
578.009	683.53
578.46	690.03
578.912	677.23
579.363	683.93
579.814	691.03
580.265	683.83
580.717	690.83
581.168	692.93
581.619	680.03
582.07	695.53
582.521	690.63
582.972	686.23
583.423	692.73
583.875	700.23
584.326	721.13
584.777	753.33
585.227	826.93
585.678	919.23
586.129	997.53
586.58	1080.53
587.031	1144.33
587.482	1295.13
587.933	1491.63
588.384	1284.03
588.834	982.33
589.285	819.43
589.736	790.13
590.186	790.23
590.637	770.93
591.088	763.23
591.538	743.83
591.989	744.83
592.439	742.83
592.89	736.93
593.34	724.13
593.791	732.63
594.241	722.33
594.692	720.83
595.142	709.03
595.593	710.03
596.043	727.63
596.493	718.13
596.943	725.13
597.394	736.53
597.844	722.43
598.294	738.33
598.744	763.73
599.195	787.03
599.645	838.53
600.095	866.53
600.545	915.33
600.995	974.93
601.445	1038.23
601.895	1104.73
602.345	1149.03
602.795	1132.23
603.245	1081.33
603.695	1022.53
604.145	975.63
604.594	928.93
605.044	871.13
605.494	814.43
605.944	755.83
606.393	750.63
606.843	732.73
607.293	742.93
607.743	742.43
608.192	751.23
608.642	768.73
609.091	779.93
609.541	790.63
609.99	777.53
610.44	771.83
610.889	727.93
611.339	713.03
611.788	697.73
612.238	710.23
612.687	728.13
613.136	740.23
613.586	744.33
614.035	744.73
614.484	755.53
614.933	759.23
615.383	756.83
615.832	731.73
616.281	729.63
616.73	692.93
617.179	672.53
617.628	645.33
618.077	645.23
618.526	638.13
618.975	627.83
619.424	619.73
619.873	625.63
620.322	622.53
620.771	613.03
621.22	620.43
621.669	602.33
622.118	602.23
622.567	583.83
623.015	570.63
623.464	575.23
623.913	568.43
624.361	558.13
624.81	556.23
625.259	560.73
625.707	558.53
626.156	568.63
626.604	569.43
627.053	561.43
627.501	557.03
627.95	574.93
628.398	589.33
628.847	577.93
629.295	567.33
629.744	585.53
630.192	566.93
630.64	565.63
631.089	570.93
631.537	591.03
631.985	592.73
632.433	608.63
632.881	608.43
633.33	657.03
633.778	638.83
634.226	568.13
634.674	579.93
635.122	585.03
635.57	601.83
636.018	623.83
636.466	580.33
636.914	554.23
637.362	571.33
637.81	578.63
638.258	582.33
638.705	584.93
639.153	612.33
639.601	622.83
640.049	648.23
640.497	672.03
640.944	684.13
641.392	643.23
641.84	603.73
642.287	590.53
642.735	577.63
643.182	577.33
643.63	578.03
644.078	574.03
644.525	588.53
644.973	593.43
645.42	605.83
645.867	629.83
646.315	651.13
646.762	658.63
647.21	690.63
647.657	714.23
648.104	752.23
648.551	777.13
648.999	832.03
649.446	907.43
649.893	1012.03
650.34	1165.23
650.787	1388.63
651.234	1715.63
651.682	2246.03
652.129	3064.23
652.576	4389.53
653.023	6498.33
653.47	8879.53
653.917	11092.03
654.363	12884.23
654.81	14252.63
655.257	13553.33
655.704	8875.03
656.151	5250.93
656.598	3400.53
657.044	2410.03
657.491	1878.13
657.938	1477.03
658.385	1242.73
658.831	1066.23
659.278	968.23
659.724	854.43
660.171	789.73
660.618	725.23
661.064	692.43
661.511	664.53
661.957	658.73
662.404	650.73
662.85	650.33
663.296	620.53
663.743	557.03
664.189	538.43
664.635	532.43
665.082	535.03
665.528	524.33
665.974	513.43
666.42	510.03
666.867	499.33
667.313	495.73
667.759	485.43
668.205	475.53
668.651	485.73
669.097	483.23
669.543	502.93
669.989	466.33
670.435	446.53
670.881	436.33
671.327	447.83
671.773	473.23
672.219	488.33
672.665	545.13
673.11	571.43
673.556	622.23
674.002	661.83
674.448	652.13
674.893	545.33
675.339	474.23
675.785	438.33
676.23	414.43
676.676	390.43
677.122	384.13
677.567	371.13
678.013	363.43
678.458	360.73
678.904	357.53
679.349	344.43
679.794	349.93
680.24	356.33
680.685	347.93
681.131	347.13
681.576	348.63
682.021	351.53
682.466	349.93
682.912	342.03
683.357	350.63
683.802	378.23
684.247	404.93
684.692	452.13
685.137	480.43
685.583	530.33
686.028	566.13
686.473	513.33
686.918	442.43
687.363	422.93
687.807	383.13
688.252	363.03
688.697	352.43
689.142	333.33
689.587	331.43
690.032	327.13
690.477	346.23
690.921	347.33
691.366	376.23
691.811	391.73
692.255	432.03
692.7	459.13
693.145	501.93
693.589	677.93
694.034	1113.23
694.478	1518.03
694.923	1712.73
695.367	2256.33
695.812	1182.23
696.256	494.43
696.701	370.73
697.145	335.63
697.59	321.03
698.034	317.93
698.478	327.83
698.922	327.23
699.367	317.23
699.811	335.83
700.255	354.83
700.699	376.43
701.143	423.33
701.588	473.03
702.032	511.93
702.476	513.73
702.92	486.03
703.364	481.33
703.808	629.93
704.252	1009.03
704.696	1418.83
705.14	1664.93
705.584	2121.13
706.027	1055.63
706.471	515.33
706.915	393.63
707.359	346.23
707.803	319.53
708.246	310.83
708.69	303.83
709.134	303.93
709.577	311.93
710.021	313.53
710.465	306.93
710.908	296.93
711.352	289.53
711.795	305.73
712.239	339.63
712.682	387.43
713.126	411.03
713.569	461.43
714.012	360.03
714.456	317.43
714.899	292.83
715.342	276.23
715.786	259.53
716.229	259.13
716.672	257.63
717.115	252.93
717.558	243.73
718.002	248.93
718.445	259.33
718.888	278.43
719.331	292.23
719.774	303.33
720.217	300.93
720.66	270.33
721.103	256.33
721.546	246.53
721.989	249.23
722.432	232.93
722.874	233.63
723.317	231.93
723.76	233.63
724.203	260.13
724.645	313.03
725.088	439.73
725.531	545.33
725.974	643.83
726.416	548.63
726.859	305.93
727.301	240.03
727.744	239.03
728.187	230.73
728.629	242.73
729.071	240.83
729.514	256.83
729.956	268.33
730.399	279.33
730.841	292.43
731.283	271.43
731.726	268.23
732.168	260.53
732.61	262.93
733.053	281.43
733.495	304.63
733.937	346.93
734.379	389.93
734.821	424.03
735.263	532.83
735.705	798.93
736.148	1538.33
736.59	2517.63
737.032	3019.23
737.474	2462.03
737.916	798.33
738.357	423.43
738.799	321.13
739.241	296.03
739.683	283.33
740.125	288.23
740.567	289.83
741.008	309.33
741.45	319.43
741.892	312.93
742.334	343.03
742.775	353.13
743.217	338.03
743.658	265.33
744.1	252.63
744.542	260.63
744.983	304.53
745.425	343.33
745.866	343.53
746.307	281.63
746.749	275.63
747.19	320.63
747.632	438.13
748.073	854.73
748.514	1826.33
748.956	2803.63
749.397	3503.63
749.838	2905.93
750.279	2941.53
750.72	1483.43
751.162	535.23
751.603	312.03
752.044	252.63
752.485	213.13
752.926	199.53
753.367	195.73
753.808	191.73
754.249	186.73
754.69	181.63
755.131	178.13
755.572	183.03
756.013	170.23
756.453	180.43
756.894	183.23
757.335	190.73
757.776	196.13
758.216	197.13
758.657	192.23
759.098	196.13
759.538	223.83
759.979	260.73
760.42	368.43
760.86	681.43
761.301	1770.03
761.741	4296.03
762.182	6359.03
762.622	4480.63
763.063	1289.93
763.503	522.93
763.943	331.83
764.384	327.23
764.824	399.03
765.264	425.83
765.705	300.23
766.145	209.03
766.585	186.73
767.025	176.73
767.465	181.03
767.906	234.63
768.346	313.13
768.786	335.83
769.226	258.13
769.666	312.03
770.106	603.83
770.546	1514.53
770.986	2608.23
771.426	2344.53
771.866	783.63
772.306	322.43
772.745	209.23
773.185	172.53
773.625	165.03
774.065	160.93
774.505	196.13
774.944	284.43
775.384	626.93
775.824	1131.33
776.263	1117.13
776.703	479.43
777.142	217.13
777.582	147.43
778.021	129.23
778.461	134.53
778.9	134.63
779.34	128.53
779.779	113.73
780.219	112.93
780.658	104.73
781.097	110.53
781.537	107.83
781.976	109.63
782.415	105.33
782.855	99.83
783.294	99.73
783.733	104.33
784.172	108.43
784.611	109.13
785.05	102.23
785.489	110.23
785.928	113.03
786.367	122.23
786.806	116.13
787.245	129.93
787.684	134.83
788.123	146.03
788.562	131.13
789.001	125.83
789.44	117.03
789.879	121.43
790.317	111.43
790.756	124.93
791.195	123.23
791.634	147.13
792.072	201.83
792.511	356.93
792.95	973.43
793.388	2093.93
793.827	1912.43
794.265	667.63
794.704	274.83
795.142	179.13
795.581	150.23
796.019	129.53
796.458	125.63
796.896	125.53
797.334	127.83
797.773	144.23
798.211	215.63
798.649	427.63
799.087	991.93
799.526	1555.73
799.964	1980.03
800.402	1997.93
800.84	745.03
801.278	293.43
801.716	184.73
802.154	153.13
802.592	142.73
803.03	134.63
803.468	135.13
803.906	144.53
804.344	147.53
804.782	139.53
805.22	133.43
805.658	131.93
806.096	147.23
806.533	148.83
806.971	168.53
807.409	219.63
807.847	306.93
808.284	646.23
808.722	1817.33
809.16	3231.23
809.597	3028.93
810.035	5289.13
810.472	5741.43
810.91	2063.43
811.347	783.03
811.785	403.73
812.222	248.53
812.66	192.93
813.097	163.83
813.535	137.53
813.972	131.43
814.409	116.03
814.846	110.93
815.284	110.93
815.721	97.93
816.158	105.23
816.595	115.43
817.032	176.93
817.47	188.03
817.907	169.73
818.344	147.83
818.781	118.23
819.218	98.83
819.655	117.33
820.092	181.93
820.529	207.83
820.966	180.43
821.403	134.23
821.839	114.73
822.276	100.83
822.713	117.83
823.15	139.73
823.587	113.83
824.023	148.13
824.46	292.23
824.897	867.63
825.333	1347.73
825.77	574.83
826.206	229.03
826.643	134.93
827.08	101.73
827.516	87.33
827.953	70.13
828.389	81.73
828.825	69.63
829.262	65.93
829.698	58.83
830.135	61.53
830.571	59.13
831.007	61.53
831.443	65.43
831.88	64.03
832.316	65.73
832.752	62.63
833.188	61.33
833.624	65.43
834.06	66.93
834.497	63.23
834.933	72.43
835.369	79.13
835.805	63.33
836.241	80.13
836.677	83.13
837.112	93.83
837.548	106.93
837.984	132.83
838.42	193.93
838.856	474.53
839.292	1470.13
839.727	2273.63
840.163	1053.73
840.599	894.23
841.034	1978.03
841.47	2087.33
841.906	766.63
842.341	335.23
842.777	224.23
843.212	296.63
843.648	292.33
844.083	147.43
844.519	94.53
844.954	78.73
845.39	58.23
845.825	58.93
846.261	56.63
846.696	58.63
847.131	58.73
847.566	61.13
848.002	53.23
848.437	53.03
848.872	66.13
849.307	61.73
849.742	83.93
850.177	176.23
850.613	544.23
851.048	867.83
851.483	383.33
851.918	155.93
852.353	87.63
852.788	62.53
853.223	57.03
853.657	58.53
854.092	45.43
854.527	43.03
854.962	39.63
855.397	44.73
855.832	51.13
856.266	42.73
856.701	45.83
857.136	39.73
857.57	43.43
858.005	54.23
858.44	58.43
858.874	46.43
859.309	51.93
859.743	40.53
860.178	49.43
860.612	43.13
861.047	55.73
861.481	70.13
861.915	76.63
862.35	45.53
862.784	36.83
863.218	40.93
863.653	36.43
864.087	43.53
864.521	49.43
864.955	73.23
865.39	155.03
865.824	172.43
866.258	113.03
866.692	160.13
867.126	173.43
867.56	105.83
867.994	58.93
868.428	39.23
868.862	50.03
869.296	58.03
869.73	59.83
870.164	51.53
870.598	43.93
871.031	34.63
871.465	32.23
871.899	26.13
872.333	27.33
872.766	27.23
873.2	20.43
873.634	34.13
874.067	24.73
874.501	25.63
874.935	31.53
875.368	36.23
875.802	30.13
876.235	29.03
876.669	26.03
877.102	27.43
877.535	29.13
877.969	21.73
878.402	25.73
878.836	19.23
879.269	26.73
879.702	20.33
880.135	18.93
880.569	25.23
881.002	28.93
881.435	24.13
881.868	13.33
882.301	25.73
882.734	17.23
883.167	26.03
883.601	19.23
884.034	22.03
884.467	17.43
884.899	22.83
885.332	18.13
885.765	14.83
886.198	20.43
886.631	26.23
887.064	19.43
887.497	17.73
887.929	23.13
888.362	16.33
888.795	9.43
889.228	17.83
889.66	20.03
890.093	17.43
890.526	16.83
890.958	14.53
891.391	17.53
891.823	24.73
892.256	19.63
892.688	9.83
893.121	13.33
893.553	15.93
893.985	26.13
894.418	20.03
894.85	11.33
895.282	13.63
895.715	16.53
896.147	21.03
896.579	19.33
897.011	15.33
897.444	19.73
897.876	17.23
898.308	17.43
898.74	15.43
899.172	15.43
899.604	29.23
900.036	22.33
900.468	12.33
900.9	10.43
901.332	19.13
901.764	15.93
902.196	23.93
902.628	16.53
903.06	16.93
903.491	28.13
903.923	22.03
904.355	25.13
904.787	29.43
905.218	23.83
905.65	22.63
906.082	7.63
906.513	11.13
906.945	13.53
907.376	14.43
907.808	11.93
908.239	19.73
908.671	23.73
909.102	26.23
909.534	24.33
909.965	47.63
910.397	91.03
910.828	308.53
911.259	458.73
911.691	218.33
912.122	106.53
912.553	45.83
912.984	31.23
913.415	26.43
913.847	24.33
914.278	14.13
914.709	18.33
915.14	22.33
915.571	18.93
916.002	12.53
916.433	17.13
916.864	19.73
917.295	13.43
917.726	21.63
918.157	8.43
918.587	27.33
919.018	21.93
919.449	20.13
919.88	29.33
920.311	30.93
920.741	50.03
921.172	163.13
921.603	153.43
922.033	71.53
922.464	43.73
922.895	22.63
923.325	20.03
923.756	12.93
924.186	15.03
924.617	28.43
925.047	36.93
925.478	50.33
925.908	41.33
926.338	30.33
926.769	20.23
927.199	18.03
927.629	13.33
928.06	15.23
928.49	18.93
928.92	15.83
929.35	18.63
929.78	14.63
930.21	7.33
930.641	9.93
931.071	13.03
931.501	5.73
931.931	9.73
932.361	11.23
932.791	6.23
933.221	8.23
933.651	7.43
934.08	18.33
934.51	32.53
934.94	13.03
935.37	16.53
935.8	9.93
936.229	11.23
936.659	14.63
937.089	7.73
937.519	17.53
937.948	28.03
938.378	16.63
938.807	7.43
939.237	3.43
939.666	4.83
940.096	-5.57
940.525	5.73
940.955	2.33
941.384	-0.37
941.814	-6.97
942.243	-2.97
942.672	4.63
943.102	1.43
943.531	0.43
943.96	1.83
944.39	-1.07
944.819	1.73
945.248	6.33
945.677	3.13
946.106	4.33
946.535	10.93
946.964	2.93
947.393	8.43
947.822	6.23
948.251	-9.37
948.68	4.53
949.109	6.53
949.538	9.63
949.967	2.03
950.396	1.73
950.825	1.93
951.254	3.23
951.682	-4.57
952.111	7.83
952.54	0.33
952.969	-1.97
953.397	-5.17
953.826	0.53
954.254	-2.77
954.683	4.73
955.112	1.03
955.54	3.63
955.969	4.33
956.397	-0.77
956.826	-0.97
957.254	6.73
957.682	-2.07
958.111	7.63
958.539	-1.47
958.967	1.33
959.396	1.23
959.824	1.03
960.252	-2.97
960.68	-6.27
961.109	-9.07
961.537	-4.07
961.965	-0.07
962.393	-1.37
962.821	-0.47
963.249	3.63
963.677	1.73
964.105	7.83
964.533	44.33
964.961	36.43
965.389	15.93
965.817	13.43
966.245	-0.47
966.672	2.83
967.1	-5.97
967.528	3.03
967.956	-3.17
968.383	0.53
968.811	1.43
969.239	-0.17
969.666	-1.47
970.094	8.73
970.522	5.23
970.949	0.63
971.377	-4.87
971.804	-1.47
972.232	0.13
972.659	-3.47
973.087	-0.97
973.514	-1.47
973.941	-4.87
974.369	7.93
974.796	1.93
975.223	-1.37
975.651	-0.47
976.078	-1.67
976.505	-3.47
976.932	1.13
977.359	8.93
977.786	13.53
978.214	2.13
978.641	-8.47
979.068	-7.07
979.495	0.83
979.922	2.43
980.349	-2.97
980.776	5.63
981.202	-0.17
981.629	5.93
982.056	7.43
982.483	-0.47
982.91	1.13
983.337	-4.27
983.763	2.43
984.19	-4.17
984.617	-2.27
985.043	-4.47
985.47	-1.67
985.897	-2.77
986.323	-8.37
986.75	1.13
987.176	6.93
987.603	-2.47
988.029	-2.47
988.456	-3.17
988.882	3.33
989.308	-3.47
989.735	-4.67
990.161	4.43
990.587	-2.57
991.014	4.43
991.44	5.83
991.866	-1.97
992.292	-6.37
992.719	2.03
993.145	4.33
993.571	-13.17
993.997	-6.27
994.423	-0.87
994.849	-3.17
995.275	2.03
995.701	2.73
996.127	1.03
996.553	6.73
996.979	-0.17
997.405	2.63
997.83	-5.37
998.256	-7.97
998.682	-3.87
999.108	-8.67
999.534	-2.97
999.959	-4.07
1000.385	-0.37
1000.811	0.03
1001.236	-6.37
1001.662	-9.67
1002.087	-6.27
1002.513	-4.07
1002.938	4.63
1003.364	-5.07
1003.789	-1.27
1004.215	1.93
1004.64	-0.87
1005.066	5.83
1005.491	2.63
1005.916	0.73
1006.342	1.53
1006.767	-8.97
1007.192	8.13
1007.617	-2.27
1008.042	-1.67
1008.468	-4.87
1008.893	-4.67
1009.318	-2.67
1009.743	-0.77
1010.168	4.43
1010.593	2.93
1011.018	-2.67
1011.443	1.93
1011.868	2.33
1012.293	-4.27
1012.718	-6.57
1013.143	0.43
1013.567	2.13
1013.992	-5.57
1014.417	-12.67
1014.842	2.83
1015.267	-6.87
1015.691	-1.57
1016.116	5.63
1016.541	-1.57
1016.965	10.03
1017.39	-3.57
1017.814	-2.87
1018.239	-5.67
1018.663	-7.67
1019.088	-3.37
1019.512	-3.67
1019.937	0.73
1020.361	1.43
1020.785	-8.47
1021.21	-5.57
1021.634	-2.67
1022.058	-0.77
1022.483	0.43
1022.907	-5.27
1023.331	-4.57
1023.755	-5.07
1024.179	-3.17
1024.604	-8.07
1025.028	-6.87
1025.452	-2.77
1025.876	2.93
1026.3	3.53
1026.724	-10.17
1027.148	-1.37
1027.572	-10.67
1027.996	-4.27
1028.42	-2.57
1028.843	-5.87
1029.267	-4.17
1029.691	-1.57
1030.115	-3.57
1030.539	-6.47
1030.962	-8.77
1031.386	-11.47
1031.81	-1.87
1032.233	-5.17
1032.657	1.33
1033.08	-1.37
1033.504	-4.27
1033.927	-3.27
1034.351	-1.97
1034.774	-2.87
1035.198	-2.97
1035.621	-2.87
1036.045	-4.47
1036.468	2.63
1036.891	-6.07
1037.315	-3.47
1037.738	-10.87
1038.161	0.73
1038.584	-4.27
1039.008	-11.67
1039.431	-2.37
1039.854	-4.67
1040.277	-4.47
1040.7	-6.17
1041.123	3.03
1041.546	-9.17
1041.969	-2.17
1042.392	-6.67
1042.815	-4.17
1043.238	-0.47
1043.661	4.03
1044.084	-2.37
1044.507	-2.87
1044.93	-11.97
1045.352	-2.77
1045.775	1.93
1046.198	-0.67
1046.621	-1.47
1047.043	-1.07
1047.466	2.53
1047.889	2.13
1048.311	-2.47
1048.734	0.13
1049.156	-4.97
1049.579	-3.97
1050.001	-1.17
1050.424	1.33
1050.846	-6.37
1051.269	-3.37
1051.691	-7.97
1052.113	-6.07
1052.536	-3.27
1052.958	3.33
1053.38	0.73
1053.802	-9.37
1054.225	4.53
1054.647	-8.57
1055.069	-7.07
1055.491	3.33
1055.913	-8.57
1056.335	-0.17
1056.757	1.93
1057.179	-5.47
1057.601	-7.77
1058.023	-5.07
1058.445	-1.97
1058.867	-1.57
1059.289	2.53
1059.711	-2.97
1060.133	1.83
1060.555	-6.27
1060.976	-6.97
1061.398	-5.57
1061.82	-5.97
1062.241	-13.27
1062.663	-5.47
1063.085	-2.07
1063.506	1.43
1063.928	-5.67
1064.35	-0.37
1064.771	-7.37
1065.193	-7.37
1065.614	-7.37
1066.035	1.43
1066.457	-0.77
1066.878	4.63
1067.3	-6.87
1067.721	-2.17
1068.142	-2.87
1068.564	-7.87
1068.985	0.93
1069.406	-12.07
1069.827	0.93
1070.248	-4.57
1070.67	-5.07
1071.091	-8.47
1071.512	-4.97
1071.933	-9.67
1072.354	-3.57
1072.775	-7.27
1073.196	-6.07
1073.617	-3.97
1074.038	-11.07
1074.459	-6.67
1074.88	-10.37
1075.3	4.23
1075.721	-1.47
1076.142	2.53
1076.563	5.63
1076.983	-13.57
1077.404	-11.27
1077.825	-8.47
1078.246	-2.37
1078.666	-10.27
1079.087	-5.77
1079.507	-3.77
1079.928	2.73
1080.348	2.73
1080.769	-1.77
1081.189	-0.67
1081.61	-3.47
1082.03	-3.27
1082.451	-11.87
1082.871	-1.87
1083.291	-7.37
1083.711	-6.57
1084.132	-3.87
1084.552	-8.37
1084.972	1.73
1085.392	-12.17
1085.813	-9.97
1086.233	-6.77
1086.653	-6.17
1087.073	0.23
1087.493	-5.07
1087.913	-10.47
1088.333	-6.37
1088.753	-6.67
1089.173	1.13
1089.593	0.33
1090.013	-0.47
1090.433	3.93
1090.852	-1.07
1091.272	-0.47
1091.692	2.23
1092.112	-3.67
1092.531	-7.67
1092.951	-9.57
1093.371	-3.47
1093.79	5.13
1094.21	-1.37
1094.63	-6.07
1095.049	-4.27
1095.469	-2.57
1095.888	-0.97
1096.308	-1.57
1096.727	6.43
1097.146	-7.67
1097.566	-1.27
1097.985	-4.57
1098.405	-1.87
1098.824	-3.27
1099.243	1.03
1099.662	-6.47
1100.082	0.53
1100.501	1.13
1100.92	-4.47
1101.339	-3.27
1101.758	-5.47
