Data from 20171114-ORNL-Ar_H_NY_Subt18_08-06-57-040.txt Node
Date: Tue Nov 14 08:06:57 EST 2017
User: Ender
Spectrometer: HR+D1039
Trigger mode: 0
Integration Time (sec): 2.730000E-2
Scans to average: 10
Electric dark correction enabled: true
Nonlinearity correction enabled: false
Boxcar width: 0
XAxis mode: Wavelengths
Number of Pixels in Spectrum: 2048
>>>>>Begin Spectral Data<<<<<
187.836	-7.04
188.309	-7.04
188.782	-7.04
189.255	4.06
189.728	-3.44
190.201	10.06
190.674	1.06
191.147	1.26
191.619	-3.04
192.092	4.26
192.565	7.26
193.038	-2.04
193.511	2.86
193.984	-5.04
194.456	-4.24
194.929	1.56
195.402	-1.44
195.874	-6.14
196.347	0.26
196.82	-8.04
197.292	8.76
197.765	0.56
198.237	-6.64
198.71	0.06
199.182	1.26
199.655	0.46
200.127	2.96
200.6	-2.34
201.072	-4.14
201.544	-3.44
202.017	-0.54
202.489	3.16
202.961	-3.34
203.433	-1.64
203.906	-0.74
204.378	-3.84
204.85	0.36
205.322	-10.54
205.794	1.56
206.266	-0.34
206.739	-7.84
207.211	0.66
207.683	-6.94
208.155	-6.14
208.627	-3.64
209.099	-3.14
209.57	-3.34
210.042	-3.54
210.514	3.56
210.986	0.26
211.458	-9.04
211.93	0.66
212.402	3.16
212.873	-5.34
213.345	-7.34
213.817	-2.94
214.288	-7.54
214.76	-5.24
215.232	-9.14
215.703	2.06
216.175	-1.84
216.646	-6.14
217.118	-10.64
217.589	-4.54
218.061	1.86
218.532	-0.14
219.004	2.26
219.475	-1.94
219.946	-5.44
220.418	-4.24
220.889	0.56
221.36	1.96
221.832	-1.94
222.303	-7.14
222.774	-0.34
223.245	-4.44
223.717	-4.64
224.188	-3.34
224.659	-9.94
225.13	-1.94
225.601	0.46
226.072	5.66
226.543	1.16
227.014	-1.74
227.485	-4.84
227.956	-3.64
228.427	-2.04
228.898	4.16
229.369	-1.44
229.839	-3.14
230.31	-9.64
230.781	4.66
231.252	-5.34
231.722	-6.54
232.193	-2.74
232.664	-0.04
233.135	-2.74
233.605	-2.64
234.076	-5.24
234.546	-3.74
235.017	7.16
235.487	5.26
235.958	0.96
236.428	-5.44
236.899	-2.54
237.369	1.36
237.84	-6.54
238.31	6.76
238.78	-2.74
239.251	-5.44
239.721	1.26
240.191	0.16
240.662	-0.44
241.132	-0.54
241.602	-5.54
242.072	3.56
242.542	10.76
243.013	-4.84
243.483	1.46
243.953	-1.04
244.423	3.76
244.893	-5.14
245.363	0.06
245.833	-2.34
246.303	-2.94
246.773	7.06
247.243	-1.14
247.712	4.06
248.182	4.96
248.652	4.96
249.122	-6.64
249.592	-0.94
250.061	3.16
250.531	8.26
251.001	4.36
251.471	8.66
251.94	8.56
252.41	-1.34
252.879	-2.94
253.349	4.06
253.818	4.36
254.288	1.46
254.757	4.06
255.227	-3.14
255.696	-0.64
256.166	3.36
256.635	1.56
257.105	3.76
257.574	0.56
258.043	1.46
258.513	3.06
258.982	1.16
259.451	-11.54
259.92	0.16
260.389	5.46
260.859	9.36
261.328	-2.74
261.797	10.26
262.266	-0.14
262.735	6.76
263.204	7.96
263.673	-2.34
264.142	8.36
264.611	-2.44
265.08	-0.04
265.549	-1.44
266.018	4.26
266.487	-2.34
266.955	-1.94
267.424	1.96
267.893	9.86
268.362	-3.44
268.83	3.66
269.299	7.66
269.768	-0.04
270.236	3.26
270.705	1.06
271.174	3.66
271.642	10.36
272.111	4.56
272.579	4.46
273.048	2.56
273.516	0.16
273.985	5.86
274.453	9.06
274.922	7.96
275.39	6.96
275.858	-1.94
276.327	-2.04
276.795	11.06
277.263	6.36
277.731	17.36
278.2	6.66
278.668	15.76
279.136	16.06
279.604	1.56
280.072	8.46
280.54	10.56
281.008	8.46
281.477	13.36
281.945	8.36
282.413	14.66
282.881	10.76
283.348	5.86
283.816	10.06
284.284	6.96
284.752	13.36
285.22	8.06
285.688	9.56
286.156	9.66
286.623	21.46
287.091	11.66
287.559	11.16
288.026	11.46
288.494	12.76
288.962	0.36
289.429	3.46
289.897	14.96
290.364	9.16
290.832	8.66
291.3	15.06
291.767	16.96
292.234	10.96
292.702	10.86
293.169	11.26
293.637	14.76
294.104	14.16
294.571	4.26
295.039	8.96
295.506	10.66
295.973	15.36
296.44	13.26
296.908	14.06
297.375	13.36
297.842	17.26
298.309	13.76
298.776	9.56
299.243	15.36
299.71	9.66
300.177	19.76
300.644	24.96
301.111	14.06
301.578	12.86
302.045	8.76
302.512	20.36
302.979	16.16
303.446	24.56
303.913	18.56
304.379	11.36
304.846	25.26
305.313	23.26
305.78	23.76
306.246	21.16
306.713	22.36
307.18	23.76
307.646	22.26
308.113	19.56
308.579	14.26
309.046	17.06
309.512	26.26
309.979	9.06
310.445	23.26
310.912	31.56
311.378	23.46
311.845	26.56
312.311	28.76
312.777	26.16
313.244	23.96
313.71	36.56
314.176	28.36
314.642	27.06
315.109	20.16
315.575	24.86
316.041	35.36
316.507	25.06
316.973	31.36
317.439	31.66
317.905	31.96
318.371	31.56
318.837	26.86
319.303	26.06
319.769	25.56
320.235	28.16
320.701	34.06
321.167	32.96
321.633	30.86
322.099	31.46
322.564	36.16
323.03	28.56
323.496	34.26
323.962	33.76
324.427	28.26
324.893	35.66
325.359	34.76
325.824	30.46
326.29	38.46
326.755	36.46
327.221	37.66
327.686	33.76
328.152	40.26
328.617	34.76
329.083	42.96
329.548	44.76
330.014	38.86
330.479	31.96
330.944	36.96
331.41	39.26
331.875	41.66
332.34	34.56
332.805	40.06
333.271	42.46
333.736	35.46
334.201	46.96
334.666	47.26
335.131	43.86
335.596	47.56
336.061	46.06
336.526	36.46
336.991	41.36
337.456	53.96
337.921	46.66
338.386	41.06
338.851	41.46
339.316	42.56
339.781	39.36
340.246	47.56
340.711	42.26
341.175	44.46
341.64	43.56
342.105	45.26
342.569	46.96
343.034	50.86
343.499	49.86
343.963	43.26
344.428	53.66
344.893	59.86
345.357	56.76
345.822	58.26
346.286	56.36
346.751	62.96
347.215	62.26
347.679	66.76
348.144	84.86
348.608	76.16
349.073	61.06
349.537	63.26
350.001	70.16
350.465	75.16
350.93	71.06
351.394	76.56
351.858	66.56
352.322	80.76
352.786	75.96
353.25	93.06
353.715	94.26
354.179	91.16
354.643	104.26
355.107	105.56
355.571	95.26
356.035	94.76
356.498	99.06
356.962	99.36
357.426	106.16
357.89	96.96
358.354	77.06
358.818	70.66
359.281	71.66
359.745	69.36
360.209	66.16
360.673	63.56
361.136	74.26
361.6	78.16
362.064	80.26
362.527	80.86
362.991	84.26
363.454	73.66
363.918	76.06
364.381	80.56
364.845	84.96
365.308	85.96
365.772	82.76
366.235	77.16
366.698	76.86
367.162	76.36
367.625	80.16
368.088	81.46
368.552	75.46
369.015	83.46
369.478	95.56
369.941	91.16
370.404	90.76
370.867	94.66
371.331	93.26
371.794	104.36
372.257	94.16
372.72	106.26
373.183	99.36
373.646	89.36
374.109	90.86
374.572	94.06
375.035	97.76
375.497	96.56
375.96	100.76
376.423	97.06
376.886	105.26
377.349	100.46
377.811	95.56
378.274	100.56
378.737	94.26
379.199	103.26
379.662	99.16
380.125	109.86
380.587	105.66
381.05	103.36
381.512	106.16
381.975	124.96
382.437	114.06
382.9	104.26
383.362	116.66
383.825	120.76
384.287	120.46
384.75	114.26
385.212	122.16
385.674	127.76
386.136	124.26
386.599	116.66
387.061	121.36
387.523	118.66
387.985	120.66
388.447	131.46
388.91	122.66
389.372	123.06
389.834	128.06
390.296	116.26
390.758	124.26
391.22	127.36
391.682	148.56
392.144	151.96
392.606	138.36
393.068	140.26
393.529	153.96
393.991	133.96
394.453	135.66
394.915	133.46
395.377	130.26
395.838	135.76
396.3	134.26
396.762	137.76
397.224	129.36
397.685	135.36
398.147	133.26
398.608	126.76
399.07	129.76
399.531	135.36
399.993	147.46
400.454	150.86
400.916	142.36
401.377	140.76
401.839	145.86
402.3	149.06
402.762	164.56
403.223	177.26
403.684	167.86
404.145	157.36
404.607	156.36
405.068	156.06
405.529	165.26
405.99	179.56
406.451	169.16
406.913	176.06
407.374	165.36
407.835	160.06
408.296	167.66
408.757	176.96
409.218	180.06
409.679	171.06
410.14	180.06
410.601	175.16
411.062	182.56
411.522	179.76
411.983	174.26
412.444	176.06
412.905	182.56
413.366	187.46
413.826	203.36
414.287	222.06
414.748	265.46
415.208	254.06
415.669	216.96
416.13	209.56
416.59	206.86
417.051	216.76
417.511	224.76
417.972	248.36
418.432	253.46
418.893	296.36
419.353	257.76
419.814	197.86
420.274	193.06
420.734	190.76
421.195	199.76
421.655	197.56
422.115	197.26
422.576	197.66
423.036	203.96
423.496	211.06
423.956	224.56
424.416	237.46
424.876	276.36
425.336	264.46
425.797	273.76
426.257	260.96
426.717	243.96
427.177	241.66
427.637	226.06
428.097	235.16
428.556	249.96
429.016	267.86
429.476	254.76
429.936	268.46
430.396	280.96
430.856	292.06
431.315	319.16
431.775	346.56
432.235	371.26
432.694	338.66
433.154	352.46
433.614	385.96
434.073	331.06
434.533	281.36
434.993	277.86
435.452	278.26
435.912	295.46
436.371	292.46
436.83	281.86
437.29	267.96
437.749	247.66
438.209	248.76
438.668	271.66
439.127	288.56
439.587	270.56
440.046	251.06
440.505	261.66
440.964	276.16
441.424	324.36
441.883	314.06
442.342	267.46
442.801	232.16
443.26	232.06
443.719	234.36
444.178	227.36
444.637	224.16
445.096	228.86
445.555	232.26
446.014	236.56
446.473	231.26
446.932	247.06
447.391	236.56
447.849	247.26
448.308	230.56
448.767	233.06
449.226	248.06
449.685	252.26
450.143	261.96
450.602	248.06
451.061	241.36
451.519	244.26
451.978	237.36
452.436	242.16
452.895	245.36
453.353	268.36
453.812	255.96
454.27	256.36
454.729	253.26
455.187	248.86
455.646	252.86
456.104	251.96
456.562	271.76
457.021	282.36
457.479	270.76
457.937	280.56
458.395	278.86
458.854	262.16
459.312	266.06
459.77	291.76
460.228	269.36
460.686	250.56
461.144	263.66
461.602	256.36
462.06	260.26
462.518	276.76
462.976	273.96
463.434	270.16
463.892	273.76
464.35	290.96
464.808	297.26
465.266	281.16
465.724	290.16
466.181	287.26
466.639	286.26
467.097	305.46
467.555	311.76
468.012	312.26
468.47	325.56
468.928	345.96
469.385	359.46
469.843	365.66
470.3	361.76
470.758	375.26
471.215	397.26
471.673	422.06
472.13	417.66
472.588	427.66
473.045	395.06
473.503	394.26
473.96	411.86
474.417	420.56
474.875	452.66
475.332	489.06
475.789	478.26
476.246	483.36
476.704	500.56
477.161	517.26
477.618	539.76
478.075	574.76
478.532	633.06
478.989	701.26
479.446	799.26
479.903	775.86
480.36	800.86
480.817	854.26
481.274	943.06
481.731	1033.26
482.188	1117.76
482.645	1223.36
483.102	1324.56
483.558	1442.26
484.015	1485.66
484.472	1466.66
484.929	1414.26
485.385	1381.46
485.842	1329.96
486.299	1291.76
486.755	1259.86
487.212	1070.56
487.668	918.76
488.125	850.46
488.582	777.66
489.038	756.76
489.494	722.16
489.951	708.66
490.407	684.86
490.864	671.86
491.32	669.86
491.776	656.96
492.233	666.56
492.689	639.86
493.145	629.16
493.602	628.46
494.058	639.96
494.514	642.16
494.97	665.96
495.426	670.26
495.882	645.26
496.338	639.26
496.794	641.76
497.251	636.26
497.707	652.86
498.163	657.06
498.618	665.36
499.074	666.16
499.53	693.96
499.986	699.16
500.442	673.06
500.898	641.36
501.354	643.96
501.809	645.46
502.265	651.76
502.721	654.06
503.177	662.56
503.632	670.06
504.088	669.16
504.543	700.46
504.999	714.86
505.455	682.86
505.91	656.26
506.366	673.06
506.821	658.36
507.277	652.46
507.732	663.36
508.187	664.36
508.643	666.26
509.098	662.06
509.553	691.56
510.009	705.46
510.464	712.96
510.919	723.26
511.375	727.26
511.83	738.26
512.285	751.96
512.74	794.36
513.195	813.26
513.65	805.26
514.105	797.96
514.56	810.26
515.015	824.06
515.47	832.16
515.925	819.56
516.38	817.76
516.835	818.86
517.29	816.96
517.745	810.66
518.2	806.96
518.655	786.66
519.109	771.96
519.564	771.76
520.019	762.06
520.474	755.06
520.928	759.66
521.383	751.06
521.838	746.26
522.292	747.96
522.747	744.06
523.201	739.86
523.656	731.26
524.11	723.56
524.565	724.46
525.019	718.86
525.474	732.46
525.928	721.36
526.382	721.86
526.837	733.16
527.291	735.26
527.745	732.56
528.2	732.76
528.654	719.26
529.108	726.96
529.562	724.26
530.016	720.96
530.47	720.76
530.925	715.86
531.379	715.96
531.833	733.16
532.287	736.56
532.741	737.96
533.195	735.86
533.649	743.96
534.103	754.96
534.556	742.76
535.01	736.16
535.464	742.06
535.918	740.66
536.372	753.66
536.826	747.06
537.279	742.66
537.733	743.36
538.187	748.96
538.64	738.06
539.094	752.46
539.548	764.16
540.001	756.36
540.455	769.06
540.908	768.96
541.362	770.96
541.815	782.16
542.269	804.06
542.722	803.46
543.175	819.86
543.629	806.76
544.082	819.86
544.536	834.96
544.989	820.46
545.442	830.86
545.895	833.46
546.349	836.46
546.802	835.46
547.255	831.16
547.708	845.56
548.161	855.86
548.614	865.36
549.067	864.56
549.52	859.26
549.973	856.06
550.426	843.36
550.879	831.06
551.332	845.26
551.785	846.86
552.238	835.06
552.691	856.66
553.144	868.26
553.596	896.66
554.049	901.46
554.502	943.06
554.955	944.36
555.407	949.36
555.86	938.46
556.313	930.96
556.765	925.76
557.218	921.76
557.67	918.56
558.123	918.26
558.576	915.76
559.028	917.76
559.48	932.76
559.933	915.16
560.385	872.26
560.838	857.86
561.29	824.56
561.742	827.76
562.195	803.46
562.647	806.66
563.099	806.76
563.551	812.66
564.004	815.46
564.456	805.56
564.908	795.06
565.36	777.16
565.812	759.86
566.264	753.56
566.716	754.86
567.168	744.26
567.62	738.26
568.072	733.76
568.524	721.96
568.976	722.16
569.428	698.26
569.88	708.26
570.332	715.86
570.784	715.46
571.235	716.26
571.687	732.16
572.139	739.76
572.59	747.66
573.042	748.56
573.494	738.16
573.945	733.06
574.397	723.86
574.849	727.96
575.3	723.46
575.752	718.86
576.203	716.96
576.655	713.26
577.106	705.56
577.557	699.76
578.009	703.36
578.46	693.36
578.912	691.46
579.363	696.56
579.814	696.76
580.265	697.96
580.717	698.66
581.168	698.26
581.619	718.36
582.07	721.16
582.521	713.46
582.972	701.66
583.423	701.46
583.875	701.36
584.326	708.76
584.777	721.66
585.227	748.76
585.678	764.06
586.129	780.76
586.58	823.26
587.031	821.36
587.482	860.96
587.933	900.96
588.384	868.86
588.834	828.46
589.285	801.96
589.736	803.16
590.186	791.86
590.637	799.86
591.088	773.36
591.538	768.06
591.989	762.76
592.439	758.46
592.89	751.46
593.34	734.26
593.791	735.96
594.241	722.96
594.692	730.26
595.142	721.76
595.593	724.06
596.043	725.36
596.493	738.96
596.943	727.16
597.394	746.56
597.844	733.86
598.294	767.86
598.744	784.96
599.195	827.56
599.645	855.86
600.095	899.46
600.545	956.46
600.995	1004.36
601.445	1056.26
601.895	1133.96
602.345	1181.26
602.795	1150.66
603.245	1126.26
603.695	1050.06
604.145	1009.86
604.594	953.46
605.044	896.06
605.494	832.36
605.944	785.86
606.393	772.26
606.843	755.26
607.293	761.06
607.743	749.06
608.192	771.76
608.642	776.56
609.091	789.86
609.541	793.36
609.99	783.16
610.44	782.56
610.889	743.56
611.339	722.66
611.788	699.56
612.238	713.96
612.687	730.16
613.136	714.66
613.586	727.26
614.035	721.16
614.484	737.16
614.933	735.56
615.383	738.16
615.832	733.86
616.281	720.36
616.73	692.26
617.179	676.06
617.628	666.26
618.077	651.56
618.526	653.26
618.975	639.26
619.424	635.16
619.873	638.26
620.322	632.56
620.771	635.66
621.22	621.86
621.669	618.76
622.118	605.06
622.567	607.46
623.015	595.86
623.464	593.86
623.913	574.36
624.361	572.26
624.81	573.66
625.259	578.06
625.707	572.86
626.156	583.86
626.604	587.66
627.053	576.66
627.501	575.16
627.95	597.16
628.398	606.06
628.847	590.06
629.295	594.16
629.744	601.26
630.192	587.76
630.64	582.66
631.089	573.16
631.537	563.96
631.985	560.56
632.433	555.96
632.881	549.06
633.33	553.46
633.778	541.06
634.226	543.16
634.674	555.76
635.122	553.26
635.57	566.26
636.018	592.16
636.466	575.46
636.914	578.16
637.362	590.46
637.81	596.26
638.258	600.56
638.705	597.46
639.153	637.26
639.601	636.86
640.049	661.26
640.497	707.76
640.944	719.86
641.392	668.56
641.84	636.36
642.287	596.66
642.735	585.46
643.182	590.96
643.63	578.66
644.078	578.86
644.525	584.06
644.973	588.06
645.42	614.96
645.867	634.46
646.315	647.76
646.762	664.26
647.21	699.86
647.657	717.26
648.104	750.16
648.551	773.56
648.999	840.06
649.446	904.56
649.893	990.06
650.34	1119.76
650.787	1336.16
651.234	1650.36
651.682	2121.06
652.129	2879.26
652.576	4069.16
653.023	5926.86
653.47	8053.96
653.917	10013.06
654.363	11500.26
654.81	12734.86
655.257	12066.16
655.704	7974.96
656.151	4824.36
656.598	3159.06
657.044	2284.26
657.491	1767.06
657.938	1438.86
658.385	1211.76
658.831	1046.96
659.278	950.26
659.724	846.06
660.171	777.46
660.618	726.86
661.064	702.56
661.511	679.96
661.957	659.26
662.404	658.86
662.85	662.26
663.296	634.36
663.743	571.46
664.189	550.16
664.635	546.56
665.082	543.96
665.528	547.56
665.974	529.26
666.42	526.16
666.867	518.16
667.313	496.36
667.759	477.46
668.205	464.56
668.651	468.26
669.097	463.66
669.543	461.06
669.989	454.96
670.435	462.26
670.881	458.86
671.327	473.16
671.773	489.06
672.219	511.56
672.665	558.66
673.11	614.06
673.556	652.46
674.002	688.36
674.448	693.76
674.893	572.56
675.339	491.56
675.785	457.86
676.23	440.66
676.676	417.76
677.122	396.26
677.567	385.96
678.013	376.26
678.458	367.06
678.904	373.36
679.349	364.86
679.794	375.16
680.24	364.96
680.685	366.66
681.131	355.76
681.576	366.06
682.021	375.06
682.466	368.26
682.912	357.66
683.357	362.96
683.802	391.06
684.247	431.06
684.692	469.46
685.137	517.56
685.583	557.76
686.028	582.66
686.473	533.96
686.918	470.06
687.363	442.86
687.807	404.76
688.252	380.66
688.697	368.96
689.142	351.46
689.587	344.46
690.032	335.46
690.477	348.66
690.921	364.76
691.366	396.56
691.811	424.06
692.255	446.06
692.7	478.96
693.145	519.96
693.589	734.36
694.034	1188.96
694.478	1613.26
694.923	1805.16
695.367	2353.96
695.812	1259.16
696.256	517.26
696.701	391.46
697.145	352.96
697.59	331.06
698.034	330.36
698.478	335.26
698.922	330.66
699.367	334.56
699.811	351.06
700.255	369.16
700.699	395.46
701.143	434.86
701.588	491.16
702.032	532.56
702.476	534.16
702.92	518.66
703.364	518.16
703.808	667.76
704.252	1083.76
704.696	1509.66
705.14	1742.46
705.584	2210.36
706.027	1112.86
706.471	540.36
706.915	418.56
707.359	369.66
707.803	338.36
708.246	318.96
708.69	325.26
709.134	323.76
709.577	322.06
710.021	329.76
710.465	320.16
710.908	312.56
711.352	310.86
711.795	323.36
712.239	363.16
712.682	393.26
713.126	426.26
713.569	468.16
714.012	370.86
714.456	318.46
714.899	293.96
715.342	285.16
715.786	270.76
716.229	266.56
716.672	266.86
717.115	259.06
717.558	260.86
718.002	264.86
718.445	271.26
718.888	291.86
719.331	302.16
719.774	316.46
720.217	311.56
720.66	296.06
721.103	279.76
721.546	269.66
721.989	256.86
722.432	239.96
722.874	249.56
723.317	239.76
723.76	235.56
724.203	266.46
724.645	325.16
725.088	463.76
725.531	594.66
725.974	680.66
726.416	571.06
726.859	313.96
727.301	257.06
727.744	242.26
728.187	247.46
728.629	249.76
729.071	248.06
729.514	261.46
729.956	280.76
730.399	290.36
730.841	296.36
731.283	288.46
731.726	276.76
732.168	279.96
732.61	278.26
733.053	298.36
733.495	328.36
733.937	368.26
734.379	420.56
734.821	461.46
735.263	572.16
735.705	870.76
736.148	1664.76
736.59	2709.36
737.032	3175.06
737.474	2594.86
737.916	852.86
738.357	449.36
738.799	347.16
739.241	308.86
739.683	288.26
740.125	304.16
740.567	311.36
741.008	336.06
741.45	323.46
741.892	337.76
742.334	360.36
742.775	380.26
743.217	355.56
743.658	285.16
744.1	266.66
744.542	277.16
744.983	333.76
745.425	365.06
745.866	353.46
746.307	286.36
746.749	295.36
747.19	332.76
747.632	473.96
748.073	923.96
748.514	1970.76
748.956	2989.26
749.397	3732.56
749.838	3093.16
750.279	3087.86
750.72	1580.36
751.162	581.16
751.603	341.36
752.044	269.56
752.485	229.96
752.926	222.86
753.367	213.96
753.808	211.46
754.249	202.36
754.69	197.46
755.131	185.26
755.572	193.96
756.013	194.26
756.453	193.46
756.894	199.76
757.335	199.06
757.776	198.16
758.216	204.56
758.657	203.16
759.098	216.76
759.538	241.96
759.979	277.36
760.42	391.76
760.86	746.76
761.301	1927.06
761.741	4650.66
762.182	6695.06
762.622	4723.66
763.063	1367.26
763.503	569.26
763.943	346.76
764.384	281.36
764.824	262.86
765.264	248.16
765.705	222.96
766.145	196.96
766.585	187.36
767.025	170.96
767.465	168.96
767.906	193.26
768.346	204.96
768.786	214.56
769.226	224.96
769.666	318.56
770.106	641.56
770.546	1627.66
770.986	2753.16
771.426	2463.96
771.866	822.76
772.306	344.46
772.745	211.96
773.185	183.36
773.625	170.26
774.065	154.66
774.505	169.76
774.944	214.76
775.384	380.46
775.824	621.86
776.263	606.16
776.703	291.56
777.142	163.26
777.582	146.46
778.021	125.86
778.461	129.56
778.9	132.86
779.34	127.56
779.779	125.26
780.219	113.06
780.658	110.46
781.097	111.96
781.537	113.26
781.976	114.36
782.415	105.66
782.855	107.26
783.294	106.26
783.733	110.96
784.172	114.76
784.611	96.06
785.05	110.56
785.489	114.16
785.928	123.76
786.367	121.26
786.806	119.16
787.245	136.06
787.684	140.06
788.123	156.66
788.562	142.06
789.001	127.46
789.44	123.36
789.879	120.26
790.317	123.86
790.756	134.96
791.195	133.56
791.634	155.46
792.072	210.56
792.511	385.46
792.95	1045.06
793.388	2207.96
793.827	1983.96
794.265	700.56
794.704	301.26
795.142	194.96
795.581	161.86
796.019	146.16
796.458	135.06
796.896	127.66
797.334	144.66
797.773	158.46
798.211	235.36
798.649	461.16
799.087	1064.06
799.526	1662.66
799.964	2099.26
800.402	2090.86
800.84	796.76
801.278	319.36
801.716	196.96
802.154	159.16
802.592	154.66
803.03	143.46
803.468	138.86
803.906	148.86
804.344	155.96
804.782	148.96
805.22	144.86
805.658	136.76
806.096	148.96
806.533	164.36
806.971	183.16
807.409	229.56
807.847	329.06
808.284	694.76
808.722	1954.06
809.16	3427.56
809.597	3304.66
810.035	5674.76
810.472	6035.26
810.91	2185.36
811.347	841.16
811.785	430.06
812.222	268.36
812.66	208.36
813.097	177.16
813.535	145.86
813.972	140.66
814.409	128.36
814.846	112.06
815.284	117.96
815.721	104.36
816.158	104.16
816.595	116.66
817.032	159.86
817.47	193.86
817.907	146.66
818.344	111.96
818.781	110.06
819.218	102.56
819.655	129.46
820.092	203.66
820.529	223.06
820.966	174.36
821.403	132.06
821.839	104.66
822.276	99.46
822.713	132.46
823.15	141.86
823.587	122.96
824.023	161.46
824.46	315.16
824.897	935.36
825.333	1427.36
825.77	605.26
826.206	240.26
826.643	143.26
827.08	105.26
827.516	91.26
827.953	84.06
828.389	89.56
828.825	74.66
829.262	71.96
829.698	63.16
830.135	68.46
830.571	64.16
831.007	63.96
831.443	62.06
831.88	63.16
832.316	62.96
832.752	71.26
833.188	69.36
833.624	70.96
834.06	71.26
834.497	69.66
834.933	76.66
835.369	77.56
835.805	75.66
836.241	80.16
836.677	87.36
837.112	95.66
837.548	110.16
837.984	139.06
838.42	210.96
838.856	522.66
839.292	1570.36
839.727	2395.66
840.163	1121.56
840.599	979.26
841.034	2134.26
841.47	2211.86
841.906	802.96
842.341	346.36
842.777	209.16
843.212	204.46
843.648	197.36
844.083	111.16
844.519	87.06
844.954	77.06
845.39	62.26
845.825	60.06
846.261	59.46
846.696	59.96
847.131	55.26
847.566	63.06
848.002	53.26
848.437	60.76
848.872	60.06
849.307	58.16
849.742	85.46
850.177	186.56
850.613	578.66
851.048	903.36
851.483	391.86
851.918	165.06
852.353	94.76
852.788	55.36
853.223	47.86
853.657	54.06
854.092	49.66
854.527	47.56
854.962	46.16
855.397	47.76
855.832	49.96
856.266	45.46
856.701	40.96
857.136	38.06
857.57	44.06
858.005	53.96
858.44	62.16
858.874	43.26
859.309	55.26
859.743	44.76
860.178	49.06
860.612	44.36
861.047	61.76
861.481	76.56
861.915	74.76
862.35	57.06
862.784	38.46
863.218	42.26
863.653	34.66
864.087	48.96
864.521	57.86
864.955	75.06
865.39	159.56
865.824	185.56
866.258	127.16
866.692	174.86
867.126	194.36
867.56	122.66
867.994	62.16
868.428	42.16
868.862	49.66
869.296	61.06
869.73	61.96
870.164	61.36
870.598	52.36
871.031	43.36
871.465	37.66
871.899	28.86
872.333	26.86
872.766	25.86
873.2	25.46
873.634	29.46
874.067	27.96
874.501	28.66
874.935	37.96
875.368	35.06
875.802	30.46
876.235	30.46
876.669	28.76
877.102	24.96
877.535	27.86
877.969	32.16
878.402	24.96
878.836	23.26
879.269	22.26
879.702	24.16
880.135	26.66
880.569	27.56
881.002	30.06
881.435	21.56
881.868	21.26
882.301	31.16
882.734	20.66
883.167	28.26
883.601	17.16
884.034	20.76
884.467	19.06
884.899	24.96
885.332	19.86
885.765	16.66
886.198	19.76
886.631	19.56
887.064	22.96
887.497	23.06
887.929	24.36
888.362	19.16
888.795	16.16
889.228	20.36
889.66	21.46
890.093	27.26
890.526	19.16
890.958	18.56
891.391	19.06
891.823	18.16
892.256	16.86
892.688	22.36
893.121	25.96
893.553	14.56
893.985	19.56
894.418	21.46
894.85	16.26
895.282	14.36
895.715	19.66
896.147	16.86
896.579	25.26
897.011	18.26
897.444	22.76
897.876	19.56
898.308	18.76
898.74	22.16
899.172	10.56
899.604	30.16
900.036	22.86
900.468	12.16
900.9	16.86
901.332	22.56
901.764	15.26
902.196	21.56
902.628	22.86
903.06	22.36
903.491	36.76
903.923	25.26
904.355	24.46
904.787	24.46
905.218	20.96
905.65	18.86
906.082	13.86
906.513	10.76
906.945	21.16
907.376	12.46
907.808	18.76
908.239	15.46
908.671	19.46
909.102	27.06
909.534	29.66
909.965	51.66
910.397	92.76
910.828	333.26
911.259	500.26
911.691	227.46
912.122	113.66
912.553	58.76
912.984	33.96
913.415	30.66
913.847	25.46
914.278	16.46
914.709	21.46
915.14	23.56
915.571	17.36
916.002	11.06
916.433	19.56
916.864	15.76
917.295	10.76
917.726	21.56
918.157	19.26
918.587	32.36
919.018	23.76
919.449	25.36
919.88	24.96
920.311	32.36
920.741	52.66
921.172	175.76
921.603	154.66
922.033	75.16
922.464	44.46
922.895	20.76
923.325	19.76
923.756	16.86
924.186	15.36
924.617	18.66
925.047	28.76
925.478	30.56
925.908	27.66
926.338	20.46
926.769	16.16
927.199	20.06
927.629	15.16
928.06	17.16
928.49	8.76
928.92	13.46
929.35	11.06
929.78	19.26
930.21	11.96
930.641	13.16
931.071	10.66
931.501	1.36
931.931	4.36
932.361	11.46
932.791	3.86
933.221	2.76
933.651	1.76
934.08	18.06
934.51	30.96
934.94	10.06
935.37	10.76
935.8	13.26
936.229	9.16
936.659	16.66
937.089	3.56
937.519	15.86
937.948	25.56
938.378	19.96
938.807	3.26
939.237	3.96
939.666	6.06
940.096	-8.84
940.525	4.36
940.955	-2.84
941.384	4.16
941.814	1.86
942.243	3.76
942.672	7.36
943.102	1.26
943.531	-0.24
943.96	6.36
944.39	1.06
944.819	8.16
945.248	7.56
945.677	5.26
946.106	0.66
946.535	5.76
946.964	7.96
947.393	4.26
947.822	4.76
948.251	-7.34
948.68	6.86
949.109	3.66
949.538	3.46
949.967	3.66
950.396	-0.54
950.825	1.26
951.254	-1.14
951.682	-3.84
952.111	3.86
952.54	12.16
952.969	3.16
953.397	-4.24
953.826	1.16
954.254	1.86
954.683	2.76
955.112	1.26
955.54	4.36
955.969	3.16
956.397	-2.44
956.826	-3.54
957.254	7.16
957.682	6.76
958.111	13.36
958.539	5.86
958.967	8.36
959.396	-0.24
959.824	8.66
960.252	-0.24
960.68	-6.14
961.109	-0.44
961.537	-4.94
961.965	4.46
962.393	1.66
962.821	1.26
963.249	5.36
963.677	7.36
964.105	8.76
964.533	47.46
964.961	43.86
965.389	20.96
965.817	14.76
966.245	3.26
966.672	0.06
967.1	-9.14
967.528	2.36
967.956	-0.14
968.383	1.16
968.811	-2.84
969.239	-6.64
969.666	-3.74
970.094	3.46
970.522	4.26
970.949	1.66
971.377	-0.24
971.804	3.56
972.232	0.56
972.659	0.46
973.087	-2.14
973.514	2.16
973.941	-2.94
974.369	4.56
974.796	1.86
975.223	2.76
975.651	0.06
976.078	2.56
976.505	2.16
976.932	6.76
977.359	17.06
977.786	20.36
978.214	2.76
978.641	-1.14
979.068	1.56
979.495	-1.64
979.922	-0.34
980.349	-1.44
980.776	4.26
981.202	1.26
981.629	3.36
982.056	6.86
982.483	1.16
982.91	9.26
983.337	-2.24
983.763	5.56
984.19	-1.94
984.617	-3.64
985.043	-3.24
985.47	0.26
985.897	0.26
986.323	-2.94
986.75	2.86
987.176	-0.54
987.603	1.06
988.029	-0.34
988.456	-0.44
988.882	5.66
989.308	-6.84
989.735	-4.04
990.161	8.26
990.587	-3.74
991.014	-0.44
991.44	5.96
991.866	-0.74
992.292	-3.14
992.719	-3.84
993.145	11.06
993.571	-0.64
993.997	-0.84
994.423	-4.14
994.849	-6.14
995.275	0.26
995.701	4.46
996.127	0.26
996.553	3.66
996.979	-5.34
997.405	0.26
997.83	-5.14
998.256	-5.64
998.682	-1.64
999.108	-5.84
999.534	6.06
999.959	-0.84
1000.385	-3.14
1000.811	5.56
1001.236	-3.04
1001.662	-9.54
1002.087	-2.34
1002.513	1.96
1002.938	0.36
1003.364	-0.64
1003.789	-1.64
1004.215	2.76
1004.64	2.26
1005.066	5.86
1005.491	-4.54
1005.916	-5.04
1006.342	-4.34
1006.767	-3.54
1007.192	4.06
1007.617	-3.34
1008.042	-2.04
1008.468	-0.94
1008.893	-1.74
1009.318	2.16
1009.743	1.36
1010.168	4.96
1010.593	4.76
1011.018	-9.74
1011.443	-2.54
1011.868	5.66
1012.293	-0.54
1012.718	0.36
1013.143	3.36
1013.567	6.16
1013.992	3.66
1014.417	-9.94
1014.842	-3.14
1015.267	0.96
1015.691	-3.34
1016.116	6.26
1016.541	1.66
1016.965	9.46
1017.39	-0.34
1017.814	0.66
1018.239	-1.04
1018.663	-8.64
1019.088	-9.14
1019.512	2.36
1019.937	-2.14
1020.361	2.56
1020.785	-2.84
1021.21	-1.04
1021.634	1.26
1022.058	1.16
1022.483	3.06
1022.907	-1.84
1023.331	-3.84
1023.755	-1.44
1024.179	-2.14
1024.604	-3.74
1025.028	-2.14
1025.452	-1.44
1025.876	0.16
1026.3	4.06
1026.724	-5.24
1027.148	-0.34
1027.572	-4.84
1027.996	-4.64
1028.42	-5.04
1028.843	-3.34
1029.267	-2.94
1029.691	-3.64
1030.115	-8.04
1030.539	-0.84
1030.962	-4.94
1031.386	-5.14
1031.81	-0.74
1032.233	0.66
1032.657	-2.54
1033.08	-3.44
1033.504	-1.34
1033.927	-5.04
1034.351	-2.14
1034.774	3.06
1035.198	-2.04
1035.621	-8.64
1036.045	-6.44
1036.468	3.66
1036.891	-6.84
1037.315	-1.74
1037.738	-10.34
1038.161	0.36
1038.584	-7.34
1039.008	-4.74
1039.431	-3.34
1039.854	-6.34
1040.277	-3.64
1040.7	-8.04
1041.123	-0.64
1041.546	-1.94
1041.969	0.06
1042.392	-9.94
1042.815	-4.64
1043.238	-2.14
1043.661	3.36
1044.084	-6.24
1044.507	-1.84
1044.93	-2.54
1045.352	-3.14
1045.775	-1.84
1046.198	-3.24
1046.621	0.66
1047.043	3.16
1047.466	8.66
1047.889	-1.44
1048.311	-5.54
1048.734	-2.34
1049.156	3.96
1049.579	0.86
1050.001	1.76
1050.424	3.66
1050.846	0.76
1051.269	-0.44
1051.691	-3.44
1052.113	-0.14
1052.536	1.96
1052.958	1.66
1053.38	-2.34
1053.802	-4.44
1054.225	5.86
1054.647	-7.24
1055.069	-1.94
1055.491	3.96
1055.913	-3.14
1056.335	-3.44
1056.757	-0.64
1057.179	-8.14
1057.601	-0.84
1058.023	1.66
1058.445	-4.14
1058.867	-6.84
1059.289	-3.04
1059.711	-9.04
1060.133	-0.24
1060.555	-4.14
1060.976	-4.04
1061.398	-9.04
1061.82	1.96
1062.241	-5.14
1062.663	-8.54
1063.085	-8.44
1063.506	-3.84
1063.928	-3.74
1064.35	3.76
1064.771	-10.74
1065.193	-3.94
1065.614	-5.44
1066.035	0.16
1066.457	-1.04
1066.878	0.06
1067.3	-5.34
1067.721	-2.44
1068.142	-7.04
1068.564	2.16
1068.985	0.46
1069.406	-1.14
1069.827	-0.84
1070.248	-3.64
1070.67	-6.64
1071.091	-0.64
1071.512	0.36
1071.933	-4.34
1072.354	-7.14
1072.775	-7.24
1073.196	-8.44
1073.617	-3.14
1074.038	-6.54
1074.459	-7.14
1074.88	-5.24
1075.3	1.06
1075.721	1.06
1076.142	0.46
1076.563	-1.84
1076.983	-2.84
1077.404	-12.34
1077.825	-7.24
1078.246	-1.24
1078.666	-2.24
1079.087	-1.54
1079.507	-2.44
1079.928	-5.24
1080.348	-0.04
1080.769	-5.14
1081.189	-2.14
1081.61	-4.94
1082.03	-6.04
1082.451	-8.04
1082.871	0.26
1083.291	-3.74
1083.711	-11.64
1084.132	-3.34
1084.552	-4.14
1084.972	0.36
1085.392	-7.34
1085.813	-8.74
1086.233	-2.64
1086.653	-4.04
1087.073	0.86
1087.493	-3.14
1087.913	-9.64
1088.333	-2.44
1088.753	3.46
1089.173	1.36
1089.593	1.56
1090.013	2.96
1090.433	2.56
1090.852	-5.44
1091.272	-2.44
1091.692	-3.04
1092.112	0.56
1092.531	-2.84
1092.951	-7.64
1093.371	-2.84
1093.79	-3.54
1094.21	-5.24
1094.63	-7.04
1095.049	-2.74
1095.469	0.86
1095.888	-4.24
1096.308	0.96
1096.727	2.16
1097.146	-4.44
1097.566	3.66
1097.985	-3.04
1098.405	0.76
1098.824	-4.04
1099.243	-3.34
1099.662	-6.54
1100.082	-5.54
1100.501	-2.64
1100.92	-2.14
1101.339	-1.34
1101.758	-9.64
