Data from 20171114-ORNL-Ar_H_NY_Subt18_08-08-21-662.txt Node
Date: Tue Nov 14 08:08:21 EST 2017
User: Ender
Spectrometer: HR+D1039
Trigger mode: 0
Integration Time (sec): 2.730000E-2
Scans to average: 10
Electric dark correction enabled: true
Nonlinearity correction enabled: false
Boxcar width: 0
XAxis mode: Wavelengths
Number of Pixels in Spectrum: 2048
>>>>>Begin Spectral Data<<<<<
187.836	-7.01
188.309	-7.01
188.782	-7.01
189.255	0.39
189.728	-4.41
190.201	6.79
190.674	2.39
191.147	4.39
191.619	-8.81
192.092	3.09
192.565	1.19
193.038	-3.11
193.511	5.69
193.984	2.59
194.456	3.19
194.929	-2.41
195.402	-3.91
195.874	-0.01
196.347	-2.11
196.82	-6.41
197.292	14.19
197.765	1.29
198.237	-7.31
198.71	2.49
199.182	-12.51
199.655	2.29
200.127	3.49
200.6	1.69
201.072	3.59
201.544	-4.71
202.017	-1.91
202.489	5.09
202.961	-3.41
203.433	-3.81
203.906	-8.11
204.378	-10.41
204.85	-4.11
205.322	-10.91
205.794	-12.21
206.266	-9.71
206.739	-7.41
207.211	9.29
207.683	-10.81
208.155	-5.81
208.627	-8.01
209.099	3.09
209.57	-6.11
210.042	-0.61
210.514	-6.51
210.986	-4.11
211.458	-10.21
211.93	-4.71
212.402	2.79
212.873	-8.81
213.345	-3.91
213.817	-9.61
214.288	0.89
214.76	-9.41
215.232	-2.01
215.703	-0.51
216.175	-1.01
216.646	-2.11
217.118	-8.11
217.589	-4.21
218.061	-3.41
218.532	0.19
219.004	-3.91
219.475	-5.71
219.946	0.19
220.418	-8.11
220.889	2.89
221.36	0.79
221.832	-3.21
222.303	-9.41
222.774	1.89
223.245	-10.91
223.717	-9.81
224.188	-0.41
224.659	-10.41
225.13	-9.41
225.601	-1.01
226.072	0.09
226.543	-3.31
227.014	-0.61
227.485	-13.51
227.956	-7.91
228.427	-1.41
228.898	-1.71
229.369	8.49
229.839	-3.21
230.31	-9.61
230.781	-2.41
231.252	-0.41
231.722	-2.41
232.193	-3.81
232.664	2.59
233.135	-2.71
233.605	1.39
234.076	-7.71
234.546	1.29
235.017	4.49
235.487	-0.51
235.958	-0.01
236.428	-3.41
236.899	4.39
237.369	6.29
237.84	-5.91
238.31	-1.21
238.78	-0.51
239.251	-2.01
239.721	7.29
240.191	5.49
240.662	2.09
241.132	0.09
241.602	0.49
242.072	-0.51
242.542	7.09
243.013	5.29
243.483	0.09
243.953	-1.51
244.423	2.79
244.893	-4.31
245.363	8.59
245.833	-1.11
246.303	1.79
246.773	10.39
247.243	6.69
247.712	2.69
248.182	2.59
248.652	6.19
249.122	0.09
249.592	13.99
250.061	19.49
250.531	29.99
251.001	13.89
251.471	16.59
251.94	15.29
252.41	7.79
252.879	-3.61
253.349	8.69
253.818	10.69
254.288	1.79
254.757	3.19
255.227	-0.11
255.696	6.19
256.166	6.19
256.635	10.39
257.105	7.69
257.574	6.99
258.043	9.29
258.513	14.69
258.982	14.49
259.451	12.29
259.92	14.09
260.389	9.49
260.859	9.09
261.328	10.19
261.797	11.09
262.266	11.49
262.735	10.59
263.204	6.19
263.673	-1.41
264.142	2.89
264.611	-0.51
265.08	3.09
265.549	-1.41
266.018	0.29
266.487	0.49
266.955	-1.71
267.424	2.19
267.893	8.09
268.362	2.99
268.83	5.49
269.299	14.09
269.768	3.59
270.236	2.49
270.705	1.09
271.174	5.89
271.642	8.19
272.111	7.19
272.579	17.19
273.048	21.19
273.516	26.09
273.985	20.79
274.453	21.39
274.922	13.49
275.39	7.19
275.858	1.39
276.327	11.99
276.795	16.09
277.263	8.09
277.731	33.49
278.2	52.09
278.668	49.19
279.136	48.29
279.604	20.49
280.072	17.59
280.54	18.89
281.008	9.19
281.477	13.09
281.945	10.59
282.413	10.69
282.881	18.99
283.348	8.39
283.816	16.39
284.284	14.69
284.752	22.69
285.22	16.59
285.688	11.79
286.156	23.19
286.623	46.09
287.091	46.99
287.559	28.59
288.026	22.99
288.494	16.89
288.962	6.39
289.429	5.99
289.897	17.79
290.364	14.79
290.832	14.89
291.3	15.39
291.767	17.19
292.234	22.29
292.702	16.09
293.169	21.59
293.637	23.89
294.104	19.59
294.571	7.49
295.039	12.69
295.506	17.29
295.973	20.69
296.44	15.79
296.908	20.19
297.375	15.39
297.842	13.59
298.309	15.49
298.776	14.49
299.243	23.79
299.71	16.79
300.177	17.29
300.644	19.09
301.111	24.29
301.578	22.49
302.045	16.49
302.512	22.29
302.979	23.69
303.446	24.49
303.913	15.39
304.379	24.19
304.846	24.49
305.313	24.59
305.78	22.19
306.246	23.99
306.713	26.79
307.18	24.19
307.646	22.19
308.113	23.89
308.579	24.99
309.046	26.69
309.512	23.39
309.979	17.89
310.445	32.29
310.912	27.49
311.378	31.29
311.845	28.89
312.311	34.79
312.777	30.79
313.244	29.39
313.71	38.69
314.176	30.79
314.642	26.59
315.109	25.89
315.575	28.89
316.041	36.59
316.507	37.69
316.973	38.09
317.439	32.29
317.905	35.69
318.371	35.49
318.837	35.19
319.303	35.89
319.769	34.89
320.235	29.39
320.701	36.69
321.167	30.69
321.633	32.39
322.099	41.29
322.564	43.29
323.03	41.29
323.496	34.29
323.962	42.69
324.427	33.29
324.893	43.59
325.359	42.19
325.824	38.69
326.29	33.49
326.755	41.39
327.221	42.99
327.686	38.09
328.152	48.09
328.617	38.49
329.083	48.09
329.548	51.59
330.014	49.79
330.479	37.29
330.944	42.99
331.41	44.79
331.875	47.79
332.34	50.49
332.805	42.29
333.271	45.89
333.736	43.09
334.201	46.19
334.666	55.29
335.131	52.99
335.596	55.09
336.061	53.89
336.526	47.19
336.991	49.69
337.456	54.29
337.921	50.39
338.386	39.79
338.851	46.39
339.316	43.49
339.781	48.29
340.246	48.49
340.711	44.39
341.175	49.89
341.64	48.39
342.105	48.19
342.569	59.39
343.034	55.69
343.499	56.59
343.963	57.59
344.428	61.89
344.893	64.49
345.357	60.09
345.822	67.49
346.286	63.99
346.751	73.39
347.215	70.49
347.679	72.49
348.144	103.39
348.608	80.69
349.073	65.99
349.537	74.29
350.001	80.29
350.465	90.79
350.93	81.59
351.394	82.49
351.858	71.89
352.322	91.79
352.786	80.09
353.25	102.39
353.715	116.89
354.179	104.59
354.643	121.99
355.107	133.79
355.571	112.39
356.035	102.39
356.498	117.59
356.962	129.49
357.426	136.49
357.89	122.09
358.354	93.99
358.818	85.79
359.281	77.39
359.745	71.99
360.209	77.59
360.673	79.09
361.136	84.69
361.6	87.39
362.064	86.19
362.527	87.59
362.991	89.99
363.454	87.09
363.918	78.99
364.381	84.79
364.845	81.39
365.308	87.89
365.772	90.69
366.235	81.59
366.698	86.29
367.162	84.39
367.625	85.29
368.088	90.39
368.552	93.09
369.015	85.69
369.478	97.19
369.941	105.19
370.404	100.09
370.867	110.49
371.331	108.49
371.794	118.49
372.257	114.49
372.72	118.39
373.183	112.49
373.646	106.99
374.109	96.39
374.572	106.19
375.035	107.29
375.497	118.99
375.96	107.89
376.423	103.09
376.886	114.39
377.349	103.99
377.811	100.99
378.274	100.59
378.737	107.49
379.199	110.19
379.662	112.19
380.125	113.89
380.587	120.39
381.05	130.49
381.512	133.49
381.975	139.19
382.437	136.29
382.9	128.69
383.362	137.29
383.825	147.99
384.287	158.79
384.75	147.69
385.212	153.69
385.674	149.29
386.136	138.19
386.599	126.89
387.061	128.79
387.523	138.59
387.985	136.79
388.447	155.89
388.91	147.79
389.372	162.89
389.834	157.19
390.296	149.79
390.758	169.29
391.22	178.39
391.682	218.69
392.144	304.59
392.606	239.49
393.068	174.49
393.529	177.89
393.991	166.79
394.453	151.39
394.915	168.19
395.377	201.29
395.838	217.89
396.3	161.69
396.762	154.09
397.224	136.99
397.685	134.19
398.147	134.79
398.608	134.59
399.07	136.49
399.531	153.29
399.993	148.89
400.454	154.39
400.916	151.99
401.377	150.49
401.839	153.59
402.3	152.49
402.762	172.59
403.223	185.29
403.684	180.29
404.145	168.09
404.607	167.89
405.068	171.49
405.529	183.59
405.99	194.39
406.451	190.59
406.913	183.79
407.374	171.69
407.835	168.99
408.296	172.39
408.757	179.69
409.218	198.89
409.679	185.89
410.14	184.19
410.601	177.19
411.062	191.59
411.522	193.79
411.983	205.39
412.444	184.99
412.905	184.79
413.366	185.29
413.826	198.79
414.287	220.29
414.748	270.09
415.208	251.89
415.669	226.39
416.13	208.49
416.59	208.89
417.051	217.09
417.511	226.69
417.972	245.19
418.432	250.29
418.893	297.49
419.353	253.89
419.814	203.49
420.274	190.99
420.734	192.59
421.195	204.99
421.655	207.09
422.115	201.29
422.576	199.39
423.036	211.79
423.496	217.39
423.956	225.49
424.416	234.49
424.876	275.29
425.336	271.09
425.797	271.69
426.257	268.39
426.717	253.79
427.177	239.19
427.637	228.79
428.097	247.99
428.556	257.39
429.016	280.09
429.476	271.89
429.936	288.29
430.396	284.39
430.856	303.59
431.315	321.99
431.775	374.89
432.235	403.29
432.694	364.49
433.154	375.79
433.614	416.99
434.073	357.09
434.533	301.69
434.993	281.79
435.452	289.19
435.912	301.99
436.371	300.29
436.83	297.29
437.29	291.09
437.749	256.99
438.209	252.69
438.668	282.79
439.127	308.79
439.587	270.79
440.046	256.29
440.505	273.79
440.964	285.79
441.424	340.49
441.883	327.89
442.342	272.19
442.801	234.79
443.26	236.19
443.719	232.09
444.178	224.29
444.637	221.29
445.096	235.59
445.555	232.49
446.014	233.99
446.473	238.29
446.932	243.59
447.391	232.09
447.849	238.99
448.308	223.09
448.767	231.59
449.226	245.59
449.685	241.69
450.143	254.09
450.602	237.19
451.061	228.59
451.519	243.29
451.978	229.29
452.436	246.09
452.895	250.19
453.353	254.49
453.812	249.59
454.27	249.09
454.729	250.79
455.187	241.69
455.646	251.89
456.104	259.89
456.562	275.19
457.021	281.79
457.479	273.99
457.937	281.99
458.395	276.99
458.854	257.39
459.312	260.09
459.77	289.89
460.228	267.19
460.686	251.19
461.144	256.79
461.602	254.89
462.06	255.39
462.518	262.29
462.976	258.19
463.434	271.79
463.892	271.99
464.35	285.99
464.808	295.19
465.266	275.19
465.724	275.49
466.181	275.19
466.639	280.19
467.097	296.39
467.555	307.39
468.012	307.39
468.47	309.19
468.928	328.39
469.385	345.89
469.843	361.49
470.3	358.29
470.758	370.79
471.215	392.89
471.673	425.29
472.13	424.29
472.588	435.39
473.045	387.49
473.503	386.09
473.96	399.09
474.417	418.69
474.875	444.59
475.332	475.39
475.789	469.09
476.246	480.99
476.704	503.59
477.161	526.09
477.618	545.69
478.075	581.99
478.532	634.19
478.989	721.99
479.446	830.59
479.903	799.59
480.36	823.09
480.817	880.89
481.274	993.59
481.731	1084.49
482.188	1190.29
482.645	1314.09
483.102	1431.49
483.558	1562.79
484.015	1609.59
484.472	1594.69
484.929	1537.09
485.385	1485.49
485.842	1452.79
486.299	1395.79
486.755	1318.09
487.212	1118.99
487.668	943.19
488.125	875.79
488.582	790.49
489.038	761.19
489.494	736.49
489.951	697.89
490.407	679.49
490.864	663.19
491.32	660.59
491.776	658.69
492.233	664.79
492.689	629.59
493.145	619.19
493.602	605.59
494.058	619.19
494.514	622.89
494.97	652.59
495.426	665.19
495.882	634.69
496.338	626.49
496.794	641.69
497.251	627.89
497.707	647.19
498.163	651.79
498.618	655.89
499.074	652.59
499.53	686.39
499.986	689.99
500.442	665.19
500.898	649.09
501.354	640.59
501.809	650.69
502.265	659.79
502.721	670.69
503.177	686.89
503.632	675.69
504.088	698.29
504.543	730.69
504.999	725.99
505.455	666.39
505.91	645.89
506.366	644.19
506.821	637.19
507.277	633.19
507.732	636.89
508.187	636.89
508.643	647.49
509.098	643.19
509.553	665.29
510.009	679.19
510.464	692.79
510.919	692.19
511.375	710.09
511.83	714.39
512.285	730.39
512.74	775.29
513.195	789.79
513.65	778.99
514.105	779.29
514.56	786.49
515.015	795.99
515.47	802.79
515.925	795.89
516.38	805.39
516.835	803.79
517.29	798.49
517.745	792.99
518.2	776.79
518.655	753.39
519.109	747.79
519.564	750.39
520.019	736.29
520.474	741.39
520.928	734.99
521.383	739.69
521.838	723.19
522.292	718.89
522.747	712.59
523.201	726.49
523.656	708.29
524.11	698.79
524.565	708.99
525.019	705.69
525.474	704.59
525.928	719.99
526.382	705.39
526.837	703.29
527.291	707.39
527.745	702.49
528.2	701.49
528.654	692.19
529.108	694.99
529.562	706.39
530.016	699.79
530.47	702.29
530.925	698.09
531.379	712.09
531.833	712.59
532.287	715.89
532.741	718.99
533.195	714.99
533.649	715.59
534.103	725.49
534.556	710.39
535.01	717.79
535.464	717.39
535.918	723.69
536.372	718.89
536.826	731.39
537.279	712.09
537.733	730.09
538.187	729.99
538.64	715.49
539.094	732.59
539.548	745.49
540.001	735.59
540.455	747.19
540.908	737.79
541.362	743.99
541.815	769.89
542.269	768.49
542.722	775.19
543.175	781.89
543.629	795.49
544.082	792.69
544.536	801.79
544.989	791.59
545.442	796.79
545.895	811.59
546.349	802.89
546.802	806.09
547.255	814.19
547.708	816.49
548.161	821.79
548.614	830.29
549.067	841.89
549.52	830.39
549.973	829.29
550.426	820.49
550.879	819.49
551.332	814.79
551.785	823.49
552.238	815.39
552.691	825.39
553.144	838.49
553.596	853.39
554.049	870.29
554.502	898.89
554.955	924.29
555.407	921.79
555.86	919.19
556.313	897.49
556.765	889.09
557.218	898.49
557.67	880.39
558.123	887.69
558.576	893.89
559.028	883.59
559.48	889.89
559.933	879.89
560.385	853.69
560.838	820.69
561.29	787.29
561.742	805.39
562.195	785.09
562.647	773.49
563.099	790.79
563.551	788.29
564.004	797.49
564.456	786.69
564.908	773.79
565.36	756.29
565.812	752.49
566.264	741.29
566.716	729.89
567.168	735.29
567.62	732.09
568.072	718.09
568.524	704.09
568.976	703.49
569.428	687.49
569.88	691.19
570.332	699.19
570.784	699.09
571.235	698.99
571.687	708.09
572.139	713.99
572.59	718.79
573.042	726.29
573.494	714.29
573.945	706.59
574.397	694.49
574.849	697.19
575.3	708.29
575.752	700.19
576.203	683.69
576.655	694.29
577.106	667.59
577.557	673.29
578.009	675.79
578.46	673.49
578.912	683.39
579.363	680.39
579.814	676.19
580.265	680.59
580.717	678.29
581.168	674.49
581.619	683.69
582.07	692.39
582.521	692.59
582.972	684.69
583.423	694.49
583.875	691.89
584.326	713.09
584.777	775.09
585.227	847.49
585.678	938.49
586.129	1033.59
586.58	1106.59
587.031	1180.49
587.482	1331.69
587.933	1515.09
588.384	1321.39
588.834	998.59
589.285	828.19
589.736	792.79
590.186	797.89
590.637	786.99
591.088	765.39
591.538	751.49
591.989	743.69
592.439	742.79
592.89	735.49
593.34	722.79
593.791	722.59
594.241	725.49
594.692	729.49
595.142	715.99
595.593	722.69
596.043	722.99
596.493	736.89
596.943	728.79
597.394	739.39
597.844	735.59
598.294	753.49
598.744	765.59
599.195	783.89
599.645	841.59
600.095	874.99
600.545	935.59
600.995	976.49
601.445	1042.79
601.895	1097.69
602.345	1155.89
602.795	1132.89
603.245	1080.79
603.695	1020.39
604.145	962.89
604.594	929.59
605.044	872.69
605.494	813.69
605.944	763.09
606.393	754.39
606.843	734.39
607.293	741.59
607.743	754.59
608.192	759.99
608.642	780.89
609.091	782.79
609.541	784.59
609.99	788.99
610.44	789.69
610.889	743.19
611.339	715.89
611.788	707.49
612.238	724.59
612.687	721.09
613.136	743.39
613.586	754.29
614.035	757.59
614.484	782.29
614.933	775.59
615.383	769.79
615.832	750.79
616.281	738.49
616.73	706.09
617.179	678.29
617.628	665.09
618.077	641.49
618.526	637.29
618.975	637.29
619.424	627.99
619.873	635.09
620.322	634.99
620.771	630.99
621.22	613.39
621.669	611.59
622.118	600.09
622.567	597.99
623.015	583.39
623.464	585.59
623.913	573.49
624.361	569.79
624.81	566.49
625.259	567.99
625.707	567.49
626.156	566.59
626.604	583.29
627.053	574.89
627.501	574.09
627.95	580.79
628.398	591.99
628.847	581.99
629.295	580.69
629.744	594.99
630.192	578.69
630.64	581.79
631.089	585.49
631.537	601.89
631.985	607.79
632.433	613.99
632.881	628.59
633.33	687.99
633.778	672.29
634.226	580.99
634.674	581.69
635.122	604.49
635.57	612.49
636.018	641.19
636.466	596.69
636.914	571.39
637.362	581.39
637.81	591.19
638.258	588.29
638.705	598.29
639.153	619.09
639.601	627.49
640.049	651.39
640.497	686.19
640.944	701.59
641.392	662.49
641.84	622.89
642.287	590.89
642.735	585.69
643.182	584.79
643.63	587.29
644.078	590.09
644.525	603.79
644.973	609.59
645.42	620.09
645.867	631.49
646.315	663.19
646.762	685.99
647.21	707.19
647.657	732.79
648.104	761.79
648.551	797.49
648.999	868.09
649.446	941.39
649.893	1035.89
650.34	1205.79
650.787	1440.99
651.234	1779.89
651.682	2335.19
652.129	3216.69
652.576	4645.79
653.023	6843.69
653.47	9319.99
653.917	11566.99
654.363	13201.59
654.81	14518.09
655.257	13811.99
655.704	9078.39
656.151	5371.89
656.598	3476.39
657.044	2467.59
657.491	1902.49
657.938	1513.69
658.385	1254.99
658.831	1098.29
659.278	974.29
659.724	869.79
660.171	802.69
660.618	738.59
661.064	714.69
661.511	686.19
661.957	663.69
662.404	668.69
662.85	671.59
663.296	639.39
663.743	573.49
664.189	548.79
664.635	548.79
665.082	540.19
665.528	535.99
665.974	532.29
666.42	529.59
666.867	518.39
667.313	502.19
667.759	490.39
668.205	487.19
668.651	497.89
669.097	494.39
669.543	522.49
669.989	476.99
670.435	458.79
670.881	457.69
671.327	465.89
671.773	484.99
672.219	508.49
672.665	563.99
673.11	602.59
673.556	653.19
674.002	685.59
674.448	662.49
674.893	555.09
675.339	491.99
675.785	447.19
676.23	427.89
676.676	398.99
677.122	386.59
677.567	374.19
678.013	374.79
678.458	371.99
678.904	371.29
679.349	356.79
679.794	369.49
680.24	370.69
680.685	357.89
681.131	361.89
681.576	353.49
682.021	367.29
682.466	360.99
682.912	351.49
683.357	368.39
683.802	390.59
684.247	425.19
684.692	461.09
685.137	508.09
685.583	556.29
686.028	571.19
686.473	531.49
686.918	450.69
687.363	426.19
687.807	408.19
688.252	374.19
688.697	360.49
689.142	342.59
689.587	336.69
690.032	328.79
690.477	348.79
690.921	362.19
691.366	386.59
691.811	407.59
692.255	434.49
692.7	472.79
693.145	529.09
693.589	737.99
694.034	1183.29
694.478	1594.99
694.923	1768.39
695.367	2286.19
695.812	1209.29
696.256	497.39
696.701	384.69
697.145	353.89
697.59	342.79
698.034	325.59
698.478	337.49
698.922	331.99
699.367	330.39
699.811	349.49
700.255	361.29
700.699	397.79
701.143	438.09
701.588	488.19
702.032	529.19
702.476	526.29
702.92	502.99
703.364	506.69
703.808	661.09
704.252	1087.59
704.696	1507.89
705.14	1691.79
705.584	2149.89
706.027	1089.49
706.471	534.29
706.915	402.89
707.359	356.09
707.803	330.89
708.246	322.29
708.69	320.59
709.134	321.49
709.577	318.59
710.021	324.09
710.465	327.49
710.908	312.09
711.352	299.89
711.795	318.89
712.239	363.69
712.682	398.59
713.126	427.09
713.569	478.09
714.012	379.19
714.456	334.49
714.899	303.39
715.342	290.89
715.786	268.89
716.229	266.29
716.672	266.69
717.115	250.29
717.558	254.19
718.002	255.99
718.445	270.29
718.888	293.39
719.331	301.29
719.774	316.29
720.217	307.09
720.66	295.69
721.103	278.09
721.546	262.19
721.989	254.49
722.432	240.59
722.874	243.09
723.317	234.19
723.76	248.39
724.203	261.09
724.645	332.09
725.088	462.49
725.531	583.99
725.974	660.59
726.416	557.89
726.859	320.09
727.301	253.79
727.744	241.29
728.187	244.59
728.629	240.79
729.071	252.09
729.514	268.19
729.956	282.59
730.399	291.99
730.841	294.89
731.283	281.39
731.726	278.29
732.168	265.19
732.61	271.09
733.053	293.59
733.495	321.29
733.937	361.89
734.379	407.59
734.821	453.19
735.263	563.49
735.705	882.29
736.148	1670.49
736.59	2652.19
737.032	3073.49
737.474	2504.39
737.916	834.19
738.357	438.49
738.799	336.09
739.241	315.59
739.683	293.49
740.125	298.79
740.567	307.79
741.008	321.19
741.45	320.49
741.892	322.79
742.334	358.59
742.775	371.69
743.217	344.59
743.658	275.39
744.1	257.59
744.542	274.99
744.983	321.69
745.425	353.09
745.866	349.49
746.307	288.29
746.749	291.39
747.19	336.69
747.632	485.79
748.073	933.89
748.514	1968.29
748.956	2920.99
749.397	3674.69
749.838	3035.49
750.279	2979.79
750.72	1514.39
751.162	555.39
751.603	334.69
752.044	260.99
752.485	226.09
752.926	213.99
753.367	211.69
753.808	200.99
754.249	194.99
754.69	186.89
755.131	187.19
755.572	185.89
756.013	182.79
756.453	189.59
756.894	190.09
757.335	196.39
757.776	199.89
758.216	195.19
758.657	196.99
759.098	212.29
759.538	228.39
759.979	278.19
760.42	397.89
760.86	750.39
761.301	1939.49
761.741	4594.29
762.182	6432.89
762.622	4521.29
763.063	1332.79
763.503	551.39
763.943	351.79
764.384	346.99
764.824	417.89
765.264	444.89
765.705	316.19
766.145	212.99
766.585	194.49
767.025	178.89
767.465	190.79
767.906	262.89
768.346	341.79
768.786	345.39
769.226	278.69
769.666	333.39
770.106	654.29
770.546	1644.59
770.986	2692.39
771.426	2386.19
771.866	811.49
772.306	330.99
772.745	211.49
773.185	176.79
773.625	162.89
774.065	170.69
774.505	212.39
774.944	320.09
775.384	713.29
775.824	1227.19
776.263	1177.29
776.703	511.09
777.142	228.39
777.582	166.09
778.021	139.79
778.461	141.09
778.9	142.79
779.34	135.79
779.779	117.89
780.219	112.79
780.658	114.79
781.097	121.09
781.537	125.29
781.976	112.39
782.415	110.59
782.855	108.69
783.294	110.59
783.733	107.79
784.172	113.89
784.611	107.29
785.05	113.09
785.489	122.79
785.928	122.39
786.367	124.49
786.806	119.49
787.245	124.09
787.684	141.59
788.123	149.09
788.562	138.09
789.001	138.39
789.44	124.09
789.879	125.39
790.317	130.79
790.756	127.69
791.195	128.69
791.634	155.19
792.072	214.09
792.511	389.79
792.95	1072.59
793.388	2177.99
793.827	1941.69
794.265	687.69
794.704	283.29
795.142	196.79
795.581	150.49
796.019	137.89
796.458	127.59
796.896	127.89
797.334	135.79
797.773	158.09
798.211	230.19
798.649	472.19
799.087	1064.59
799.526	1640.79
799.964	2063.39
800.402	2014.09
800.84	765.59
801.278	310.79
801.716	194.49
802.154	154.89
802.592	149.99
803.03	139.59
803.468	131.99
803.906	150.09
804.344	152.99
804.782	151.09
805.22	138.69
805.658	132.99
806.096	148.69
806.533	158.39
806.971	182.29
807.409	226.19
807.847	335.99
808.284	701.49
808.722	1958.59
809.16	3330.69
809.597	3246.39
810.035	5536.79
810.472	5716.39
810.91	2104.59
811.347	813.19
811.785	416.79
812.222	264.49
812.66	198.89
813.097	161.59
813.535	141.29
813.972	135.39
814.409	117.49
814.846	114.39
815.284	116.79
815.721	103.99
816.158	112.79
816.595	123.59
817.032	176.39
817.47	205.89
817.907	163.99
818.344	165.49
818.781	120.39
819.218	105.19
819.655	130.09
820.092	192.59
820.529	209.99
820.966	177.49
821.403	131.69
821.839	109.79
822.276	100.49
822.713	132.79
823.15	132.29
823.587	116.29
824.023	160.29
824.46	322.69
824.897	941.49
825.333	1350.09
825.77	582.89
826.206	234.69
826.643	140.39
827.08	105.29
827.516	89.69
827.953	78.09
828.389	80.49
828.825	73.19
829.262	71.59
829.698	65.69
830.135	62.59
830.571	69.39
831.007	62.89
831.443	62.79
831.88	62.79
832.316	63.59
832.752	71.19
833.188	65.29
833.624	64.59
834.06	72.79
834.497	75.09
834.933	64.99
835.369	78.89
835.805	75.19
836.241	77.39
836.677	77.29
837.112	92.49
837.548	106.09
837.984	136.29
838.42	206.99
838.856	529.29
839.292	1568.19
839.727	2315.19
840.163	1079.89
840.599	976.89
841.034	2079.09
841.47	2108.29
841.906	790.99
842.341	346.69
842.777	243.79
843.212	330.29
843.648	301.59
844.083	152.49
844.519	101.09
844.954	81.29
845.39	63.39
845.825	57.79
846.261	56.49
846.696	56.19
847.131	55.59
847.566	56.39
848.002	55.79
848.437	53.79
848.872	58.79
849.307	64.59
849.742	92.39
850.177	191.69
850.613	575.59
851.048	882.99
851.483	374.79
851.918	155.89
852.353	88.69
852.788	65.79
853.223	56.09
853.657	59.39
854.092	46.59
854.527	41.39
854.962	41.59
855.397	42.89
855.832	46.49
856.266	42.59
856.701	44.49
857.136	37.19
857.57	45.79
858.005	44.29
858.44	62.09
858.874	48.59
859.309	54.79
859.743	40.09
860.178	42.59
860.612	38.99
861.047	51.49
861.481	61.19
861.915	67.19
862.35	54.09
862.784	34.79
863.218	40.79
863.653	36.89
864.087	44.29
864.521	60.29
864.955	74.59
865.39	167.79
865.824	178.69
866.258	121.29
866.692	168.09
867.126	176.09
867.56	103.79
867.994	56.89
868.428	37.49
868.862	45.39
869.296	50.19
869.73	56.39
870.164	53.39
870.598	45.59
871.031	37.79
871.465	35.69
871.899	32.39
872.333	29.79
872.766	20.89
873.2	26.89
873.634	31.69
874.067	27.39
874.501	30.79
874.935	35.49
875.368	29.69
875.802	27.09
876.235	28.59
876.669	21.79
877.102	25.89
877.535	28.59
877.969	27.49
878.402	25.79
878.836	17.39
879.269	24.29
879.702	24.39
880.135	19.29
880.569	18.69
881.002	27.49
881.435	22.99
881.868	18.99
882.301	23.29
882.734	12.99
883.167	26.29
883.601	15.39
884.034	21.49
884.467	19.39
884.899	19.49
885.332	18.49
885.765	13.79
886.198	18.19
886.631	17.49
887.064	18.29
887.497	20.29
887.929	24.39
888.362	15.69
888.795	15.09
889.228	17.69
889.66	22.69
890.093	17.09
890.526	17.09
890.958	20.69
891.391	21.59
891.823	20.79
892.256	15.69
892.688	10.89
893.121	14.59
893.553	17.99
893.985	21.49
894.418	18.89
894.85	6.69
895.282	15.79
895.715	13.69
896.147	21.59
896.579	17.09
897.011	14.19
897.444	14.89
897.876	10.09
898.308	13.39
898.74	14.39
899.172	11.79
899.604	20.29
900.036	18.59
900.468	14.49
900.9	10.69
901.332	20.09
901.764	15.99
902.196	19.59
902.628	22.09
903.06	11.49
903.491	24.59
903.923	21.59
904.355	23.19
904.787	20.29
905.218	23.09
905.65	19.39
906.082	15.49
906.513	12.69
906.945	15.69
907.376	14.99
907.808	19.89
908.239	23.19
908.671	16.49
909.102	24.99
909.534	26.89
909.965	50.29
910.397	97.39
910.828	327.99
911.259	471.89
911.691	219.19
912.122	109.29
912.553	53.29
912.984	38.89
913.415	29.69
913.847	26.49
914.278	21.79
914.709	14.49
915.14	17.59
915.571	18.89
916.002	15.99
916.433	18.39
916.864	19.09
917.295	10.19
917.726	23.49
918.157	22.99
918.587	32.69
919.018	20.79
919.449	19.99
919.88	23.29
920.311	32.89
920.741	51.29
921.172	174.89
921.603	151.29
922.033	66.89
922.464	44.59
922.895	27.29
923.325	22.49
923.756	20.09
924.186	11.89
924.617	26.09
925.047	38.79
925.478	52.29
925.908	41.79
926.338	27.79
926.769	18.79
927.199	22.89
927.629	9.89
928.06	18.69
928.49	17.09
928.92	15.79
929.35	11.79
929.78	7.39
930.21	5.09
930.641	4.49
931.071	8.59
931.501	2.89
931.931	8.49
932.361	9.69
932.791	3.39
933.221	0.59
933.651	1.99
934.08	14.89
934.51	27.49
934.94	7.69
935.37	9.19
935.8	6.79
936.229	12.79
936.659	3.79
937.089	0.59
937.519	7.59
937.948	22.49
938.378	13.19
938.807	1.79
939.237	4.09
939.666	4.59
940.096	-4.91
940.525	1.19
940.955	-1.41
941.384	3.09
941.814	-4.81
942.243	-5.71
942.672	8.59
943.102	-3.11
943.531	-1.01
943.96	0.19
944.39	0.69
944.819	3.79
945.248	3.59
945.677	4.59
946.106	6.09
946.535	3.89
946.964	4.29
947.393	0.19
947.822	5.79
948.251	-2.91
948.68	4.19
949.109	7.99
949.538	6.59
949.967	2.09
950.396	3.39
950.825	6.79
951.254	0.89
951.682	-1.31
952.111	-0.11
952.54	7.29
952.969	-5.31
953.397	-7.51
953.826	0.09
954.254	-6.51
954.683	-0.51
955.112	-10.61
955.54	-0.11
955.969	-2.01
956.397	2.99
956.826	-6.01
957.254	8.59
957.682	0.09
958.111	5.19
958.539	-0.11
958.967	1.69
959.396	-7.61
959.824	1.89
960.252	0.99
960.68	-12.31
961.109	-1.51
961.537	-1.31
961.965	1.19
962.393	1.39
962.821	-3.31
963.249	2.89
963.677	6.69
964.105	3.29
964.533	43.99
964.961	43.29
965.389	23.59
965.817	11.79
966.245	3.09
966.672	0.89
967.1	-7.11
967.528	-1.41
967.956	-2.31
968.383	-1.01
968.811	2.09
969.239	-3.41
969.666	-5.01
970.094	4.99
970.522	3.49
970.949	-3.01
971.377	-4.81
971.804	-2.71
972.232	-3.51
972.659	0.39
973.087	-2.01
973.514	-5.41
973.941	-6.61
974.369	4.49
974.796	3.39
975.223	-2.01
975.651	1.69
976.078	-0.71
976.505	-0.91
976.932	-0.41
977.359	16.59
977.786	12.99
978.214	3.89
978.641	-0.91
979.068	0.19
979.495	-3.31
979.922	-2.01
980.349	-1.41
980.776	3.59
981.202	-1.01
981.629	-0.51
982.056	0.19
982.483	-2.61
982.91	7.19
983.337	-6.91
983.763	-1.01
984.19	-7.61
984.617	-5.41
985.043	-3.81
985.47	1.69
985.897	-1.41
986.323	-7.41
986.75	1.69
987.176	-0.61
987.603	0.59
988.029	-4.31
988.456	-3.81
988.882	-2.51
989.308	-13.31
989.735	-1.91
990.161	-1.41
990.587	-8.81
991.014	-2.51
991.44	3.99
991.866	0.89
992.292	-5.31
992.719	-0.41
993.145	4.99
993.571	-9.01
993.997	-1.11
994.423	-3.51
994.849	-0.41
995.275	-9.01
995.701	2.69
996.127	-4.21
996.553	1.69
996.979	0.29
997.405	0.19
997.83	-0.91
998.256	-2.61
998.682	-8.11
999.108	-7.61
999.534	-3.51
999.959	-7.51
1000.385	-0.71
1000.811	1.29
1001.236	-6.01
1001.662	-7.21
1002.087	-11.31
1002.513	1.69
1002.938	3.69
1003.364	-2.91
1003.789	-1.51
1004.215	0.79
1004.64	-1.81
1005.066	6.29
1005.491	0.19
1005.916	-2.51
1006.342	-3.31
1006.767	-11.81
1007.192	7.09
1007.617	-1.51
1008.042	-5.51
1008.468	-8.71
1008.893	-5.31
1009.318	-4.61
1009.743	-3.11
1010.168	4.79
1010.593	-3.81
1011.018	-12.61
1011.443	-5.51
1011.868	1.19
1012.293	3.79
1012.718	-6.41
1013.143	-1.31
1013.567	-0.81
1013.992	-4.81
1014.417	-7.01
1014.842	5.09
1015.267	-3.11
1015.691	-3.31
1016.116	6.89
1016.541	-3.31
1016.965	1.79
1017.39	2.29
1017.814	0.69
1018.239	-1.01
1018.663	-5.41
1019.088	-10.61
1019.512	-4.71
1019.937	3.09
1020.361	-9.21
1020.785	-7.41
1021.21	-1.61
1021.634	-3.31
1022.058	-2.91
1022.483	5.09
1022.907	0.39
1023.331	-0.71
1023.755	-8.21
1024.179	-7.21
1024.604	-6.81
1025.028	-3.91
1025.452	-2.21
1025.876	-4.01
1026.3	-0.01
1026.724	-16.81
1027.148	-4.01
1027.572	-7.81
1027.996	-9.31
1028.42	-5.21
1028.843	-8.41
1029.267	-0.21
1029.691	0.09
1030.115	-5.51
1030.539	-6.11
1030.962	-5.81
1031.386	-16.11
1031.81	-2.41
1032.233	4.59
1032.657	-5.91
1033.08	1.89
1033.504	-5.01
1033.927	-2.21
1034.351	-2.51
1034.774	-7.81
1035.198	-1.81
1035.621	-6.31
1036.045	-8.21
1036.468	-5.81
1036.891	-9.61
1037.315	-9.41
1037.738	-4.51
1038.161	-5.41
1038.584	-4.91
1039.008	-5.21
1039.431	-5.11
1039.854	-2.41
1040.277	-11.31
1040.7	-15.01
1041.123	-6.71
1041.546	-12.61
1041.969	-7.01
1042.392	0.09
1042.815	0.99
1043.238	-0.51
1043.661	2.29
1044.084	-2.21
1044.507	-3.61
1044.93	-7.81
1045.352	-2.21
1045.775	-0.31
1046.198	1.19
1046.621	-10.01
1047.043	0.99
1047.466	8.59
1047.889	-3.01
1048.311	-5.91
1048.734	-1.41
1049.156	0.39
1049.579	-0.91
1050.001	-9.01
1050.424	3.99
1050.846	-6.21
1051.269	-2.41
1051.691	-6.11
1052.113	-9.11
1052.536	-6.31
1052.958	-1.11
1053.38	-8.31
1053.802	-10.81
1054.225	2.39
1054.647	-8.91
1055.069	-7.01
1055.491	1.59
1055.913	-5.11
1056.335	-7.01
1056.757	-2.61
1057.179	-7.61
1057.601	-3.81
1058.023	-9.21
1058.445	-1.71
1058.867	-2.21
1059.289	-3.41
1059.711	-9.61
1060.133	0.39
1060.555	-5.01
1060.976	-11.51
1061.398	-6.01
1061.82	-2.91
1062.241	-9.31
1062.663	-10.71
1063.085	-2.61
1063.506	-1.21
1063.928	1.19
1064.35	0.09
1064.771	-7.41
1065.193	-0.01
1065.614	-8.11
1066.035	-6.21
1066.457	-4.51
1066.878	-2.81
1067.3	-6.01
1067.721	-1.81
1068.142	-1.81
1068.564	-5.41
1068.985	-5.21
1069.406	-7.81
1069.827	-1.71
1070.248	0.29
1070.67	-7.11
1071.091	-0.31
1071.512	-4.51
1071.933	-7.91
1072.354	-11.81
1072.775	-7.31
1073.196	-10.71
1073.617	-3.91
1074.038	-10.41
1074.459	-0.01
1074.88	-10.51
1075.3	-2.41
1075.721	-7.41
1076.142	-1.01
1076.563	-5.01
1076.983	-12.21
1077.404	-6.31
1077.825	-9.61
1078.246	-2.41
1078.666	-8.61
1079.087	-4.81
1079.507	-14.91
1079.928	1.19
1080.348	0.89
1080.769	-7.31
1081.189	0.99
1081.61	1.19
1082.03	-0.11
1082.451	-2.21
1082.871	-2.91
1083.291	-2.81
1083.711	-5.31
1084.132	-6.11
1084.552	-5.51
1084.972	-1.11
1085.392	-7.91
1085.813	-6.31
1086.233	-8.21
1086.653	-2.81
1087.073	-5.91
1087.493	-9.01
1087.913	-5.71
1088.333	-10.81
1088.753	-2.91
1089.173	-2.11
1089.593	0.89
1090.013	0.09
1090.433	1.69
1090.852	-5.11
1091.272	-0.91
1091.692	-4.41
1092.112	-3.31
1092.531	-10.11
1092.951	-9.21
1093.371	-4.81
1093.79	1.89
1094.21	-1.41
1094.63	-9.91
1095.049	-9.61
1095.469	-4.11
1095.888	-3.81
1096.308	3.59
1096.727	-2.01
1097.146	-6.51
1097.566	-1.11
1097.985	-7.81
1098.405	0.89
1098.824	-4.61
1099.243	-7.91
1099.662	-9.71
1100.082	0.19
1100.501	0.09
1100.92	-2.51
1101.339	-9.01
1101.758	-5.61
