Data from 20171114-ORNL-Ar_H_NY_Subt18_08-06-02-991.txt Node
Date: Tue Nov 14 08:06:02 EST 2017
User: Ender
Spectrometer: HR+D1039
Trigger mode: 0
Integration Time (sec): 2.730000E-2
Scans to average: 10
Electric dark correction enabled: true
Nonlinearity correction enabled: false
Boxcar width: 0
XAxis mode: Wavelengths
Number of Pixels in Spectrum: 2048
>>>>>Begin Spectral Data<<<<<
187.836	-2.67
188.309	-2.67
188.782	-2.67
189.255	-3.27
189.728	-2.97
190.201	8.53
190.674	-0.17
191.147	1.33
191.619	-8.87
192.092	3.13
192.565	7.43
193.038	1.23
193.511	3.23
193.984	0.23
194.456	-0.97
194.929	-1.77
195.402	-5.07
195.874	0.63
196.347	-0.57
196.82	-6.47
197.292	3.23
197.765	-3.97
198.237	-6.17
198.71	2.73
199.182	-0.77
199.655	4.93
200.127	2.13
200.6	-3.17
201.072	-1.67
201.544	-0.87
202.017	3.63
202.489	1.53
202.961	3.63
203.433	1.53
203.906	-4.17
204.378	-5.97
204.85	-2.17
205.322	-8.37
205.794	-2.17
206.266	-2.47
206.739	-5.67
207.211	2.43
207.683	-7.37
208.155	-7.07
208.627	-8.17
209.099	-5.17
209.57	-8.87
210.042	-2.27
210.514	-2.87
210.986	-1.47
211.458	-9.57
211.93	3.93
212.402	8.73
212.873	-3.07
213.345	-16.87
213.817	-10.37
214.288	-5.87
214.76	-13.57
215.232	-2.87
215.703	-6.97
216.175	-3.47
216.646	-0.87
217.118	-6.27
217.589	-4.37
218.061	-2.27
218.532	-7.57
219.004	-1.87
219.475	-7.77
219.946	-1.07
220.418	-5.17
220.889	0.33
221.36	-3.07
221.832	-4.67
222.303	-10.47
222.774	1.53
223.245	-13.87
223.717	-6.07
224.188	-9.27
224.659	-4.47
225.13	-6.87
225.601	-4.27
226.072	1.83
226.543	-2.77
227.014	-5.87
227.485	-2.27
227.956	-2.67
228.427	-4.57
228.898	4.03
229.369	8.23
229.839	-3.17
230.31	-5.67
230.781	3.43
231.252	-5.97
231.722	-1.47
232.193	-0.37
232.664	-0.47
233.135	-2.67
233.605	-4.47
234.076	-11.87
234.546	2.53
235.017	0.83
235.487	2.93
235.958	4.23
236.428	-4.67
236.899	4.33
237.369	9.03
237.84	-0.37
238.31	-0.77
238.78	2.53
239.251	-0.47
239.721	-0.17
240.191	3.03
240.662	1.33
241.132	1.53
241.602	-4.37
242.072	2.13
242.542	5.73
243.013	2.23
243.483	1.63
243.953	3.33
244.423	0.33
244.893	0.03
245.363	6.73
245.833	7.13
246.303	1.93
246.773	12.33
247.243	-0.37
247.712	-7.67
248.182	7.93
248.652	10.13
249.122	3.53
249.592	8.03
250.061	20.03
250.531	30.93
251.001	16.03
251.471	19.93
251.94	18.03
252.41	3.33
252.879	-5.27
253.349	10.63
253.818	8.73
254.288	2.33
254.757	7.03
255.227	-3.07
255.696	3.63
256.166	5.43
256.635	3.03
257.105	14.53
257.574	3.43
258.043	8.53
258.513	15.23
258.982	19.63
259.451	5.73
259.92	10.53
260.389	6.13
260.859	15.53
261.328	12.23
261.797	20.03
262.266	8.33
262.735	13.63
263.204	6.93
263.673	-3.87
264.142	5.73
264.611	3.43
265.08	2.53
265.549	1.23
266.018	9.13
266.487	-0.17
266.955	-4.97
267.424	-4.47
267.893	6.23
268.362	1.23
268.83	8.13
269.299	16.83
269.768	5.13
270.236	5.53
270.705	5.63
271.174	6.23
271.642	4.73
272.111	11.53
272.579	18.23
273.048	27.33
273.516	26.03
273.985	27.83
274.453	20.43
274.922	20.73
275.39	11.83
275.858	1.03
276.327	11.53
276.795	17.53
277.263	9.03
277.731	32.23
278.2	49.73
278.668	59.93
279.136	53.03
279.604	23.93
280.072	16.03
280.54	11.33
281.008	13.53
281.477	14.43
281.945	15.83
282.413	19.13
282.881	19.63
283.348	6.43
283.816	14.23
284.284	19.33
284.752	21.23
285.22	13.83
285.688	16.83
286.156	24.33
286.623	44.43
287.091	55.03
287.559	32.03
288.026	15.33
288.494	14.73
288.962	2.03
289.429	12.53
289.897	16.23
290.364	19.43
290.832	17.33
291.3	16.43
291.767	20.13
292.234	15.23
292.702	16.83
293.169	13.43
293.637	24.23
294.104	27.73
294.571	14.83
295.039	13.73
295.506	12.63
295.973	19.33
296.44	15.03
296.908	16.83
297.375	18.73
297.842	23.73
298.309	15.63
298.776	10.23
299.243	24.43
299.71	13.73
300.177	22.13
300.644	14.63
301.111	22.43
301.578	24.03
302.045	17.13
302.512	23.73
302.979	22.03
303.446	21.43
303.913	19.93
304.379	17.73
304.846	33.13
305.313	27.93
305.78	16.63
306.246	20.93
306.713	25.73
307.18	32.03
307.646	30.03
308.113	30.63
308.579	26.23
309.046	29.03
309.512	26.53
309.979	19.83
310.445	29.03
310.912	30.83
311.378	25.83
311.845	33.53
312.311	32.13
312.777	30.93
313.244	29.93
313.71	33.03
314.176	30.13
314.642	35.83
315.109	35.03
315.575	33.23
316.041	34.93
316.507	33.43
316.973	34.43
317.439	35.93
317.905	34.23
318.371	35.23
318.837	34.23
319.303	33.93
319.769	31.73
320.235	37.23
320.701	38.33
321.167	32.53
321.633	33.13
322.099	34.13
322.564	42.43
323.03	41.23
323.496	40.13
323.962	44.23
324.427	40.53
324.893	42.23
325.359	36.23
325.824	39.53
326.29	34.93
326.755	36.23
327.221	39.73
327.686	37.13
328.152	47.23
328.617	40.53
329.083	47.03
329.548	50.53
330.014	52.53
330.479	46.33
330.944	44.73
331.41	40.93
331.875	43.33
332.34	42.63
332.805	45.83
333.271	49.43
333.736	46.63
334.201	48.63
334.666	53.83
335.131	52.23
335.596	49.33
336.061	47.43
336.526	43.73
336.991	47.03
337.456	57.53
337.921	51.73
338.386	42.73
338.851	44.63
339.316	48.13
339.781	47.23
340.246	51.83
340.711	51.53
341.175	57.43
341.64	44.23
342.105	60.23
342.569	56.63
343.034	59.93
343.499	53.63
343.963	49.43
344.428	66.23
344.893	63.13
345.357	67.93
345.822	66.53
346.286	63.83
346.751	77.73
347.215	72.03
347.679	82.03
348.144	104.53
348.608	87.23
349.073	74.43
349.537	79.63
350.001	79.73
350.465	94.43
350.93	89.93
351.394	84.63
351.858	71.13
352.322	83.93
352.786	83.53
353.25	104.43
353.715	111.13
354.179	104.13
354.643	116.03
355.107	130.03
355.571	109.43
356.035	103.93
356.498	120.03
356.962	124.93
357.426	134.73
357.89	115.83
358.354	93.33
358.818	86.33
359.281	79.03
359.745	76.33
360.209	76.63
360.673	79.43
361.136	86.03
361.6	85.63
362.064	86.53
362.527	88.43
362.991	94.43
363.454	78.63
363.918	77.53
364.381	80.23
364.845	84.33
365.308	90.93
365.772	84.33
366.235	80.93
366.698	86.73
367.162	86.33
367.625	88.23
368.088	91.73
368.552	89.63
369.015	88.33
369.478	100.63
369.941	98.93
370.404	98.83
370.867	103.13
371.331	109.13
371.794	116.63
372.257	116.83
372.72	121.93
373.183	114.23
373.646	106.43
374.109	103.73
374.572	106.73
375.035	109.03
375.497	115.23
375.96	110.83
376.423	105.03
376.886	110.83
377.349	112.73
377.811	106.23
378.274	108.33
378.737	108.53
379.199	112.23
379.662	118.93
380.125	117.43
380.587	119.83
381.05	121.13
381.512	129.73
381.975	142.63
382.437	131.43
382.9	130.83
383.362	134.23
383.825	141.33
384.287	150.53
384.75	148.03
385.212	141.93
385.674	148.23
386.136	143.13
386.599	125.53
387.061	129.53
387.523	137.33
387.985	133.63
388.447	145.83
388.91	149.23
389.372	164.83
389.834	162.73
390.296	150.93
390.758	163.53
391.22	177.43
391.682	215.93
392.144	298.13
392.606	232.33
393.068	168.13
393.529	170.73
393.991	155.53
394.453	147.23
394.915	159.43
395.377	194.03
395.838	214.83
396.3	161.53
396.762	150.93
397.224	136.23
397.685	136.33
398.147	138.03
398.608	134.13
399.07	128.73
399.531	141.53
399.993	144.93
400.454	157.73
400.916	148.43
401.377	144.23
401.839	155.83
402.3	156.33
402.762	163.83
403.223	185.73
403.684	173.83
404.145	166.33
404.607	164.43
405.068	171.63
405.529	178.03
405.99	187.73
406.451	177.53
406.913	177.33
407.374	167.53
407.835	164.73
408.296	172.53
408.757	176.03
409.218	191.33
409.679	187.23
410.14	179.73
410.601	190.83
411.062	184.63
411.522	195.33
411.983	198.73
412.444	178.53
412.905	181.63
413.366	186.73
413.826	189.33
414.287	221.13
414.748	265.53
415.208	246.23
415.669	220.93
416.13	213.43
416.59	203.43
417.051	224.33
417.511	225.23
417.972	246.53
418.432	253.83
418.893	288.33
419.353	260.13
419.814	194.73
420.274	192.23
420.734	185.03
421.195	203.43
421.655	200.13
422.115	203.83
422.576	195.83
423.036	198.63
423.496	207.23
423.956	220.73
424.416	231.63
424.876	273.13
425.336	269.73
425.797	266.13
426.257	261.73
426.717	247.33
427.177	237.03
427.637	232.43
428.097	239.23
428.556	247.03
429.016	276.53
429.476	279.53
429.936	281.63
430.396	283.63
430.856	300.23
431.315	326.03
431.775	355.73
432.235	387.13
432.694	363.43
433.154	381.13
433.614	400.03
434.073	351.13
434.533	295.93
434.993	284.93
435.452	287.53
435.912	304.93
436.371	297.93
436.83	283.23
437.29	273.53
437.749	257.93
438.209	257.23
438.668	283.63
439.127	301.93
439.587	271.63
440.046	262.33
440.505	266.53
440.964	289.73
441.424	339.33
441.883	324.43
442.342	270.23
442.801	233.73
443.26	231.53
443.719	230.03
444.178	218.83
444.637	220.63
445.096	226.53
445.555	228.73
446.014	231.53
446.473	238.73
446.932	241.03
447.391	230.93
447.849	237.23
448.308	220.83
448.767	229.83
449.226	243.53
449.685	242.83
450.143	246.93
450.602	240.83
451.061	234.33
451.519	233.23
451.978	239.03
452.436	240.63
452.895	251.13
453.353	260.13
453.812	250.03
454.27	246.13
454.729	243.13
455.187	251.53
455.646	250.03
456.104	252.23
456.562	267.53
457.021	280.43
457.479	269.23
457.937	276.93
458.395	264.23
458.854	250.93
459.312	265.73
459.77	282.03
460.228	267.43
460.686	255.13
461.144	261.33
461.602	249.73
462.06	243.73
462.518	257.93
462.976	261.93
463.434	264.33
463.892	276.13
464.35	279.63
464.808	298.53
465.266	273.03
465.724	278.03
466.181	278.73
466.639	280.23
467.097	297.03
467.555	308.73
468.012	305.73
468.47	316.13
468.928	341.33
469.385	357.23
469.843	350.63
470.3	348.03
470.758	365.93
471.215	398.83
471.673	422.53
472.13	416.63
472.588	425.13
473.045	388.83
473.503	381.13
473.96	411.33
474.417	412.33
474.875	444.83
475.332	478.93
475.789	469.43
476.246	479.13
476.704	500.23
477.161	524.63
477.618	525.23
478.075	568.93
478.532	631.43
478.989	712.63
479.446	830.53
479.903	795.53
480.36	827.13
480.817	881.43
481.274	986.23
481.731	1087.43
482.188	1184.93
482.645	1342.33
483.102	1455.63
483.558	1590.23
484.015	1631.33
484.472	1607.93
484.929	1565.33
485.385	1505.93
485.842	1461.63
486.299	1398.13
486.755	1332.03
487.212	1130.13
487.668	953.23
488.125	878.93
488.582	800.43
489.038	767.63
489.494	735.43
489.951	709.33
490.407	688.33
490.864	670.63
491.32	656.53
491.776	646.03
492.233	670.23
492.689	614.33
493.145	629.73
493.602	615.43
494.058	624.83
494.514	639.43
494.97	657.73
495.426	662.23
495.882	647.23
496.338	633.33
496.794	637.13
497.251	625.03
497.707	652.63
498.163	650.23
498.618	660.03
499.074	667.43
499.53	695.33
499.986	699.63
500.442	672.03
500.898	646.23
501.354	639.03
501.809	654.13
502.265	654.63
502.721	665.63
503.177	694.93
503.632	684.33
504.088	697.63
504.543	730.33
504.999	731.43
505.455	667.83
505.91	643.73
506.366	646.03
506.821	647.53
507.277	637.33
507.732	639.83
508.187	633.83
508.643	635.13
509.098	643.43
509.553	665.23
510.009	683.43
510.464	681.23
510.919	696.23
511.375	706.13
511.83	719.03
512.285	740.63
512.74	783.53
513.195	804.73
513.65	786.63
514.105	786.43
514.56	789.63
515.015	809.83
515.47	823.93
515.925	809.03
516.38	796.93
516.835	808.03
517.29	802.93
517.745	792.43
518.2	771.63
518.655	760.53
519.109	762.53
519.564	756.23
520.019	747.23
520.474	732.13
520.928	736.33
521.383	750.73
521.838	715.93
522.292	719.93
522.747	717.63
523.201	715.73
523.656	710.13
524.11	705.03
524.565	701.73
525.019	711.63
525.474	717.53
525.928	714.93
526.382	705.53
526.837	711.23
527.291	721.83
527.745	705.03
528.2	710.93
528.654	703.23
529.108	697.43
529.562	703.53
530.016	702.03
530.47	710.73
530.925	700.53
531.379	707.93
531.833	711.63
532.287	714.63
532.741	723.03
533.195	720.83
533.649	725.33
534.103	733.23
534.556	714.23
535.01	723.53
535.464	722.83
535.918	730.13
536.372	726.13
536.826	734.43
537.279	720.93
537.733	731.73
538.187	727.03
538.64	722.23
539.094	727.53
539.548	740.23
540.001	744.13
540.455	735.93
540.908	737.63
541.362	747.83
541.815	753.03
542.269	769.33
542.722	781.43
543.175	788.73
543.629	777.53
544.082	796.83
544.536	800.13
544.989	796.23
545.442	809.43
545.895	797.83
546.349	805.13
546.802	797.83
547.255	798.53
547.708	825.13
548.161	831.13
548.614	834.23
549.067	842.93
549.52	827.93
549.973	820.83
550.426	827.93
550.879	807.13
551.332	797.63
551.785	813.73
552.238	815.03
552.691	831.83
553.144	830.93
553.596	857.73
554.049	874.43
554.502	901.23
554.955	908.73
555.407	920.53
555.86	908.33
556.313	894.33
556.765	894.83
557.218	897.03
557.67	891.23
558.123	884.03
558.576	880.33
559.028	886.43
559.48	892.93
559.933	881.23
560.385	838.23
560.838	812.83
561.29	791.23
561.742	786.93
562.195	763.53
562.647	782.83
563.099	783.63
563.551	784.93
564.004	791.53
564.456	790.43
564.908	772.63
565.36	757.73
565.812	734.53
566.264	733.73
566.716	725.53
567.168	729.83
567.62	732.13
568.072	708.83
568.524	699.83
568.976	704.73
569.428	679.73
569.88	684.83
570.332	689.33
570.784	690.93
571.235	682.23
571.687	696.73
572.139	707.33
572.59	713.23
573.042	719.03
573.494	712.93
573.945	709.03
574.397	689.63
574.849	696.63
575.3	693.43
575.752	684.53
576.203	690.83
576.655	686.33
577.106	671.23
577.557	675.43
578.009	672.53
578.46	674.83
578.912	662.43
579.363	671.13
579.814	671.93
580.265	669.33
580.717	678.83
581.168	673.63
581.619	681.73
582.07	685.73
582.521	685.03
582.972	682.03
583.423	691.83
583.875	693.13
584.326	712.73
584.777	754.33
585.227	820.93
585.678	910.03
586.129	989.83
586.58	1061.43
587.031	1144.63
587.482	1296.23
587.933	1477.63
588.384	1280.73
588.834	963.33
589.285	809.33
589.736	790.63
590.186	778.23
590.637	772.43
591.088	752.83
591.538	740.33
591.989	726.53
592.439	724.33
592.89	722.33
593.34	707.83
593.791	715.43
594.241	712.23
594.692	714.93
595.142	698.83
595.593	707.33
596.043	712.23
596.493	717.73
596.943	725.23
597.394	718.03
597.844	711.53
598.294	738.33
598.744	760.33
599.195	781.83
599.645	814.03
600.095	857.83
600.545	911.53
600.995	974.43
601.445	1032.33
601.895	1079.63
602.345	1133.63
602.795	1123.43
603.245	1064.73
603.695	1008.03
604.145	952.73
604.594	901.43
605.044	862.73
605.494	802.43
605.944	744.03
606.393	742.13
606.843	723.83
607.293	734.73
607.743	735.93
608.192	748.73
608.642	761.13
609.091	768.73
609.541	762.83
609.99	777.03
610.44	765.33
610.889	713.33
611.339	699.53
611.788	684.53
612.238	707.33
612.687	716.53
613.136	720.63
613.586	736.33
614.035	741.93
614.484	755.53
614.933	767.03
615.383	743.33
615.832	736.63
616.281	726.63
616.73	691.93
617.179	667.13
617.628	649.93
618.077	631.33
618.526	624.93
618.975	622.73
619.424	615.73
619.873	617.83
620.322	615.73
620.771	615.13
621.22	607.93
621.669	592.23
622.118	586.23
622.567	586.23
623.015	575.53
623.464	565.63
623.913	559.63
624.361	551.53
624.81	547.53
625.259	552.73
625.707	549.33
626.156	553.43
626.604	567.03
627.053	547.53
627.501	560.33
627.95	565.23
628.398	580.53
628.847	567.53
629.295	559.23
629.744	573.63
630.192	561.43
630.64	571.53
631.089	566.43
631.537	573.23
631.985	582.13
632.433	592.13
632.881	593.73
633.33	653.83
633.778	634.53
634.226	563.03
634.674	563.03
635.122	584.53
635.57	593.03
636.018	625.23
636.466	577.23
636.914	557.83
637.362	571.53
637.81	574.73
638.258	579.43
638.705	584.73
639.153	601.83
639.601	613.03
640.049	631.93
640.497	671.43
640.944	690.53
641.392	634.13
641.84	605.93
642.287	586.93
642.735	571.43
643.182	571.73
643.63	570.23
644.078	577.73
644.525	594.73
644.973	593.03
645.42	592.03
645.867	626.23
646.315	629.43
646.762	658.83
647.21	695.63
647.657	706.83
648.104	756.33
648.551	768.13
648.999	836.93
649.446	904.93
649.893	1004.93
650.34	1144.83
650.787	1386.63
651.234	1714.53
651.682	2240.93
652.129	3055.43
652.576	4398.93
653.023	6506.53
653.47	8913.33
653.917	11158.13
654.363	12917.93
654.81	14342.03
655.257	13671.63
655.704	8932.53
656.151	5284.93
656.598	3437.93
657.044	2422.83
657.491	1858.03
657.938	1488.33
658.385	1242.73
658.831	1070.53
659.278	959.03
659.724	851.73
660.171	780.83
660.618	719.33
661.064	680.43
661.511	662.23
661.957	657.73
662.404	643.03
662.85	648.83
663.296	620.63
663.743	561.73
664.189	543.03
664.635	538.63
665.082	523.73
665.528	520.43
665.974	511.53
666.42	504.13
666.867	504.13
667.313	491.73
667.759	478.53
668.205	480.03
668.651	482.83
669.097	475.53
669.543	498.43
669.989	460.23
670.435	447.33
670.881	429.03
671.327	442.23
671.773	459.63
672.219	486.43
672.665	533.43
673.11	575.53
673.556	619.13
674.002	663.03
674.448	646.53
674.893	534.43
675.339	471.33
675.785	434.33
676.23	404.33
676.676	391.33
677.122	374.63
677.567	369.43
678.013	367.13
678.458	354.83
678.904	358.03
679.349	346.73
679.794	356.03
680.24	344.33
680.685	343.33
681.131	348.43
681.576	348.63
682.021	349.73
682.466	343.73
682.912	350.03
683.357	344.23
683.802	378.33
684.247	411.23
684.692	443.93
685.137	480.93
685.583	524.83
686.028	556.33
686.473	512.23
686.918	447.43
687.363	414.73
687.807	381.23
688.252	355.23
688.697	346.23
689.142	333.73
689.587	328.93
690.032	323.43
690.477	332.43
690.921	342.33
691.366	376.13
691.811	395.53
692.255	428.13
692.7	452.53
693.145	493.53
693.589	673.43
694.034	1103.83
694.478	1498.73
694.923	1699.23
695.367	2232.03
695.812	1165.23
696.256	488.53
696.701	365.13
697.145	342.63
697.59	327.93
698.034	319.33
698.478	316.93
698.922	319.73
699.367	318.53
699.811	335.23
700.255	347.53
700.699	385.93
701.143	416.93
701.588	463.93
702.032	510.53
702.476	507.23
702.92	486.13
703.364	474.63
703.808	615.73
704.252	1000.93
704.696	1420.73
705.14	1645.63
705.584	2087.43
706.027	1040.03
706.471	506.93
706.915	387.13
707.359	346.33
707.803	306.33
708.246	305.13
708.69	300.63
709.134	304.23
709.577	300.83
710.021	313.93
710.465	297.13
710.908	289.73
711.352	292.63
711.795	307.03
712.239	336.33
712.682	372.93
713.126	405.63
713.569	458.13
714.012	371.93
714.456	317.83
714.899	292.33
715.342	266.83
715.786	263.03
716.229	251.43
716.672	250.93
717.115	245.53
717.558	245.53
718.002	243.13
718.445	252.63
718.888	283.83
719.331	288.53
719.774	304.53
720.217	300.43
720.66	274.13
721.103	257.93
721.546	246.83
721.989	245.33
722.432	232.23
722.874	230.23
723.317	225.73
723.76	227.53
724.203	249.03
724.645	307.03
725.088	433.03
725.531	547.13
725.974	632.13
726.416	535.13
726.859	297.73
727.301	238.03
727.744	238.83
728.187	232.83
728.629	239.73
729.071	234.13
729.514	255.63
729.956	271.23
730.399	277.53
730.841	281.93
731.283	267.13
731.726	250.63
732.168	252.73
732.61	256.43
733.053	284.73
733.495	306.73
733.937	341.43
734.379	388.73
734.821	425.73
735.263	524.23
735.705	801.73
736.148	1523.93
736.59	2507.13
737.032	2998.53
737.474	2433.33
737.916	802.23
738.357	423.13
738.799	322.93
739.241	293.03
739.683	277.03
740.125	286.33
740.567	294.83
741.008	302.23
741.45	308.93
741.892	303.23
742.334	331.23
742.775	356.23
743.217	343.63
743.658	266.83
744.1	248.63
744.542	259.53
744.983	302.13
745.425	334.53
745.866	337.33
746.307	279.53
746.749	279.53
747.19	322.63
747.632	443.33
748.073	840.83
748.514	1791.73
748.956	2778.23
749.397	3469.83
749.838	2907.83
750.279	2917.83
750.72	1461.13
751.162	528.83
751.603	311.83
752.044	244.33
752.485	215.53
752.926	204.53
753.367	200.23
753.808	186.13
754.249	182.33
754.69	180.53
755.131	169.13
755.572	180.03
756.013	179.43
756.453	180.73
756.894	180.13
757.335	188.43
757.776	185.13
758.216	187.73
758.657	188.43
759.098	197.13
759.538	224.23
759.979	256.93
760.42	361.83
760.86	671.43
761.301	1741.03
761.741	4257.03
762.182	6304.83
762.622	4428.93
763.063	1268.53
763.503	514.13
763.943	334.73
764.384	332.23
764.824	386.63
765.264	414.93
765.705	300.43
766.145	203.93
766.585	185.83
767.025	172.73
767.465	177.63
767.906	225.23
768.346	303.93
768.786	325.03
769.226	249.63
769.666	304.33
770.106	593.03
770.546	1501.53
770.986	2583.03
771.426	2303.23
771.866	770.53
772.306	323.03
772.745	200.83
773.185	165.03
773.625	165.53
774.065	164.13
774.505	188.13
774.944	293.83
775.384	656.23
775.824	1189.93
776.263	1171.43
776.703	497.73
777.142	218.23
777.582	155.73
778.021	132.53
778.461	138.53
778.9	132.93
779.34	122.43
779.779	122.23
780.219	109.03
780.658	108.03
781.097	105.33
781.537	112.13
781.976	107.63
782.415	105.43
782.855	103.53
783.294	101.03
783.733	104.23
784.172	113.03
784.611	101.73
785.05	104.33
785.489	114.53
785.928	115.43
786.367	117.33
786.806	116.23
787.245	124.33
787.684	136.63
788.123	145.23
788.562	126.63
789.001	124.73
789.44	119.43
789.879	116.63
790.317	114.33
790.756	136.23
791.195	127.33
791.634	140.13
792.072	205.43
792.511	343.43
792.95	952.93
793.388	2091.63
793.827	1906.83
794.265	655.53
794.704	272.93
795.142	182.13
795.581	144.33
796.019	139.63
796.458	130.83
796.896	116.13
797.334	124.73
797.773	151.23
798.211	216.23
798.649	427.13
799.087	984.83
799.526	1541.43
799.964	1949.03
800.402	1982.53
800.84	742.43
801.278	295.23
801.716	180.23
802.154	150.33
802.592	142.43
803.03	135.43
803.468	129.23
803.906	140.43
804.344	143.23
804.782	136.23
805.22	130.63
805.658	126.73
806.096	142.13
806.533	150.83
806.971	169.03
807.409	208.33
807.847	297.63
808.284	629.13
808.722	1797.73
809.16	3203.23
809.597	3009.63
810.035	5241.73
810.472	5669.53
810.91	2041.23
811.347	761.83
811.785	401.03
812.222	248.13
812.66	183.73
813.097	160.13
813.535	135.13
813.972	125.43
814.409	127.93
814.846	105.53
815.284	110.13
815.721	103.63
816.158	104.03
816.595	116.73
817.032	167.03
817.47	191.63
817.907	164.43
818.344	144.63
818.781	108.03
819.218	90.83
819.655	121.23
820.092	181.73
820.529	207.73
820.966	166.33
821.403	126.33
821.839	108.53
822.276	105.53
822.713	116.53
823.15	131.23
823.587	110.13
824.023	142.93
824.46	288.13
824.897	869.13
825.333	1324.03
825.77	573.33
826.206	220.13
826.643	129.93
827.08	96.73
827.516	81.03
827.953	74.73
828.389	81.63
828.825	66.13
829.262	68.03
829.698	64.43
830.135	61.23
830.571	62.23
831.007	60.93
831.443	67.33
831.88	57.13
832.316	59.53
832.752	58.33
833.188	59.43
833.624	60.03
834.06	70.53
834.497	69.63
834.933	70.23
835.369	75.33
835.805	61.83
836.241	75.23
836.677	80.93
837.112	89.33
837.548	99.93
837.984	128.43
838.42	189.63
838.856	468.33
839.292	1460.33
839.727	2246.03
840.163	1050.73
840.599	892.63
841.034	1957.53
841.47	2086.13
841.906	759.63
842.341	326.83
842.777	221.43
843.212	303.73
843.648	304.73
844.083	151.13
844.519	89.33
844.954	72.43
845.39	52.83
845.825	55.23
846.261	56.43
846.696	59.23
847.131	53.43
847.566	59.43
848.002	58.63
848.437	53.33
848.872	58.33
849.307	65.23
849.742	84.63
850.177	170.13
850.613	527.23
851.048	864.43
851.483	374.53
851.918	151.13
852.353	82.43
852.788	57.13
853.223	56.53
853.657	59.23
854.092	51.23
854.527	41.53
854.962	39.83
855.397	43.43
855.832	51.43
856.266	39.53
856.701	37.63
857.136	34.93
857.57	37.63
858.005	51.63
858.44	59.53
858.874	47.23
859.309	48.03
859.743	38.63
860.178	44.53
860.612	45.23
861.047	53.83
861.481	65.23
861.915	62.73
862.35	49.63
862.784	30.93
863.218	34.83
863.653	33.93
864.087	39.43
864.521	47.33
864.955	67.83
865.39	143.73
865.824	170.43
866.258	115.23
866.692	158.63
867.126	176.03
867.56	105.33
867.994	50.23
868.428	38.33
868.862	41.43
869.296	53.53
869.73	53.83
870.164	50.83
870.598	43.83
871.031	37.63
871.465	28.63
871.899	29.63
872.333	29.33
872.766	25.83
873.2	26.93
873.634	29.73
874.067	28.93
874.501	22.63
874.935	31.83
875.368	26.43
875.802	27.03
876.235	23.63
876.669	24.43
877.102	24.23
877.535	27.03
877.969	25.13
878.402	22.03
878.836	21.93
879.269	20.73
879.702	24.33
880.135	23.03
880.569	17.53
881.002	29.33
881.435	20.43
881.868	15.73
882.301	22.93
882.734	11.13
883.167	21.03
883.601	17.53
884.034	23.03
884.467	8.83
884.899	25.33
885.332	19.33
885.765	15.03
886.198	18.33
886.631	15.73
887.064	16.43
887.497	21.03
887.929	24.13
888.362	19.73
888.795	14.33
889.228	17.23
889.66	17.03
890.093	17.53
890.526	10.73
890.958	19.93
891.391	21.03
891.823	26.13
892.256	17.43
892.688	10.83
893.121	13.53
893.553	13.33
893.985	25.83
894.418	21.43
894.85	13.23
895.282	14.93
895.715	16.13
896.147	13.73
896.579	18.33
897.011	8.83
897.444	7.53
897.876	16.43
898.308	21.53
898.74	21.03
899.172	8.13
899.604	24.23
900.036	19.33
900.468	14.33
900.9	7.83
901.332	19.93
901.764	11.83
902.196	20.53
902.628	15.13
903.06	11.63
903.491	31.33
903.923	22.43
904.355	24.23
904.787	23.93
905.218	19.23
905.65	20.93
906.082	17.03
906.513	16.93
906.945	15.43
907.376	20.53
907.808	15.83
908.239	20.63
908.671	16.53
909.102	23.33
909.534	20.83
909.965	42.83
910.397	92.23
910.828	307.53
911.259	467.33
911.691	205.83
912.122	101.03
912.553	45.23
912.984	37.93
913.415	27.03
913.847	23.93
914.278	15.73
914.709	18.13
915.14	17.43
915.571	16.53
916.002	13.93
916.433	17.83
916.864	20.63
917.295	8.93
917.726	16.63
918.157	13.73
918.587	28.93
919.018	28.43
919.449	25.23
919.88	28.03
920.311	22.83
920.741	47.13
921.172	165.13
921.603	144.53
922.033	68.13
922.464	42.43
922.895	16.33
923.325	24.53
923.756	12.13
924.186	13.13
924.617	20.53
925.047	38.63
925.478	46.03
925.908	48.03
926.338	22.53
926.769	15.43
927.199	19.43
927.629	6.93
928.06	10.63
928.49	16.43
928.92	11.93
929.35	8.73
929.78	11.23
930.21	2.43
930.641	3.93
931.071	5.23
931.501	-2.47
931.931	5.33
932.361	6.83
932.791	4.33
933.221	-1.97
933.651	8.53
934.08	17.13
934.51	32.93
934.94	7.63
935.37	9.33
935.8	9.93
936.229	5.33
936.659	11.73
937.089	5.73
937.519	18.13
937.948	25.63
938.378	17.03
938.807	11.53
939.237	1.53
939.666	3.83
940.096	-5.07
940.525	-0.77
940.955	5.33
941.384	-2.77
941.814	-6.27
942.243	-2.17
942.672	0.93
943.102	-0.97
943.531	-1.77
943.96	6.93
944.39	-0.87
944.819	2.13
945.248	6.03
945.677	1.13
946.106	3.93
946.535	7.93
946.964	-0.67
947.393	4.43
947.822	3.43
948.251	-3.47
948.68	2.53
949.109	0.53
949.538	5.93
949.967	1.53
950.396	-2.57
950.825	0.23
951.254	-1.97
951.682	-7.17
952.111	6.53
952.54	3.03
952.969	-1.57
953.397	-6.97
953.826	4.13
954.254	-5.87
954.683	-0.17
955.112	-9.27
955.54	-1.07
955.969	3.53
956.397	2.23
956.826	-5.17
957.254	2.03
957.682	-2.67
958.111	6.13
958.539	-2.57
958.967	1.63
959.396	1.93
959.824	1.13
960.252	3.03
960.68	-7.17
961.109	-6.87
961.537	-2.17
961.965	-2.87
962.393	-4.37
962.821	-4.97
963.249	2.63
963.677	8.23
964.105	4.13
964.533	43.33
964.961	40.33
965.389	22.43
965.817	8.23
966.245	6.93
966.672	-5.47
967.1	-11.47
967.528	-0.27
967.956	2.03
968.383	-0.97
968.811	-10.67
969.239	-0.77
969.666	0.13
970.094	3.43
970.522	2.03
970.949	4.33
971.377	-0.07
971.804	-3.37
972.232	-4.57
972.659	-2.87
973.087	-3.87
973.514	-3.17
973.941	-6.37
974.369	8.03
974.796	1.13
975.223	5.23
975.651	0.33
976.078	-0.77
976.505	-4.17
976.932	0.03
977.359	16.93
977.786	12.13
978.214	-5.37
978.641	-3.57
979.068	-4.17
979.495	-3.37
979.922	1.33
980.349	-1.27
980.776	-1.27
981.202	-4.57
981.629	5.73
982.056	4.33
982.483	-5.67
982.91	2.83
983.337	-7.77
983.763	1.73
984.19	0.33
984.617	-3.27
985.043	-4.97
985.47	3.03
985.897	-5.97
986.323	-11.77
986.75	2.23
987.176	-6.47
987.603	-1.77
988.029	-3.57
988.456	-4.77
988.882	3.63
989.308	-8.77
989.735	-7.17
990.161	3.93
990.587	-2.27
991.014	-2.57
991.44	3.23
991.866	2.83
992.292	-3.47
992.719	-1.57
993.145	0.23
993.571	-13.37
993.997	-2.77
994.423	-0.67
994.849	2.93
995.275	-2.07
995.701	4.83
996.127	-1.57
996.553	-3.57
996.979	-2.17
997.405	-1.87
997.83	-8.17
998.256	-7.37
998.682	-6.47
999.108	-1.57
999.534	-5.17
999.959	2.13
1000.385	-9.67
1000.811	-2.77
1001.236	-10.87
1001.662	-6.77
1002.087	-12.67
1002.513	-0.67
1002.938	0.03
1003.364	-1.07
1003.789	-4.57
1004.215	3.43
1004.64	2.73
1005.066	6.23
1005.491	-2.27
1005.916	-2.87
1006.342	-1.77
1006.767	-6.67
1007.192	4.03
1007.617	-11.07
1008.042	-4.27
1008.468	-7.37
1008.893	-4.07
1009.318	-4.77
1009.743	-8.57
1010.168	0.03
1010.593	-0.87
1011.018	-5.37
1011.443	-2.37
1011.868	0.43
1012.293	-5.27
1012.718	-5.37
1013.143	-4.07
1013.567	2.73
1013.992	1.13
1014.417	-13.87
1014.842	2.03
1015.267	-8.67
1015.691	-5.57
1016.116	7.23
1016.541	1.03
1016.965	-0.47
1017.39	0.73
1017.814	-0.67
1018.239	-2.27
1018.663	-4.87
1019.088	-7.97
1019.512	-8.97
1019.937	-2.17
1020.361	-9.57
1020.785	-15.37
1021.21	-6.57
1021.634	-1.57
1022.058	-1.27
1022.483	4.03
1022.907	-6.07
1023.331	-3.77
1023.755	-0.37
1024.179	-4.87
1024.604	-9.17
1025.028	-3.67
1025.452	-3.87
1025.876	-1.87
1026.3	-1.77
1026.724	-12.77
1027.148	-1.47
1027.572	-6.07
1027.996	-5.57
1028.42	-4.57
1028.843	-2.07
1029.267	-4.37
1029.691	-4.47
1030.115	-7.87
1030.539	-12.37
1030.962	-7.37
1031.386	-6.37
1031.81	-1.07
1032.233	-2.27
1032.657	2.13
1033.08	-0.07
1033.504	-5.77
1033.927	-5.37
1034.351	-4.07
1034.774	-8.87
1035.198	0.93
1035.621	-2.67
1036.045	-6.87
1036.468	3.13
1036.891	-16.27
1037.315	-11.87
1037.738	-15.87
1038.161	2.93
1038.584	-4.37
1039.008	-2.37
1039.431	-4.37
1039.854	-7.47
1040.277	-7.27
1040.7	-10.67
1041.123	3.33
1041.546	-9.57
1041.969	-9.37
1042.392	-6.57
1042.815	-5.87
1043.238	0.73
1043.661	0.63
1044.084	-11.77
1044.507	-7.17
1044.93	-4.37
1045.352	-4.17
1045.775	-0.97
1046.198	-4.37
1046.621	-2.77
1047.043	0.53
1047.466	2.53
1047.889	-2.67
1048.311	-1.07
1048.734	-0.57
1049.156	-3.07
1049.579	-2.17
1050.001	-7.47
1050.424	0.13
1050.846	-5.87
1051.269	-6.07
1051.691	-3.37
1052.113	-6.17
1052.536	-3.17
1052.958	-0.97
1053.38	-1.37
1053.802	-12.87
1054.225	2.03
1054.647	-11.97
1055.069	-10.87
1055.491	-3.77
1055.913	-13.87
1056.335	-5.37
1056.757	-5.67
1057.179	-7.87
1057.601	-8.27
1058.023	1.13
1058.445	-8.97
1058.867	-9.37
1059.289	-7.77
1059.711	-7.37
1060.133	-2.07
1060.555	-6.37
1060.976	-9.67
1061.398	-12.27
1061.82	-7.67
1062.241	-5.57
1062.663	-9.47
1063.085	-0.97
1063.506	-0.17
1063.928	-3.87
1064.35	-1.47
1064.771	-14.87
1065.193	-1.47
1065.614	-11.37
1066.035	-8.47
1066.457	-6.67
1066.878	2.83
1067.3	-5.77
1067.721	-5.27
1068.142	-4.47
1068.564	-1.27
1068.985	-7.67
1069.406	-1.17
1069.827	-8.07
1070.248	-2.17
1070.67	-9.07
1071.091	-8.67
1071.512	-4.97
1071.933	-8.77
1072.354	-9.37
1072.775	-8.87
1073.196	-4.47
1073.617	-6.27
1074.038	-6.77
1074.459	-2.87
1074.88	-6.77
1075.3	5.03
1075.721	-3.47
1076.142	5.63
1076.563	-5.27
1076.983	-6.67
1077.404	-8.97
1077.825	-11.57
1078.246	-3.07
1078.666	-12.77
1079.087	-8.07
1079.507	-4.07
1079.928	-5.77
1080.348	0.23
1080.769	-10.77
1081.189	-2.17
1081.61	-3.27
1082.03	-7.97
1082.451	-9.17
1082.871	-7.47
1083.291	-10.77
1083.711	-11.37
1084.132	-5.27
1084.552	-2.77
1084.972	2.93
1085.392	-10.17
1085.813	-14.97
1086.233	-9.57
1086.653	-1.77
1087.073	-5.47
1087.493	-6.17
1087.913	-6.57
1088.333	-9.27
1088.753	-7.47
1089.173	4.03
1089.593	-4.77
1090.013	-0.07
1090.433	1.63
1090.852	-6.87
1091.272	-1.87
1091.692	-4.27
1092.112	-1.87
1092.531	-11.37
1092.951	-11.47
1093.371	-9.67
1093.79	-0.27
1094.21	-8.77
1094.63	-5.67
1095.049	-4.87
1095.469	1.73
1095.888	-2.87
1096.308	3.83
1096.727	-1.87
1097.146	-8.07
1097.566	-3.37
1097.985	-6.27
1098.405	-2.77
1098.824	-1.37
1099.243	-8.57
1099.662	-9.07
1100.082	-6.67
1100.501	-2.67
1100.92	-3.67
1101.339	-8.27
1101.758	-5.77
