Data from 20171114-ORNL-Ar_H_NY_Subt18_08-07-54-365.txt Node
Date: Tue Nov 14 08:07:54 EST 2017
User: Ender
Spectrometer: HR+D1039
Trigger mode: 0
Integration Time (sec): 2.730000E-2
Scans to average: 10
Electric dark correction enabled: true
Nonlinearity correction enabled: false
Boxcar width: 0
XAxis mode: Wavelengths
Number of Pixels in Spectrum: 2048
>>>>>Begin Spectral Data<<<<<
187.836	-0.46
188.309	-0.46
188.782	-0.46
189.255	-0.16
189.728	0.44
190.201	0.74
190.674	-2.76
191.147	4.24
191.619	-8.46
192.092	0.64
192.565	9.84
193.038	3.94
193.511	2.54
193.984	-0.46
194.456	-4.46
194.929	-1.56
195.402	-4.86
195.874	0.74
196.347	0.24
196.82	-7.86
197.292	-2.86
197.765	-1.36
198.237	-10.96
198.71	3.44
199.182	-0.76
199.655	8.64
200.127	2.44
200.6	-0.66
201.072	-2.06
201.544	-4.76
202.017	-1.26
202.489	3.44
202.961	0.04
203.433	-6.16
203.906	-3.26
204.378	-4.26
204.85	-3.06
205.322	-8.66
205.794	1.34
206.266	-2.96
206.739	-10.56
207.211	5.84
207.683	-11.56
208.155	-5.26
208.627	-8.46
209.099	-0.56
209.57	-6.26
210.042	-5.76
210.514	-0.36
210.986	-2.56
211.458	-14.96
211.93	-6.86
212.402	-5.46
212.873	-13.16
213.345	-4.66
213.817	-17.26
214.288	0.24
214.76	-11.16
215.232	-6.76
215.703	-2.76
216.175	-0.56
216.646	-4.26
217.118	-10.96
217.589	-3.76
218.061	-4.66
218.532	-7.16
219.004	-4.96
219.475	-7.46
219.946	4.34
220.418	-6.06
220.889	0.44
221.36	-0.76
221.832	-7.56
222.303	-8.66
222.774	4.24
223.245	-9.56
223.717	-11.96
224.188	-6.86
224.659	-7.66
225.13	-7.16
225.601	-5.76
226.072	0.04
226.543	-0.96
227.014	-3.06
227.485	-4.46
227.956	-8.26
228.427	-6.46
228.898	-6.06
229.369	-5.36
229.839	-7.96
230.31	-9.86
230.781	2.84
231.252	-0.86
231.722	-5.06
232.193	-1.56
232.664	-0.46
233.135	-0.26
233.605	0.34
234.076	-11.66
234.546	0.64
235.017	-0.76
235.487	-4.56
235.958	-0.46
236.428	-5.36
236.899	4.24
237.369	-0.26
237.84	-3.06
238.31	6.34
238.78	0.54
239.251	-0.96
239.721	-2.96
240.191	1.04
240.662	0.34
241.132	-0.36
241.602	-2.36
242.072	-6.16
242.542	5.74
243.013	0.64
243.483	1.04
243.953	0.54
244.423	-1.06
244.893	-0.96
245.363	4.54
245.833	-6.86
246.303	-6.06
246.773	5.14
247.243	5.34
247.712	1.14
248.182	9.04
248.652	3.74
249.122	-1.76
249.592	7.64
250.061	20.34
250.531	28.54
251.001	12.24
251.471	20.14
251.94	17.14
252.41	4.24
252.879	1.74
253.349	14.54
253.818	5.94
254.288	3.14
254.757	2.04
255.227	-5.26
255.696	5.84
256.166	10.64
256.635	2.34
257.105	5.84
257.574	8.84
258.043	3.84
258.513	12.04
258.982	12.14
259.451	3.44
259.92	8.44
260.389	7.04
260.859	15.94
261.328	8.94
261.797	16.84
262.266	6.04
262.735	5.34
263.204	0.54
263.673	-1.86
264.142	6.34
264.611	-4.56
265.08	2.64
265.549	-5.86
266.018	2.54
266.487	-4.86
266.955	-1.76
267.424	-5.16
267.893	5.14
268.362	2.04
268.83	3.04
269.299	6.74
269.768	3.54
270.236	6.64
270.705	1.64
271.174	2.94
271.642	8.64
272.111	7.84
272.579	18.94
273.048	23.84
273.516	25.54
273.985	24.64
274.453	17.74
274.922	16.64
275.39	7.24
275.858	-0.26
276.327	8.94
276.795	16.64
277.263	2.94
277.731	26.54
278.2	50.24
278.668	47.94
279.136	44.14
279.604	16.74
280.072	12.14
280.54	6.94
281.008	3.74
281.477	15.84
281.945	12.64
282.413	11.74
282.881	15.84
283.348	7.54
283.816	12.04
284.284	11.14
284.752	16.34
285.22	14.84
285.688	9.74
286.156	12.84
286.623	39.14
287.091	48.64
287.559	22.74
288.026	15.74
288.494	14.14
288.962	1.44
289.429	4.54
289.897	15.44
290.364	12.64
290.832	13.04
291.3	13.24
291.767	18.04
292.234	21.14
292.702	17.64
293.169	17.84
293.637	21.84
294.104	17.84
294.571	9.44
295.039	11.84
295.506	14.74
295.973	11.44
296.44	8.04
296.908	13.94
297.375	11.94
297.842	20.74
298.309	12.74
298.776	5.64
299.243	19.94
299.71	10.54
300.177	15.24
300.644	12.44
301.111	14.54
301.578	20.84
302.045	12.24
302.512	23.44
302.979	25.54
303.446	20.64
303.913	12.84
304.379	15.14
304.846	23.54
305.313	19.34
305.78	17.74
306.246	22.44
306.713	26.44
307.18	20.74
307.646	27.54
308.113	24.24
308.579	18.14
309.046	23.54
309.512	24.24
309.979	18.44
310.445	30.94
310.912	26.44
311.378	32.04
311.845	21.04
312.311	32.04
312.777	29.94
313.244	22.04
313.71	36.54
314.176	29.94
314.642	31.54
315.109	30.04
315.575	36.74
316.041	31.24
316.507	31.64
316.973	33.34
317.439	33.34
317.905	31.34
318.371	35.24
318.837	31.74
319.303	26.54
319.769	39.94
320.235	28.34
320.701	32.64
321.167	41.04
321.633	33.14
322.099	32.54
322.564	38.34
323.03	40.44
323.496	39.54
323.962	37.64
324.427	29.74
324.893	45.14
325.359	36.54
325.824	38.74
326.29	39.94
326.755	35.54
327.221	41.34
327.686	41.04
328.152	46.84
328.617	38.94
329.083	36.64
329.548	48.24
330.014	44.74
330.479	35.14
330.944	41.84
331.41	41.64
331.875	43.24
332.34	41.84
332.805	34.44
333.271	44.24
333.736	43.44
334.201	57.14
334.666	51.64
335.131	51.04
335.596	51.24
336.061	45.74
336.526	39.54
336.991	41.84
337.456	50.74
337.921	46.34
338.386	41.54
338.851	40.44
339.316	45.34
339.781	44.54
340.246	49.04
340.711	47.14
341.175	50.74
341.64	44.84
342.105	46.24
342.569	52.04
343.034	56.44
343.499	52.54
343.963	46.24
344.428	57.44
344.893	61.14
345.357	54.14
345.822	56.64
346.286	60.64
346.751	66.24
347.215	68.64
347.679	75.84
348.144	99.84
348.608	80.84
349.073	66.04
349.537	77.74
350.001	82.84
350.465	79.64
350.93	77.94
351.394	75.44
351.858	68.04
352.322	85.84
352.786	76.84
353.25	94.74
353.715	110.44
354.179	95.34
354.643	116.44
355.107	124.54
355.571	108.14
356.035	102.24
356.498	114.44
356.962	117.24
357.426	125.94
357.89	114.24
358.354	80.44
358.818	79.44
359.281	76.64
359.745	78.04
360.209	70.44
360.673	70.24
361.136	82.34
361.6	82.94
362.064	76.24
362.527	75.74
362.991	86.44
363.454	75.04
363.918	75.94
364.381	79.44
364.845	80.74
365.308	77.04
365.772	86.64
366.235	88.94
366.698	79.24
367.162	83.44
367.625	81.54
368.088	83.64
368.552	83.04
369.015	90.14
369.478	94.74
369.941	99.84
370.404	92.34
370.867	103.04
371.331	107.94
371.794	113.34
372.257	113.14
372.72	116.54
373.183	104.34
373.646	102.04
374.109	102.14
374.572	105.44
375.035	109.54
375.497	112.04
375.96	101.14
376.423	102.64
376.886	113.24
377.349	104.24
377.811	101.64
378.274	106.14
378.737	107.84
379.199	113.34
379.662	112.24
380.125	114.54
380.587	118.74
381.05	124.24
381.512	131.94
381.975	141.34
382.437	126.74
382.9	125.54
383.362	133.24
383.825	138.34
384.287	147.04
384.75	139.94
385.212	145.64
385.674	138.44
386.136	142.84
386.599	127.74
387.061	125.24
387.523	135.34
387.985	134.64
388.447	143.74
388.91	144.54
389.372	156.44
389.834	151.54
390.296	141.74
390.758	150.34
391.22	168.74
391.682	207.74
392.144	299.04
392.606	229.44
393.068	165.04
393.529	172.04
393.991	157.14
394.453	149.44
394.915	154.84
395.377	187.34
395.838	206.14
396.3	156.64
396.762	138.04
397.224	131.84
397.685	131.54
398.147	127.84
398.608	132.34
399.07	125.54
399.531	134.64
399.993	136.14
400.454	153.84
400.916	144.54
401.377	142.34
401.839	153.44
402.3	148.84
402.762	169.34
403.223	179.94
403.684	168.44
404.145	156.04
404.607	162.34
405.068	167.04
405.529	172.94
405.99	183.34
406.451	180.94
406.913	172.84
407.374	163.34
407.835	159.24
408.296	162.84
408.757	170.24
409.218	181.24
409.679	175.04
410.14	172.84
410.601	183.24
411.062	187.14
411.522	194.14
411.983	191.44
412.444	175.44
412.905	175.84
413.366	184.74
413.826	188.74
414.287	216.94
414.748	264.24
415.208	245.04
415.669	207.04
416.13	200.14
416.59	195.04
417.051	215.84
417.511	217.04
417.972	241.74
418.432	248.44
418.893	290.64
419.353	250.04
419.814	198.94
420.274	185.54
420.734	181.84
421.195	198.74
421.655	197.84
422.115	194.14
422.576	196.74
423.036	193.44
423.496	208.54
423.956	216.04
424.416	227.54
424.876	264.04
425.336	257.04
425.797	260.04
426.257	252.34
426.717	242.64
427.177	240.44
427.637	220.14
428.097	233.44
428.556	239.94
429.016	273.94
429.476	268.64
429.936	280.94
430.396	282.54
430.856	296.54
431.315	318.44
431.775	346.44
432.235	384.94
432.694	358.74
433.154	372.54
433.614	393.84
434.073	340.04
434.533	289.64
434.993	274.54
435.452	281.54
435.912	293.84
436.371	288.54
436.83	285.04
437.29	280.14
437.749	240.84
438.209	255.64
438.668	280.74
439.127	294.14
439.587	263.24
440.046	247.84
440.505	261.24
440.964	281.44
441.424	325.24
441.883	313.84
442.342	263.54
442.801	233.44
443.26	226.24
443.719	222.04
444.178	214.74
444.637	210.24
445.096	215.14
445.555	220.84
446.014	229.94
446.473	231.44
446.932	232.14
447.391	231.94
447.849	229.04
448.308	217.74
448.767	223.54
449.226	234.54
449.685	236.44
450.143	243.24
450.602	233.54
451.061	231.74
451.519	239.84
451.978	224.84
452.436	234.14
452.895	245.14
453.353	248.54
453.812	238.84
454.27	243.94
454.729	238.04
455.187	242.34
455.646	246.34
456.104	252.64
456.562	261.44
457.021	265.34
457.479	262.54
457.937	279.94
458.395	256.54
458.854	251.64
459.312	257.54
459.77	279.74
460.228	260.54
460.686	242.34
461.144	248.44
461.602	237.24
462.06	248.94
462.518	259.54
462.976	260.74
463.434	255.34
463.892	265.04
464.35	274.44
464.808	284.34
465.266	267.64
465.724	270.94
466.181	283.14
466.639	276.64
467.097	292.94
467.555	290.54
468.012	297.44
468.47	315.44
468.928	330.24
469.385	346.84
469.843	354.64
470.3	352.54
470.758	359.84
471.215	381.54
471.673	409.94
472.13	403.84
472.588	422.64
473.045	375.34
473.503	380.24
473.96	402.84
474.417	417.94
474.875	437.54
475.332	477.54
475.789	468.84
476.246	469.94
476.704	492.64
477.161	503.84
477.618	523.44
478.075	571.54
478.532	631.24
478.989	702.14
479.446	812.74
479.903	781.34
480.36	810.54
480.817	863.34
481.274	973.44
481.731	1084.44
482.188	1163.14
482.645	1306.64
483.102	1411.04
483.558	1545.94
484.015	1607.54
484.472	1563.24
484.929	1524.64
485.385	1468.84
485.842	1433.84
486.299	1369.84
486.755	1293.94
487.212	1094.84
487.668	923.14
488.125	853.94
488.582	773.04
489.038	752.74
489.494	702.74
489.951	686.74
490.407	669.24
490.864	650.14
491.32	641.24
491.776	641.64
492.233	652.34
492.689	606.94
493.145	607.14
493.602	598.34
494.058	626.54
494.514	617.84
494.97	646.64
495.426	647.04
495.882	623.14
496.338	605.54
496.794	624.94
497.251	616.94
497.707	632.34
498.163	640.74
498.618	641.04
499.074	650.54
499.53	677.84
499.986	669.54
500.442	649.74
500.898	633.34
501.354	628.64
501.809	638.74
502.265	659.54
502.721	671.74
503.177	681.24
503.632	668.74
504.088	678.14
504.543	715.04
504.999	715.64
505.455	651.34
505.91	633.44
506.366	632.84
506.821	635.84
507.277	627.14
507.732	626.24
508.187	630.04
508.643	637.84
509.098	640.64
509.553	662.14
510.009	662.24
510.464	665.34
510.919	688.04
511.375	695.94
511.83	704.44
512.285	721.24
512.74	764.54
513.195	791.14
513.65	766.84
514.105	778.94
514.56	774.84
515.015	795.94
515.47	800.14
515.925	785.74
516.38	786.24
516.835	803.84
517.29	784.94
517.745	776.84
518.2	762.34
518.655	755.74
519.109	736.84
519.564	735.04
520.019	729.74
520.474	722.74
520.928	723.44
521.383	717.44
521.838	717.44
522.292	727.94
522.747	713.44
523.201	713.14
523.656	693.34
524.11	693.54
524.565	693.74
525.019	695.34
525.474	704.34
525.928	704.44
526.382	698.04
526.837	697.24
527.291	704.24
527.745	693.14
528.2	699.24
528.654	695.74
529.108	696.54
529.562	689.14
530.016	695.84
530.47	693.84
530.925	687.64
531.379	697.14
531.833	694.04
532.287	695.94
532.741	709.64
533.195	712.24
533.649	717.24
534.103	711.44
534.556	710.34
535.01	705.74
535.464	698.64
535.918	714.94
536.372	721.64
536.826	721.14
537.279	698.64
537.733	712.74
538.187	719.44
538.64	717.94
539.094	724.34
539.548	723.64
540.001	719.44
540.455	725.44
540.908	732.64
541.362	739.94
541.815	753.84
542.269	760.94
542.722	758.64
543.175	777.14
543.629	774.74
544.082	789.54
544.536	789.64
544.989	780.54
545.442	795.84
545.895	794.44
546.349	796.34
546.802	783.24
547.255	793.84
547.708	825.44
548.161	812.04
548.614	826.24
549.067	832.64
549.52	818.74
549.973	820.44
550.426	804.64
550.879	790.74
551.332	804.24
551.785	810.54
552.238	817.84
552.691	823.54
553.144	831.04
553.596	850.34
554.049	871.94
554.502	892.24
554.955	909.64
555.407	899.04
555.86	905.34
556.313	900.94
556.765	885.54
557.218	887.24
557.67	888.34
558.123	876.24
558.576	876.44
559.028	886.14
559.48	881.74
559.933	867.84
560.385	825.54
560.838	801.24
561.29	783.04
561.742	779.64
562.195	770.54
562.647	767.34
563.099	789.94
563.551	786.74
564.004	775.74
564.456	775.54
564.908	765.84
565.36	741.64
565.812	738.54
566.264	734.94
566.716	729.24
567.168	725.54
567.62	725.94
568.072	708.24
568.524	708.24
568.976	698.64
569.428	679.74
569.88	677.24
570.332	690.44
570.784	686.94
571.235	695.44
571.687	696.94
572.139	700.54
572.59	715.64
573.042	723.14
573.494	716.24
573.945	700.84
574.397	680.54
574.849	691.54
575.3	696.04
575.752	690.64
576.203	692.24
576.655	691.44
577.106	678.24
577.557	665.84
578.009	678.14
578.46	675.74
578.912	665.84
579.363	666.24
579.814	672.84
580.265	664.84
580.717	682.34
581.168	676.04
581.619	673.24
582.07	688.14
582.521	678.44
582.972	671.94
583.423	682.14
583.875	693.94
584.326	699.74
584.777	758.64
585.227	838.94
585.678	920.74
586.129	1007.44
586.58	1070.24
587.031	1148.74
587.482	1296.04
587.933	1484.64
588.384	1291.64
588.834	980.14
589.285	814.84
589.736	794.54
590.186	778.64
590.637	772.54
591.088	750.64
591.538	748.94
591.989	739.34
592.439	734.94
592.89	723.54
593.34	722.64
593.791	712.94
594.241	716.84
594.692	710.44
595.142	714.04
595.593	700.64
596.043	714.84
596.493	715.74
596.943	716.24
597.394	728.94
597.844	730.84
598.294	737.84
598.744	760.14
599.195	788.34
599.645	819.14
600.095	862.54
600.545	920.84
600.995	977.44
601.445	1036.14
601.895	1095.54
602.345	1139.84
602.795	1121.34
603.245	1065.34
603.695	1015.94
604.145	955.44
604.594	910.64
605.044	867.34
605.494	797.74
605.944	754.34
606.393	747.24
606.843	747.54
607.293	728.84
607.743	742.34
608.192	752.94
608.642	757.34
609.091	773.34
609.541	778.34
609.99	777.94
610.44	772.94
610.889	723.64
611.339	706.24
611.788	691.64
612.238	706.64
612.687	732.74
613.136	725.64
613.586	731.84
614.035	745.84
614.484	763.64
614.933	766.74
615.383	752.44
615.832	741.34
616.281	729.74
616.73	691.54
617.179	672.14
617.628	660.54
618.077	640.44
618.526	622.14
618.975	623.74
619.424	619.44
619.873	618.24
620.322	616.34
620.771	605.14
621.22	609.04
621.669	603.84
622.118	583.64
622.567	574.84
623.015	571.44
623.464	580.74
623.913	556.94
624.361	562.34
624.81	556.14
625.259	556.24
625.707	553.14
626.156	557.14
626.604	568.24
627.053	572.84
627.501	557.94
627.95	569.24
628.398	585.34
628.847	573.14
629.295	570.64
629.744	577.64
630.192	568.04
630.64	579.74
631.089	578.34
631.537	583.64
631.985	594.54
632.433	606.84
632.881	621.84
633.33	676.34
633.778	644.04
634.226	574.84
634.674	577.44
635.122	588.54
635.57	608.34
636.018	638.24
636.466	586.24
636.914	566.44
637.362	577.64
637.81	583.04
638.258	576.64
638.705	586.54
639.153	617.54
639.601	629.14
640.049	648.24
640.497	680.04
640.944	692.74
641.392	649.84
641.84	616.24
642.287	591.04
642.735	567.44
643.182	577.94
643.63	571.44
644.078	570.64
644.525	594.94
644.973	600.74
645.42	604.94
645.867	626.64
646.315	651.34
646.762	673.14
647.21	697.34
647.657	727.04
648.104	750.34
648.551	771.14
648.999	847.14
649.446	929.14
649.893	1006.94
650.34	1181.24
650.787	1412.04
651.234	1754.54
651.682	2294.44
652.129	3190.54
652.576	4577.94
653.023	6745.04
653.47	9222.24
653.917	11404.64
654.363	13063.04
654.81	14409.34
655.257	13715.14
655.704	8994.74
656.151	5309.94
656.598	3438.14
657.044	2449.54
657.491	1867.04
657.938	1499.44
658.385	1246.14
658.831	1085.64
659.278	966.84
659.724	868.34
660.171	791.34
660.618	744.04
661.064	697.04
661.511	667.54
661.957	660.24
662.404	648.14
662.85	670.84
663.296	626.34
663.743	563.74
664.189	542.04
664.635	539.04
665.082	528.44
665.528	529.14
665.974	524.24
666.42	514.14
666.867	513.04
667.313	490.44
667.759	482.84
668.205	479.54
668.651	490.64
669.097	495.24
669.543	501.64
669.989	473.54
670.435	456.24
670.881	448.14
671.327	465.54
671.773	473.54
672.219	494.94
672.665	549.24
673.11	597.14
673.556	640.64
674.002	677.84
674.448	659.94
674.893	548.14
675.339	471.54
675.785	441.74
676.23	423.14
676.676	393.04
677.122	389.84
677.567	374.64
678.013	370.94
678.458	362.34
678.904	369.04
679.349	351.84
679.794	352.54
680.24	354.54
680.685	349.84
681.131	353.24
681.576	357.44
682.021	356.44
682.466	350.84
682.912	356.04
683.357	344.64
683.802	387.94
684.247	416.24
684.692	461.64
685.137	501.24
685.583	545.94
686.028	571.04
686.473	523.24
686.918	443.24
687.363	417.74
687.807	395.04
688.252	372.04
688.697	358.84
689.142	339.84
689.587	337.54
690.032	330.44
690.477	344.54
690.921	350.94
691.366	387.54
691.811	399.04
692.255	430.74
692.7	469.84
693.145	517.34
693.589	711.44
694.034	1157.94
694.478	1566.94
694.923	1742.64
695.367	2245.84
695.812	1197.64
696.256	499.24
696.701	371.34
697.145	351.84
697.59	338.04
698.034	330.24
698.478	333.44
698.922	327.04
699.367	322.44
699.811	345.14
700.255	357.54
700.699	395.44
701.143	435.14
701.588	481.14
702.032	508.14
702.476	521.64
702.92	489.44
703.364	494.24
703.808	654.54
704.252	1054.84
704.696	1474.54
705.14	1677.24
705.584	2138.94
706.027	1073.24
706.471	521.44
706.915	393.24
707.359	341.14
707.803	315.04
708.246	314.74
708.69	324.44
709.134	319.34
709.577	315.24
710.021	318.14
710.465	310.04
710.908	297.84
711.352	299.74
711.795	311.24
712.239	367.64
712.682	396.94
713.126	418.94
713.569	465.74
714.012	370.24
714.456	325.34
714.899	303.44
715.342	275.84
715.786	272.34
716.229	262.34
716.672	255.54
717.115	252.14
717.558	248.94
718.002	252.94
718.445	266.94
718.888	280.04
719.331	301.04
719.774	313.04
720.217	309.44
720.66	294.14
721.103	260.74
721.546	250.94
721.989	247.34
722.432	232.44
722.874	244.14
723.317	231.24
723.76	241.34
724.203	258.74
724.645	324.54
725.088	453.74
725.531	573.14
725.974	637.14
726.416	546.04
726.859	310.74
727.301	251.44
727.744	241.54
728.187	239.94
728.629	242.14
729.071	245.54
729.514	259.54
729.956	272.34
730.399	280.64
730.841	285.04
731.283	273.04
731.726	264.94
732.168	255.94
732.61	271.14
733.053	285.74
733.495	314.04
733.937	360.44
734.379	409.44
734.821	439.24
735.263	558.74
735.705	859.44
736.148	1631.64
736.59	2624.74
737.032	3036.34
737.474	2459.84
737.916	803.24
738.357	424.14
738.799	330.94
739.241	295.84
739.683	288.94
740.125	295.74
740.567	293.74
741.008	314.74
741.45	320.24
741.892	316.44
742.334	354.54
742.775	366.24
743.217	337.54
743.658	265.94
744.1	254.64
744.542	267.34
744.983	311.14
745.425	337.44
745.866	345.64
746.307	293.84
746.749	285.64
747.19	329.14
747.632	467.84
748.073	913.24
748.514	1920.54
748.956	2883.44
749.397	3613.84
749.838	2984.34
750.279	2941.34
750.72	1492.14
751.162	544.14
751.603	326.04
752.044	259.04
752.485	219.14
752.926	212.44
753.367	198.34
753.808	194.44
754.249	191.64
754.69	188.34
755.131	179.14
755.572	179.94
756.013	178.54
756.453	187.04
756.894	190.34
757.335	190.14
757.776	195.44
758.216	196.84
758.657	201.74
759.098	201.44
759.538	231.74
759.979	271.34
760.42	378.94
760.86	724.74
761.301	1905.54
761.741	4525.94
762.182	6370.54
762.622	4470.94
763.063	1316.54
763.503	543.04
763.943	347.24
764.384	352.84
764.824	409.44
765.264	433.64
765.705	305.44
766.145	208.94
766.585	192.14
767.025	185.64
767.465	189.24
767.906	252.94
768.346	317.14
768.786	337.34
769.226	263.04
769.666	330.64
770.106	639.84
770.546	1617.84
770.986	2650.24
771.426	2340.54
771.866	803.14
772.306	333.44
772.745	210.84
773.185	181.64
773.625	173.04
774.065	165.84
774.505	199.34
774.944	315.44
775.384	692.64
775.824	1213.34
776.263	1169.14
776.703	507.14
777.142	221.94
777.582	162.64
778.021	136.64
778.461	138.34
778.9	138.74
779.34	133.44
779.779	120.34
780.219	106.64
780.658	109.44
781.097	118.24
781.537	112.74
781.976	113.74
782.415	111.44
782.855	103.54
783.294	108.04
783.733	112.74
784.172	111.44
784.611	109.34
785.05	109.34
785.489	113.64
785.928	122.64
786.367	119.74
786.806	123.54
787.245	133.24
787.684	138.54
788.123	146.94
788.562	133.34
789.001	124.64
789.44	123.34
789.879	114.34
790.317	118.94
790.756	126.94
791.195	127.44
791.634	150.34
792.072	211.64
792.511	377.94
792.95	1049.14
793.388	2156.54
793.827	1908.94
794.265	679.44
794.704	282.94
795.142	179.54
795.581	151.04
796.019	134.24
796.458	127.14
796.896	120.74
797.334	138.24
797.773	154.24
798.211	223.64
798.649	462.64
799.087	1041.24
799.526	1618.94
799.964	2032.94
800.402	1988.34
800.84	762.84
801.278	302.34
801.716	183.04
802.154	150.74
802.592	145.84
803.03	133.44
803.468	127.64
803.906	147.54
804.344	152.74
804.782	140.94
805.22	136.44
805.658	132.54
806.096	149.14
806.533	161.74
806.971	170.24
807.409	224.54
807.847	320.84
808.284	689.84
808.722	1917.64
809.16	3281.64
809.597	3173.04
810.035	5474.84
810.472	5684.74
810.91	2069.44
811.347	789.44
811.785	411.24
812.222	254.24
812.66	195.14
813.097	165.74
813.535	149.04
813.972	131.24
814.409	121.34
814.846	101.14
815.284	103.14
815.721	103.74
816.158	102.44
816.595	123.44
817.032	181.84
817.47	194.84
817.907	163.84
818.344	153.84
818.781	116.24
819.218	95.24
819.655	128.54
820.092	187.04
820.529	209.74
820.966	177.54
821.403	125.04
821.839	111.14
822.276	93.14
822.713	115.64
823.15	138.04
823.587	124.64
824.023	149.94
824.46	313.34
824.897	918.74
825.333	1349.34
825.77	573.24
826.206	228.84
826.643	134.24
827.08	97.24
827.516	87.64
827.953	78.64
828.389	84.44
828.825	75.84
829.262	71.04
829.698	68.94
830.135	66.74
830.571	61.54
831.007	69.94
831.443	65.74
831.88	58.04
832.316	61.34
832.752	67.14
833.188	63.04
833.624	56.44
834.06	64.54
834.497	68.24
834.933	71.64
835.369	77.74
835.805	67.84
836.241	74.24
836.677	75.44
837.112	83.74
837.548	105.04
837.984	131.84
838.42	201.74
838.856	524.94
839.292	1561.84
839.727	2285.84
840.163	1069.14
840.599	954.54
841.034	2056.04
841.47	2106.74
841.906	778.14
842.341	339.44
842.777	233.04
843.212	315.54
843.648	302.54
844.083	150.04
844.519	95.74
844.954	75.74
845.39	60.54
845.825	60.34
846.261	56.24
846.696	54.64
847.131	55.74
847.566	54.34
848.002	48.64
848.437	50.44
848.872	58.24
849.307	67.34
849.742	85.74
850.177	189.94
850.613	565.84
851.048	876.84
851.483	376.54
851.918	150.34
852.353	79.64
852.788	61.54
853.223	55.14
853.657	50.44
854.092	42.34
854.527	42.34
854.962	35.84
855.397	40.74
855.832	52.64
856.266	43.04
856.701	45.04
857.136	31.84
857.57	41.64
858.005	52.64
858.44	52.44
858.874	42.34
859.309	52.04
859.743	42.34
860.178	46.04
860.612	36.84
861.047	53.94
861.481	69.24
861.915	70.44
862.35	48.44
862.784	24.44
863.218	39.54
863.653	30.84
864.087	43.84
864.521	54.84
864.955	65.74
865.39	163.54
865.824	175.24
866.258	113.54
866.692	171.34
867.126	170.74
867.56	101.44
867.994	53.74
868.428	36.54
868.862	41.74
869.296	54.84
869.73	56.94
870.164	50.64
870.598	43.64
871.031	38.24
871.465	30.54
871.899	31.34
872.333	23.44
872.766	25.94
873.2	24.44
873.634	24.74
874.067	20.54
874.501	24.14
874.935	34.84
875.368	29.04
875.802	27.24
876.235	22.64
876.669	29.84
877.102	24.44
877.535	28.24
877.969	22.74
878.402	26.94
878.836	16.34
879.269	20.74
879.702	22.84
880.135	23.94
880.569	23.44
881.002	24.84
881.435	16.54
881.868	14.74
882.301	23.34
882.734	12.64
883.167	22.34
883.601	17.64
884.034	19.74
884.467	17.24
884.899	19.24
885.332	18.84
885.765	15.24
886.198	18.74
886.631	20.84
887.064	17.44
887.497	18.44
887.929	28.74
888.362	14.84
888.795	14.54
889.228	18.14
889.66	20.64
890.093	14.74
890.526	17.14
890.958	17.44
891.391	19.54
891.823	22.14
892.256	19.04
892.688	12.04
893.121	16.34
893.553	11.64
893.985	15.04
894.418	17.74
894.85	10.84
895.282	15.54
895.715	10.34
896.147	16.44
896.579	7.74
897.011	14.24
897.444	14.44
897.876	15.24
898.308	18.14
898.74	13.24
899.172	8.44
899.604	21.54
900.036	19.94
900.468	14.64
900.9	13.04
901.332	20.54
901.764	15.44
902.196	23.04
902.628	15.04
903.06	19.34
903.491	31.34
903.923	19.64
904.355	15.54
904.787	19.14
905.218	22.34
905.65	18.74
906.082	8.44
906.513	11.44
906.945	14.94
907.376	15.84
907.808	16.64
908.239	21.34
908.671	19.54
909.102	21.24
909.534	25.54
909.965	50.64
910.397	96.34
910.828	324.64
911.259	473.14
911.691	211.64
912.122	105.34
912.553	50.24
912.984	40.84
913.415	27.94
913.847	22.74
914.278	16.34
914.709	13.94
915.14	13.84
915.571	12.94
916.002	3.94
916.433	16.94
916.864	15.04
917.295	12.94
917.726	25.34
918.157	15.74
918.587	29.74
919.018	25.14
919.449	18.34
919.88	22.14
920.311	27.44
920.741	52.44
921.172	169.04
921.603	149.94
922.033	71.44
922.464	50.94
922.895	22.54
923.325	18.74
923.756	21.44
924.186	13.34
924.617	24.04
925.047	41.64
925.478	56.44
925.908	45.34
926.338	24.44
926.769	22.24
927.199	15.94
927.629	4.44
928.06	18.44
928.49	9.74
928.92	12.64
929.35	11.24
929.78	8.24
930.21	4.34
930.641	6.54
931.071	7.54
931.501	6.64
931.931	6.74
932.361	10.04
932.791	7.34
933.221	7.64
933.651	3.74
934.08	17.04
934.51	25.84
934.94	5.14
935.37	9.34
935.8	9.24
936.229	7.74
936.659	8.94
937.089	8.64
937.519	10.74
937.948	19.44
938.378	13.54
938.807	0.64
939.237	5.84
939.666	1.14
940.096	-4.66
940.525	4.94
940.955	0.34
941.384	3.14
941.814	-7.96
942.243	-4.66
942.672	5.54
943.102	1.04
943.531	-0.36
943.96	-0.76
944.39	6.24
944.819	-1.66
945.248	1.24
945.677	0.24
946.106	3.54
946.535	7.14
946.964	3.84
947.393	5.24
947.822	-1.16
948.251	-5.66
948.68	3.44
949.109	6.04
949.538	-0.36
949.967	2.34
950.396	-6.36
950.825	-3.06
951.254	2.44
951.682	-11.26
952.111	4.54
952.54	-1.96
952.969	-8.26
953.397	-6.86
953.826	2.44
954.254	-8.16
954.683	0.44
955.112	-5.56
955.54	-2.06
955.969	2.54
956.397	3.44
956.826	2.74
957.254	1.94
957.682	1.84
958.111	6.24
958.539	1.94
958.967	-0.96
959.396	-4.46
959.824	0.54
960.252	0.34
960.68	-8.16
961.109	-2.16
961.537	-6.16
961.965	0.84
962.393	-6.56
962.821	-5.66
963.249	0.74
963.677	5.44
964.105	1.44
964.533	42.94
964.961	39.84
965.389	12.74
965.817	4.34
966.245	-1.66
966.672	1.74
967.1	-10.86
967.528	1.04
967.956	-5.26
968.383	-6.16
968.811	-3.46
969.239	-8.56
969.666	-8.36
970.094	-0.36
970.522	-5.16
970.949	-1.96
971.377	-2.36
971.804	-0.46
972.232	-4.36
972.659	-1.86
973.087	-1.56
973.514	-5.36
973.941	-5.26
974.369	-1.26
974.796	-0.46
975.223	0.34
975.651	-6.56
976.078	-3.86
976.505	0.94
976.932	-0.26
977.359	17.34
977.786	14.44
978.214	-1.56
978.641	-5.56
979.068	-2.06
979.495	-3.46
979.922	1.14
980.349	-7.36
980.776	2.04
981.202	-6.56
981.629	1.74
982.056	-1.66
982.483	-2.46
982.91	6.84
983.337	-5.96
983.763	5.84
984.19	-2.06
984.617	-1.86
985.043	-6.36
985.47	-4.06
985.897	-5.16
986.323	-12.36
986.75	-1.96
987.176	-3.96
987.603	0.64
988.029	0.24
988.456	-7.56
988.882	2.44
989.308	-11.56
989.735	-5.06
990.161	3.94
990.587	-3.26
991.014	-1.86
991.44	2.94
991.866	-0.76
992.292	-3.46
992.719	-1.36
993.145	1.44
993.571	-9.96
993.997	-6.56
994.423	-1.26
994.849	-8.36
995.275	4.94
995.701	-1.06
996.127	-2.56
996.553	1.24
996.979	-2.16
997.405	-3.36
997.83	-3.06
998.256	-3.26
998.682	-3.56
999.108	-8.86
999.534	1.54
999.959	-2.16
1000.385	-2.66
1000.811	1.44
1001.236	-8.46
1001.662	-7.86
1002.087	-7.46
1002.513	0.14
1002.938	5.24
1003.364	-9.86
1003.789	-2.76
1004.215	8.44
1004.64	-4.56
1005.066	3.24
1005.491	-0.76
1005.916	-7.76
1006.342	0.84
1006.767	-7.96
1007.192	4.64
1007.617	-4.76
1008.042	-5.46
1008.468	-8.06
1008.893	-6.96
1009.318	0.94
1009.743	-6.26
1010.168	-2.76
1010.593	2.24
1011.018	-5.76
1011.443	-2.16
1011.868	-1.36
1012.293	-5.06
1012.718	-7.46
1013.143	-1.26
1013.567	-1.46
1013.992	0.74
1014.417	-9.96
1014.842	0.64
1015.267	-7.76
1015.691	-4.56
1016.116	7.24
1016.541	-0.26
1016.965	3.84
1017.39	1.14
1017.814	0.44
1018.239	0.14
1018.663	-10.56
1019.088	-10.06
1019.512	3.04
1019.937	-2.86
1020.361	-4.26
1020.785	-6.96
1021.21	-2.26
1021.634	-4.86
1022.058	-0.96
1022.483	8.14
1022.907	-4.56
1023.331	-5.86
1023.755	-5.56
1024.179	-5.26
1024.604	-8.16
1025.028	-5.86
1025.452	-6.46
1025.876	1.34
1026.3	1.74
1026.724	-8.06
1027.148	-1.86
1027.572	-9.66
1027.996	-4.46
1028.42	-6.76
1028.843	-4.46
1029.267	-3.46
1029.691	-1.86
1030.115	-6.56
1030.539	-8.36
1030.962	-4.66
1031.386	-12.06
1031.81	-1.76
1032.233	-2.46
1032.657	-0.06
1033.08	-2.46
1033.504	-3.86
1033.927	-4.76
1034.351	-1.86
1034.774	-7.56
1035.198	-2.26
1035.621	-6.06
1036.045	-9.36
1036.468	-1.46
1036.891	-6.06
1037.315	-6.06
1037.738	-5.56
1038.161	-0.66
1038.584	-4.16
1039.008	-3.06
1039.431	-3.86
1039.854	0.44
1040.277	-8.86
1040.7	-15.46
1041.123	-8.86
1041.546	-10.76
1041.969	-1.76
1042.392	-4.06
1042.815	-4.36
1043.238	-0.06
1043.661	-0.56
1044.084	-3.56
1044.507	-2.16
1044.93	-1.56
1045.352	-10.06
1045.775	-3.86
1046.198	-5.76
1046.621	-6.36
1047.043	2.04
1047.466	3.34
1047.889	-8.06
1048.311	-2.76
1048.734	0.04
1049.156	-4.16
1049.579	-2.46
1050.001	-0.16
1050.424	5.94
1050.846	-6.76
1051.269	-12.26
1051.691	-7.46
1052.113	-3.66
1052.536	-0.46
1052.958	-1.46
1053.38	-10.06
1053.802	-13.16
1054.225	-1.56
1054.647	-12.16
1055.069	-3.76
1055.491	-5.16
1055.913	-7.96
1056.335	-3.46
1056.757	-1.16
1057.179	-8.26
1057.601	-7.66
1058.023	-8.46
1058.445	-10.26
1058.867	-3.46
1059.289	-2.56
1059.711	-11.96
1060.133	-2.86
1060.555	-5.26
1060.976	-8.46
1061.398	-10.16
1061.82	-3.66
1062.241	-4.36
1062.663	-8.16
1063.085	-0.66
1063.506	-3.96
1063.928	-7.96
1064.35	-3.46
1064.771	-6.16
1065.193	-3.46
1065.614	-5.86
1066.035	-5.46
1066.457	-4.56
1066.878	-0.06
1067.3	-3.56
1067.721	-4.36
1068.142	-6.66
1068.564	-6.36
1068.985	-7.16
1069.406	-3.56
1069.827	-2.96
1070.248	-10.96
1070.67	-9.06
1071.091	-8.76
1071.512	-7.66
1071.933	-9.26
1072.354	-11.16
1072.775	-7.16
1073.196	-7.06
1073.617	-2.36
1074.038	-10.06
1074.459	-2.66
1074.88	-12.66
1075.3	-2.36
1075.721	-8.26
1076.142	2.84
1076.563	-4.06
1076.983	-12.46
1077.404	-8.26
1077.825	-8.76
1078.246	-4.26
1078.666	-14.26
1079.087	-7.86
1079.507	-9.56
1079.928	-0.96
1080.348	-0.66
1080.769	-14.06
1081.189	-6.16
1081.61	-5.16
1082.03	-8.56
1082.451	-8.76
1082.871	-7.06
1083.291	-8.46
1083.711	-12.76
1084.132	-5.86
1084.552	-3.46
1084.972	-2.46
1085.392	-17.56
1085.813	-14.36
1086.233	-10.86
1086.653	-6.96
1087.073	-6.46
1087.493	-9.96
1087.913	-5.66
1088.333	-7.16
1088.753	-2.06
1089.173	1.94
1089.593	-5.96
1090.013	0.94
1090.433	-2.96
1090.852	-7.36
1091.272	-11.76
1091.692	-5.16
1092.112	-4.56
1092.531	-4.46
1092.951	-11.86
1093.371	-6.56
1093.79	-5.96
1094.21	-11.56
1094.63	-4.86
1095.049	-8.16
1095.469	-8.16
1095.888	-1.96
1096.308	-0.26
1096.727	1.64
1097.146	-7.36
1097.566	-3.66
1097.985	-4.86
1098.405	-3.36
1098.824	-5.66
1099.243	-6.36
1099.662	-9.36
1100.082	-4.96
1100.501	-3.56
1100.92	-2.86
1101.339	-7.76
1101.758	-7.56
