Data from 20171114-ORNL-Ar_H_NY_Subt18_08-03-59-878.txt Node
Date: Tue Nov 14 08:03:59 EST 2017
User: Ender
Spectrometer: HR+D1039
Trigger mode: 0
Integration Time (sec): 2.730000E-2
Scans to average: 10
Electric dark correction enabled: true
Nonlinearity correction enabled: false
Boxcar width: 0
XAxis mode: Wavelengths
Number of Pixels in Spectrum: 2048
>>>>>Begin Spectral Data<<<<<
187.836	2.32
188.309	2.32
188.782	2.32
189.255	-3.58
189.728	-3.58
190.201	4.92
190.674	0.22
191.147	6.02
191.619	-5.38
192.092	4.32
192.565	6.42
193.038	-2.38
193.511	-6.28
193.984	1.92
194.456	-4.38
194.929	-0.18
195.402	1.42
195.874	-1.88
196.347	-4.38
196.82	-7.08
197.292	5.02
197.765	-1.08
198.237	-9.68
198.71	-5.18
199.182	-0.38
199.655	2.72
200.127	2.32
200.6	-4.28
201.072	-8.38
201.544	-5.18
202.017	-2.58
202.489	1.42
202.961	-0.88
203.433	-2.28
203.906	-3.68
204.378	-5.18
204.85	-3.28
205.322	-6.98
205.794	-3.18
206.266	-6.68
206.739	-6.48
207.211	-0.68
207.683	-9.08
208.155	-5.18
208.627	-8.08
209.099	-0.88
209.57	-12.78
210.042	-1.68
210.514	-4.08
210.986	-1.38
211.458	-14.28
211.93	-4.88
212.402	0.82
212.873	-3.38
213.345	-7.68
213.817	-11.58
214.288	-4.18
214.76	-14.98
215.232	-1.58
215.703	-4.28
216.175	-10.88
216.646	-9.18
217.118	-14.38
217.589	-7.48
218.061	-4.38
218.532	-4.48
219.004	-2.48
219.475	-9.48
219.946	-4.08
220.418	-3.28
220.889	-1.48
221.36	-0.68
221.832	-8.58
222.303	-5.48
222.774	-3.58
223.245	-7.08
223.717	-5.98
224.188	-9.68
224.659	-5.78
225.13	-10.38
225.601	-5.48
226.072	7.12
226.543	-6.88
227.014	-6.68
227.485	-0.38
227.956	-10.08
228.427	-4.48
228.898	0.22
229.369	0.92
229.839	-2.38
230.31	-4.88
230.781	-1.28
231.252	-6.68
231.722	-9.38
232.193	-6.28
232.664	-3.28
233.135	1.22
233.605	-8.68
234.076	-9.98
234.546	-0.28
235.017	5.62
235.487	1.12
235.958	-5.38
236.428	0.12
236.899	0.02
237.369	-0.18
237.84	-9.38
238.31	0.12
238.78	-2.28
239.251	-9.58
239.721	-2.48
240.191	-5.18
240.662	-1.28
241.132	-3.08
241.602	-6.58
242.072	-4.58
242.542	6.02
243.013	1.72
243.483	0.72
243.953	0.02
244.423	-7.48
244.893	-4.98
245.363	-3.48
245.833	-2.18
246.303	-4.28
246.773	1.62
247.243	-2.08
247.712	0.62
248.182	2.02
248.652	4.92
249.122	-6.28
249.592	3.02
250.061	8.32
250.531	11.52
251.001	3.22
251.471	6.92
251.94	14.12
252.41	1.72
252.879	-8.08
253.349	8.02
253.818	3.02
254.288	-2.88
254.757	-4.38
255.227	-0.68
255.696	-2.68
256.166	3.72
256.635	-3.88
257.105	-0.18
257.574	-0.38
258.043	-1.78
258.513	2.62
258.982	5.32
259.451	0.42
259.92	2.22
260.389	2.72
260.859	4.22
261.328	2.42
261.797	9.62
262.266	0.02
262.735	8.42
263.204	-1.28
263.673	-5.18
264.142	2.12
264.611	-5.58
265.08	-6.58
265.549	-5.78
266.018	5.12
266.487	-12.98
266.955	-5.08
267.424	-6.18
267.893	1.52
268.362	-4.98
268.83	3.22
269.299	-2.48
269.768	1.32
270.236	0.22
270.705	-8.78
271.174	0.52
271.642	1.82
272.111	0.82
272.579	2.92
273.048	12.02
273.516	6.92
273.985	12.12
274.453	11.12
274.922	8.02
275.39	1.32
275.858	2.52
276.327	8.92
276.795	9.22
277.263	3.42
277.731	12.32
278.2	29.62
278.668	30.12
279.136	23.22
279.604	5.52
280.072	-0.78
280.54	4.92
281.008	3.32
281.477	3.02
281.945	6.42
282.413	11.52
282.881	2.82
283.348	2.92
283.816	10.52
284.284	11.92
284.752	17.32
285.22	2.92
285.688	10.62
286.156	5.32
286.623	18.72
287.091	22.52
287.559	12.62
288.026	10.32
288.494	9.42
288.962	3.42
289.429	2.22
289.897	13.02
290.364	6.22
290.832	11.62
291.3	9.22
291.767	10.92
292.234	13.62
292.702	3.42
293.169	10.02
293.637	12.12
294.104	9.22
294.571	5.02
295.039	5.62
295.506	6.82
295.973	11.82
296.44	4.02
296.908	9.82
297.375	9.32
297.842	14.42
298.309	7.52
298.776	5.42
299.243	15.12
299.71	3.42
300.177	8.02
300.644	10.62
301.111	8.52
301.578	13.62
302.045	3.32
302.512	14.72
302.979	15.32
303.446	12.12
303.913	4.72
304.379	10.32
304.846	17.82
305.313	13.42
305.78	12.62
306.246	16.82
306.713	11.42
307.18	19.82
307.646	21.72
308.113	16.72
308.579	11.72
309.046	18.32
309.512	16.32
309.979	10.72
310.445	19.02
310.912	14.22
311.378	22.82
311.845	20.72
312.311	19.62
312.777	23.22
313.244	19.12
313.71	27.62
314.176	22.92
314.642	21.12
315.109	21.22
315.575	20.92
316.041	27.32
316.507	19.32
316.973	24.22
317.439	17.52
317.905	24.22
318.371	30.22
318.837	18.42
319.303	24.92
319.769	21.72
320.235	22.12
320.701	17.22
321.167	27.92
321.633	18.12
322.099	21.42
322.564	30.52
323.03	25.52
323.496	24.22
323.962	21.52
324.427	21.42
324.893	27.62
325.359	32.82
325.824	27.52
326.29	23.72
326.755	29.42
327.221	30.32
327.686	28.42
328.152	30.62
328.617	34.32
329.083	34.52
329.548	41.72
330.014	29.62
330.479	28.52
330.944	31.22
331.41	27.02
331.875	34.42
332.34	31.82
332.805	27.02
333.271	31.02
333.736	34.02
334.201	35.42
334.666	38.42
335.131	40.32
335.596	36.42
336.061	36.42
336.526	22.82
336.991	42.72
337.456	40.12
337.921	42.02
338.386	28.02
338.851	33.42
339.316	34.22
339.781	39.42
340.246	44.02
340.711	37.42
341.175	37.92
341.64	34.22
342.105	41.32
342.569	43.92
343.034	46.72
343.499	37.72
343.963	36.72
344.428	50.22
344.893	45.72
345.357	53.92
345.822	47.02
346.286	52.32
346.751	58.62
347.215	52.92
347.679	54.32
348.144	68.92
348.608	62.32
349.073	49.92
349.537	59.02
350.001	59.62
350.465	66.92
350.93	59.42
351.394	60.72
351.858	57.32
352.322	66.22
352.786	61.82
353.25	78.22
353.715	81.72
354.179	75.52
354.643	84.92
355.107	84.62
355.571	76.02
356.035	77.72
356.498	87.62
356.962	87.12
357.426	97.02
357.89	80.22
358.354	69.42
358.818	69.42
359.281	66.62
359.745	62.32
360.209	58.52
360.673	61.42
361.136	62.52
361.6	64.72
362.064	63.52
362.527	68.62
362.991	76.52
363.454	65.62
363.918	57.82
364.381	66.02
364.845	69.62
365.308	71.22
365.772	76.12
366.235	70.52
366.698	77.92
367.162	65.32
367.625	71.12
368.088	67.82
368.552	68.92
369.015	73.82
369.478	83.22
369.941	85.82
370.404	71.22
370.867	87.42
371.331	87.42
371.794	89.42
372.257	95.52
372.72	92.22
373.183	92.22
373.646	90.02
374.109	85.82
374.572	86.82
375.035	85.62
375.497	88.42
375.96	84.62
376.423	87.62
376.886	91.42
377.349	97.72
377.811	94.42
378.274	91.22
378.737	88.72
379.199	97.22
379.662	94.02
380.125	101.92
380.587	94.42
381.05	94.82
381.512	110.82
381.975	111.92
382.437	113.32
382.9	105.12
383.362	115.42
383.825	113.42
384.287	112.62
384.75	111.02
385.212	116.12
385.674	117.42
386.136	110.82
386.599	107.22
387.061	112.32
387.523	107.72
387.985	114.12
388.447	121.72
388.91	120.62
389.372	127.82
389.834	123.72
390.296	122.22
390.758	131.42
391.22	132.52
391.682	161.62
392.144	216.12
392.606	175.12
393.068	139.72
393.529	147.72
393.991	133.12
394.453	122.72
394.915	129.82
395.377	155.52
395.838	170.32
396.3	137.62
396.762	123.42
397.224	118.32
397.685	115.52
398.147	113.02
398.608	120.02
399.07	111.32
399.531	127.12
399.993	123.42
400.454	134.12
400.916	128.42
401.377	126.62
401.839	132.72
402.3	134.42
402.762	136.12
403.223	158.52
403.684	154.52
404.145	149.12
404.607	137.42
405.068	152.42
405.529	151.02
405.99	158.02
406.451	152.42
406.913	152.82
407.374	150.22
407.835	138.42
408.296	149.82
408.757	147.12
409.218	165.52
409.679	157.92
410.14	162.12
410.601	159.02
411.062	160.62
411.522	168.62
411.983	169.52
412.444	158.02
412.905	164.52
413.366	163.12
413.826	177.62
414.287	198.72
414.748	239.52
415.208	230.42
415.669	191.12
416.13	186.42
416.59	182.52
417.051	192.12
417.511	195.32
417.972	214.22
418.432	226.42
418.893	268.82
419.353	236.62
419.814	185.92
420.274	162.72
420.734	165.12
421.195	178.02
421.655	175.52
422.115	172.12
422.576	167.22
423.036	186.52
423.496	188.52
423.956	199.22
424.416	202.22
424.876	240.12
425.336	236.62
425.797	241.02
426.257	227.42
426.717	209.92
427.177	208.82
427.637	202.92
428.097	217.82
428.556	216.72
429.016	239.62
429.476	236.92
429.936	245.62
430.396	248.12
430.856	250.52
431.315	276.42
431.775	296.12
432.235	328.02
432.694	310.52
433.154	315.02
433.614	327.92
434.073	292.22
434.533	253.72
434.993	238.52
435.452	245.92
435.912	248.62
436.371	241.82
436.83	236.12
437.29	236.12
437.749	215.62
438.209	208.92
438.668	233.32
439.127	239.82
439.587	230.52
440.046	211.72
440.505	229.82
440.964	229.22
441.424	261.42
441.883	243.82
442.342	226.82
442.801	202.82
443.26	198.32
443.719	198.02
444.178	198.22
444.637	193.42
445.096	198.52
445.555	203.32
446.014	203.82
446.473	204.62
446.932	207.22
447.391	199.02
447.849	203.92
448.308	201.92
448.767	194.92
449.226	213.22
449.685	213.52
450.143	230.92
450.602	213.62
451.061	200.62
451.519	217.82
451.978	211.72
452.436	207.62
452.895	215.22
453.353	219.42
453.812	215.92
454.27	214.42
454.729	221.12
455.187	212.72
455.646	217.92
456.104	216.72
456.562	223.12
457.021	221.52
457.479	224.62
457.937	234.22
458.395	229.12
458.854	217.92
459.312	220.62
459.77	234.02
460.228	217.32
460.686	219.62
461.144	231.02
461.602	221.72
462.06	219.62
462.518	223.42
462.976	233.82
463.434	225.52
463.892	231.32
464.35	244.82
464.808	254.82
465.266	229.92
465.724	243.32
466.181	245.52
466.639	234.62
467.097	262.22
467.555	271.82
468.012	272.22
468.47	277.12
468.928	293.52
469.385	300.42
469.843	307.82
470.3	298.92
470.758	313.42
471.215	322.22
471.673	345.52
472.13	345.32
472.588	359.12
473.045	323.12
473.503	333.42
473.96	344.02
474.417	352.22
474.875	383.12
475.332	410.82
475.789	395.02
476.246	410.52
476.704	425.22
477.161	443.82
477.618	454.02
478.075	488.52
478.532	531.62
478.989	579.62
479.446	664.52
479.903	660.82
480.36	702.82
480.817	743.22
481.274	829.82
481.731	925.22
482.188	995.02
482.645	1110.12
483.102	1198.92
483.558	1312.82
484.015	1372.72
484.472	1362.12
484.929	1310.92
485.385	1277.02
485.842	1245.02
486.299	1178.32
486.755	1103.42
487.212	953.12
487.668	825.32
488.125	740.02
488.582	696.52
489.038	669.02
489.494	622.02
489.951	595.72
490.407	593.02
490.864	570.02
491.32	565.62
491.776	556.42
492.233	557.52
492.689	533.52
493.145	527.12
493.602	525.02
494.058	536.82
494.514	533.42
494.97	541.42
495.426	551.72
495.882	540.72
496.338	527.52
496.794	533.42
497.251	528.72
497.707	535.02
498.163	540.72
498.618	542.92
499.074	548.62
499.53	567.32
499.986	576.22
500.442	544.22
500.898	544.62
501.354	532.82
501.809	548.12
502.265	545.52
502.721	559.62
503.177	557.02
503.632	570.92
504.088	568.22
504.543	598.12
504.999	593.32
505.455	565.32
505.91	535.02
506.366	537.72
506.821	543.22
507.277	551.82
507.732	546.42
508.187	545.82
508.643	545.22
509.098	543.62
509.553	561.52
510.009	576.52
510.464	572.72
510.919	592.42
511.375	596.32
511.83	597.72
512.285	608.32
512.74	652.72
513.195	651.62
513.65	655.82
514.105	659.02
514.56	648.52
515.015	667.02
515.47	678.92
515.925	670.82
516.38	664.72
516.835	686.22
517.29	673.12
517.745	674.22
518.2	650.22
518.655	640.92
519.109	629.92
519.564	628.22
520.019	618.72
520.474	621.32
520.928	619.12
521.383	611.42
521.838	605.82
522.292	606.12
522.747	603.02
523.201	602.92
523.656	596.62
524.11	582.72
524.565	583.72
525.019	581.22
525.474	592.52
525.928	590.02
526.382	583.82
526.837	587.52
527.291	594.82
527.745	585.42
528.2	585.32
528.654	581.92
529.108	575.52
529.562	575.42
530.016	586.42
530.47	579.92
530.925	576.42
531.379	578.92
531.833	586.02
532.287	583.42
532.741	585.72
533.195	580.22
533.649	596.02
534.103	593.32
534.556	587.62
535.01	595.82
535.464	588.42
535.918	604.12
536.372	590.82
536.826	588.72
537.279	584.22
537.733	589.72
538.187	588.52
538.64	591.12
539.094	607.62
539.548	604.72
540.001	595.32
540.455	602.72
540.908	598.92
541.362	607.52
541.815	619.92
542.269	627.22
542.722	621.72
543.175	640.12
543.629	637.12
544.082	643.72
544.536	642.92
544.989	651.72
545.442	654.32
545.895	652.22
546.349	654.82
546.802	650.42
547.255	655.32
547.708	651.52
548.161	667.02
548.614	681.32
549.067	681.92
549.52	684.32
549.973	657.42
550.426	666.82
550.879	646.92
551.332	641.62
551.785	652.72
552.238	656.02
552.691	669.42
553.144	677.82
553.596	683.92
554.049	693.02
554.502	725.22
554.955	729.32
555.407	734.42
555.86	724.82
556.313	717.12
556.765	712.92
557.218	709.82
557.67	707.02
558.123	703.22
558.576	710.32
559.028	705.42
559.48	711.52
559.933	708.32
560.385	674.32
560.838	658.92
561.29	633.02
561.742	627.52
562.195	613.62
562.647	620.52
563.099	622.32
563.551	625.42
564.004	626.32
564.456	623.82
564.908	606.22
565.36	594.02
565.812	587.22
566.264	572.72
566.716	574.52
567.168	560.22
567.62	564.82
568.072	551.02
568.524	551.02
568.976	536.32
569.428	536.22
569.88	535.52
570.332	539.02
570.784	547.22
571.235	527.92
571.687	560.32
572.139	554.82
572.59	561.52
573.042	562.52
573.494	548.52
573.945	554.72
574.397	538.12
574.849	546.52
575.3	536.32
575.752	535.02
576.203	529.52
576.655	535.82
577.106	520.92
577.557	524.72
578.009	526.72
578.46	516.62
578.912	516.52
579.363	509.72
579.814	519.42
580.265	508.22
580.717	514.42
581.168	511.42
581.619	528.42
582.07	529.82
582.521	513.42
582.972	514.52
583.423	519.22
583.875	521.32
584.326	531.02
584.777	566.72
585.227	624.12
585.678	670.52
586.129	726.22
586.58	769.02
587.031	825.52
587.482	930.02
587.933	1060.52
588.384	937.32
588.834	720.72
589.285	618.72
589.736	599.62
590.186	590.52
590.637	595.22
591.088	574.32
591.538	559.72
591.989	572.42
592.439	560.72
592.89	553.82
593.34	539.02
593.791	540.22
594.241	535.52
594.692	540.92
595.142	529.52
595.593	525.72
596.043	535.02
596.493	535.82
596.943	544.72
597.394	539.32
597.844	534.22
598.294	544.72
598.744	572.32
599.195	595.52
599.645	611.82
600.095	640.02
600.545	685.62
600.995	726.72
601.445	776.22
601.895	822.92
602.345	866.82
602.795	842.12
603.245	815.32
603.695	759.92
604.145	730.32
604.594	696.52
605.044	649.52
605.494	599.02
605.944	575.02
606.393	559.22
606.843	543.42
607.293	545.22
607.743	537.02
608.192	546.92
608.642	557.02
609.091	557.22
609.541	569.22
609.99	559.72
610.44	560.42
610.889	531.52
611.339	522.12
611.788	517.82
612.238	515.62
612.687	527.62
613.136	535.42
613.586	540.82
614.035	539.32
614.484	550.22
614.933	551.42
615.383	533.92
615.832	533.42
616.281	521.32
616.73	499.82
617.179	491.32
617.628	473.82
618.077	474.12
618.526	463.92
618.975	465.52
619.424	461.32
619.873	456.02
620.322	459.32
620.771	450.02
621.22	447.12
621.669	437.52
622.118	430.92
622.567	430.32
623.015	414.82
623.464	420.32
623.913	414.22
624.361	403.42
624.81	402.62
625.259	410.72
625.707	406.02
626.156	408.92
626.604	419.02
627.053	414.42
627.501	415.82
627.95	409.92
628.398	430.32
628.847	412.62
629.295	417.52
629.744	421.22
630.192	419.02
630.64	408.52
631.089	403.72
631.537	399.82
631.985	403.72
632.433	413.32
632.881	408.82
633.33	430.12
633.778	426.22
634.226	393.12
634.674	399.32
635.122	410.52
635.57	412.92
636.018	431.62
636.466	420.32
636.914	395.62
637.362	412.92
637.81	419.32
638.258	424.22
638.705	409.22
639.153	439.32
639.601	455.62
640.049	463.92
640.497	492.22
640.944	510.22
641.392	459.92
641.84	446.32
642.287	426.42
642.735	401.12
643.182	417.02
643.63	409.02
644.078	414.32
644.525	417.42
644.973	419.42
645.42	430.42
645.867	445.52
646.315	459.62
646.762	469.02
647.21	500.92
647.657	504.12
648.104	535.12
648.551	545.72
648.999	592.42
649.446	655.82
649.893	699.72
650.34	808.12
650.787	959.12
651.234	1194.42
651.682	1536.42
652.129	2086.42
652.576	2977.12
653.023	4401.82
653.47	6121.62
653.917	7750.12
654.363	9155.13
654.81	10403.43
655.257	9906.73
655.704	6428.82
656.151	3748.52
656.598	2443.92
657.044	1719.32
657.491	1323.72
657.938	1054.32
658.385	875.62
658.831	762.22
659.278	687.82
659.724	596.62
660.171	561.92
660.618	512.62
661.064	479.42
661.511	464.72
661.957	444.62
662.404	441.72
662.85	445.42
663.296	430.82
663.743	398.42
664.189	389.22
664.635	372.82
665.082	370.62
665.528	368.92
665.974	364.02
666.42	357.52
666.867	353.62
667.313	338.72
667.759	333.42
668.205	333.22
668.651	337.82
669.097	331.32
669.543	331.12
669.989	317.42
670.435	321.32
670.881	315.22
671.327	311.72
671.773	330.02
672.219	350.02
672.665	387.02
673.11	414.52
673.556	450.22
674.002	481.12
674.448	471.02
674.893	394.82
675.339	345.22
675.785	311.42
676.23	299.22
676.676	269.62
677.122	272.62
677.567	265.12
678.013	258.42
678.458	250.02
678.904	250.92
679.349	239.82
679.794	243.12
680.24	255.22
680.685	240.22
681.131	249.42
681.576	243.82
682.021	245.72
682.466	243.42
682.912	243.92
683.357	239.12
683.802	265.62
684.247	280.02
684.692	310.82
685.137	339.22
685.583	382.42
686.028	397.42
686.473	373.02
686.918	309.82
687.363	288.52
687.807	272.42
688.252	256.52
688.697	251.52
689.142	227.72
689.587	234.02
690.032	225.82
690.477	241.52
690.921	244.12
691.366	270.22
691.811	274.92
692.255	309.82
692.7	315.72
693.145	343.92
693.589	469.72
694.034	768.32
694.478	1076.33
694.923	1263.72
695.367	1688.02
695.812	882.92
696.256	353.12
696.701	259.62
697.145	245.72
697.59	230.92
698.034	223.42
698.478	234.52
698.922	224.22
699.367	231.62
699.811	234.72
700.255	253.02
700.699	266.12
701.143	291.92
701.588	326.82
702.032	369.92
702.476	364.62
702.92	347.62
703.364	337.62
703.808	433.12
704.252	699.82
704.696	1011.62
705.14	1206.22
705.584	1577.82
706.027	773.72
706.471	371.82
706.915	271.12
707.359	250.22
707.803	221.22
708.246	216.52
708.69	219.82
709.134	230.02
709.577	213.42
710.021	222.22
710.465	211.92
710.908	211.02
711.352	209.42
711.795	214.92
712.239	242.52
712.682	263.32
713.126	286.72
713.569	325.92
714.012	257.92
714.456	218.82
714.899	210.62
715.342	190.12
715.786	185.42
716.229	181.62
716.672	177.72
717.115	172.92
717.558	172.22
718.002	184.72
718.445	176.52
718.888	200.92
719.331	201.92
719.774	215.42
720.217	215.92
720.66	195.52
721.103	187.22
721.546	176.02
721.989	176.62
722.432	151.82
722.874	166.72
723.317	154.42
723.76	163.22
724.203	172.82
724.645	208.92
725.088	301.22
725.531	399.82
725.974	467.32
726.416	391.22
726.859	213.32
727.301	168.32
727.744	167.52
728.187	164.92
728.629	173.92
729.071	160.12
729.514	174.52
729.956	183.72
730.399	198.02
730.841	197.32
731.283	187.92
731.726	187.82
732.168	174.52
732.61	186.42
733.053	198.02
733.495	215.62
733.937	249.22
734.379	274.02
734.821	300.52
735.263	366.92
735.705	563.82
736.148	1060.62
736.59	1814.82
737.032	2268.82
737.474	1841.32
737.916	577.62
738.357	293.92
738.799	227.92
739.241	205.82
739.683	198.92
740.125	197.22
740.567	210.82
741.008	223.92
741.45	220.92
741.892	209.92
742.334	244.82
742.775	255.02
743.217	240.52
743.658	190.52
744.1	181.82
744.542	183.42
744.983	220.52
745.425	253.12
745.866	250.92
746.307	191.42
746.749	194.12
747.19	221.52
747.632	313.82
748.073	585.72
748.514	1270.12
748.956	2046.92
749.397	2562.92
749.838	2123.12
750.279	2217.82
750.72	1095.32
751.162	386.82
751.603	225.52
752.044	175.02
752.485	151.32
752.926	143.32
753.367	135.22
753.808	135.12
754.249	133.12
754.69	136.32
755.131	124.82
755.572	123.82
756.013	117.82
756.453	128.82
756.894	120.82
757.335	123.62
757.776	139.72
758.216	134.82
758.657	137.32
759.098	131.82
759.538	157.72
759.979	179.12
760.42	257.02
760.86	474.12
761.301	1230.92
761.741	3104.32
762.182	4886.52
762.622	3458.72
763.063	972.02
763.503	388.22
763.943	232.32
764.384	226.92
764.824	253.12
765.264	274.62
765.705	201.32
766.145	135.52
766.585	131.92
767.025	120.12
767.465	123.42
767.906	152.92
768.346	205.62
768.786	218.52
769.226	167.12
769.666	211.32
770.106	406.82
770.546	1052.03
770.986	1939.12
771.426	1761.42
771.866	575.62
772.306	233.02
772.745	141.72
773.185	118.32
773.625	119.72
774.065	106.42
774.505	131.92
774.944	190.82
775.384	391.42
775.824	749.92
776.263	760.92
776.703	323.32
777.142	144.22
777.582	101.82
778.021	87.02
778.461	88.82
778.9	95.72
779.34	90.52
779.779	77.02
780.219	70.02
780.658	70.82
781.097	72.12
781.537	77.82
781.976	66.82
782.415	74.52
782.855	66.22
783.294	70.02
783.733	64.02
784.172	75.52
784.611	65.62
785.05	75.02
785.489	73.72
785.928	79.42
786.367	76.22
786.806	73.32
787.245	87.72
787.684	88.62
788.123	107.32
788.562	82.52
789.001	86.42
789.44	81.62
789.879	83.02
790.317	77.32
790.756	83.22
791.195	84.32
791.634	96.02
792.072	135.12
792.511	246.82
792.95	673.52
793.388	1534.72
793.827	1472.92
794.265	489.02
794.704	194.92
795.142	129.72
795.581	97.92
796.019	92.02
796.458	85.82
796.896	83.82
797.334	87.32
797.773	100.92
798.211	146.82
798.649	289.02
799.087	701.12
799.526	1133.92
799.964	1437.92
800.402	1514.12
800.84	560.92
801.278	210.82
801.716	129.52
802.154	105.62
802.592	97.22
803.03	93.12
803.468	91.42
803.906	100.22
804.344	99.72
804.782	98.32
805.22	86.62
805.658	92.52
806.096	104.42
806.533	111.62
806.971	118.92
807.409	147.62
807.847	212.42
808.284	446.62
808.722	1303.92
809.16	2444.72
809.597	2243.72
810.035	3991.32
810.472	4565.93
810.91	1594.72
811.347	586.02
811.785	293.02
812.222	184.72
812.66	143.72
813.097	115.72
813.535	102.82
813.972	93.32
814.409	80.02
814.846	72.32
815.284	75.22
815.721	68.62
816.158	71.32
816.595	76.02
817.032	109.12
817.47	140.42
817.907	110.02
818.344	93.22
818.781	74.62
819.218	69.02
819.655	82.12
820.092	138.52
820.529	160.12
820.966	126.62
821.403	103.12
821.839	73.62
822.276	64.42
822.713	81.62
823.15	93.02
823.587	75.62
824.023	95.72
824.46	194.62
824.897	624.12
825.333	1013.52
825.77	423.42
826.206	163.62
826.643	92.42
827.08	67.02
827.516	59.22
827.953	49.42
828.389	61.62
828.825	47.42
829.262	43.22
829.698	44.72
830.135	44.72
830.571	38.92
831.007	42.02
831.443	40.22
831.88	43.72
832.316	42.42
832.752	43.82
833.188	45.92
833.624	40.72
834.06	43.02
834.497	38.12
834.933	45.82
835.369	51.12
835.805	47.62
836.241	57.02
836.677	52.12
837.112	57.92
837.548	65.42
837.984	92.22
838.42	135.12
838.856	339.42
839.292	1078.82
839.727	1756.82
840.163	794.42
840.599	656.32
841.034	1499.52
841.47	1647.52
841.906	588.12
842.341	234.32
842.777	161.72
843.212	198.02
843.648	200.22
844.083	99.82
844.519	58.82
844.954	57.72
845.39	35.72
845.825	40.62
846.261	39.12
846.696	30.42
847.131	35.42
847.566	45.92
848.002	31.02
848.437	35.32
848.872	38.32
849.307	42.52
849.742	57.32
850.177	120.02
850.613	393.22
851.048	651.32
851.483	274.32
851.918	109.22
852.353	59.32
852.788	36.72
853.223	31.22
853.657	39.62
854.092	30.52
854.527	30.82
854.962	27.12
855.397	34.72
855.832	27.72
856.266	27.72
856.701	29.42
857.136	23.02
857.57	26.12
858.005	28.32
858.44	46.62
858.874	28.02
859.309	39.42
859.743	23.42
860.178	29.92
860.612	22.32
861.047	36.22
861.481	50.02
861.915	53.72
862.35	36.02
862.784	19.52
863.218	25.82
863.653	19.72
864.087	28.02
864.521	36.82
864.955	39.62
865.39	103.92
865.824	125.62
866.258	80.02
866.692	119.92
867.126	146.42
867.56	79.72
867.994	40.42
868.428	28.82
868.862	33.72
869.296	40.22
869.73	41.82
870.164	41.52
870.598	35.22
871.031	26.72
871.465	18.32
871.899	15.82
872.333	13.02
872.766	19.42
873.2	11.62
873.634	23.32
874.067	16.52
874.501	10.82
874.935	19.52
875.368	20.02
875.802	21.02
876.235	14.32
876.669	15.92
877.102	8.22
877.535	17.12
877.969	15.32
878.402	14.92
878.836	13.12
879.269	14.02
879.702	19.02
880.135	8.12
880.569	14.62
881.002	15.52
881.435	14.32
881.868	8.22
882.301	6.32
882.734	9.52
883.167	17.62
883.601	6.02
884.034	15.52
884.467	5.52
884.899	13.32
885.332	11.72
885.765	6.92
886.198	12.92
886.631	7.32
887.064	3.82
887.497	13.32
887.929	15.42
888.362	7.12
888.795	6.52
889.228	9.32
889.66	10.32
890.093	11.12
890.526	8.52
890.958	8.82
891.391	12.42
891.823	16.82
892.256	13.32
892.688	1.42
893.121	13.22
893.553	9.72
893.985	11.72
894.418	13.92
894.85	5.22
895.282	8.52
895.715	10.92
896.147	9.52
896.579	9.12
897.011	7.42
897.444	11.02
897.876	7.92
898.308	14.32
898.74	10.52
899.172	7.12
899.604	15.02
900.036	9.12
900.468	8.02
900.9	9.52
901.332	13.32
901.764	5.12
902.196	14.42
902.628	10.12
903.06	12.72
903.491	19.62
903.923	16.62
904.355	15.82
904.787	15.52
905.218	16.32
905.65	7.62
906.082	-0.78
906.513	-0.18
906.945	8.82
907.376	-1.28
907.808	16.42
908.239	12.42
908.671	10.62
909.102	15.42
909.534	17.62
909.965	32.52
910.397	65.52
910.828	238.02
911.259	363.32
911.691	166.62
912.122	77.02
912.553	38.52
912.984	24.92
913.415	18.02
913.847	18.82
914.278	8.52
914.709	6.72
915.14	11.02
915.571	5.32
916.002	11.12
916.433	11.22
916.864	7.62
917.295	6.52
917.726	15.12
918.157	8.62
918.587	24.42
919.018	11.52
919.449	15.62
919.88	20.42
920.311	27.92
920.741	29.32
921.172	114.82
921.603	108.22
922.033	53.42
922.464	32.92
922.895	17.12
923.325	17.42
923.756	5.12
924.186	4.22
924.617	21.22
925.047	26.42
925.478	25.92
925.908	22.42
926.338	7.62
926.769	4.42
927.199	14.42
927.629	1.42
928.06	11.92
928.49	8.42
928.92	13.02
929.35	5.62
929.78	12.72
930.21	0.62
930.641	1.52
931.071	12.32
931.501	2.72
931.931	1.62
932.361	4.72
932.791	-2.18
933.221	0.92
933.651	2.12
934.08	10.12
934.51	22.32
934.94	8.72
935.37	0.52
935.8	8.72
936.229	4.92
936.659	6.62
937.089	-1.98
937.519	10.32
937.948	15.12
938.378	9.42
938.807	1.22
939.237	-2.18
939.666	2.52
940.096	-9.78
940.525	4.02
940.955	0.12
941.384	-1.18
941.814	-5.18
942.243	-1.08
942.672	7.52
943.102	-4.68
943.531	5.82
943.96	1.22
944.39	-0.78
944.819	-5.98
945.248	1.62
945.677	1.22
946.106	3.02
946.535	7.72
946.964	3.32
947.393	3.02
947.822	-7.48
948.251	-8.48
948.68	1.92
949.109	6.32
949.538	6.92
949.967	-3.48
950.396	1.62
950.825	-2.58
951.254	-0.28
951.682	-5.78
952.111	7.82
952.54	-0.18
952.969	-6.18
953.397	-10.08
953.826	-3.08
954.254	-8.48
954.683	-1.88
955.112	0.62
955.54	3.32
955.969	0.62
956.397	-0.18
956.826	-8.28
957.254	0.22
957.682	1.72
958.111	0.82
958.539	0.42
958.967	0.42
959.396	-4.08
959.824	1.62
960.252	-4.08
960.68	-5.08
961.109	-1.38
961.537	-0.78
961.965	-3.68
962.393	-0.48
962.821	-6.08
963.249	-2.38
963.677	6.12
964.105	-1.98
964.533	30.92
964.961	22.72
965.389	10.52
965.817	4.82
966.245	3.62
966.672	0.42
967.1	-11.68
967.528	0.22
967.956	-7.58
968.383	-1.28
968.811	1.82
969.239	0.22
969.666	-7.68
970.094	-5.38
970.522	1.42
970.949	-5.28
971.377	-9.28
971.804	-10.68
972.232	2.02
972.659	-2.28
973.087	-8.98
973.514	-3.68
973.941	-3.68
974.369	-0.68
974.796	1.32
975.223	2.02
975.651	-0.48
976.078	2.92
976.505	-5.08
976.932	-2.08
977.359	11.22
977.786	5.62
978.214	4.42
978.641	-4.68
979.068	-5.38
979.495	-5.38
979.922	-4.28
980.349	-5.08
980.776	-1.18
981.202	-2.58
981.629	8.22
982.056	6.62
982.483	-3.28
982.91	4.42
983.337	-10.68
983.763	4.82
984.19	-8.08
984.617	-3.88
985.043	-6.48
985.47	-3.18
985.897	-1.78
986.323	-15.28
986.75	-4.68
987.176	-1.88
987.603	-5.18
988.029	-3.28
988.456	-5.08
988.882	-0.48
989.308	-6.68
989.735	-3.88
990.161	1.52
990.587	-5.68
991.014	-1.58
991.44	4.92
991.866	0.22
992.292	-3.58
992.719	-0.88
993.145	6.02
993.571	-9.68
993.997	-4.48
994.423	0.22
994.849	-10.88
995.275	3.82
995.701	1.32
996.127	-1.58
996.553	3.32
996.979	0.82
997.405	2.92
997.83	-2.78
998.256	0.32
998.682	-9.28
999.108	-7.78
999.534	-7.68
999.959	2.42
1000.385	-8.78
1000.811	-8.48
1001.236	-8.68
1001.662	-12.28
1002.087	-12.78
1002.513	-5.68
1002.938	-3.68
1003.364	-1.78
1003.789	4.62
1004.215	-1.28
1004.64	-2.78
1005.066	-1.48
1005.491	-5.28
1005.916	-3.88
1006.342	-10.58
1006.767	-7.48
1007.192	3.62
1007.617	-8.58
1008.042	-10.78
1008.468	-12.08
1008.893	-2.78
1009.318	-0.68
1009.743	-5.08
1010.168	1.02
1010.593	0.02
1011.018	-5.98
1011.443	-1.78
1011.868	-1.68
1012.293	-3.98
1012.718	-9.78
1013.143	-0.28
1013.567	-2.38
1013.992	-4.28
1014.417	-12.38
1014.842	0.52
1015.267	-8.48
1015.691	-7.18
1016.116	2.62
1016.541	-6.28
1016.965	5.32
1017.39	2.02
1017.814	5.22
1018.239	0.82
1018.663	-11.28
1019.088	-12.78
1019.512	-4.88
1019.937	-1.88
1020.361	-6.28
1020.785	-9.28
1021.21	-4.48
1021.634	-2.98
1022.058	2.62
1022.483	1.52
1022.907	-10.48
1023.331	-7.18
1023.755	-4.58
1024.179	-5.08
1024.604	-11.68
1025.028	-11.88
1025.452	-1.38
1025.876	1.22
1026.3	1.02
1026.724	-9.18
1027.148	-7.98
1027.572	-10.58
1027.996	-3.68
1028.42	-3.88
1028.843	-6.68
1029.267	-8.28
1029.691	-6.38
1030.115	-9.48
1030.539	-12.08
1030.962	-10.48
1031.386	-15.48
1031.81	-1.98
1032.233	-5.88
1032.657	-6.48
1033.08	-7.88
1033.504	-6.18
1033.927	-9.58
1034.351	0.42
1034.774	-5.78
1035.198	-0.08
1035.621	-5.78
1036.045	-9.88
1036.468	-0.38
1036.891	-10.28
1037.315	-6.88
1037.738	-14.38
1038.161	-2.08
1038.584	-9.78
1039.008	-1.28
1039.431	-8.58
1039.854	-4.98
1040.277	-12.28
1040.7	-13.58
1041.123	-1.88
1041.546	-9.08
1041.969	-7.28
1042.392	-2.78
1042.815	-1.78
1043.238	-4.78
1043.661	0.62
1044.084	-9.88
1044.507	-2.58
1044.93	-3.08
1045.352	-6.98
1045.775	2.62
1046.198	-3.38
1046.621	-5.28
1047.043	-2.58
1047.466	1.22
1047.889	-3.68
1048.311	-4.78
1048.734	-2.38
1049.156	1.22
1049.579	-6.98
1050.001	-8.68
1050.424	-3.18
1050.846	-6.68
1051.269	-8.28
1051.691	-9.58
1052.113	-3.08
1052.536	-8.28
1052.958	3.42
1053.38	-8.58
1053.802	-8.38
1054.225	-3.98
1054.647	-11.88
1055.069	-7.78
1055.491	3.02
1055.913	-9.18
1056.335	-2.38
1056.757	-2.08
1057.179	-5.78
1057.601	-12.48
1058.023	-9.38
1058.445	-5.98
1058.867	-3.68
1059.289	-5.98
1059.711	-6.28
1060.133	1.92
1060.555	-2.48
1060.976	-10.08
1061.398	-3.58
1061.82	-4.58
1062.241	-6.38
1062.663	-11.68
1063.085	-5.68
1063.506	5.22
1063.928	-5.38
1064.35	-5.58
1064.771	-7.98
1065.193	-6.48
1065.614	-6.08
1066.035	-3.98
1066.457	-2.78
1066.878	0.22
1067.3	-7.18
1067.721	-11.78
1068.142	-6.08
1068.564	-5.38
1068.985	-8.98
1069.406	-3.68
1069.827	-2.08
1070.248	-4.68
1070.67	-8.58
1071.091	-4.08
1071.512	-2.98
1071.933	-7.18
1072.354	-12.68
1072.775	-4.58
1073.196	-10.68
1073.617	-6.08
1074.038	-10.28
1074.459	-8.48
1074.88	-8.18
1075.3	-3.88
1075.721	-0.98
1076.142	1.82
1076.563	-1.38
1076.983	-10.78
1077.404	-6.08
1077.825	-6.58
1078.246	-6.38
1078.666	-4.98
1079.087	-3.08
1079.507	-7.88
1079.928	-1.98
1080.348	0.52
1080.769	-5.38
1081.189	-4.78
1081.61	0.42
1082.03	-2.08
1082.451	-6.98
1082.871	-7.18
1083.291	-8.28
1083.711	-11.98
1084.132	-9.88
1084.552	-5.18
1084.972	-4.28
1085.392	-11.88
1085.813	-12.48
1086.233	-10.98
1086.653	-5.88
1087.073	-1.58
1087.493	-10.98
1087.913	-3.28
1088.333	-10.58
1088.753	-2.28
1089.173	6.72
1089.593	-2.48
1090.013	-3.78
1090.433	-1.18
1090.852	-4.98
1091.272	-0.98
1091.692	-2.98
1092.112	-4.68
1092.531	-10.88
1092.951	-15.98
1093.371	-5.28
1093.79	2.02
1094.21	-6.58
1094.63	-6.28
1095.049	-7.48
1095.469	-1.68
1095.888	-0.38
1096.308	-0.98
1096.727	-1.18
1097.146	-7.68
1097.566	-1.68
1097.985	-2.78
1098.405	-1.68
1098.824	-8.68
1099.243	-4.08
1099.662	-12.48
1100.082	-6.08
1100.501	-5.58
1100.92	-10.48
1101.339	-6.58
1101.758	-11.78
