Data from 20171114-ORNL-Ar_H_NY_Subt18_08-06-34-656.txt Node
Date: Tue Nov 14 08:06:34 EST 2017
User: Ender
Spectrometer: HR+D1039
Trigger mode: 0
Integration Time (sec): 2.730000E-2
Scans to average: 10
Electric dark correction enabled: true
Nonlinearity correction enabled: false
Boxcar width: 0
XAxis mode: Wavelengths
Number of Pixels in Spectrum: 2048
>>>>>Begin Spectral Data<<<<<
187.836	-3.48
188.309	-3.48
188.782	-3.48
189.255	2.42
189.728	-0.78
190.201	5.22
190.674	2.62
191.147	-1.28
191.619	-4.38
192.092	1.62
192.565	2.22
193.038	0.72
193.511	-0.88
193.984	-1.48
194.456	-5.08
194.929	2.82
195.402	0.52
195.874	-0.78
196.347	-2.78
196.82	-4.98
197.292	5.12
197.765	-3.28
198.237	-6.78
198.71	4.02
199.182	-1.08
199.655	-0.88
200.127	4.92
200.6	2.92
201.072	-1.98
201.544	-8.08
202.017	-2.88
202.489	2.42
202.961	-6.58
203.433	-1.18
203.906	-6.08
204.378	-0.68
204.85	-2.68
205.322	-12.08
205.794	-1.38
206.266	-1.38
206.739	-9.78
207.211	-0.28
207.683	-4.88
208.155	-2.28
208.627	2.42
209.099	-1.68
209.57	-5.88
210.042	-5.18
210.514	-2.98
210.986	1.02
211.458	-10.18
211.93	-1.38
212.402	2.22
212.873	-5.88
213.345	-8.88
213.817	-13.78
214.288	-3.08
214.76	-7.68
215.232	-4.28
215.703	-6.18
216.175	-4.88
216.646	-0.78
217.118	-1.78
217.589	-5.08
218.061	-2.58
218.532	-1.58
219.004	0.62
219.475	-6.48
219.946	-5.28
220.418	-4.88
220.889	0.32
221.36	1.22
221.832	-4.48
222.303	-5.38
222.774	-0.18
223.245	-7.68
223.717	-5.58
224.188	-7.78
224.659	-8.38
225.13	-3.18
225.601	-4.18
226.072	1.62
226.543	-0.18
227.014	-4.18
227.485	-1.38
227.956	-3.18
228.427	-4.48
228.898	3.12
229.369	1.62
229.839	-0.18
230.31	-8.28
230.781	3.72
231.252	-3.38
231.722	-6.68
232.193	-7.08
232.664	-1.48
233.135	-3.48
233.605	-1.38
234.076	-7.68
234.546	-1.68
235.017	4.42
235.487	1.32
235.958	1.42
236.428	-3.58
236.899	6.72
237.369	3.82
237.84	-4.08
238.31	4.82
238.78	3.82
239.251	2.72
239.721	7.92
240.191	1.22
240.662	-3.18
241.132	1.02
241.602	-4.18
242.072	-2.48
242.542	10.82
243.013	0.32
243.483	-0.28
243.953	2.82
244.423	1.62
244.893	3.02
245.363	3.42
245.833	-0.88
246.303	3.72
246.773	8.62
247.243	6.72
247.712	8.42
248.182	6.32
248.652	6.42
249.122	-3.88
249.592	11.22
250.061	18.02
250.531	33.82
251.001	17.82
251.471	23.82
251.94	19.82
252.41	10.12
252.879	5.72
253.349	12.22
253.818	8.52
254.288	4.42
254.757	0.02
255.227	1.62
255.696	2.02
256.166	6.22
256.635	6.02
257.105	6.72
257.574	4.62
258.043	11.12
258.513	16.52
258.982	16.02
259.451	6.72
259.92	17.82
260.389	8.32
260.859	17.82
261.328	15.52
261.797	15.32
262.266	11.12
262.735	14.62
263.204	5.72
263.673	-0.68
264.142	10.82
264.611	0.52
265.08	0.62
265.549	2.52
266.018	5.42
266.487	-3.78
266.955	-1.08
267.424	-1.38
267.893	5.92
268.362	10.32
268.83	5.52
269.299	6.52
269.768	6.82
270.236	8.52
270.705	5.32
271.174	7.42
271.642	5.22
272.111	10.22
272.579	20.32
273.048	25.42
273.516	31.22
273.985	30.12
274.453	24.02
274.922	21.42
275.39	2.62
275.858	3.32
276.327	11.72
276.795	11.22
277.263	7.62
277.731	27.02
278.2	51.92
278.668	58.42
279.136	51.52
279.604	10.52
280.072	10.62
280.54	12.02
281.008	16.22
281.477	13.92
281.945	9.62
282.413	12.92
282.881	16.22
283.348	16.52
283.816	15.12
284.284	14.72
284.752	20.92
285.22	15.02
285.688	11.72
286.156	19.62
286.623	50.02
287.091	50.32
287.559	29.62
288.026	14.52
288.494	15.82
288.962	4.22
289.429	9.92
289.897	15.82
290.364	15.52
290.832	18.72
291.3	16.22
291.767	23.82
292.234	18.02
292.702	15.22
293.169	17.52
293.637	21.32
294.104	16.92
294.571	12.52
295.039	11.42
295.506	12.72
295.973	13.72
296.44	9.82
296.908	18.92
297.375	19.92
297.842	18.82
298.309	17.62
298.776	16.82
299.243	21.82
299.71	10.12
300.177	21.22
300.644	19.02
301.111	22.12
301.578	19.82
302.045	20.42
302.512	24.02
302.979	27.12
303.446	25.32
303.913	21.32
304.379	19.22
304.846	27.02
305.313	30.62
305.78	26.92
306.246	25.82
306.713	26.62
307.18	19.22
307.646	24.42
308.113	26.42
308.579	23.72
309.046	26.22
309.512	27.92
309.979	16.82
310.445	23.72
310.912	25.92
311.378	31.82
311.845	32.92
312.311	28.22
312.777	26.92
313.244	27.82
313.71	44.32
314.176	31.42
314.642	32.32
315.109	33.32
315.575	34.22
316.041	40.42
316.507	32.82
316.973	42.32
317.439	28.72
317.905	34.72
318.371	37.32
318.837	39.52
319.303	34.82
319.769	37.02
320.235	37.92
320.701	32.32
321.167	33.02
321.633	38.12
322.099	39.32
322.564	48.12
323.03	44.32
323.496	41.12
323.962	38.22
324.427	41.42
324.893	47.42
325.359	32.32
325.824	35.22
326.29	37.22
326.755	38.02
327.221	36.72
327.686	37.42
328.152	48.12
328.617	42.92
329.083	47.22
329.548	51.72
330.014	48.52
330.479	41.92
330.944	43.52
331.41	42.82
331.875	45.82
332.34	37.92
332.805	39.52
333.271	47.32
333.736	43.62
334.201	48.22
334.666	51.12
335.131	51.62
335.596	49.92
336.061	48.92
336.526	46.02
336.991	52.02
337.456	56.42
337.921	45.92
338.386	42.62
338.851	49.12
339.316	44.02
339.781	51.02
340.246	50.12
340.711	48.92
341.175	47.62
341.64	47.02
342.105	53.42
342.569	56.72
343.034	63.62
343.499	58.32
343.963	54.62
344.428	60.12
344.893	60.62
345.357	59.12
345.822	60.72
346.286	67.72
346.751	76.42
347.215	63.52
347.679	77.72
348.144	95.82
348.608	84.02
349.073	68.42
349.537	76.42
350.001	81.92
350.465	91.32
350.93	79.22
351.394	82.92
351.858	65.12
352.322	93.52
352.786	86.92
353.25	104.22
353.715	110.02
354.179	95.32
354.643	113.72
355.107	126.92
355.571	107.22
356.035	102.52
356.498	124.92
356.962	124.12
357.426	132.42
357.89	120.22
358.354	88.82
358.818	76.42
359.281	78.22
359.745	85.22
360.209	73.92
360.673	78.62
361.136	82.92
361.6	83.12
362.064	84.52
362.527	89.42
362.991	84.22
363.454	80.82
363.918	75.32
364.381	78.22
364.845	84.22
365.308	84.72
365.772	85.72
366.235	93.12
366.698	83.82
367.162	87.42
367.625	84.82
368.088	87.62
368.552	91.42
369.015	87.32
369.478	93.32
369.941	97.32
370.404	91.82
370.867	100.92
371.331	102.02
371.794	116.92
372.257	114.22
372.72	117.62
373.183	115.22
373.646	106.12
374.109	107.12
374.572	108.02
375.035	108.72
375.497	111.02
375.96	104.02
376.423	105.72
376.886	109.72
377.349	110.62
377.811	107.12
378.274	107.42
378.737	105.12
379.199	112.82
379.662	112.22
380.125	121.32
380.587	116.02
381.05	123.32
381.512	131.42
381.975	137.92
382.437	124.92
382.9	124.32
383.362	136.12
383.825	145.22
384.287	148.22
384.75	141.82
385.212	137.32
385.674	139.12
386.136	137.32
386.599	129.42
387.061	129.52
387.523	137.52
387.985	133.52
388.447	146.92
388.91	149.92
389.372	155.72
389.834	153.62
390.296	149.92
390.758	162.32
391.22	169.22
391.682	218.82
392.144	319.32
392.606	250.22
393.068	176.12
393.529	171.12
393.991	157.92
394.453	148.02
394.915	161.92
395.377	194.02
395.838	228.92
396.3	160.62
396.762	142.02
397.224	134.92
397.685	129.52
398.147	127.12
398.608	125.02
399.07	129.42
399.531	135.32
399.993	144.52
400.454	156.42
400.916	147.42
401.377	153.12
401.839	151.62
402.3	153.72
402.762	169.72
403.223	180.62
403.684	167.42
404.145	163.42
404.607	158.62
405.068	161.32
405.529	173.02
405.99	202.02
406.451	179.52
406.913	174.42
407.374	163.72
407.835	159.62
408.296	167.52
408.757	173.42
409.218	188.12
409.679	184.32
410.14	178.02
410.601	182.32
411.062	186.52
411.522	193.12
411.983	189.62
412.444	182.62
412.905	176.12
413.366	182.12
413.826	197.82
414.287	219.42
414.748	266.32
415.208	244.72
415.669	214.82
416.13	210.32
416.59	200.02
417.051	217.22
417.511	220.82
417.972	232.22
418.432	245.72
418.893	286.82
419.353	251.32
419.814	200.52
420.274	186.12
420.734	186.72
421.195	197.92
421.655	205.02
422.115	195.32
422.576	194.62
423.036	201.62
423.496	212.92
423.956	225.12
424.416	231.32
424.876	264.22
425.336	255.72
425.797	264.02
426.257	261.42
426.717	247.32
427.177	238.92
427.637	224.02
428.097	235.52
428.556	243.82
429.016	273.02
429.476	269.02
429.936	282.22
430.396	281.02
430.856	297.02
431.315	325.32
431.775	360.72
432.235	388.02
432.694	356.42
433.154	375.02
433.614	390.92
434.073	344.82
434.533	297.02
434.993	276.72
435.452	284.72
435.912	286.12
436.371	288.22
436.83	287.62
437.29	273.12
437.749	249.42
438.209	249.72
438.668	273.92
439.127	290.82
439.587	266.82
440.046	255.42
440.505	262.92
440.964	285.22
441.424	328.92
441.883	314.02
442.342	260.32
442.801	224.22
443.26	225.22
443.719	222.32
444.178	221.62
444.637	213.62
445.096	224.42
445.555	228.22
446.014	227.02
446.473	228.22
446.932	239.12
447.391	227.52
447.849	233.02
448.308	222.82
448.767	219.22
449.226	235.72
449.685	238.92
450.143	249.12
450.602	238.92
451.061	225.22
451.519	235.42
451.978	232.02
452.436	237.02
452.895	244.92
453.353	258.62
453.812	247.22
454.27	244.62
454.729	232.72
455.187	247.12
455.646	247.52
456.104	245.12
456.562	260.32
457.021	263.82
457.479	260.02
457.937	273.02
458.395	267.32
458.854	251.12
459.312	263.32
459.77	279.02
460.228	258.42
460.686	245.12
461.144	250.22
461.602	241.42
462.06	243.02
462.518	252.12
462.976	254.42
463.434	259.92
463.892	258.92
464.35	278.82
464.808	298.62
465.266	268.92
465.724	274.52
466.181	279.12
466.639	275.82
467.097	297.52
467.555	302.12
468.012	310.42
468.47	314.52
468.928	326.82
469.385	343.62
469.843	347.72
470.3	352.82
470.758	369.82
471.215	398.82
471.673	409.82
472.13	410.82
472.588	422.72
473.045	375.22
473.503	385.32
473.96	398.22
474.417	411.12
474.875	442.82
475.332	483.82
475.789	469.62
476.246	475.22
476.704	491.12
477.161	514.32
477.618	529.82
478.075	565.62
478.532	629.32
478.989	704.72
479.446	816.72
479.903	787.62
480.36	833.82
480.817	881.52
481.274	988.12
481.731	1099.72
482.188	1197.22
482.645	1328.22
483.102	1444.12
483.558	1588.92
484.015	1643.42
484.472	1606.72
484.929	1559.92
485.385	1519.52
485.842	1481.52
486.299	1389.02
486.755	1327.72
487.212	1114.12
487.668	952.62
488.125	878.02
488.582	795.52
489.038	769.42
489.494	723.62
489.951	692.92
490.407	687.02
490.864	656.22
491.32	655.92
491.776	648.62
492.233	649.62
492.689	622.62
493.145	604.32
493.602	607.62
494.058	626.92
494.514	619.42
494.97	644.62
495.426	656.22
495.882	633.92
496.338	626.22
496.794	634.42
497.251	619.12
497.707	644.02
498.163	645.52
498.618	646.82
499.074	658.12
499.53	685.72
499.986	681.12
500.442	666.32
500.898	632.12
501.354	629.92
501.809	641.12
502.265	669.22
502.721	677.82
503.177	686.42
503.632	676.12
504.088	687.32
504.543	721.52
504.999	720.02
505.455	664.42
505.91	638.82
506.366	638.92
506.821	642.82
507.277	637.92
507.732	636.12
508.187	633.22
508.643	629.02
509.098	652.52
509.553	666.22
510.009	670.42
510.464	685.52
510.919	706.02
511.375	698.22
511.83	717.92
512.285	731.92
512.74	776.72
513.195	798.12
513.65	782.92
514.105	773.62
514.56	780.52
515.015	809.62
515.47	819.22
515.925	791.42
516.38	798.52
516.835	795.42
517.29	790.02
517.745	785.12
518.2	779.52
518.655	760.32
519.109	763.12
519.564	750.42
520.019	746.42
520.474	736.92
520.928	731.62
521.383	731.42
521.838	715.12
522.292	722.92
522.747	723.62
523.201	723.62
523.656	694.52
524.11	697.22
524.565	692.72
525.019	708.22
525.474	713.82
525.928	708.72
526.382	704.82
526.837	701.02
527.291	711.22
527.745	709.52
528.2	715.52
528.654	700.12
529.108	705.72
529.562	696.42
530.016	702.42
530.47	712.32
530.925	703.32
531.379	711.12
531.833	719.82
532.287	709.02
532.741	717.02
533.195	722.72
533.649	726.12
534.103	733.22
534.556	724.02
535.01	726.02
535.464	720.92
535.918	731.72
536.372	733.12
536.826	729.82
537.279	719.12
537.733	725.02
538.187	723.02
538.64	728.42
539.094	738.52
539.548	745.12
540.001	737.02
540.455	739.02
540.908	748.02
541.362	751.62
541.815	754.92
542.269	766.92
542.722	773.72
543.175	787.92
543.629	786.52
544.082	800.82
544.536	796.12
544.989	798.92
545.442	804.32
545.895	803.12
546.349	807.32
546.802	806.42
547.255	809.32
547.708	820.42
548.161	831.52
548.614	834.52
549.067	848.32
549.52	828.32
549.973	832.22
550.426	816.42
550.879	812.42
551.332	820.42
551.785	824.32
552.238	817.62
552.691	826.52
553.144	843.52
553.596	855.82
554.049	877.02
554.502	909.62
554.955	916.42
555.407	921.02
555.86	908.22
556.313	903.12
556.765	900.72
557.218	903.52
557.67	899.32
558.123	898.12
558.576	894.52
559.028	891.92
559.48	898.52
559.933	881.92
560.385	857.32
560.838	821.72
561.29	798.62
561.742	796.72
562.195	782.92
562.647	771.72
563.099	784.72
563.551	783.32
564.004	795.52
564.456	780.72
564.908	775.32
565.36	769.92
565.812	753.42
566.264	741.42
566.716	729.62
567.168	728.82
567.62	732.22
568.072	718.32
568.524	708.02
568.976	705.82
569.428	692.32
569.88	679.02
570.332	690.52
570.784	693.92
571.235	697.12
571.687	701.62
572.139	702.52
572.59	720.62
573.042	726.12
573.494	723.32
573.945	720.72
574.397	700.82
574.849	699.32
575.3	698.62
575.752	697.12
576.203	691.42
576.655	694.62
577.106	692.12
577.557	680.32
578.009	679.22
578.46	682.82
578.912	670.42
579.363	678.32
579.814	668.12
580.265	666.42
580.717	680.12
581.168	678.12
581.619	686.92
582.07	682.62
582.521	697.42
582.972	680.92
583.423	696.82
583.875	687.82
584.326	719.12
584.777	774.02
585.227	847.52
585.678	947.72
586.129	1039.42
586.58	1125.22
587.031	1204.02
587.482	1383.92
587.933	1575.62
588.384	1352.02
588.834	1005.82
589.285	822.92
589.736	797.52
590.186	785.52
590.637	775.32
591.088	756.12
591.538	748.22
591.989	746.32
592.439	741.82
592.89	722.72
593.34	720.62
593.791	718.62
594.241	715.62
594.692	731.02
595.142	711.12
595.593	717.02
596.043	726.62
596.493	736.72
596.943	724.82
597.394	745.72
597.844	724.12
598.294	733.32
598.744	773.82
599.195	791.72
599.645	821.22
600.095	872.82
600.545	925.62
600.995	977.12
601.445	1045.72
601.895	1103.32
602.345	1151.62
602.795	1137.72
603.245	1095.22
603.695	1034.12
604.145	970.72
604.594	919.32
605.044	872.82
605.494	811.82
605.944	767.52
606.393	756.62
606.843	735.92
607.293	743.72
607.743	750.32
608.192	760.32
608.642	775.42
609.091	774.62
609.541	784.32
609.99	778.82
610.44	779.72
610.889	728.62
611.339	715.32
611.788	707.12
612.238	715.12
612.687	738.12
613.136	739.22
613.586	755.02
614.035	756.72
614.484	780.12
614.933	776.62
615.383	766.72
615.832	755.42
616.281	744.52
616.73	706.82
617.179	684.92
617.628	667.42
618.077	644.22
618.526	633.72
618.975	617.62
619.424	630.62
619.873	623.92
620.322	628.82
620.771	624.72
621.22	612.42
621.669	606.02
622.118	607.02
622.567	590.32
623.015	575.82
623.464	583.52
623.913	570.62
624.361	566.22
624.81	567.22
625.259	562.62
625.707	561.42
626.156	564.42
626.604	576.62
627.053	573.42
627.501	569.72
627.95	575.92
628.398	594.72
628.847	582.52
629.295	581.82
629.744	588.32
630.192	581.22
630.64	579.72
631.089	575.32
631.537	594.22
631.985	601.12
632.433	617.12
632.881	619.62
633.33	672.72
633.778	653.32
634.226	583.52
634.674	585.32
635.122	583.72
635.57	609.62
636.018	625.02
636.466	585.72
636.914	568.62
637.362	589.12
637.81	587.82
638.258	589.32
638.705	586.12
639.153	610.62
639.601	627.32
640.049	645.42
640.497	687.12
640.944	701.32
641.392	648.62
641.84	622.02
642.287	589.72
642.735	580.42
643.182	574.32
643.63	594.92
644.078	581.62
644.525	597.12
644.973	609.32
645.42	613.22
645.867	627.22
646.315	656.62
646.762	683.12
647.21	700.62
647.657	725.22
648.104	763.32
648.551	785.32
648.999	859.72
649.446	937.12
649.893	1041.02
650.34	1180.62
650.787	1428.82
651.234	1758.02
651.682	2325.82
652.129	3173.32
652.576	4585.42
653.023	6777.32
653.47	9314.52
653.917	11646.52
654.363	13388.32
654.81	14753.92
655.257	14077.72
655.704	9217.92
656.151	5415.42
656.598	3510.82
657.044	2483.62
657.491	1893.72
657.938	1520.32
658.385	1270.92
658.831	1093.92
659.278	974.82
659.724	867.32
660.171	802.22
660.618	733.42
661.064	697.82
661.511	676.82
661.957	662.82
662.404	652.52
662.85	665.72
663.296	633.02
663.743	567.32
664.189	543.42
664.635	537.52
665.082	538.92
665.528	530.82
665.974	530.62
666.42	517.42
666.867	508.52
667.313	496.32
667.759	481.12
668.205	485.12
668.651	497.92
669.097	498.12
669.543	519.22
669.989	485.12
670.435	456.72
670.881	442.92
671.327	455.62
671.773	479.72
672.219	494.52
672.665	549.92
673.11	596.02
673.556	634.52
674.002	672.52
674.448	659.42
674.893	546.42
675.339	478.32
675.785	446.52
676.23	419.72
676.676	393.42
677.122	385.82
677.567	377.32
678.013	375.02
678.458	359.42
678.904	362.82
679.349	353.82
679.794	357.92
680.24	354.02
680.685	356.32
681.131	350.42
681.576	352.32
682.021	359.32
682.466	348.32
682.912	344.72
683.357	360.72
683.802	382.22
684.247	410.42
684.692	463.72
685.137	500.82
685.583	524.62
686.028	570.22
686.473	528.82
686.918	452.72
687.363	413.42
687.807	403.02
688.252	363.02
688.697	348.72
689.142	337.02
689.587	330.72
690.032	330.72
690.477	349.52
690.921	351.22
691.366	382.42
691.811	407.32
692.255	424.82
692.7	462.32
693.145	508.72
693.589	705.12
694.034	1145.22
694.478	1545.52
694.923	1742.62
695.367	2266.02
695.812	1193.92
696.256	498.32
696.701	369.22
697.145	347.02
697.59	322.82
698.034	334.72
698.478	327.32
698.922	327.32
699.367	326.52
699.811	345.92
700.255	355.12
700.699	388.72
701.143	432.62
701.588	485.32
702.032	507.42
702.476	511.12
702.92	488.62
703.364	500.22
703.808	638.52
704.252	1042.62
704.696	1467.62
705.14	1668.82
705.584	2152.62
706.027	1065.42
706.471	513.62
706.915	399.22
707.359	355.52
707.803	318.62
708.246	312.42
708.69	313.02
709.134	313.72
709.577	312.12
710.021	319.82
710.465	301.72
710.908	303.22
711.352	306.32
711.795	313.62
712.239	356.22
712.682	380.92
713.126	413.12
713.569	468.92
714.012	374.52
714.456	332.72
714.899	300.02
715.342	275.72
715.786	270.32
716.229	258.92
716.672	256.82
717.115	250.02
717.558	249.92
718.002	252.52
718.445	269.22
718.888	285.72
719.331	290.02
719.774	312.72
720.217	306.72
720.66	283.22
721.103	272.72
721.546	250.52
721.989	253.72
722.432	233.42
722.874	237.32
723.317	227.62
723.76	237.32
724.203	259.12
724.645	320.82
725.088	448.62
725.531	573.92
725.974	652.52
726.416	547.32
726.859	310.02
727.301	248.82
727.744	238.22
728.187	233.72
728.629	232.82
729.071	240.52
729.514	260.72
729.956	275.22
730.399	287.42
730.841	284.32
731.283	278.72
731.726	266.42
732.168	259.52
732.61	273.82
733.053	281.82
733.495	323.22
733.937	350.22
734.379	403.02
734.821	434.72
735.263	546.92
735.705	822.52
736.148	1575.32
736.59	2587.92
737.032	3057.12
737.474	2471.42
737.916	809.22
738.357	423.12
738.799	331.02
739.241	301.82
739.683	290.72
740.125	293.12
740.567	302.82
741.008	320.32
741.45	312.82
741.892	319.92
742.334	349.22
742.775	359.42
743.217	349.72
743.658	264.52
744.1	255.42
744.542	266.12
744.983	304.52
745.425	344.22
745.866	349.02
746.307	288.82
746.749	291.22
747.19	318.02
747.632	454.72
748.073	891.12
748.514	1870.22
748.956	2872.02
749.397	3596.32
749.838	2966.02
750.279	2964.02
750.72	1482.62
751.162	550.52
751.603	318.62
752.044	258.92
752.485	214.12
752.926	214.12
753.367	198.32
753.808	202.82
754.249	197.02
754.69	191.02
755.131	177.92
755.572	178.82
756.013	180.62
756.453	175.22
756.894	189.82
757.335	191.62
757.776	202.02
758.216	197.22
758.657	198.82
759.098	202.82
759.538	221.32
759.979	267.92
760.42	371.22
760.86	711.82
761.301	1808.52
761.741	4425.62
762.182	6439.82
762.622	4527.22
763.063	1304.02
763.503	531.62
763.943	357.22
764.384	350.62
764.824	423.12
765.264	466.82
765.705	323.42
766.145	215.62
766.585	193.02
767.025	176.92
767.465	188.22
767.906	257.82
768.346	338.02
768.786	358.72
769.226	269.22
769.666	325.52
770.106	619.32
770.546	1567.12
770.986	2654.82
771.426	2369.22
771.866	784.92
772.306	327.02
772.745	208.32
773.185	176.42
773.625	178.32
774.065	170.42
774.505	198.32
774.944	318.72
775.384	705.32
775.824	1277.52
776.263	1244.32
776.703	526.62
777.142	226.02
777.582	162.62
778.021	137.12
778.461	143.42
778.9	143.42
779.34	134.32
779.779	121.72
780.219	112.22
780.658	113.92
781.097	110.92
781.537	122.22
781.976	115.32
782.415	106.52
782.855	106.42
783.294	102.92
783.733	105.42
784.172	110.92
784.611	111.42
785.05	112.62
785.489	117.52
785.928	120.82
786.367	120.12
786.806	124.82
787.245	131.72
787.684	138.52
788.123	150.52
788.562	132.52
789.001	131.12
789.44	119.82
789.879	118.02
790.317	116.82
790.756	130.72
791.195	127.52
791.634	153.62
792.072	212.52
792.511	376.62
792.95	1008.82
793.388	2158.32
793.827	1935.22
794.265	672.72
794.704	286.62
795.142	186.82
795.581	154.52
796.019	132.62
796.458	134.42
796.896	128.52
797.334	132.82
797.773	157.72
798.211	217.92
798.649	432.32
799.087	1024.62
799.526	1578.02
799.964	2004.22
800.402	2010.22
800.84	751.02
801.278	298.72
801.716	191.02
802.154	157.02
802.592	150.12
803.03	142.62
803.468	129.82
803.906	143.62
804.344	148.42
804.782	139.82
805.22	137.62
805.658	129.02
806.096	147.52
806.533	163.72
806.971	182.82
807.409	220.02
807.847	313.62
808.284	663.02
808.722	1864.62
809.16	3293.52
809.597	3109.82
810.035	5408.42
810.472	5755.42
810.91	2075.42
811.347	789.72
811.785	399.82
812.222	258.72
812.66	197.42
813.097	169.52
813.535	140.52
813.972	125.92
814.409	119.72
814.846	113.32
815.284	116.52
815.721	101.12
816.158	104.42
816.595	115.92
817.032	179.62
817.47	203.02
817.907	177.02
818.344	161.82
818.781	121.32
819.218	105.02
819.655	126.02
820.092	187.72
820.529	214.62
820.966	185.02
821.403	134.62
821.839	105.62
822.276	100.72
822.713	119.82
823.15	133.92
823.587	111.72
824.023	142.72
824.46	302.42
824.897	904.52
825.333	1351.32
825.77	575.52
826.206	233.82
826.643	132.62
827.08	102.82
827.516	90.62
827.953	79.02
828.389	84.32
828.825	71.02
829.262	69.82
829.698	65.72
830.135	66.92
830.571	57.42
831.007	65.72
831.443	67.92
831.88	65.42
832.316	61.92
832.752	69.42
833.188	62.42
833.624	59.02
834.06	62.92
834.497	69.72
834.933	74.02
835.369	73.32
835.805	66.92
836.241	76.02
836.677	80.02
837.112	91.92
837.548	106.02
837.984	127.22
838.42	202.02
838.856	495.72
839.292	1507.92
839.727	2288.82
840.163	1070.82
840.599	927.42
841.034	2023.62
841.47	2100.92
841.906	777.12
842.341	334.82
842.777	233.12
843.212	330.12
843.648	322.02
844.083	157.82
844.519	98.42
844.954	78.22
845.39	61.62
845.825	52.02
846.261	60.72
846.696	57.52
847.131	53.32
847.566	58.92
848.002	52.02
848.437	58.22
848.872	61.12
849.307	63.52
849.742	83.52
850.177	188.12
850.613	554.72
851.048	878.92
851.483	374.32
851.918	154.12
852.353	85.02
852.788	65.52
853.223	58.92
853.657	48.92
854.092	50.62
854.527	42.62
854.962	37.32
855.397	43.82
855.832	54.12
856.266	43.22
856.701	44.52
857.136	39.82
857.57	41.12
858.005	49.52
858.44	66.22
858.874	50.02
859.309	55.52
859.743	41.42
860.178	43.82
860.612	35.92
861.047	56.92
861.481	68.62
861.915	72.02
862.35	46.22
862.784	32.62
863.218	41.82
863.653	31.62
864.087	44.42
864.521	56.82
864.955	79.32
865.39	154.82
865.824	173.52
866.258	113.52
866.692	160.42
867.126	170.92
867.56	110.12
867.994	58.52
868.428	41.52
868.862	51.22
869.296	54.52
869.73	56.52
870.164	51.62
870.598	43.82
871.031	36.22
871.465	29.42
871.899	24.52
872.333	24.92
872.766	27.82
873.2	21.32
873.634	37.02
874.067	31.22
874.501	28.12
874.935	36.52
875.368	28.92
875.802	28.72
876.235	23.72
876.669	28.52
877.102	24.52
877.535	29.62
877.969	18.12
878.402	22.52
878.836	22.02
879.269	22.82
879.702	17.22
880.135	22.02
880.569	21.02
881.002	25.52
881.435	19.82
881.868	18.22
882.301	23.02
882.734	17.92
883.167	16.52
883.601	14.02
884.034	24.82
884.467	14.72
884.899	20.62
885.332	16.72
885.765	19.72
886.198	17.02
886.631	9.42
887.064	23.52
887.497	28.22
887.929	25.12
888.362	14.72
888.795	10.82
889.228	18.02
889.66	19.02
890.093	20.42
890.526	21.92
890.958	16.32
891.391	18.12
891.823	22.42
892.256	12.82
892.688	14.52
893.121	18.42
893.553	9.42
893.985	18.02
894.418	18.72
894.85	12.42
895.282	20.12
895.715	17.92
896.147	18.12
896.579	16.62
897.011	15.12
897.444	15.12
897.876	15.92
898.308	14.82
898.74	12.72
899.172	15.02
899.604	21.82
900.036	16.52
900.468	20.92
900.9	20.12
901.332	15.12
901.764	14.12
902.196	15.52
902.628	22.12
903.06	16.92
903.491	29.92
903.923	22.52
904.355	17.62
904.787	22.52
905.218	23.52
905.65	21.42
906.082	13.72
906.513	15.12
906.945	11.12
907.376	11.02
907.808	21.12
908.239	27.12
908.671	15.32
909.102	23.32
909.534	23.62
909.965	50.32
910.397	87.42
910.828	314.32
911.259	471.32
911.691	216.22
912.122	103.72
912.553	50.22
912.984	32.12
913.415	26.32
913.847	21.22
914.278	15.72
914.709	18.92
915.14	24.32
915.571	14.02
916.002	15.42
916.433	15.42
916.864	11.42
917.295	11.62
917.726	17.12
918.157	14.72
918.587	27.42
919.018	23.82
919.449	19.52
919.88	22.02
920.311	29.52
920.741	49.62
921.172	167.72
921.603	150.82
922.033	76.32
922.464	46.72
922.895	26.52
923.325	20.72
923.756	21.62
924.186	20.52
924.617	25.32
925.047	42.42
925.478	52.62
925.908	50.52
926.338	23.62
926.769	18.72
927.199	17.92
927.629	10.92
928.06	19.72
928.49	12.52
928.92	12.92
929.35	18.42
929.78	12.22
930.21	9.12
930.641	8.92
931.071	12.92
931.501	5.62
931.931	9.92
932.361	6.22
932.791	3.72
933.221	5.82
933.651	7.92
934.08	15.22
934.51	27.62
934.94	16.52
935.37	9.12
935.8	13.22
936.229	5.72
936.659	11.52
937.089	0.42
937.519	8.92
937.948	24.12
938.378	17.32
938.807	3.22
939.237	1.72
939.666	5.02
940.096	-8.58
940.525	-1.78
940.955	2.62
941.384	10.62
941.814	-5.98
942.243	-4.88
942.672	3.82
943.102	0.92
943.531	-0.48
943.96	3.62
944.39	-0.48
944.819	3.22
945.248	3.32
945.677	0.32
946.106	5.02
946.535	3.42
946.964	-0.68
947.393	5.12
947.822	3.52
948.251	0.42
948.68	4.82
949.109	4.52
949.538	4.32
949.967	1.82
950.396	-1.08
950.825	-0.18
951.254	2.82
951.682	1.22
952.111	6.32
952.54	4.92
952.969	-1.08
953.397	-6.28
953.826	3.62
954.254	-2.28
954.683	-1.18
955.112	-5.18
955.54	3.52
955.969	-1.78
956.397	-2.98
956.826	-1.38
957.254	-1.28
957.682	4.72
958.111	5.62
958.539	-0.48
958.967	1.42
959.396	-3.88
959.824	-0.08
960.252	-0.18
960.68	-1.88
961.109	-6.08
961.537	-0.68
961.965	-0.78
962.393	0.32
962.821	-4.68
963.249	6.22
963.677	4.62
964.105	3.82
964.533	40.32
964.961	40.02
965.389	21.92
965.817	6.92
966.245	0.92
966.672	-0.48
967.1	-8.58
967.528	0.52
967.956	-3.38
968.383	0.62
968.811	-1.18
969.239	-5.28
969.666	-4.08
970.094	4.62
970.522	-0.88
970.949	-0.18
971.377	-3.88
971.804	0.12
972.232	-4.68
972.659	-5.18
973.087	-5.18
973.514	-5.88
973.941	-2.38
974.369	5.52
974.796	-3.38
975.223	2.22
975.651	-1.58
976.078	7.12
976.505	-1.08
976.932	0.42
977.359	13.92
977.786	17.82
978.214	-1.58
978.641	-2.48
979.068	-0.48
979.495	-7.88
979.922	-4.38
980.349	-1.48
980.776	1.42
981.202	0.82
981.629	7.12
982.056	1.42
982.483	-4.18
982.91	2.62
983.337	-6.78
983.763	5.82
984.19	-1.68
984.617	-3.48
985.043	-4.58
985.47	-1.08
985.897	-2.38
986.323	-5.78
986.75	4.22
987.176	0.22
987.603	-6.68
988.029	-1.48
988.456	-7.68
988.882	3.92
989.308	-0.08
989.735	-3.18
990.161	0.82
990.587	-0.68
991.014	-1.98
991.44	8.22
991.866	1.72
992.292	0.22
992.719	-2.38
993.145	3.52
993.571	-8.88
993.997	-1.68
994.423	-4.68
994.849	-4.98
995.275	3.22
995.701	-2.38
996.127	-2.78
996.553	-5.28
996.979	0.02
997.405	-5.38
997.83	-3.78
998.256	-7.08
998.682	-4.98
999.108	-10.08
999.534	2.02
999.959	4.02
1000.385	-1.48
1000.811	1.62
1001.236	-9.28
1001.662	-10.08
1002.087	-4.88
1002.513	-0.38
1002.938	1.02
1003.364	-0.18
1003.789	0.52
1004.215	3.82
1004.64	2.42
1005.066	2.52
1005.491	1.52
1005.916	-1.48
1006.342	-2.48
1006.767	-7.08
1007.192	12.22
1007.617	-4.68
1008.042	-0.48
1008.468	-4.18
1008.893	0.32
1009.318	-0.88
1009.743	-1.58
1010.168	5.12
1010.593	-0.78
1011.018	-6.88
1011.443	-6.08
1011.868	6.12
1012.293	-0.08
1012.718	-3.28
1013.143	2.92
1013.567	-1.78
1013.992	-6.38
1014.417	-11.68
1014.842	3.02
1015.267	-2.88
1015.691	-5.38
1016.116	6.02
1016.541	-4.38
1016.965	3.12
1017.39	1.22
1017.814	4.72
1018.239	-5.68
1018.663	-0.88
1019.088	-6.18
1019.512	-0.78
1019.937	-2.58
1020.361	-0.68
1020.785	-8.48
1021.21	-2.28
1021.634	-6.18
1022.058	-2.38
1022.483	1.42
1022.907	0.02
1023.331	-4.68
1023.755	0.52
1024.179	-1.48
1024.604	-6.28
1025.028	-4.28
1025.452	-3.28
1025.876	3.22
1026.3	0.22
1026.724	-12.18
1027.148	-1.88
1027.572	-5.18
1027.996	-6.18
1028.42	1.22
1028.843	-5.48
1029.267	-8.28
1029.691	0.62
1030.115	-6.38
1030.539	-10.98
1030.962	2.42
1031.386	-4.48
1031.81	-0.08
1032.233	0.72
1032.657	-4.38
1033.08	-5.58
1033.504	-1.88
1033.927	-0.68
1034.351	-2.48
1034.774	-6.78
1035.198	-1.78
1035.621	-8.48
1036.045	-7.18
1036.468	-2.38
1036.891	-11.08
1037.315	-14.18
1037.738	-7.58
1038.161	2.92
1038.584	-4.48
1039.008	-7.68
1039.431	-6.88
1039.854	-0.88
1040.277	-9.08
1040.7	-9.18
1041.123	-5.28
1041.546	-2.38
1041.969	-5.18
1042.392	-0.38
1042.815	-0.78
1043.238	-3.38
1043.661	3.82
1044.084	-2.18
1044.507	-7.38
1044.93	-6.68
1045.352	-8.08
1045.775	-1.98
1046.198	-0.88
1046.621	-3.58
1047.043	-2.38
1047.466	2.42
1047.889	0.12
1048.311	-6.38
1048.734	-5.48
1049.156	-3.18
1049.579	-3.28
1050.001	-4.08
1050.424	-2.18
1050.846	-6.68
1051.269	-8.48
1051.691	-11.08
1052.113	-6.78
1052.536	-1.38
1052.958	-5.28
1053.38	-5.18
1053.802	-12.48
1054.225	-1.38
1054.647	-9.48
1055.069	-5.58
1055.491	3.72
1055.913	-9.88
1056.335	-3.08
1056.757	-5.58
1057.179	-9.98
1057.601	-3.98
1058.023	-4.58
1058.445	-5.08
1058.867	-5.68
1059.289	-0.08
1059.711	-4.88
1060.133	-7.08
1060.555	-8.38
1060.976	-6.88
1061.398	-4.98
1061.82	-2.38
1062.241	-2.48
1062.663	-8.18
1063.085	-3.38
1063.506	-0.68
1063.928	-6.68
1064.35	-2.08
1064.771	-12.28
1065.193	-1.78
1065.614	-14.58
1066.035	-4.88
1066.457	-2.78
1066.878	1.52
1067.3	-3.68
1067.721	-9.48
1068.142	-1.98
1068.564	-3.38
1068.985	-3.38
1069.406	-6.48
1069.827	-6.28
1070.248	6.62
1070.67	-9.58
1071.091	-8.78
1071.512	-6.58
1071.933	-3.18
1072.354	-7.58
1072.775	-6.08
1073.196	-9.28
1073.617	-4.38
1074.038	-4.28
1074.459	-7.78
1074.88	-10.38
1075.3	-2.28
1075.721	-3.18
1076.142	1.42
1076.563	-1.88
1076.983	-3.78
1077.404	-4.68
1077.825	-12.58
1078.246	-1.78
1078.666	-16.48
1079.087	-7.28
1079.507	-6.78
1079.928	-6.68
1080.348	4.22
1080.769	-3.68
1081.189	-4.28
1081.61	-5.78
1082.03	-5.38
1082.451	-4.98
1082.871	-4.18
1083.291	-6.78
1083.711	-14.08
1084.132	-10.08
1084.552	-0.58
1084.972	-5.48
1085.392	-16.18
1085.813	-10.08
1086.233	-6.78
1086.653	-1.58
1087.073	-1.68
1087.493	-10.78
1087.913	-0.78
1088.333	-5.98
1088.753	-0.48
1089.173	-1.08
1089.593	-6.08
1090.013	5.82
1090.433	0.82
1090.852	-2.78
1091.272	0.82
1091.692	-3.28
1092.112	-7.58
1092.531	-6.88
1092.951	-14.08
1093.371	-4.08
1093.79	0.22
1094.21	-5.18
1094.63	-6.28
1095.049	-9.08
1095.469	1.22
1095.888	-5.58
1096.308	0.42
1096.727	4.52
1097.146	-7.08
1097.566	-1.48
1097.985	-9.18
1098.405	-1.18
1098.824	-5.48
1099.243	-12.18
1099.662	-15.88
1100.082	-6.08
1100.501	-2.88
1100.92	-12.68
1101.339	-6.58
1101.758	-5.88
