Data from 20171114-ORNL-Ar_H_NY_Subt18_08-06-47-486.txt Node
Date: Tue Nov 14 08:06:47 EST 2017
User: Ender
Spectrometer: HR+D1039
Trigger mode: 0
Integration Time (sec): 2.730000E-2
Scans to average: 10
Electric dark correction enabled: true
Nonlinearity correction enabled: false
Boxcar width: 0
XAxis mode: Wavelengths
Number of Pixels in Spectrum: 2048
>>>>>Begin Spectral Data<<<<<
187.836	-2.44
188.309	-2.44
188.782	-2.44
189.255	4.76
189.728	-4.94
190.201	6.76
190.674	-0.54
191.147	3.16
191.619	-6.04
192.092	5.76
192.565	-0.54
193.038	-6.54
193.511	-1.04
193.984	3.96
194.456	-2.24
194.929	2.66
195.402	-0.24
195.874	-2.54
196.347	-1.94
196.82	-7.64
197.292	10.36
197.765	-1.34
198.237	-4.94
198.71	2.96
199.182	-1.64
199.655	0.96
200.127	-2.44
200.6	-3.34
201.072	0.06
201.544	-3.74
202.017	-6.14
202.489	3.06
202.961	-2.14
203.433	-5.34
203.906	-7.94
204.378	-0.64
204.85	-2.24
205.322	-5.94
205.794	3.16
206.266	-0.14
206.739	-9.44
207.211	-0.64
207.683	-7.64
208.155	-4.44
208.627	-4.54
209.099	-1.94
209.57	-13.34
210.042	-3.84
210.514	-1.84
210.986	0.06
211.458	-14.44
211.93	-0.24
212.402	0.96
212.873	-7.84
213.345	-3.74
213.817	-14.24
214.288	-3.14
214.76	-9.44
215.232	-0.94
215.703	-0.54
216.175	-7.34
216.646	-11.24
217.118	-6.84
217.589	-0.94
218.061	-6.44
218.532	-1.34
219.004	-6.74
219.475	-7.74
219.946	-5.14
220.418	-6.34
220.889	4.86
221.36	3.36
221.832	-0.04
222.303	-8.44
222.774	1.36
223.245	-6.74
223.717	-2.14
224.188	-5.14
224.659	-9.14
225.13	-3.54
225.601	-5.94
226.072	-2.34
226.543	1.96
227.014	2.56
227.485	-6.04
227.956	-6.14
228.427	-2.94
228.898	-2.54
229.369	3.96
229.839	-3.74
230.31	-6.84
230.781	0.56
231.252	-3.14
231.722	-3.04
232.193	1.56
232.664	-1.44
233.135	-4.04
233.605	-1.74
234.076	-8.34
234.546	6.06
235.017	-3.34
235.487	3.46
235.958	-7.94
236.428	-1.54
236.899	-0.74
237.369	-2.94
237.84	-7.94
238.31	0.36
238.78	-3.54
239.251	-9.44
239.721	-3.64
240.191	-2.74
240.662	-2.94
241.132	-0.14
241.602	-5.54
242.072	2.06
242.542	3.56
243.013	-2.94
243.483	1.36
243.953	-1.84
244.423	-4.24
244.893	0.36
245.363	5.66
245.833	6.36
246.303	-3.04
246.773	4.26
247.243	0.06
247.712	-4.44
248.182	3.56
248.652	-0.84
249.122	-7.54
249.592	1.46
250.061	-1.94
250.531	6.36
251.001	-5.34
251.471	-2.84
251.94	5.36
252.41	-3.94
252.879	-4.14
253.349	5.86
253.818	5.86
254.288	2.56
254.757	0.56
255.227	-3.04
255.696	1.56
256.166	2.46
256.635	7.06
257.105	4.26
257.574	-1.54
258.043	2.76
258.513	-3.34
258.982	3.26
259.451	-7.24
259.92	-1.14
260.389	-4.24
260.859	8.46
261.328	-0.74
261.797	3.66
262.266	1.36
262.735	13.86
263.204	4.76
263.673	-4.14
264.142	1.76
264.611	1.26
265.08	-1.44
265.549	-1.94
266.018	6.56
266.487	-1.74
266.955	-0.54
267.424	2.06
267.893	3.56
268.362	0.36
268.83	6.46
269.299	11.36
269.768	10.16
270.236	3.56
270.705	0.06
271.174	2.66
271.642	4.56
272.111	6.26
272.579	3.76
273.048	-0.44
273.516	8.56
273.985	0.56
274.453	8.26
274.922	14.26
275.39	6.36
275.858	-2.14
276.327	9.56
276.795	14.36
277.263	12.26
277.731	15.16
278.2	6.16
278.668	10.36
279.136	12.36
279.604	4.36
280.072	0.76
280.54	9.66
281.008	4.56
281.477	4.06
281.945	13.36
282.413	8.56
282.881	11.96
283.348	4.16
283.816	10.96
284.284	10.86
284.752	20.36
285.22	9.16
285.688	14.36
286.156	11.86
286.623	14.26
287.091	12.56
287.559	6.76
288.026	15.76
288.494	17.36
288.962	4.06
289.429	6.46
289.897	14.06
290.364	11.16
290.832	14.86
291.3	11.86
291.767	13.16
292.234	15.76
292.702	10.56
293.169	21.76
293.637	17.66
294.104	21.96
294.571	7.36
295.039	11.36
295.506	8.76
295.973	14.56
296.44	14.96
296.908	13.36
297.375	10.26
297.842	19.36
298.309	19.36
298.776	7.06
299.243	19.36
299.71	12.26
300.177	14.16
300.644	23.26
301.111	20.46
301.578	24.16
302.045	15.76
302.512	16.36
302.979	25.36
303.446	16.46
303.913	17.56
304.379	17.76
304.846	21.46
305.313	23.26
305.78	20.26
306.246	28.56
306.713	27.46
307.18	20.86
307.646	18.06
308.113	27.86
308.579	21.16
309.046	25.46
309.512	24.46
309.979	16.46
310.445	27.46
310.912	27.36
311.378	32.26
311.845	23.36
312.311	25.66
312.777	29.86
313.244	26.66
313.71	33.76
314.176	25.06
314.642	19.96
315.109	28.86
315.575	29.86
316.041	34.86
316.507	30.36
316.973	31.46
317.439	35.86
317.905	36.86
318.371	35.06
318.837	25.26
319.303	25.06
319.769	36.56
320.235	29.76
320.701	30.76
321.167	35.96
321.633	31.36
322.099	34.66
322.564	43.36
323.03	37.06
323.496	32.06
323.962	39.86
324.427	36.86
324.893	39.66
325.359	38.96
325.824	45.86
326.29	36.86
326.755	33.96
327.221	33.46
327.686	40.16
328.152	41.46
328.617	43.36
329.083	46.06
329.548	46.96
330.014	43.66
330.479	34.66
330.944	42.16
331.41	39.96
331.875	47.96
332.34	44.06
332.805	40.96
333.271	46.86
333.736	34.26
334.201	51.06
334.666	51.76
335.131	51.36
335.596	48.46
336.061	41.46
336.526	37.56
336.991	48.96
337.456	54.66
337.921	47.06
338.386	43.26
338.851	50.16
339.316	53.06
339.781	47.16
340.246	53.26
340.711	45.46
341.175	52.46
341.64	44.86
342.105	49.36
342.569	60.76
343.034	57.36
343.499	60.26
343.963	44.46
344.428	60.86
344.893	54.16
345.357	63.56
345.822	65.36
346.286	64.36
346.751	70.46
347.215	69.46
347.679	79.86
348.144	87.16
348.608	86.96
349.073	72.26
349.537	77.96
350.001	78.06
350.465	84.26
350.93	81.26
351.394	75.96
351.858	71.96
352.322	83.56
352.786	90.76
353.25	95.86
353.715	107.76
354.179	102.36
354.643	119.26
355.107	121.26
355.571	102.96
356.035	96.56
356.498	113.56
356.962	111.26
357.426	120.96
357.89	109.16
358.354	85.06
358.818	78.46
359.281	75.76
359.745	80.96
360.209	83.66
360.673	71.86
361.136	82.86
361.6	80.86
362.064	85.36
362.527	86.06
362.991	90.66
363.454	87.06
363.918	78.26
364.381	84.56
364.845	85.66
365.308	92.56
365.772	87.66
366.235	84.16
366.698	78.16
367.162	82.86
367.625	89.06
368.088	89.36
368.552	91.36
369.015	93.46
369.478	96.16
369.941	94.16
370.404	100.26
370.867	101.66
371.331	103.06
371.794	113.06
372.257	101.66
372.72	109.66
373.183	99.76
373.646	94.66
374.109	96.56
374.572	104.86
375.035	105.76
375.497	109.26
375.96	111.26
376.423	108.36
376.886	116.16
377.349	109.16
377.811	110.86
378.274	105.46
378.737	103.56
379.199	106.86
379.662	110.26
380.125	114.36
380.587	106.86
381.05	112.96
381.512	114.66
381.975	131.56
382.437	120.66
382.9	119.36
383.362	129.56
383.825	134.76
384.287	126.86
384.75	121.86
385.212	126.76
385.674	137.86
386.136	140.36
386.599	123.66
387.061	127.76
387.523	124.16
387.985	129.06
388.447	144.36
388.91	133.76
389.372	133.16
389.834	136.06
390.296	134.06
390.758	131.16
391.22	140.06
391.682	156.06
392.144	159.86
392.606	146.96
393.068	144.76
393.529	152.76
393.991	148.76
394.453	140.96
394.915	133.26
395.377	141.16
395.838	140.56
396.3	142.46
396.762	141.46
397.224	141.56
397.685	136.96
398.147	139.66
398.608	141.96
399.07	140.36
399.531	152.76
399.993	149.16
400.454	159.96
400.916	155.96
401.377	148.16
401.839	158.56
402.3	158.56
402.762	173.36
403.223	182.26
403.684	178.76
404.145	170.66
404.607	170.26
405.068	169.96
405.529	176.26
405.99	191.16
406.451	184.86
406.913	179.56
407.374	175.56
407.835	174.76
408.296	175.76
408.757	186.56
409.218	193.76
409.679	188.66
410.14	186.56
410.601	178.96
411.062	188.06
411.522	184.36
411.983	182.96
412.444	177.76
412.905	193.66
413.366	190.76
413.826	208.16
414.287	233.36
414.748	280.46
415.208	263.36
415.669	226.76
416.13	221.76
416.59	211.56
417.051	231.06
417.511	233.56
417.972	249.46
418.432	266.96
418.893	308.86
419.353	272.26
419.814	216.66
420.274	195.96
420.734	194.36
421.195	208.46
421.655	201.56
422.115	206.16
422.576	207.16
423.036	215.56
423.496	225.56
423.956	235.96
424.416	248.96
424.876	284.96
425.336	276.86
425.797	275.96
426.257	277.66
426.717	255.36
427.177	252.46
427.637	238.36
428.097	251.46
428.556	258.26
429.016	274.76
429.476	265.76
429.936	286.56
430.396	294.76
430.856	305.06
431.315	334.86
431.775	358.86
432.235	390.96
432.694	366.46
433.154	365.16
433.614	403.96
434.073	348.56
434.533	305.26
434.993	289.46
435.452	294.86
435.912	311.46
436.371	296.16
436.83	291.06
437.29	273.76
437.749	264.46
438.209	267.76
438.668	298.66
439.127	307.56
439.587	281.76
440.046	270.56
440.505	282.56
440.964	299.36
441.424	339.06
441.883	337.46
442.342	283.46
442.801	242.16
443.26	242.96
443.719	241.06
444.178	231.86
444.637	240.06
445.096	238.86
445.555	237.56
446.014	248.26
446.473	246.26
446.932	254.36
447.391	244.36
447.849	243.16
448.308	243.56
448.767	246.76
449.226	255.66
449.685	254.46
450.143	265.56
450.602	259.96
451.061	253.46
451.519	257.66
451.978	256.96
452.436	247.46
452.895	264.96
453.353	272.36
453.812	263.56
454.27	264.46
454.729	257.96
455.187	266.16
455.646	272.06
456.104	275.26
456.562	277.96
457.021	291.76
457.479	282.16
457.937	288.46
458.395	291.66
458.854	278.66
459.312	284.76
459.77	294.16
460.228	285.86
460.686	267.16
461.144	277.46
461.602	262.16
462.06	259.36
462.518	272.76
462.976	286.66
463.434	290.26
463.892	296.26
464.35	298.76
464.808	307.26
465.266	293.66
465.724	292.16
466.181	290.36
466.639	293.26
467.097	310.86
467.555	325.86
468.012	329.16
468.47	334.96
468.928	356.66
469.385	368.06
469.843	376.96
470.3	378.26
470.758	398.26
471.215	417.06
471.673	444.86
472.13	439.76
472.588	447.46
473.045	410.36
473.503	416.16
473.96	432.06
474.417	438.26
474.875	463.96
475.332	507.46
475.789	496.36
476.246	507.36
476.704	516.36
477.161	543.06
477.618	570.46
478.075	590.16
478.532	655.36
478.989	720.96
479.446	839.06
479.903	802.56
480.36	829.56
480.817	883.06
481.274	975.26
481.731	1064.06
482.188	1160.46
482.645	1277.16
483.102	1386.46
483.558	1495.56
484.015	1531.66
484.472	1504.96
484.929	1479.26
485.385	1436.76
485.842	1408.06
486.299	1357.86
486.755	1312.76
487.212	1110.76
487.668	944.16
488.125	880.66
488.582	816.16
489.038	781.36
489.494	750.96
489.951	721.66
490.407	712.86
490.864	689.16
491.32	689.26
491.776	688.76
492.233	690.96
492.689	654.36
493.145	643.56
493.602	646.16
494.058	653.56
494.514	647.66
494.97	674.86
495.426	700.06
495.882	664.86
496.338	662.46
496.794	665.06
497.251	665.76
497.707	682.66
498.163	686.76
498.618	695.36
499.074	700.46
499.53	713.16
499.986	715.76
500.442	694.06
500.898	663.96
501.354	661.66
501.809	667.96
502.265	664.86
502.721	678.56
503.177	684.56
503.632	688.86
504.088	696.66
504.543	717.36
504.999	732.46
505.455	703.56
505.91	680.36
506.366	689.36
506.821	680.16
507.277	687.76
507.732	687.76
508.187	687.26
508.643	684.56
509.098	695.36
509.553	719.86
510.009	714.76
510.464	733.96
510.919	747.46
511.375	750.06
511.83	769.96
512.285	773.96
512.74	813.26
513.195	845.76
513.65	823.06
514.105	816.76
514.56	827.16
515.015	851.46
515.47	865.06
515.925	844.96
516.38	837.46
516.835	845.96
517.29	831.86
517.745	844.06
518.2	819.96
518.655	805.16
519.109	804.26
519.564	803.96
520.019	789.96
520.474	786.36
520.928	780.36
521.383	768.96
521.838	770.96
522.292	760.26
522.747	766.96
523.201	757.86
523.656	748.06
524.11	752.06
524.565	751.46
525.019	750.26
525.474	747.46
525.928	750.76
526.382	743.16
526.837	747.86
527.291	753.06
527.745	747.46
528.2	760.06
528.654	745.26
529.108	738.66
529.562	742.16
530.016	737.76
530.47	745.56
530.925	742.96
531.379	748.36
531.833	752.76
532.287	754.16
532.741	755.06
533.195	754.36
533.649	761.96
534.103	769.26
534.556	769.46
535.01	759.76
535.464	761.46
535.918	778.06
536.372	764.16
536.826	765.46
537.279	758.66
537.733	763.46
538.187	765.86
538.64	765.36
539.094	781.86
539.548	782.06
540.001	782.96
540.455	761.56
540.908	788.66
541.362	783.86
541.815	798.46
542.269	823.16
542.722	815.36
543.175	834.56
543.629	831.46
544.082	841.86
544.536	844.66
544.989	842.36
545.442	854.36
545.895	844.36
546.349	848.06
546.802	857.66
547.255	861.26
547.708	861.86
548.161	878.26
548.614	882.16
549.067	890.56
549.52	885.06
549.973	874.96
550.426	865.06
550.879	854.76
551.332	858.56
551.785	868.66
552.238	879.46
552.691	891.06
553.144	893.16
553.596	914.66
554.049	942.26
554.502	954.26
554.955	975.56
555.407	969.46
555.86	966.76
556.313	956.26
556.765	938.26
557.218	941.86
557.67	950.96
558.123	947.96
558.576	936.26
559.028	938.86
559.48	944.56
559.933	942.46
560.385	904.16
560.838	875.86
561.29	858.86
561.742	845.96
562.195	831.26
562.647	829.06
563.099	824.86
563.551	830.26
564.004	842.66
564.456	827.36
564.908	810.16
565.36	791.06
565.812	769.46
566.264	774.46
566.716	767.26
567.168	750.06
567.62	763.16
568.072	743.06
568.524	749.06
568.976	734.76
569.428	729.36
569.88	729.76
570.332	734.56
570.784	734.56
571.235	733.76
571.687	759.16
572.139	750.36
572.59	764.76
573.042	757.66
573.494	762.66
573.945	755.36
574.397	739.56
574.849	741.46
575.3	739.16
575.752	732.46
576.203	735.26
576.655	734.56
577.106	721.76
577.557	725.36
578.009	713.16
578.46	709.76
578.912	700.56
579.363	721.96
579.814	720.96
580.265	707.96
580.717	704.26
581.168	714.36
581.619	725.86
582.07	729.16
582.521	724.66
582.972	709.76
583.423	709.86
583.875	721.16
584.326	733.26
584.777	753.86
585.227	755.76
585.678	786.76
586.129	785.56
586.58	824.46
587.031	837.66
587.482	864.26
587.933	900.76
588.384	872.26
588.834	840.16
589.285	820.36
589.736	827.96
590.186	815.26
590.637	819.96
591.088	787.16
591.538	777.06
591.989	771.36
592.439	778.56
592.89	770.36
593.34	745.56
593.791	748.86
594.241	741.86
594.692	738.66
595.142	740.76
595.593	742.06
596.043	745.76
596.493	747.36
596.943	751.56
597.394	766.86
597.844	757.96
598.294	774.96
598.744	798.76
599.195	830.86
599.645	871.16
600.095	907.06
600.545	975.56
600.995	1032.06
601.445	1077.16
601.895	1145.16
602.345	1202.06
602.795	1185.36
603.245	1137.86
603.695	1083.76
604.145	1023.86
604.594	982.46
605.044	917.06
605.494	854.76
605.944	798.16
606.393	790.86
606.843	769.26
607.293	770.46
607.743	760.76
608.192	777.86
608.642	787.36
609.091	803.76
609.541	815.26
609.99	805.26
610.44	788.46
610.889	765.56
611.339	736.06
611.788	721.86
612.238	733.46
612.687	736.06
613.136	734.66
613.586	741.46
614.035	747.66
614.484	758.26
614.933	743.76
615.383	747.36
615.832	744.36
616.281	739.46
616.73	713.56
617.179	694.76
617.628	676.76
618.077	670.26
618.526	663.06
618.975	646.46
619.424	648.76
619.873	638.76
620.322	648.26
620.771	639.36
621.22	632.36
621.669	638.16
622.118	617.76
622.567	602.76
623.015	602.46
623.464	600.86
623.913	592.36
624.361	585.96
624.81	581.06
625.259	583.56
625.707	580.26
626.156	594.36
626.604	595.06
627.053	589.96
627.501	594.86
627.95	598.56
628.398	610.86
628.847	596.26
629.295	600.76
629.744	601.96
630.192	593.26
630.64	591.36
631.089	579.26
631.537	558.06
631.985	559.66
632.433	550.06
632.881	561.56
633.33	558.26
633.778	548.16
634.226	557.26
634.674	560.66
635.122	559.86
635.57	572.76
636.018	592.86
636.466	590.36
636.914	593.26
637.362	601.76
637.81	596.56
638.258	617.06
638.705	614.46
639.153	644.36
639.601	657.06
640.049	672.96
640.497	703.76
640.944	729.26
641.392	687.16
641.84	646.26
642.287	616.86
642.735	593.76
643.182	595.66
643.63	580.36
644.078	601.36
644.525	608.46
644.973	609.26
645.42	622.76
645.867	646.26
646.315	659.46
646.762	687.56
647.21	706.46
647.657	725.36
648.104	766.06
648.551	785.16
648.999	842.56
649.446	914.76
649.893	1005.76
650.34	1148.96
650.787	1370.66
651.234	1678.36
651.682	2153.86
652.129	2913.06
652.576	4143.76
653.023	6025.96
653.47	8174.86
653.917	10143.96
654.363	11708.56
654.81	12921.16
655.257	12250.56
655.704	8118.66
656.151	4906.96
656.598	3220.66
657.044	2312.16
657.491	1787.26
657.938	1456.16
658.385	1229.06
658.831	1061.76
659.278	961.16
659.724	854.86
660.171	792.66
660.618	734.76
661.064	697.96
661.511	683.16
661.957	668.66
662.404	663.96
662.85	669.56
663.296	645.66
663.743	590.26
664.189	555.46
664.635	552.76
665.082	547.46
665.528	548.56
665.974	541.26
666.42	529.26
666.867	518.96
667.313	503.76
667.759	489.86
668.205	473.46
668.651	467.36
669.097	463.86
669.543	463.46
669.989	459.36
670.435	464.86
670.881	458.46
671.327	468.56
671.773	489.86
672.219	513.26
672.665	566.96
673.11	623.36
673.556	664.26
674.002	693.16
674.448	688.96
674.893	579.06
675.339	506.46
675.785	460.76
676.23	436.06
676.676	415.56
677.122	404.96
677.567	389.36
678.013	388.26
678.458	377.76
678.904	380.26
679.349	368.06
679.794	374.76
680.24	371.16
680.685	367.16
681.131	366.16
681.576	372.96
682.021	364.86
682.466	362.76
682.912	370.06
683.357	372.36
683.802	401.46
684.247	432.86
684.692	482.36
685.137	523.56
685.583	574.76
686.028	590.86
686.473	548.46
686.918	466.16
687.363	432.76
687.807	411.56
688.252	389.56
688.697	368.76
689.142	354.66
689.587	353.16
690.032	344.16
690.477	363.76
690.921	372.66
691.366	403.36
691.811	434.46
692.255	453.56
692.7	481.76
693.145	530.66
693.589	736.16
694.034	1202.16
694.478	1632.16
694.923	1843.26
695.367	2407.96
695.812	1267.86
696.256	529.56
696.701	386.66
697.145	360.46
697.59	348.16
698.034	339.16
698.478	337.86
698.922	341.56
699.367	332.86
699.811	357.16
700.255	369.06
700.699	405.16
701.143	442.46
701.588	489.56
702.032	541.26
702.476	534.56
702.92	520.46
703.364	520.56
703.808	679.66
704.252	1101.36
704.696	1536.36
705.14	1769.36
705.584	2246.36
706.027	1128.36
706.471	548.66
706.915	416.96
707.359	373.16
707.803	336.96
708.246	333.16
708.69	328.26
709.134	336.56
709.577	318.26
710.021	337.86
710.465	317.06
710.908	316.06
711.352	310.36
711.795	332.96
712.239	367.76
712.682	405.86
713.126	429.56
713.569	469.26
714.012	374.96
714.456	322.26
714.899	308.66
715.342	281.46
715.786	276.06
716.229	280.76
716.672	278.86
717.115	258.76
717.558	255.66
718.002	269.56
718.445	271.66
718.888	304.46
719.331	302.76
719.774	315.26
720.217	321.76
720.66	302.46
721.103	286.46
721.546	268.16
721.989	263.96
722.432	247.56
722.874	245.86
723.317	241.26
723.76	248.26
724.203	278.06
724.645	338.46
725.088	467.06
725.531	606.96
725.974	677.56
726.416	573.56
726.859	320.96
727.301	251.46
727.744	249.06
728.187	244.76
728.629	256.36
729.071	251.06
729.514	266.56
729.956	296.06
730.399	300.86
730.841	309.56
731.283	290.16
731.726	283.66
732.168	274.16
732.61	283.06
733.053	299.96
733.495	332.16
733.937	369.76
734.379	420.06
734.821	461.56
735.263	571.66
735.705	895.26
736.148	1673.46
736.59	2743.36
737.032	3241.96
737.474	2635.66
737.916	866.46
738.357	449.86
738.799	349.66
739.241	315.56
739.683	301.36
740.125	311.46
740.567	312.56
741.008	331.96
741.45	331.96
741.892	340.96
742.334	376.86
742.775	394.86
743.217	367.56
743.658	291.86
744.1	267.36
744.542	285.86
744.983	334.16
745.425	367.36
745.866	360.36
746.307	292.66
746.749	296.66
747.19	339.86
747.632	481.16
748.073	938.86
748.514	1979.06
748.956	3028.46
749.397	3805.26
749.838	3158.26
750.279	3122.46
750.72	1598.56
751.162	580.26
751.603	331.96
752.044	265.66
752.485	232.06
752.926	224.46
753.367	211.06
753.808	213.16
754.249	206.86
754.69	198.06
755.131	191.46
755.572	199.76
756.013	190.16
756.453	195.56
756.894	192.96
757.335	199.76
757.776	203.66
758.216	204.66
758.657	203.56
759.098	211.06
759.538	240.46
759.979	282.86
760.42	401.36
760.86	745.06
761.301	1948.56
761.741	4717.46
762.182	6811.26
762.622	4794.16
763.063	1389.26
763.503	565.46
763.943	346.66
764.384	290.66
764.824	259.46
765.264	249.46
765.705	220.96
766.145	194.26
766.585	186.96
767.025	175.36
767.465	178.76
767.906	188.96
768.346	207.16
768.786	209.76
769.226	231.36
769.666	325.56
770.106	648.96
770.546	1649.56
770.986	2790.46
771.426	2496.66
771.866	848.86
772.306	350.36
772.745	214.86
773.185	172.56
773.625	171.26
774.065	160.76
774.505	173.36
774.944	217.66
775.384	372.16
775.824	615.96
776.263	596.46
776.703	291.76
777.142	164.36
777.582	139.56
778.021	127.86
778.461	128.76
778.9	131.66
779.34	134.06
779.779	117.26
780.219	118.76
780.658	106.06
781.097	115.46
781.537	114.96
781.976	115.26
782.415	108.36
782.855	107.46
783.294	108.06
783.733	104.46
784.172	114.36
784.611	101.76
785.05	116.06
785.489	120.96
785.928	120.76
786.367	122.76
786.806	125.86
787.245	137.56
787.684	139.36
788.123	155.76
788.562	141.36
789.001	130.66
789.44	123.66
789.879	124.06
790.317	123.66
790.756	131.46
791.195	132.36
791.634	160.26
792.072	216.96
792.511	379.06
792.95	1054.26
793.388	2241.56
793.827	2020.56
794.265	717.56
794.704	292.86
795.142	196.36
795.581	156.76
796.019	147.06
796.458	131.36
796.896	134.66
797.334	134.76
797.773	164.56
798.211	232.66
798.649	463.96
799.087	1090.26
799.526	1689.36
799.964	2122.76
800.402	2136.66
800.84	806.06
801.278	322.16
801.716	198.36
802.154	163.26
802.592	158.36
803.03	151.06
803.468	137.46
803.906	150.96
804.344	156.06
804.782	150.06
805.22	143.66
805.658	137.56
806.096	154.96
806.533	165.46
806.971	189.76
807.409	232.56
807.847	336.06
808.284	706.56
808.722	1978.86
809.16	3491.86
809.597	3348.26
810.035	5777.56
810.472	6137.16
810.91	2213.36
811.347	840.76
811.785	436.36
812.222	275.36
812.66	215.46
813.097	166.36
813.535	149.26
813.972	139.56
814.409	122.46
814.846	120.26
815.284	115.76
815.721	113.16
816.158	107.86
816.595	116.56
817.032	161.16
817.47	187.36
817.907	148.36
818.344	105.66
818.781	101.46
819.218	105.66
819.655	132.26
820.092	198.36
820.529	237.46
820.966	178.96
821.403	134.26
821.839	102.66
822.276	102.86
822.713	136.86
823.15	143.06
823.587	128.06
824.023	160.46
824.46	325.16
824.897	946.46
825.333	1425.56
825.77	625.16
826.206	245.66
826.643	143.26
827.08	105.86
827.516	87.16
827.953	85.96
828.389	90.26
828.825	76.76
829.262	84.16
829.698	67.96
830.135	69.36
830.571	67.46
831.007	68.86
831.443	62.56
831.88	61.16
832.316	68.66
832.752	65.66
833.188	74.16
833.624	69.76
834.06	72.46
834.497	70.86
834.933	66.76
835.369	83.76
835.805	72.56
836.241	81.36
836.677	76.56
837.112	90.46
837.548	110.16
837.984	143.36
838.42	216.66
838.856	525.46
839.292	1609.76
839.727	2440.56
840.163	1133.36
840.599	982.76
841.034	2148.06
841.47	2235.96
841.906	825.56
842.341	349.56
842.777	209.56
843.212	214.56
843.648	198.06
844.083	118.46
844.519	87.86
844.954	78.16
845.39	62.36
845.825	63.76
846.261	56.26
846.696	59.06
847.131	57.36
847.566	60.76
848.002	53.56
848.437	52.46
848.872	62.06
849.307	63.66
849.742	88.86
850.177	192.26
850.613	587.26
851.048	924.46
851.483	401.56
851.918	160.06
852.353	86.56
852.788	57.06
853.223	51.36
853.657	54.56
854.092	49.86
854.527	38.36
854.962	43.56
855.397	52.76
855.832	55.06
856.266	49.56
856.701	46.56
857.136	37.16
857.57	36.76
858.005	50.46
858.44	64.06
858.874	47.56
859.309	56.36
859.743	46.86
860.178	51.26
860.612	47.76
861.047	60.06
861.481	77.76
861.915	78.26
862.35	54.06
862.784	35.56
863.218	46.26
863.653	37.06
864.087	54.56
864.521	62.46
864.955	66.86
865.39	160.16
865.824	181.16
866.258	128.26
866.692	184.96
867.126	198.66
867.56	117.16
867.994	60.66
868.428	44.36
868.862	50.26
869.296	61.26
869.73	61.86
870.164	60.76
870.598	51.36
871.031	37.36
871.465	31.86
871.899	32.06
872.333	24.86
872.766	27.46
873.2	34.56
873.634	29.56
874.067	28.26
874.501	23.76
874.935	36.96
875.368	31.96
875.802	30.76
876.235	30.66
876.669	24.96
877.102	25.96
877.535	26.76
877.969	24.46
878.402	22.36
878.836	19.56
879.269	24.66
879.702	27.46
880.135	26.36
880.569	20.16
881.002	26.46
881.435	20.16
881.868	12.86
882.301	25.86
882.734	24.46
883.167	26.86
883.601	13.16
884.034	25.96
884.467	15.56
884.899	21.86
885.332	17.86
885.765	20.66
886.198	24.06
886.631	24.96
887.064	21.36
887.497	19.86
887.929	26.36
888.362	13.06
888.795	18.96
889.228	15.26
889.66	23.46
890.093	17.06
890.526	16.96
890.958	17.36
891.391	17.26
891.823	25.26
892.256	14.76
892.688	12.46
893.121	17.96
893.553	13.86
893.985	21.76
894.418	25.06
894.85	13.76
895.282	13.96
895.715	17.56
896.147	19.06
896.579	15.46
897.011	18.46
897.444	22.46
897.876	13.06
898.308	24.86
898.74	13.36
899.172	12.16
899.604	25.26
900.036	18.46
900.468	12.16
900.9	19.86
901.332	17.36
901.764	14.66
902.196	23.86
902.628	20.86
903.06	13.36
903.491	33.36
903.923	20.46
904.355	24.66
904.787	30.26
905.218	25.16
905.65	17.66
906.082	17.06
906.513	15.56
906.945	13.36
907.376	19.26
907.808	20.16
908.239	16.16
908.671	12.46
909.102	27.16
909.534	24.66
909.965	52.96
910.397	99.46
910.828	336.86
911.259	497.06
911.691	230.56
912.122	118.06
912.553	56.56
912.984	40.36
913.415	26.26
913.847	26.76
914.278	16.46
914.709	20.96
915.14	20.96
915.571	20.36
916.002	12.96
916.433	17.26
916.864	21.06
917.295	13.46
917.726	24.16
918.157	14.86
918.587	26.66
919.018	19.36
919.449	21.36
919.88	25.46
920.311	30.26
920.741	53.66
921.172	173.16
921.603	159.16
922.033	72.86
922.464	55.36
922.895	23.66
923.325	24.46
923.756	13.26
924.186	18.76
924.617	22.26
925.047	22.26
925.478	19.26
925.908	22.56
926.338	14.66
926.769	11.86
927.199	14.96
927.629	12.16
928.06	20.96
928.49	13.96
928.92	12.76
929.35	18.46
929.78	6.26
930.21	8.46
930.641	5.46
931.071	6.86
931.501	4.46
931.931	4.66
932.361	8.06
932.791	-1.04
933.221	4.76
933.651	3.36
934.08	19.56
934.51	28.96
934.94	10.76
935.37	9.46
935.8	9.66
936.229	9.86
936.659	1.66
937.089	3.06
937.519	17.86
937.948	19.96
938.378	13.26
938.807	0.96
939.237	2.26
939.666	10.36
940.096	1.56
940.525	-0.44
940.955	4.06
941.384	4.06
941.814	-5.24
942.243	-2.44
942.672	-0.14
943.102	1.86
943.531	-1.74
943.96	3.76
944.39	5.86
944.819	8.66
945.248	3.76
945.677	3.96
946.106	6.76
946.535	6.66
946.964	7.56
947.393	3.26
947.822	-0.64
948.251	-3.84
948.68	4.86
949.109	4.36
949.538	6.76
949.967	0.56
950.396	2.76
950.825	-2.24
951.254	4.06
951.682	-4.94
952.111	2.46
952.54	6.96
952.969	-10.84
953.397	-5.74
953.826	2.66
954.254	1.16
954.683	5.16
955.112	-6.14
955.54	1.46
955.969	3.66
956.397	1.26
956.826	-5.04
957.254	4.66
957.682	0.76
958.111	11.06
958.539	2.66
958.967	0.36
959.396	-3.74
959.824	1.96
960.252	6.86
960.68	-1.64
961.109	-5.04
961.537	-9.44
961.965	0.26
962.393	5.96
962.821	1.26
963.249	5.96
963.677	1.16
964.105	10.06
964.533	41.36
964.961	43.66
965.389	20.06
965.817	6.66
966.245	2.86
966.672	3.86
967.1	0.66
967.528	2.56
967.956	-0.44
968.383	-1.64
968.811	0.16
969.239	0.76
969.666	-3.84
970.094	-0.64
970.522	-1.64
970.949	2.26
971.377	-4.54
971.804	-2.04
972.232	-6.34
972.659	-1.24
973.087	-5.64
973.514	-2.14
973.941	-9.54
974.369	2.06
974.796	3.06
975.223	-2.14
975.651	1.66
976.078	-0.34
976.505	1.16
976.932	2.36
977.359	20.76
977.786	10.26
978.214	1.46
978.641	-0.94
979.068	-2.24
979.495	-2.44
979.922	-1.14
980.349	-1.44
980.776	2.56
981.202	9.56
981.629	3.66
982.056	8.16
982.483	-0.84
982.91	1.86
983.337	-9.04
983.763	2.76
984.19	-1.74
984.617	-3.04
985.043	-8.24
985.47	-3.44
985.897	-1.44
986.323	1.16
986.75	11.56
987.176	0.86
987.603	-0.14
988.029	-2.34
988.456	-4.94
988.882	3.46
989.308	-6.54
989.735	-1.54
990.161	1.36
990.587	-4.64
991.014	-3.74
991.44	5.36
991.866	-0.54
992.292	-5.74
992.719	0.06
993.145	2.16
993.571	-10.54
993.997	-7.04
994.423	0.76
994.849	-6.94
995.275	4.56
995.701	5.36
996.127	-4.84
996.553	2.26
996.979	-9.34
997.405	-1.74
997.83	-8.34
998.256	-4.34
998.682	-8.94
999.108	-9.14
999.534	-3.34
999.959	-5.34
1000.385	-1.44
1000.811	-3.74
1001.236	-6.54
1001.662	-5.64
1002.087	-7.14
1002.513	2.76
1002.938	2.66
1003.364	-5.34
1003.789	0.86
1004.215	0.16
1004.64	-0.34
1005.066	-1.84
1005.491	3.96
1005.916	6.36
1006.342	2.46
1006.767	-0.84
1007.192	4.36
1007.617	-7.74
1008.042	-3.64
1008.468	-8.74
1008.893	-2.34
1009.318	-0.54
1009.743	3.06
1010.168	3.96
1010.593	4.76
1011.018	-7.54
1011.443	2.06
1011.868	0.86
1012.293	-9.14
1012.718	-3.04
1013.143	0.26
1013.567	4.26
1013.992	-3.04
1014.417	-10.74
1014.842	-0.14
1015.267	-6.94
1015.691	-0.74
1016.116	5.26
1016.541	0.26
1016.965	-2.14
1017.39	2.86
1017.814	4.06
1018.239	-1.44
1018.663	-1.04
1019.088	-12.54
1019.512	-5.84
1019.937	-3.44
1020.361	-2.14
1020.785	-7.94
1021.21	-3.44
1021.634	-4.94
1022.058	-1.64
1022.483	0.96
1022.907	-7.94
1023.331	-5.64
1023.755	-9.14
1024.179	2.06
1024.604	-4.74
1025.028	-1.84
1025.452	-8.14
1025.876	1.36
1026.3	-0.94
1026.724	-7.54
1027.148	-1.24
1027.572	-15.44
1027.996	-1.14
1028.42	-1.74
1028.843	2.76
1029.267	-5.34
1029.691	-2.74
1030.115	-9.44
1030.539	-6.34
1030.962	-9.24
1031.386	-12.84
1031.81	2.96
1032.233	-4.04
1032.657	-0.04
1033.08	-2.84
1033.504	0.66
1033.927	-1.14
1034.351	-1.44
1034.774	-7.14
1035.198	-2.74
1035.621	-3.84
1036.045	-2.34
1036.468	6.46
1036.891	-12.04
1037.315	-10.44
1037.738	-10.14
1038.161	-5.34
1038.584	-5.44
1039.008	-4.94
1039.431	0.26
1039.854	-2.04
1040.277	-9.94
1040.7	-14.54
1041.123	-4.74
1041.546	-14.24
1041.969	-8.64
1042.392	-4.04
1042.815	0.96
1043.238	0.56
1043.661	-4.14
1044.084	-4.84
1044.507	-5.44
1044.93	-0.74
1045.352	-10.54
1045.775	-7.54
1046.198	-2.14
1046.621	3.16
1047.043	-0.54
1047.466	4.86
1047.889	-1.34
1048.311	-7.44
1048.734	1.46
1049.156	1.56
1049.579	0.66
1050.001	0.46
1050.424	-2.34
1050.846	-4.24
1051.269	-3.14
1051.691	-6.94
1052.113	-8.74
1052.536	-0.44
1052.958	-6.14
1053.38	-4.44
1053.802	-12.94
1054.225	-1.34
1054.647	-7.64
1055.069	-10.04
1055.491	4.06
1055.913	-14.04
1056.335	-0.24
1056.757	-1.84
1057.179	-6.54
1057.601	-7.94
1058.023	2.36
1058.445	-2.04
1058.867	-7.14
1059.289	2.26
1059.711	-7.14
1060.133	-5.94
1060.555	-4.44
1060.976	-5.44
1061.398	-2.24
1061.82	-8.14
1062.241	-1.64
1062.663	-12.14
1063.085	-8.34
1063.506	-1.74
1063.928	0.56
1064.35	1.66
1064.771	-4.14
1065.193	-2.54
1065.614	-8.94
1066.035	-5.94
1066.457	-2.54
1066.878	2.66
1067.3	-1.44
1067.721	2.06
1068.142	-2.44
1068.564	-7.04
1068.985	-3.64
1069.406	-8.84
1069.827	-8.64
1070.248	3.36
1070.67	-1.54
1071.091	-5.04
1071.512	-4.14
1071.933	-3.64
1072.354	-3.04
1072.775	-5.74
1073.196	-8.24
1073.617	-2.94
1074.038	-8.64
1074.459	-2.24
1074.88	-5.34
1075.3	5.26
1075.721	-7.24
1076.142	6.66
1076.563	-4.84
1076.983	-11.64
1077.404	-3.74
1077.825	-14.34
1078.246	-3.84
1078.666	-12.54
1079.087	0.36
1079.507	-8.64
1079.928	-1.74
1080.348	-2.54
1080.769	1.56
1081.189	-0.84
1081.61	2.16
1082.03	-4.84
1082.451	-6.74
1082.871	-2.84
1083.291	-9.84
1083.711	-8.54
1084.132	-4.54
1084.552	-2.94
1084.972	2.56
1085.392	-8.14
1085.813	-7.84
1086.233	-2.04
1086.653	-4.24
1087.073	-1.64
1087.493	-3.44
1087.913	-6.74
1088.333	-5.94
1088.753	-6.24
1089.173	1.86
1089.593	-3.14
1090.013	0.96
1090.433	-1.94
1090.852	-3.14
1091.272	-2.74
1091.692	-6.64
1092.112	-6.94
1092.531	-8.74
1092.951	-15.94
1093.371	-3.34
1093.79	-4.34
1094.21	-0.04
1094.63	-3.14
1095.049	-3.94
1095.469	1.06
1095.888	1.56
1096.308	1.96
1096.727	1.36
1097.146	-9.24
1097.566	-0.84
1097.985	-6.54
1098.405	-8.64
1098.824	-5.74
1099.243	-8.64
1099.662	-7.14
1100.082	-4.14
1100.501	-2.64
1100.92	-9.34
1101.339	-5.34
1101.758	-8.44
