Data from 20171114-ORNL-Ar_H_NY_Subt18_08-05-28-596.txt Node
Date: Tue Nov 14 08:05:28 EST 2017
User: Ender
Spectrometer: HR+D1039
Trigger mode: 0
Integration Time (sec): 2.730000E-2
Scans to average: 10
Electric dark correction enabled: true
Nonlinearity correction enabled: false
Boxcar width: 0
XAxis mode: Wavelengths
Number of Pixels in Spectrum: 2048
>>>>>Begin Spectral Data<<<<<
187.836	-4.32
188.309	-4.32
188.782	-4.32
189.255	-1.82
189.728	-0.92
190.201	5.88
190.674	-1.32
191.147	5.08
191.619	-6.72
192.092	2.18
192.565	4.98
193.038	-0.32
193.511	2.88
193.984	1.88
194.456	-0.42
194.929	0.18
195.402	-3.52
195.874	-3.72
196.347	1.18
196.82	-3.82
197.292	2.98
197.765	0.78
198.237	-3.52
198.71	-1.42
199.182	0.08
199.655	-1.42
200.127	3.38
200.6	0.68
201.072	0.98
201.544	-2.42
202.017	-4.02
202.489	7.08
202.961	-6.72
203.433	-2.42
203.906	-4.32
204.378	-2.72
204.85	-5.62
205.322	-5.22
205.794	-1.72
206.266	0.98
206.739	-3.82
207.211	4.68
207.683	-5.62
208.155	-4.42
208.627	-6.12
209.099	-1.52
209.57	-9.12
210.042	-1.52
210.514	-9.32
210.986	1.68
211.458	-8.72
211.93	-1.12
212.402	1.68
212.873	-6.22
213.345	-3.12
213.817	-14.82
214.288	-0.92
214.76	-7.72
215.232	-5.32
215.703	-2.42
216.175	-0.32
216.646	-3.52
217.118	-5.42
217.589	-1.82
218.061	-1.72
218.532	-4.72
219.004	0.48
219.475	-5.22
219.946	-4.12
220.418	-2.72
220.889	-2.32
221.36	1.38
221.832	-6.62
222.303	-3.82
222.774	3.88
223.245	-9.02
223.717	-4.22
224.188	-4.02
224.659	-6.42
225.13	-10.02
225.601	4.98
226.072	1.48
226.543	0.88
227.014	3.58
227.485	0.58
227.956	-3.62
228.427	2.28
228.898	2.88
229.369	1.88
229.839	-1.82
230.31	-3.92
230.781	4.88
231.252	-4.22
231.722	2.18
232.193	1.08
232.664	-1.62
233.135	-0.02
233.605	1.78
234.076	-2.62
234.546	-0.02
235.017	2.68
235.487	2.68
235.958	6.18
236.428	-0.22
236.899	1.68
237.369	5.88
237.84	0.78
238.31	12.48
238.78	10.88
239.251	4.38
239.721	2.88
240.191	4.38
240.662	-0.62
241.132	1.78
241.602	-5.22
242.072	2.18
242.542	7.78
243.013	-3.12
243.483	5.38
243.953	3.68
244.423	4.88
244.893	-2.42
245.363	8.48
245.833	0.78
246.303	0.88
246.773	10.48
247.243	4.88
247.712	3.58
248.182	9.78
248.652	12.88
249.122	0.68
249.592	8.28
250.061	23.28
250.531	37.38
251.001	20.88
251.471	24.58
251.94	16.68
252.41	9.48
252.879	4.38
253.349	13.98
253.818	5.68
254.288	11.18
254.757	7.98
255.227	6.88
255.696	4.98
256.166	11.48
256.635	7.78
257.105	9.58
257.574	8.88
258.043	13.68
258.513	9.48
258.982	22.88
259.451	9.88
259.92	14.18
260.389	11.28
260.859	23.08
261.328	20.48
261.797	24.88
262.266	13.38
262.735	10.98
263.204	6.58
263.673	3.08
264.142	11.18
264.611	-2.42
265.08	1.48
265.549	-1.92
266.018	8.68
266.487	4.28
266.955	1.18
267.424	3.38
267.893	7.78
268.362	4.98
268.83	3.28
269.299	13.58
269.768	9.68
270.236	11.58
270.705	11.48
271.174	7.08
271.642	4.88
272.111	6.88
272.579	21.18
273.048	27.88
273.516	25.48
273.985	32.28
274.453	29.08
274.922	27.48
275.39	20.28
275.858	6.98
276.327	15.98
276.795	17.78
277.263	19.88
277.731	32.08
278.2	59.78
278.668	63.88
279.136	57.18
279.604	24.28
280.072	20.78
280.54	10.98
281.008	10.98
281.477	16.08
281.945	13.38
282.413	17.08
282.881	19.48
283.348	14.68
283.816	20.28
284.284	19.48
284.752	17.68
285.22	11.58
285.688	21.28
286.156	18.38
286.623	49.18
287.091	57.38
287.559	31.28
288.026	20.38
288.494	27.58
288.962	9.48
289.429	14.48
289.897	22.78
290.364	15.08
290.832	19.58
291.3	19.58
291.767	25.38
292.234	21.08
292.702	18.58
293.169	19.18
293.637	25.18
294.104	26.28
294.571	12.78
295.039	23.98
295.506	15.08
295.973	26.78
296.44	15.28
296.908	24.48
297.375	24.48
297.842	18.38
298.309	16.38
298.776	17.38
299.243	21.08
299.71	18.18
300.177	26.18
300.644	23.68
301.111	29.68
301.578	21.28
302.045	15.58
302.512	28.08
302.979	27.58
303.446	25.98
303.913	23.98
304.379	24.58
304.846	33.88
305.313	28.08
305.78	25.78
306.246	32.48
306.713	30.18
307.18	30.78
307.646	36.38
308.113	31.28
308.579	28.28
309.046	28.78
309.512	29.58
309.979	16.78
310.445	23.28
310.912	30.38
311.378	35.98
311.845	25.78
312.311	28.08
312.777	31.88
313.244	34.18
313.71	38.88
314.176	33.28
314.642	30.88
315.109	37.48
315.575	37.68
316.041	40.98
316.507	34.38
316.973	40.78
317.439	34.88
317.905	38.18
318.371	40.58
318.837	38.38
319.303	38.48
319.769	39.78
320.235	41.38
320.701	34.38
321.167	42.78
321.633	36.68
322.099	48.18
322.564	51.28
323.03	47.68
323.496	46.68
323.962	45.48
324.427	41.38
324.893	47.38
325.359	43.08
325.824	38.88
326.29	39.58
326.755	39.88
327.221	44.28
327.686	44.38
328.152	55.28
328.617	43.58
329.083	49.48
329.548	58.48
330.014	55.18
330.479	47.68
330.944	42.38
331.41	46.88
331.875	49.78
332.34	47.58
332.805	48.38
333.271	54.08
333.736	44.88
334.201	54.68
334.666	53.38
335.131	56.38
335.596	54.58
336.061	57.58
336.526	50.98
336.991	49.28
337.456	56.28
337.921	51.18
338.386	43.88
338.851	49.78
339.316	48.28
339.781	48.88
340.246	59.78
340.711	51.58
341.175	48.18
341.64	50.68
342.105	57.18
342.569	55.18
343.034	65.28
343.499	57.88
343.963	58.88
344.428	66.08
344.893	61.58
345.357	71.08
345.822	63.58
346.286	72.38
346.751	74.68
347.215	76.98
347.679	82.38
348.144	97.58
348.608	88.98
349.073	74.78
349.537	76.68
350.001	86.48
350.465	90.78
350.93	84.68
351.394	90.68
351.858	82.08
352.322	88.78
352.786	87.68
353.25	109.08
353.715	115.18
354.179	111.08
354.643	124.68
355.107	134.08
355.571	112.88
356.035	98.88
356.498	123.58
356.962	130.18
357.426	139.38
357.89	123.08
358.354	94.18
358.818	88.58
359.281	88.28
359.745	82.58
360.209	79.78
360.673	81.28
361.136	80.78
361.6	87.08
362.064	85.08
362.527	88.08
362.991	87.38
363.454	84.78
363.918	85.18
364.381	88.28
364.845	87.68
365.308	97.78
365.772	86.18
366.235	84.48
366.698	84.88
367.162	87.48
367.625	86.68
368.088	96.18
368.552	95.68
369.015	92.68
369.478	101.38
369.941	104.38
370.404	103.78
370.867	104.28
371.331	108.28
371.794	114.48
372.257	111.08
372.72	122.78
373.183	111.88
373.646	106.08
374.109	105.28
374.572	106.68
375.035	112.48
375.497	111.38
375.96	100.38
376.423	107.68
376.886	120.28
377.349	116.98
377.811	105.68
378.274	108.18
378.737	108.88
379.199	116.68
379.662	115.78
380.125	114.18
380.587	117.98
381.05	122.18
381.512	130.78
381.975	137.38
382.437	131.78
382.9	134.08
383.362	130.68
383.825	142.48
384.287	150.68
384.75	140.88
385.212	137.88
385.674	146.38
386.136	135.08
386.599	123.98
387.061	130.88
387.523	128.98
387.985	136.68
388.447	143.58
388.91	148.88
389.372	155.48
389.834	155.38
390.296	149.68
390.758	157.88
391.22	171.18
391.682	211.78
392.144	289.88
392.606	224.98
393.068	161.98
393.529	176.58
393.991	155.58
394.453	147.38
394.915	152.28
395.377	189.58
395.838	215.88
396.3	155.68
396.762	145.48
397.224	134.18
397.685	127.48
398.147	132.98
398.608	131.28
399.07	131.28
399.531	135.18
399.993	144.18
400.454	152.78
400.916	151.88
401.377	151.48
401.839	150.88
402.3	152.98
402.762	160.08
403.223	180.88
403.684	167.38
404.145	164.48
404.607	167.28
405.068	162.08
405.529	178.88
405.99	187.38
406.451	178.58
406.913	175.88
407.374	169.78
407.835	161.58
408.296	170.88
408.757	175.48
409.218	189.78
409.679	188.48
410.14	175.58
410.601	175.18
411.062	188.68
411.522	199.08
411.983	191.38
412.444	175.28
412.905	185.68
413.366	185.18
413.826	195.08
414.287	219.98
414.748	267.78
415.208	249.98
415.669	213.48
416.13	203.08
416.59	206.18
417.051	222.48
417.511	222.58
417.972	234.68
418.432	252.38
418.893	288.68
419.353	250.88
419.814	201.98
420.274	184.18
420.734	177.78
421.195	205.08
421.655	199.08
422.115	199.18
422.576	199.78
423.036	204.08
423.496	206.88
423.956	219.48
424.416	232.58
424.876	275.88
425.336	267.68
425.797	269.58
426.257	262.18
426.717	246.28
427.177	237.18
427.637	229.68
428.097	240.58
428.556	249.88
429.016	270.08
429.476	273.18
429.936	274.68
430.396	275.68
430.856	291.18
431.315	316.98
431.775	350.68
432.235	384.08
432.694	351.38
433.154	364.98
433.614	388.18
434.073	342.38
434.533	289.48
434.993	275.38
435.452	282.98
435.912	294.88
436.371	294.98
436.83	285.08
437.29	270.88
437.749	243.38
438.209	245.78
438.668	273.68
439.127	291.78
439.587	268.38
440.046	258.58
440.505	261.68
440.964	277.68
441.424	321.48
441.883	309.58
442.342	264.68
442.801	221.28
443.26	215.38
443.719	220.28
444.178	216.98
444.637	209.88
445.096	219.48
445.555	224.88
446.014	222.68
446.473	225.18
446.932	225.98
447.391	231.18
447.849	226.18
448.308	217.68
448.767	216.28
449.226	233.08
449.685	235.38
450.143	253.98
450.602	240.18
451.061	229.78
451.519	234.38
451.978	239.28
452.436	239.18
452.895	234.18
453.353	254.88
453.812	244.98
454.27	241.78
454.729	239.78
455.187	239.78
455.646	251.28
456.104	254.18
456.562	263.38
457.021	269.48
457.479	259.08
457.937	275.18
458.395	267.88
458.854	249.98
459.312	266.88
459.77	271.08
460.228	255.58
460.686	247.88
461.144	254.28
461.602	251.28
462.06	247.48
462.518	254.48
462.976	256.98
463.434	255.98
463.892	271.28
464.35	283.68
464.808	295.78
465.266	272.18
465.724	268.78
466.181	270.28
466.639	274.68
467.097	292.08
467.555	295.58
468.012	306.68
468.47	308.78
468.928	329.78
469.385	347.18
469.843	349.28
470.3	355.08
470.758	371.58
471.215	381.78
471.673	408.48
472.13	412.88
472.588	427.38
473.045	376.38
473.503	379.68
473.96	392.88
474.417	408.18
474.875	434.38
475.332	480.78
475.789	463.08
476.246	462.28
476.704	486.98
477.161	511.48
477.618	530.28
478.075	558.88
478.532	620.18
478.989	703.68
479.446	812.98
479.903	777.58
480.36	814.88
480.817	867.08
481.274	972.38
481.731	1080.98
482.188	1172.28
482.645	1313.38
483.102	1418.68
483.558	1545.88
484.015	1616.28
484.472	1583.98
484.929	1530.58
485.385	1479.58
485.842	1439.28
486.299	1375.88
486.755	1302.08
487.212	1109.18
487.668	931.18
488.125	860.68
488.582	782.78
489.038	762.58
489.494	717.78
489.951	694.38
490.407	674.38
490.864	654.18
491.32	651.88
491.776	654.28
492.233	655.68
492.689	619.78
493.145	610.38
493.602	605.38
494.058	615.78
494.514	619.58
494.97	637.78
495.426	648.18
495.882	625.88
496.338	620.48
496.794	622.28
497.251	633.38
497.707	646.28
498.163	644.18
498.618	656.48
499.074	649.78
499.53	681.18
499.986	685.78
500.442	661.58
500.898	638.08
501.354	625.58
501.809	643.28
502.265	648.58
502.721	664.78
503.177	669.58
503.632	676.18
504.088	677.08
504.543	716.88
504.999	712.08
505.455	668.28
505.91	636.18
506.366	639.98
506.821	625.98
507.277	632.58
507.732	631.18
508.187	622.48
508.643	632.38
509.098	632.48
509.553	658.48
510.009	665.28
510.464	680.18
510.919	689.18
511.375	689.48
511.83	718.58
512.285	726.88
512.74	770.58
513.195	789.28
513.65	774.88
514.105	759.68
514.56	776.48
515.015	798.68
515.47	810.78
515.925	796.88
516.38	786.68
516.835	798.68
517.29	789.18
517.745	776.18
518.2	763.48
518.655	752.88
519.109	744.68
519.564	738.58
520.019	745.68
520.474	722.38
520.928	723.58
521.383	726.68
521.838	715.48
522.292	705.68
522.747	715.08
523.201	709.48
523.656	697.68
524.11	689.38
524.565	695.08
525.019	689.98
525.474	700.98
525.928	702.98
526.382	697.98
526.837	695.88
527.291	705.08
527.745	702.78
528.2	702.48
528.654	689.58
529.108	687.98
529.562	686.78
530.016	694.18
530.47	697.78
530.925	684.98
531.379	702.78
531.833	705.48
532.287	710.18
532.741	706.58
533.195	708.98
533.649	713.28
534.103	715.88
534.556	714.78
535.01	721.08
535.464	704.68
535.918	719.18
536.372	726.18
536.826	721.08
537.279	710.08
537.733	715.08
538.187	709.28
538.64	720.18
539.094	729.48
539.548	732.08
540.001	723.28
540.455	731.58
540.908	733.38
541.362	741.68
541.815	747.68
542.269	755.78
542.722	764.78
543.175	762.98
543.629	776.98
544.082	785.98
544.536	798.38
544.989	778.88
545.442	793.38
545.895	781.28
546.349	781.68
546.802	798.28
547.255	794.48
547.708	801.78
548.161	805.38
548.614	818.98
549.067	829.78
549.52	817.08
549.973	808.88
550.426	810.88
550.879	803.58
551.332	800.38
551.785	802.68
552.238	799.38
552.691	814.18
553.144	833.28
553.596	841.28
554.049	864.78
554.502	885.18
554.955	912.38
555.407	897.48
555.86	899.28
556.313	886.68
556.765	871.88
557.218	869.58
557.67	875.68
558.123	878.18
558.576	866.48
559.028	870.48
559.48	889.68
559.933	871.68
560.385	837.98
560.838	793.68
561.29	768.78
561.742	772.28
562.195	763.58
562.647	773.98
563.099	780.88
563.551	769.98
564.004	780.08
564.456	767.68
564.908	755.68
565.36	744.38
565.812	733.88
566.264	718.18
566.716	719.28
567.168	718.08
567.62	712.58
568.072	706.68
568.524	697.68
568.976	677.98
569.428	670.68
569.88	663.38
570.332	666.08
570.784	666.28
571.235	677.18
571.687	691.38
572.139	703.28
572.59	705.38
573.042	701.78
573.494	696.48
573.945	700.48
574.397	680.88
574.849	692.38
575.3	687.48
575.752	677.08
576.203	671.18
576.655	672.38
577.106	664.18
577.557	658.68
578.009	660.08
578.46	653.88
578.912	659.58
579.363	653.68
579.814	660.98
580.265	659.58
580.717	675.58
581.168	673.68
581.619	674.68
582.07	682.48
582.521	666.48
582.972	669.48
583.423	679.68
583.875	675.68
584.326	689.18
584.777	733.98
585.227	809.18
585.678	893.58
586.129	984.08
586.58	1069.18
587.031	1139.78
587.482	1290.48
587.933	1481.18
588.384	1271.78
588.834	964.18
589.285	792.08
589.736	772.08
590.186	766.88
590.637	755.38
591.088	728.78
591.538	729.98
591.989	723.28
592.439	711.88
592.89	710.88
593.34	694.08
593.791	688.68
594.241	699.48
594.692	696.68
595.142	695.88
595.593	692.28
596.043	688.88
596.493	691.28
596.943	699.48
597.394	702.88
597.844	702.38
598.294	719.48
598.744	735.28
599.195	759.98
599.645	799.48
600.095	832.28
600.545	892.18
600.995	937.88
601.445	1004.98
601.895	1057.08
602.345	1109.68
602.795	1092.28
603.245	1049.58
603.695	993.88
604.145	933.28
604.594	894.48
605.044	840.18
605.494	779.08
605.944	741.28
606.393	726.68
606.843	708.68
607.293	718.58
607.743	707.98
608.192	732.98
608.642	744.28
609.091	750.58
609.541	758.78
609.99	746.58
610.44	740.88
610.889	694.38
611.339	688.98
611.788	669.18
612.238	681.88
612.687	706.18
613.136	691.98
613.586	717.68
614.035	721.48
614.484	747.08
614.933	743.18
615.383	736.08
615.832	714.48
616.281	709.48
616.73	672.98
617.179	645.08
617.628	631.58
618.077	616.68
618.526	611.68
618.975	598.28
619.424	599.18
619.873	604.78
620.322	594.28
620.771	590.58
621.22	588.98
621.669	581.78
622.118	566.68
622.567	562.28
623.015	556.18
623.464	558.08
623.913	541.78
624.361	532.78
624.81	529.88
625.259	547.08
625.707	540.18
626.156	539.78
626.604	548.08
627.053	550.88
627.501	552.78
627.95	552.88
628.398	563.48
628.847	551.38
629.295	556.38
629.744	570.08
630.192	545.78
630.64	554.18
631.089	543.18
631.537	556.98
631.985	572.98
632.433	576.98
632.881	588.08
633.33	637.68
633.778	612.98
634.226	541.08
634.674	550.58
635.122	547.98
635.57	585.48
636.018	610.68
636.466	564.38
636.914	535.68
637.362	554.38
637.81	557.08
638.258	556.48
638.705	562.38
639.153	580.18
639.601	600.98
640.049	617.78
640.497	644.68
640.944	667.78
641.392	624.18
641.84	583.88
642.287	565.98
642.735	550.88
643.182	555.28
643.63	557.98
644.078	554.08
644.525	581.88
644.973	574.18
645.42	583.48
645.867	598.58
646.315	615.38
646.762	633.28
647.21	669.88
647.657	682.18
648.104	722.98
648.551	749.88
648.999	810.08
649.446	873.28
649.893	973.78
650.34	1112.78
650.787	1348.58
651.234	1657.68
651.682	2152.48
652.129	2952.18
652.576	4236.08
653.023	6252.68
653.47	8622.28
653.917	10847.28
654.363	12610.58
654.81	14012.08
655.257	13331.78
655.704	8671.38
656.151	5147.48
656.598	3333.18
657.044	2356.78
657.491	1811.98
657.938	1446.08
658.385	1200.38
658.831	1046.28
659.278	935.98
659.724	824.78
660.171	753.38
660.618	699.78
661.064	656.28
661.511	638.58
661.957	641.78
662.404	617.38
662.85	626.68
663.296	607.08
663.743	545.08
664.189	509.98
664.635	508.68
665.082	507.58
665.528	504.28
665.974	498.48
666.42	488.78
666.867	482.68
667.313	477.88
667.759	464.68
668.205	462.98
668.651	461.78
669.097	468.28
669.543	475.88
669.989	445.08
670.435	430.48
670.881	436.88
671.327	421.78
671.773	455.78
672.219	474.38
672.665	525.88
673.11	554.68
673.556	604.28
674.002	640.28
674.448	627.58
674.893	525.98
675.339	454.58
675.785	422.38
676.23	394.98
676.676	374.18
677.122	364.18
677.567	350.78
678.013	346.88
678.458	346.58
678.904	342.58
679.349	337.98
679.794	338.98
680.24	329.08
680.685	333.28
681.131	331.28
681.576	335.58
682.021	330.38
682.466	338.08
682.912	336.58
683.357	340.78
683.802	357.18
684.247	387.68
684.692	427.48
685.137	475.38
685.583	510.48
686.028	538.18
686.473	495.08
686.918	426.08
687.363	402.78
687.807	372.48
688.252	351.48
688.697	343.88
689.142	322.88
689.587	320.98
690.032	304.98
690.477	327.68
690.921	322.98
691.366	360.18
691.811	376.28
692.255	401.88
692.7	440.98
693.145	482.28
693.589	659.18
694.034	1051.88
694.478	1445.18
694.923	1645.98
695.367	2163.58
695.812	1138.88
696.256	474.28
696.701	353.98
697.145	326.18
697.59	316.18
698.034	308.88
698.478	309.48
698.922	309.68
699.367	315.98
699.811	315.18
700.255	333.68
700.699	368.08
701.143	404.38
701.588	452.98
702.032	489.18
702.476	487.78
702.92	476.08
703.364	468.38
703.808	592.18
704.252	957.58
704.696	1369.18
705.14	1583.88
705.584	2030.98
706.027	1009.88
706.471	498.18
706.915	379.08
707.359	334.58
707.803	302.28
708.246	294.58
708.69	295.88
709.134	297.08
709.577	295.68
710.021	301.18
710.465	292.48
710.908	278.48
711.352	288.18
711.795	288.88
712.239	332.48
712.682	366.58
713.126	394.98
713.569	443.18
714.012	353.48
714.456	308.48
714.899	282.58
715.342	259.28
715.786	250.98
716.229	244.58
716.672	243.48
717.115	239.48
717.558	237.38
718.002	242.88
718.445	247.98
718.888	274.28
719.331	276.48
719.774	290.98
720.217	289.08
720.66	275.08
721.103	259.28
721.546	248.18
721.989	241.38
722.432	219.58
722.874	228.78
723.317	218.38
723.76	223.38
724.203	247.28
724.645	294.18
725.088	421.18
725.531	530.68
725.974	619.98
726.416	525.38
726.859	293.78
727.301	237.48
727.744	229.58
728.187	230.88
728.629	229.68
729.071	229.58
729.514	240.88
729.956	252.78
730.399	265.28
730.841	266.78
731.283	262.08
731.726	245.88
732.168	245.78
732.61	250.08
733.053	269.28
733.495	296.68
733.937	334.18
734.379	379.48
734.821	405.28
735.263	508.18
735.705	774.28
736.148	1449.48
736.59	2409.98
737.032	2905.08
737.474	2372.58
737.916	766.98
738.357	403.88
738.799	307.38
739.241	279.58
739.683	273.18
740.125	282.38
740.567	280.78
741.008	297.68
741.45	293.98
741.892	298.58
742.334	328.98
742.775	341.18
743.217	318.58
743.658	260.78
744.1	243.38
744.542	240.78
744.983	298.18
745.425	330.48
745.866	327.98
746.307	267.58
746.749	268.58
747.19	302.48
747.632	424.38
748.073	799.18
748.514	1704.88
748.956	2671.08
749.397	3353.08
749.838	2793.98
750.279	2818.88
750.72	1430.68
751.162	518.48
751.603	304.18
752.044	239.48
752.485	205.78
752.926	209.08
753.367	191.68
753.808	176.78
754.249	185.88
754.69	179.78
755.131	169.78
755.572	171.48
756.013	170.58
756.453	173.88
756.894	177.18
757.335	178.98
757.776	189.28
758.216	187.28
758.657	184.18
759.098	190.68
759.538	213.68
759.979	249.98
760.42	349.48
760.86	650.38
761.301	1662.58
761.741	4079.78
762.182	6118.68
762.622	4313.98
763.063	1236.18
763.503	502.78
763.943	326.18
764.384	321.78
764.824	379.88
765.264	414.58
765.705	286.08
766.145	197.78
766.585	180.08
767.025	165.38
767.465	174.08
767.906	221.18
768.346	301.08
768.786	321.38
769.226	241.28
769.666	292.68
770.106	562.48
770.546	1425.88
770.986	2511.58
771.426	2248.48
771.866	745.28
772.306	311.38
772.745	193.48
773.185	165.18
773.625	159.68
774.065	156.38
774.505	184.38
774.944	282.38
775.384	622.48
775.824	1159.28
776.263	1147.48
776.703	482.38
777.142	203.58
777.582	152.98
778.021	130.98
778.461	137.18
778.9	130.48
779.34	130.28
779.779	110.78
780.219	109.88
780.658	101.88
781.097	108.98
781.537	112.08
781.976	104.88
782.415	96.48
782.855	106.68
783.294	106.18
783.733	100.28
784.172	102.58
784.611	96.38
785.05	101.58
785.489	107.98
785.928	118.58
786.367	115.58
786.806	111.78
787.245	125.28
787.684	131.38
788.123	146.38
788.562	123.18
789.001	120.08
789.44	122.38
789.879	115.08
790.317	108.98
790.756	123.78
791.195	120.18
791.634	131.98
792.072	186.78
792.511	330.08
792.95	919.38
793.388	1997.18
793.827	1855.88
794.265	643.58
794.704	259.88
795.142	172.08
795.581	146.68
796.019	133.08
796.458	120.68
796.896	117.58
797.334	122.28
797.773	140.08
798.211	205.48
798.649	396.08
799.087	941.48
799.526	1480.68
799.964	1878.88
800.402	1914.68
800.84	715.08
801.278	278.88
801.716	173.98
802.154	143.88
802.592	138.98
803.03	134.98
803.468	126.28
803.906	134.88
804.344	140.18
804.782	133.88
805.22	126.68
805.658	121.48
806.096	140.08
806.533	139.28
806.971	159.88
807.409	200.28
807.847	294.38
808.284	604.58
808.722	1700.08
809.16	3102.08
809.597	2891.58
810.035	5051.88
810.472	5533.18
810.91	1983.58
811.347	741.88
811.785	380.28
812.222	242.28
812.66	183.38
813.097	160.68
813.535	135.58
813.972	126.78
814.409	110.18
814.846	107.88
815.284	106.28
815.721	93.28
816.158	101.08
816.595	113.58
817.032	167.58
817.47	193.88
817.907	170.18
818.344	144.48
818.781	119.28
819.218	91.68
819.655	114.18
820.092	177.28
820.529	204.28
820.966	173.68
821.403	125.28
821.839	105.48
822.276	97.38
822.713	119.08
823.15	128.38
823.587	107.78
824.023	138.58
824.46	278.08
824.897	825.58
825.333	1291.78
825.77	553.18
826.206	215.28
826.643	129.48
827.08	96.68
827.516	77.48
827.953	77.88
828.389	79.58
828.825	68.48
829.262	63.98
829.698	59.68
830.135	58.08
830.571	61.78
831.007	54.98
831.443	57.08
831.88	59.58
832.316	60.08
832.752	55.68
833.188	63.58
833.624	53.38
834.06	67.78
834.497	64.38
834.933	66.18
835.369	71.18
835.805	64.28
836.241	73.58
836.677	79.18
837.112	87.98
837.548	102.58
837.984	122.78
838.42	187.28
838.856	446.58
839.292	1394.68
839.727	2177.68
840.163	1018.98
840.599	851.88
841.034	1878.98
841.47	2031.38
841.906	744.78
842.341	318.78
842.777	213.38
843.212	293.28
843.648	297.08
844.083	143.18
844.519	89.38
844.954	79.98
845.39	54.88
845.825	56.28
846.261	58.58
846.696	48.88
847.131	55.08
847.566	59.88
848.002	47.48
848.437	53.58
848.872	58.48
849.307	59.38
849.742	80.28
850.177	163.58
850.613	519.18
851.048	836.38
851.483	367.58
851.918	147.88
852.353	79.38
852.788	54.58
853.223	53.38
853.657	50.18
854.092	48.38
854.527	38.08
854.962	34.88
855.397	41.58
855.832	47.18
856.266	41.18
856.701	41.38
857.136	32.78
857.57	36.48
858.005	45.18
858.44	57.28
858.874	46.48
859.309	44.18
859.743	37.28
860.178	42.48
860.612	35.38
861.047	47.38
861.481	59.18
861.915	70.18
862.35	46.78
862.784	30.78
863.218	38.88
863.653	30.88
864.087	39.18
864.521	47.38
864.955	66.68
865.39	140.58
865.824	172.68
866.258	103.98
866.692	150.98
867.126	166.48
867.56	95.98
867.994	48.88
868.428	34.28
868.862	43.28
869.296	49.18
869.73	58.68
870.164	51.58
870.598	39.08
871.031	32.28
871.465	27.08
871.899	29.88
872.333	24.68
872.766	26.98
873.2	25.98
873.634	33.28
874.067	25.88
874.501	31.08
874.935	34.88
875.368	33.28
875.802	26.48
876.235	18.78
876.669	23.28
877.102	19.58
877.535	23.68
877.969	22.28
878.402	24.08
878.836	18.48
879.269	25.88
879.702	20.98
880.135	25.88
880.569	19.88
881.002	32.88
881.435	13.88
881.868	14.28
882.301	22.78
882.734	14.58
883.167	27.28
883.601	17.38
884.034	19.08
884.467	13.78
884.899	26.58
885.332	18.18
885.765	12.68
886.198	12.38
886.631	16.58
887.064	27.18
887.497	21.68
887.929	23.48
888.362	20.78
888.795	14.38
889.228	14.58
889.66	11.48
890.093	19.98
890.526	18.18
890.958	16.58
891.391	17.68
891.823	21.48
892.256	15.18
892.688	15.78
893.121	18.98
893.553	19.38
893.985	23.98
894.418	21.98
894.85	16.98
895.282	17.68
895.715	15.78
896.147	17.68
896.579	21.18
897.011	14.58
897.444	20.58
897.876	16.48
898.308	14.58
898.74	18.58
899.172	11.68
899.604	22.68
900.036	22.48
900.468	18.48
900.9	13.68
901.332	17.58
901.764	12.98
902.196	17.18
902.628	16.48
903.06	17.48
903.491	24.88
903.923	19.28
904.355	21.58
904.787	19.28
905.218	20.38
905.65	18.58
906.082	18.78
906.513	13.68
906.945	13.78
907.376	17.68
907.808	19.68
908.239	26.28
908.671	21.08
909.102	15.68
909.534	25.38
909.965	44.78
910.397	89.58
910.828	295.38
911.259	450.98
911.691	202.18
912.122	107.98
912.553	51.68
912.984	37.48
913.415	25.18
913.847	22.18
914.278	17.28
914.709	17.08
915.14	18.68
915.571	13.88
916.002	10.98
916.433	22.98
916.864	20.08
917.295	7.08
917.726	18.08
918.157	17.08
918.587	27.78
919.018	24.18
919.449	15.98
919.88	21.88
920.311	29.58
920.741	47.28
921.172	157.08
921.603	147.38
922.033	68.88
922.464	40.98
922.895	24.68
923.325	24.48
923.756	19.18
924.186	21.38
924.617	25.58
925.047	43.18
925.478	48.88
925.908	40.18
926.338	26.28
926.769	18.68
927.199	19.38
927.629	8.18
928.06	20.58
928.49	16.08
928.92	19.38
929.35	15.98
929.78	9.18
930.21	11.08
930.641	10.98
931.071	11.78
931.501	4.58
931.931	3.68
932.361	9.58
932.791	3.28
933.221	8.48
933.651	5.08
934.08	17.48
934.51	30.98
934.94	13.58
935.37	12.28
935.8	7.18
936.229	9.68
936.659	5.48
937.089	3.08
937.519	7.08
937.948	27.98
938.378	21.18
938.807	8.18
939.237	6.98
939.666	5.68
940.096	-4.72
940.525	7.18
940.955	3.58
941.384	2.08
941.814	-9.62
942.243	3.08
942.672	2.88
943.102	-0.72
943.531	2.08
943.96	5.38
944.39	1.98
944.819	4.08
945.248	-0.52
945.677	1.08
946.106	5.18
946.535	1.68
946.964	-0.82
947.393	4.28
947.822	4.18
948.251	-0.92
948.68	4.48
949.109	5.98
949.538	10.78
949.967	0.58
950.396	3.48
950.825	-0.92
951.254	4.38
951.682	-1.92
952.111	2.08
952.54	6.88
952.969	-5.62
953.397	-4.62
953.826	-3.12
954.254	-7.52
954.683	7.78
955.112	4.18
955.54	3.58
955.969	5.58
956.397	1.78
956.826	-2.92
957.254	-1.72
957.682	1.78
958.111	6.78
958.539	2.58
958.967	2.88
959.396	3.18
959.824	3.98
960.252	7.98
960.68	-0.32
961.109	1.48
961.537	-2.22
961.965	1.18
962.393	3.68
962.821	0.68
963.249	7.08
963.677	2.88
964.105	7.68
964.533	41.08
964.961	38.88
965.389	21.08
965.817	11.28
966.245	2.28
966.672	1.08
967.1	0.48
967.528	-2.42
967.956	2.38
968.383	3.38
968.811	0.58
969.239	-1.82
969.666	-0.32
970.094	5.48
970.522	0.38
970.949	-0.12
971.377	-2.12
971.804	0.68
972.232	3.18
972.659	-2.42
973.087	1.28
973.514	2.68
973.941	-3.42
974.369	2.28
974.796	3.78
975.223	4.68
975.651	2.18
976.078	8.08
976.505	2.18
976.932	5.68
977.359	15.18
977.786	12.08
978.214	1.68
978.641	-0.62
979.068	-4.12
979.495	-3.62
979.922	1.28
980.349	-0.12
980.776	6.48
981.202	-0.32
981.629	6.78
982.056	7.38
982.483	3.58
982.91	5.48
983.337	-1.92
983.763	6.18
984.19	-2.82
984.617	-2.92
985.043	-4.32
985.47	-0.72
985.897	-0.22
986.323	-8.42
986.75	5.58
987.176	-2.82
987.603	5.08
988.029	3.28
988.456	-3.52
988.882	3.28
989.308	-2.02
989.735	-3.02
990.161	1.88
990.587	-5.72
991.014	6.68
991.44	6.28
991.866	1.88
992.292	-3.92
992.719	-4.62
993.145	1.08
993.571	-2.92
993.997	-5.02
994.423	0.08
994.849	-4.12
995.275	-2.32
995.701	3.08
996.127	-2.82
996.553	1.68
996.979	-3.12
997.405	-4.22
997.83	-8.02
998.256	-5.12
998.682	-3.72
999.108	-4.12
999.534	2.78
999.959	-2.92
1000.385	-5.02
1000.811	2.98
1001.236	-9.52
1001.662	-4.12
1002.087	-7.72
1002.513	2.58
1002.938	-0.82
1003.364	-0.62
1003.789	2.18
1004.215	5.68
1004.64	-3.22
1005.066	2.38
1005.491	-1.12
1005.916	-0.52
1006.342	2.58
1006.767	-8.12
1007.192	0.28
1007.617	1.88
1008.042	1.68
1008.468	-2.32
1008.893	-0.72
1009.318	-5.22
1009.743	-4.32
1010.168	3.68
1010.593	3.48
1011.018	0.88
1011.443	0.08
1011.868	-4.22
1012.293	1.38
1012.718	-7.32
1013.143	-0.42
1013.567	1.08
1013.992	-4.02
1014.417	-8.72
1014.842	5.78
1015.267	-7.82
1015.691	0.58
1016.116	9.98
1016.541	2.58
1016.965	1.88
1017.39	2.88
1017.814	4.88
1018.239	-2.42
1018.663	-7.62
1019.088	-9.42
1019.512	2.18
1019.937	-6.22
1020.361	-5.12
1020.785	-9.32
1021.21	-0.92
1021.634	3.58
1022.058	-1.92
1022.483	7.38
1022.907	-2.82
1023.331	-7.02
1023.755	-3.62
1024.179	0.08
1024.604	-10.02
1025.028	-6.42
1025.452	-5.52
1025.876	1.88
1026.3	-0.62
1026.724	-9.32
1027.148	3.18
1027.572	-7.12
1027.996	-0.82
1028.42	-6.92
1028.843	-2.52
1029.267	-1.72
1029.691	-1.22
1030.115	-3.52
1030.539	-10.82
1030.962	-6.12
1031.386	-5.82
1031.81	-0.92
1032.233	1.48
1032.657	2.08
1033.08	2.48
1033.504	-3.72
1033.927	0.48
1034.351	1.98
1034.774	-2.72
1035.198	2.28
1035.621	-3.82
1036.045	-5.82
1036.468	4.68
1036.891	-11.62
1037.315	-3.42
1037.738	-7.52
1038.161	-0.32
1038.584	-1.02
1039.008	-5.32
1039.431	-0.02
1039.854	1.68
1040.277	-1.22
1040.7	-16.62
1041.123	-3.32
1041.546	-5.22
1041.969	-1.12
1042.392	-2.22
1042.815	2.08
1043.238	3.68
1043.661	6.38
1044.084	-6.62
1044.507	-5.82
1044.93	-4.22
1045.352	-1.42
1045.775	-2.32
1046.198	-1.52
1046.621	-2.52
1047.043	1.28
1047.466	9.58
1047.889	-0.92
1048.311	-5.92
1048.734	-3.42
1049.156	-5.62
1049.579	-3.92
1050.001	2.58
1050.424	0.58
1050.846	-3.62
1051.269	-0.52
1051.691	-2.62
1052.113	-3.82
1052.536	1.38
1052.958	-2.02
1053.38	-3.32
1053.802	-1.62
1054.225	-0.22
1054.647	-10.22
1055.069	-4.72
1055.491	0.78
1055.913	-8.52
1056.335	-1.72
1056.757	-6.92
1057.179	-8.82
1057.601	-4.52
1058.023	-1.02
1058.445	-2.02
1058.867	-1.22
1059.289	1.38
1059.711	-4.82
1060.133	-0.72
1060.555	-0.12
1060.976	-6.92
1061.398	-5.02
1061.82	-3.12
1062.241	-6.12
1062.663	-2.12
1063.085	-2.12
1063.506	3.08
1063.928	-2.72
1064.35	-1.82
1064.771	-12.52
1065.193	-2.92
1065.614	-10.42
1066.035	0.88
1066.457	-1.72
1066.878	4.08
1067.3	-1.42
1067.721	-0.02
1068.142	-3.32
1068.564	-1.42
1068.985	-6.92
1069.406	-10.32
1069.827	-0.42
1070.248	-3.32
1070.67	-6.22
1071.091	-2.72
1071.512	4.18
1071.933	-1.22
1072.354	-6.72
1072.775	-7.92
1073.196	-7.82
1073.617	1.58
1074.038	-5.72
1074.459	-4.12
1074.88	-10.02
1075.3	-0.02
1075.721	-3.22
1076.142	-1.42
1076.563	-4.02
1076.983	-5.22
1077.404	-7.72
1077.825	-11.82
1078.246	-3.72
1078.666	-9.52
1079.087	-1.12
1079.507	-3.52
1079.928	1.88
1080.348	-0.72
1080.769	-3.22
1081.189	1.48
1081.61	-3.72
1082.03	-0.72
1082.451	-7.62
1082.871	-7.72
1083.291	-5.02
1083.711	-3.62
1084.132	-0.02
1084.552	-1.12
1084.972	3.78
1085.392	-6.72
1085.813	-8.52
1086.233	-4.52
1086.653	1.68
1087.073	1.48
1087.493	1.88
1087.913	-5.42
1088.333	-8.02
1088.753	-5.62
1089.173	3.98
1089.593	-6.62
1090.013	1.88
1090.433	1.78
1090.852	-6.82
1091.272	1.58
1091.692	-0.82
1092.112	-4.02
1092.531	-13.22
1092.951	-12.72
1093.371	-1.12
1093.79	1.58
1094.21	-9.12
1094.63	-6.42
1095.049	-2.22
1095.469	-0.22
1095.888	0.18
1096.308	-1.72
1096.727	7.88
1097.146	-5.82
1097.566	1.88
1097.985	-3.72
1098.405	2.68
1098.824	-5.42
1099.243	-8.32
1099.662	-7.22
1100.082	-2.82
1100.501	-3.42
1100.92	-4.62
1101.339	-3.82
1101.758	-0.22
