Data from 20171114-ORNL-Ar_H_NY_Subt18_08-04-23-627.txt Node
Date: Tue Nov 14 08:04:23 EST 2017
User: Ender
Spectrometer: HR+D1039
Trigger mode: 0
Integration Time (sec): 2.730000E-2
Scans to average: 10
Electric dark correction enabled: true
Nonlinearity correction enabled: false
Boxcar width: 0
XAxis mode: Wavelengths
Number of Pixels in Spectrum: 2048
>>>>>Begin Spectral Data<<<<<
187.836	-1.23
188.309	-1.23
188.782	-1.23
189.255	1.07
189.728	-4.33
190.201	6.37
190.674	2.77
191.147	4.27
191.619	-7.73
192.092	3.97
192.565	3.07
193.038	-1.23
193.511	0.47
193.984	-3.13
194.456	0.07
194.929	-0.13
195.402	-1.03
195.874	-3.33
196.347	2.97
196.82	-7.33
197.292	4.07
197.765	-5.63
198.237	0.27
198.71	-0.43
199.182	0.07
199.655	3.87
200.127	-2.43
200.6	-2.43
201.072	-9.23
201.544	0.47
202.017	4.87
202.489	3.37
202.961	-8.13
203.433	-4.93
203.906	-1.73
204.378	-9.53
204.85	-2.03
205.322	-11.43
205.794	-5.43
206.266	-5.73
206.739	-10.43
207.211	0.07
207.683	-6.23
208.155	-7.23
208.627	-4.53
209.099	1.17
209.57	-9.23
210.042	-4.13
210.514	-2.23
210.986	-1.53
211.458	-7.23
211.93	0.77
212.402	-1.53
212.873	-8.43
213.345	-8.43
213.817	-9.83
214.288	-5.33
214.76	-15.53
215.232	-4.93
215.703	-2.73
216.175	-4.83
216.646	-3.43
217.118	-2.23
217.589	-4.23
218.061	-0.23
218.532	-0.63
219.004	-0.53
219.475	-4.03
219.946	-4.33
220.418	-7.73
220.889	0.97
221.36	-7.13
221.832	-2.03
222.303	-11.93
222.774	-1.13
223.245	-7.53
223.717	-6.53
224.188	-5.23
224.659	-5.73
225.13	-3.73
225.601	-8.23
226.072	0.27
226.543	1.27
227.014	0.17
227.485	-4.73
227.956	-9.53
228.427	-4.23
228.898	3.17
229.369	-0.43
229.839	-3.23
230.31	-7.23
230.781	5.57
231.252	-3.93
231.722	-4.33
232.193	0.47
232.664	0.67
233.135	3.87
233.605	-2.03
234.076	-2.23
234.546	0.97
235.017	2.87
235.487	6.37
235.958	0.87
236.428	1.47
236.899	3.77
237.369	-1.03
237.84	-2.93
238.31	9.77
238.78	6.77
239.251	-2.83
239.721	1.27
240.191	3.87
240.662	4.97
241.132	1.37
241.602	-4.13
242.072	-2.23
242.542	9.77
243.013	-0.33
243.483	7.27
243.953	2.37
244.423	3.87
244.893	2.27
245.363	6.57
245.833	7.97
246.303	-3.63
246.773	8.87
247.243	5.97
247.712	3.37
248.182	9.97
248.652	6.97
249.122	8.97
249.592	12.87
250.061	26.67
250.531	33.87
251.001	17.67
251.471	21.87
251.94	20.57
252.41	11.67
252.879	5.37
253.349	12.77
253.818	14.27
254.288	13.87
254.757	8.77
255.227	7.67
255.696	4.17
256.166	2.97
256.635	9.17
257.105	6.87
257.574	11.17
258.043	9.17
258.513	17.37
258.982	18.07
259.451	9.47
259.92	13.07
260.389	7.97
260.859	18.47
261.328	15.37
261.797	18.87
262.266	4.57
262.735	15.77
263.204	5.97
263.673	2.97
264.142	3.67
264.611	0.57
265.08	2.87
265.549	4.57
266.018	7.57
266.487	7.27
266.955	-2.53
267.424	3.97
267.893	7.77
268.362	1.97
268.83	4.57
269.299	14.67
269.768	7.47
270.236	14.17
270.705	9.47
271.174	8.47
271.642	11.37
272.111	5.87
272.579	20.97
273.048	25.67
273.516	24.07
273.985	32.47
274.453	20.27
274.922	23.77
275.39	16.87
275.858	8.87
276.327	12.47
276.795	25.07
277.263	10.07
277.731	29.17
278.2	58.27
278.668	64.77
279.136	47.87
279.604	17.37
280.072	11.57
280.54	12.07
281.008	14.67
281.477	10.47
281.945	12.77
282.413	15.47
282.881	15.97
283.348	9.67
283.816	19.37
284.284	17.77
284.752	27.47
285.22	18.87
285.688	13.87
286.156	20.07
286.623	46.37
287.091	57.97
287.559	32.07
288.026	18.17
288.494	17.77
288.962	2.27
289.429	6.47
289.897	17.57
290.364	14.07
290.832	20.97
291.3	18.97
291.767	19.87
292.234	22.37
292.702	16.47
293.169	21.27
293.637	23.17
294.104	16.27
294.571	4.07
295.039	13.37
295.506	17.47
295.973	11.67
296.44	17.37
296.908	20.37
297.375	18.87
297.842	16.67
298.309	19.37
298.776	17.47
299.243	21.17
299.71	15.77
300.177	19.47
300.644	20.07
301.111	24.57
301.578	24.47
302.045	13.77
302.512	18.87
302.979	33.67
303.446	28.37
303.913	21.27
304.379	16.97
304.846	28.07
305.313	29.47
305.78	21.27
306.246	28.17
306.713	29.97
307.18	27.67
307.646	25.77
308.113	25.67
308.579	24.07
309.046	21.77
309.512	23.47
309.979	16.47
310.445	29.37
310.912	27.47
311.378	26.97
311.845	24.97
312.311	28.47
312.777	39.57
313.244	34.47
313.71	33.67
314.176	27.07
314.642	29.57
315.109	29.17
315.575	34.87
316.041	32.67
316.507	31.07
316.973	36.17
317.439	39.07
317.905	35.67
318.371	42.57
318.837	29.07
319.303	39.77
319.769	34.37
320.235	34.77
320.701	35.37
321.167	33.07
321.633	34.07
322.099	37.87
322.564	42.97
323.03	34.27
323.496	36.87
323.962	42.57
324.427	38.07
324.893	39.87
325.359	32.67
325.824	37.87
326.29	35.77
326.755	43.57
327.221	36.17
327.686	34.87
328.152	42.37
328.617	47.37
329.083	41.97
329.548	47.97
330.014	40.47
330.479	44.07
330.944	41.67
331.41	36.27
331.875	38.07
332.34	40.87
332.805	41.57
333.271	37.07
333.736	43.87
334.201	50.77
334.666	48.17
335.131	49.67
335.596	49.87
336.061	47.77
336.526	36.47
336.991	48.37
337.456	57.87
337.921	45.97
338.386	38.17
338.851	44.37
339.316	45.77
339.781	44.07
340.246	44.07
340.711	43.67
341.175	53.17
341.64	43.07
342.105	51.57
342.569	54.17
343.034	50.97
343.499	53.57
343.963	51.17
344.428	61.27
344.893	53.37
345.357	59.37
345.822	56.37
346.286	64.97
346.751	66.17
347.215	62.77
347.679	70.37
348.144	86.67
348.608	76.27
349.073	69.47
349.537	68.37
350.001	74.97
350.465	87.27
350.93	76.87
351.394	72.97
351.858	59.67
352.322	88.37
352.786	79.57
353.25	90.47
353.715	107.07
354.179	97.67
354.643	108.97
355.107	106.07
355.571	99.67
356.035	91.07
356.498	110.97
356.962	111.27
357.426	123.57
357.89	109.17
358.354	89.27
358.818	77.17
359.281	76.07
359.745	72.87
360.209	68.47
360.673	67.87
361.136	78.07
361.6	74.77
362.064	81.37
362.527	75.97
362.991	84.97
363.454	84.47
363.918	76.07
364.381	73.77
364.845	80.07
365.308	78.37
365.772	87.27
366.235	81.87
366.698	72.97
367.162	84.07
367.625	80.17
368.088	82.87
368.552	83.17
369.015	84.17
369.478	92.67
369.941	91.17
370.404	86.77
370.867	97.07
371.331	98.47
371.794	108.37
372.257	98.57
372.72	108.17
373.183	100.17
373.646	90.37
374.109	94.47
374.572	94.77
375.035	96.67
375.497	94.77
375.96	95.17
376.423	101.67
376.886	103.37
377.349	100.77
377.811	95.87
378.274	99.57
378.737	95.37
379.199	109.47
379.662	106.17
380.125	105.07
380.587	107.97
381.05	112.37
381.512	119.87
381.975	122.37
382.437	120.47
382.9	123.57
383.362	124.67
383.825	131.67
384.287	135.17
384.75	135.67
385.212	125.47
385.674	130.97
386.136	129.17
386.599	113.17
387.061	114.87
387.523	116.27
387.985	123.77
388.447	133.67
388.91	131.87
389.372	147.47
389.834	140.57
390.296	133.47
390.758	142.27
391.22	149.27
391.682	191.27
392.144	273.38
392.606	210.47
393.068	157.87
393.529	149.17
393.991	147.17
394.453	137.67
394.915	140.87
395.377	172.17
395.838	202.47
396.3	143.77
396.762	132.07
397.224	122.47
397.685	116.97
398.147	118.07
398.608	115.87
399.07	119.57
399.531	124.77
399.993	132.87
400.454	138.37
400.916	135.87
401.377	129.77
401.839	141.97
402.3	129.37
402.762	153.97
403.223	162.77
403.684	154.87
404.145	146.17
404.607	143.27
405.068	150.57
405.529	153.17
405.99	169.07
406.451	161.07
406.913	146.47
407.374	150.27
407.835	149.07
408.296	156.37
408.757	156.27
409.218	169.37
409.679	165.47
410.14	164.77
410.601	166.07
411.062	165.47
411.522	179.17
411.983	175.47
412.444	157.67
412.905	166.47
413.366	166.27
413.826	179.37
414.287	193.07
414.748	239.57
415.208	221.97
415.669	200.37
416.13	189.27
416.59	187.17
417.051	191.27
417.511	201.27
417.972	216.57
418.432	231.88
418.893	266.57
419.353	221.37
419.814	185.77
420.274	161.47
420.734	163.67
421.195	180.37
421.655	183.07
422.115	174.57
422.576	170.47
423.036	183.57
423.496	193.27
423.956	194.87
424.416	211.47
424.876	241.87
425.336	238.77
425.797	235.37
426.257	232.27
426.717	219.17
427.177	210.88
427.637	201.97
428.097	214.67
428.556	216.57
429.016	242.77
429.476	239.87
429.936	255.48
430.396	249.97
430.856	264.97
431.315	283.07
431.775	317.07
432.235	341.87
432.694	316.37
433.154	326.07
433.614	343.77
434.073	300.97
434.533	251.57
434.993	239.97
435.452	255.97
435.912	266.57
436.371	252.57
436.83	249.27
437.29	245.97
437.749	220.97
438.209	220.27
438.668	244.87
439.127	256.88
439.587	248.57
440.046	226.07
440.505	241.07
440.964	245.57
441.424	286.17
441.883	271.57
442.342	235.57
442.801	208.17
443.26	200.47
443.719	200.57
444.178	196.87
444.637	195.77
445.096	201.87
445.555	203.97
446.014	200.87
446.473	208.38
446.932	209.97
447.391	200.67
447.849	208.77
448.308	197.67
448.767	203.07
449.226	210.77
449.685	208.67
450.143	219.47
450.602	210.97
451.061	208.87
451.519	207.07
451.978	211.37
452.436	209.88
452.895	216.57
453.353	225.47
453.812	217.48
454.27	220.07
454.729	213.98
455.187	216.17
455.646	213.77
456.104	219.97
456.562	234.07
457.021	237.87
457.479	239.17
457.937	244.37
458.395	237.87
458.854	222.47
459.312	227.67
459.77	240.57
460.228	226.27
460.686	220.57
461.144	226.37
461.602	217.17
462.06	224.67
462.518	228.27
462.976	230.17
463.434	227.77
463.892	235.97
464.35	249.87
464.808	261.67
465.266	240.97
465.724	246.67
466.181	243.57
466.639	245.07
467.097	265.27
467.555	274.97
468.012	265.37
468.47	277.47
468.928	291.77
469.385	307.17
469.843	310.87
470.3	310.17
470.758	313.77
471.215	340.37
471.673	365.97
472.13	365.47
472.588	376.38
473.045	333.77
473.503	339.67
473.96	357.37
474.417	360.07
474.875	390.37
475.332	428.17
475.789	413.47
476.246	415.37
476.704	439.67
477.161	447.27
477.618	468.97
478.075	503.87
478.532	559.57
478.989	626.88
479.446	718.27
479.903	690.67
480.36	728.67
480.817	779.07
481.274	882.97
481.731	980.17
482.188	1061.47
482.645	1180.57
483.102	1295.28
483.558	1420.18
484.015	1471.28
484.472	1453.97
484.929	1406.57
485.385	1355.37
485.842	1309.28
486.299	1237.77
486.755	1174.58
487.212	990.97
487.668	841.67
488.125	781.77
488.582	714.48
489.038	683.07
489.494	648.07
489.951	620.77
490.407	607.57
490.864	591.67
491.32	588.27
491.776	587.38
492.233	578.87
492.689	543.88
493.145	542.37
493.602	533.67
494.058	551.87
494.514	552.67
494.97	569.57
495.426	575.47
495.882	552.38
496.338	551.57
496.794	560.38
497.251	557.97
497.707	572.98
498.163	575.67
498.618	573.87
499.074	588.07
499.53	603.87
499.986	608.47
500.442	590.77
500.898	564.47
501.354	562.37
501.809	568.47
502.265	576.27
502.721	594.27
503.177	602.67
503.632	602.27
504.088	601.57
504.543	629.77
504.999	633.17
505.455	581.07
505.91	570.97
506.366	568.77
506.821	566.87
507.277	566.47
507.732	554.67
508.187	559.07
508.643	570.17
509.098	568.27
509.553	584.77
510.009	603.77
510.464	600.27
510.919	612.77
511.375	621.97
511.83	626.27
512.285	647.07
512.74	687.17
513.195	696.27
513.65	688.27
514.105	684.27
514.56	693.47
515.015	714.77
515.47	726.07
515.925	715.87
516.38	713.37
516.835	708.87
517.29	707.57
517.745	704.57
518.2	695.37
518.655	678.27
519.109	676.27
519.564	660.97
520.019	661.97
520.474	652.87
520.928	656.97
521.383	643.37
521.838	637.57
522.292	632.38
522.747	639.38
523.201	627.47
523.656	624.27
524.11	619.48
524.565	626.07
525.019	619.97
525.474	629.77
525.928	627.27
526.382	629.67
526.837	616.38
527.291	629.47
527.745	624.47
528.2	616.57
528.654	615.77
529.108	609.47
529.562	617.17
530.016	617.67
530.47	614.37
530.925	620.97
531.379	623.47
531.833	630.07
532.287	630.27
532.741	624.87
533.195	632.87
533.649	636.37
534.103	643.17
534.556	633.97
535.01	636.87
535.464	633.27
535.918	632.27
536.372	641.67
536.826	652.77
537.279	627.27
537.733	634.67
538.187	641.07
538.64	635.17
539.094	642.88
539.548	648.07
540.001	634.87
540.455	647.37
540.908	647.47
541.362	651.17
541.815	667.88
542.269	670.77
542.722	677.67
543.175	680.37
543.629	684.27
544.082	694.97
544.536	697.57
544.989	699.57
545.442	702.27
545.895	696.07
546.349	701.98
546.802	703.17
547.255	697.17
547.708	712.67
548.161	713.27
548.614	730.97
549.067	735.97
549.52	720.67
549.973	716.37
550.426	707.87
550.879	700.97
551.332	698.67
551.785	707.87
552.238	707.77
552.691	718.17
553.144	737.67
553.596	738.07
554.049	762.77
554.502	790.57
554.955	805.77
555.407	794.27
555.86	800.17
556.313	790.77
556.765	773.27
557.218	773.27
557.67	781.37
558.123	772.27
558.576	758.57
559.028	767.48
559.48	774.07
559.933	765.07
560.385	740.17
560.838	718.27
561.29	686.17
561.742	689.98
562.195	668.67
562.647	671.48
563.099	677.77
563.551	678.07
564.004	685.27
564.456	671.57
564.908	665.07
565.36	652.77
565.812	640.27
566.264	628.37
566.716	640.37
567.168	621.87
567.62	623.97
568.072	604.88
568.524	602.27
568.976	588.07
569.428	582.17
569.88	583.27
570.332	595.17
570.784	592.57
571.235	586.27
571.687	595.38
572.139	612.97
572.59	617.27
573.042	619.57
573.494	624.07
573.945	613.37
574.397	593.97
574.849	599.07
575.3	601.67
575.752	592.47
576.203	585.97
576.655	584.77
577.106	578.67
577.557	578.57
578.009	576.37
578.46	566.47
578.912	572.07
579.363	579.47
579.814	572.47
580.265	565.57
580.717	577.27
581.168	579.97
581.619	571.67
582.07	589.77
582.521	574.97
582.972	571.47
583.423	584.57
583.875	591.07
584.326	601.87
584.777	638.57
585.227	716.17
585.678	791.77
586.129	869.77
586.58	934.87
587.031	1021.77
587.482	1160.08
587.933	1324.97
588.384	1141.88
588.834	851.17
589.285	693.67
589.736	677.07
590.186	666.47
590.637	654.77
591.088	641.87
591.538	624.47
591.989	622.38
592.439	609.67
592.89	608.37
593.34	603.77
593.791	608.97
594.241	607.67
594.692	605.47
595.142	593.57
595.593	596.38
596.043	595.17
596.493	610.38
596.943	609.98
597.394	605.38
597.844	605.88
598.294	615.57
598.744	640.87
599.195	650.57
599.645	684.97
600.095	725.07
600.545	767.97
600.995	810.97
601.445	861.67
601.895	928.57
602.345	970.38
602.795	949.18
603.245	913.77
603.695	858.17
604.145	822.77
604.594	777.27
605.044	728.77
605.494	670.07
605.944	627.87
606.393	628.07
606.843	608.47
607.293	623.17
607.743	614.57
608.192	631.97
608.642	633.77
609.091	658.27
609.541	644.97
609.99	649.48
610.44	648.57
610.889	610.17
611.339	589.97
611.788	576.07
612.238	596.47
612.687	607.57
613.136	610.47
613.586	624.27
614.035	624.87
614.484	631.57
614.933	628.87
615.383	632.27
615.832	621.87
616.281	613.98
616.73	583.77
617.179	567.47
617.628	541.77
618.077	528.57
618.526	527.87
618.975	518.97
619.424	516.27
619.873	512.67
620.322	520.77
620.771	503.17
621.22	503.87
621.669	492.37
622.118	488.47
622.567	483.98
623.015	474.27
623.464	478.67
623.913	460.17
624.361	451.07
624.81	453.77
625.259	464.37
625.707	457.57
626.156	457.87
626.604	475.37
627.053	468.47
627.501	465.07
627.95	475.98
628.398	484.07
628.847	469.67
629.295	476.38
629.744	473.37
630.192	471.67
630.64	469.77
631.089	465.37
631.537	477.57
631.985	481.97
632.433	493.47
632.881	503.07
633.33	548.47
633.778	523.57
634.226	464.37
634.674	472.07
635.122	473.07
635.57	502.17
636.018	511.37
636.466	485.67
636.914	454.88
637.362	477.37
637.81	480.87
638.258	479.37
638.705	481.97
639.153	496.97
639.601	503.17
640.049	516.57
640.497	558.07
640.944	571.57
641.392	539.67
641.84	501.37
642.287	480.47
642.735	476.17
643.182	466.37
643.63	473.47
644.078	473.48
644.525	493.27
644.973	493.87
645.42	493.07
645.867	507.17
646.315	522.17
646.762	538.27
647.21	560.77
647.657	583.07
648.104	612.37
648.551	626.07
648.999	693.17
649.446	757.57
649.893	817.07
650.34	950.57
650.787	1136.07
651.234	1404.38
651.682	1836.88
652.129	2490.67
652.576	3579.08
653.023	5314.97
653.47	7341.97
653.917	9328.07
654.363	10906.98
654.81	12330.17
655.257	11721.38
655.704	7579.78
656.151	4426.87
656.598	2865.38
657.044	2021.67
657.491	1548.28
657.938	1233.97
658.385	1032.37
658.831	889.57
659.278	792.07
659.724	715.47
660.171	648.47
660.618	595.67
661.064	556.48
661.511	539.57
661.957	520.97
662.404	519.07
662.85	525.07
663.296	503.57
663.743	457.47
664.189	439.77
664.635	440.07
665.082	430.97
665.528	433.77
665.974	419.07
666.42	409.87
666.867	408.27
667.313	393.57
667.759	391.07
668.205	385.67
668.651	395.48
669.097	395.77
669.543	411.97
669.989	377.77
670.435	363.27
670.881	358.67
671.327	365.27
671.773	379.37
672.219	401.97
672.665	443.77
673.11	471.37
673.556	518.47
674.002	546.38
674.448	535.47
674.893	445.77
675.339	388.77
675.785	358.27
676.23	344.47
676.676	323.27
677.122	308.37
677.567	293.87
678.013	293.67
678.458	286.38
678.904	283.98
679.349	277.88
679.794	277.97
680.24	276.07
680.685	276.47
681.131	278.57
681.576	284.17
682.021	281.57
682.466	277.07
682.912	279.67
683.357	281.38
683.802	307.37
684.247	328.67
684.692	363.87
685.137	393.47
685.583	435.17
686.028	449.47
686.473	422.67
686.918	354.07
687.363	336.17
687.807	322.47
688.252	294.37
688.697	287.57
689.142	265.97
689.587	265.87
690.032	260.67
690.477	273.67
690.921	280.27
691.366	308.57
691.811	319.47
692.255	348.07
692.7	367.67
693.145	396.17
693.589	541.37
694.034	863.07
694.478	1222.08
694.923	1416.68
695.367	1879.58
695.812	972.17
696.256	406.17
696.701	296.17
697.145	279.17
697.59	264.07
698.034	261.17
698.478	265.77
698.922	263.48
699.367	263.97
699.811	266.17
700.255	274.57
700.699	297.97
701.143	332.67
701.588	384.17
702.032	419.88
702.476	419.57
702.92	395.57
703.364	395.97
703.808	501.27
704.252	810.17
704.696	1137.27
705.14	1378.57
705.584	1757.88
706.027	863.07
706.471	420.67
706.915	317.77
707.359	277.77
707.803	261.17
708.246	254.57
708.69	249.47
709.134	253.47
709.577	246.97
710.021	246.37
710.465	245.97
710.908	237.87
711.352	238.67
711.795	248.17
712.239	278.27
712.682	302.97
713.126	332.67
713.569	377.27
714.012	301.07
714.456	264.37
714.899	235.88
715.342	219.67
715.786	203.27
716.229	204.37
716.672	198.97
717.115	199.77
717.558	204.57
718.002	197.07
718.445	206.27
718.888	222.17
719.331	232.48
719.774	242.57
720.217	243.17
720.66	224.77
721.103	213.47
721.546	203.87
721.989	201.97
722.432	182.27
722.874	194.57
723.317	185.67
723.76	186.17
724.203	205.77
724.645	240.27
725.088	342.67
725.531	453.57
725.974	517.67
726.416	444.37
726.859	244.57
727.301	193.97
727.744	188.67
728.187	188.98
728.629	182.57
729.071	191.27
729.514	210.67
729.956	213.57
730.399	225.27
730.841	236.07
731.283	217.77
731.726	209.98
732.168	205.27
732.61	210.17
733.053	224.07
733.495	246.87
733.937	283.37
734.379	318.57
734.821	347.17
735.263	424.77
735.705	638.57
736.148	1219.28
736.59	2046.27
737.032	2516.88
737.474	2046.48
737.916	656.67
738.357	334.07
738.799	253.47
739.241	240.87
739.683	226.07
740.125	228.77
740.567	238.77
741.008	255.87
741.45	251.07
741.892	252.88
742.334	276.48
742.775	278.17
743.217	273.97
743.658	215.87
744.1	202.98
744.542	206.47
744.983	253.17
745.425	274.77
745.866	274.27
746.307	223.47
746.749	223.97
747.19	257.87
747.632	350.17
748.073	672.67
748.514	1446.27
748.956	2282.07
749.397	2860.38
749.838	2391.07
750.279	2451.18
750.72	1225.58
751.162	436.88
751.603	248.47
752.044	204.87
752.485	173.57
752.926	170.77
753.367	167.07
753.808	156.67
754.249	155.97
754.69	150.27
755.131	142.87
755.572	145.17
756.013	144.27
756.453	139.47
756.894	143.17
757.335	153.07
757.776	158.27
758.216	156.57
758.657	162.87
759.098	156.77
759.538	179.67
759.979	214.37
760.42	291.17
760.86	536.87
761.301	1393.78
761.741	3482.08
762.182	5367.48
762.622	3785.38
763.063	1054.88
763.503	432.27
763.943	278.17
764.384	269.07
764.824	335.57
765.264	368.67
765.705	255.77
766.145	167.37
766.585	151.97
767.025	138.77
767.465	145.97
767.906	190.77
768.346	264.27
768.786	280.87
769.226	204.47
769.666	243.87
770.106	476.47
770.546	1198.28
770.986	2164.27
771.426	1974.88
771.866	644.37
772.306	261.57
772.745	166.77
773.185	142.97
773.625	142.67
774.065	132.97
774.505	158.07
774.944	248.47
775.384	548.87
775.824	1049.48
776.263	1032.88
776.703	431.27
777.142	180.47
777.582	125.57
778.021	108.67
778.461	116.07
778.9	118.77
779.34	105.97
779.779	90.57
780.219	85.97
780.658	85.77
781.097	91.17
781.537	87.27
781.976	82.67
782.415	86.17
782.855	76.77
783.294	76.27
783.733	86.47
784.172	84.57
784.611	80.77
785.05	80.27
785.489	88.77
785.928	96.57
786.367	103.97
786.806	98.57
787.245	102.67
787.684	106.97
788.123	108.67
788.562	98.87
789.001	99.57
789.44	90.87
789.879	94.97
790.317	94.57
790.756	105.47
791.195	102.27
791.634	117.37
792.072	156.77
792.511	281.57
792.95	768.67
793.388	1734.97
793.827	1627.88
794.265	549.77
794.704	218.57
795.142	144.17
795.581	126.37
796.019	101.17
796.458	100.47
796.896	93.17
797.334	102.27
797.773	115.47
798.211	173.07
798.649	329.87
799.087	806.77
799.526	1283.47
799.964	1610.88
800.402	1689.28
800.84	625.07
801.278	235.97
801.716	146.87
802.154	121.07
802.592	111.87
803.03	107.47
803.468	102.37
803.906	111.77
804.344	119.77
804.782	112.97
805.22	102.47
805.658	96.57
806.096	116.17
806.533	125.87
806.971	140.67
807.409	169.07
807.847	238.17
808.284	501.67
808.722	1452.67
809.16	2690.08
809.597	2486.07
810.035	4394.97
810.472	4939.07
810.91	1747.88
811.347	647.37
811.785	330.48
812.222	198.77
812.66	156.37
813.097	126.47
813.535	112.67
813.972	106.87
814.409	93.27
814.846	83.07
815.284	91.77
815.721	77.27
816.158	78.37
816.595	96.37
817.032	141.57
817.47	163.37
817.907	146.37
818.344	126.37
818.781	94.17
819.218	79.77
819.655	100.67
820.092	149.07
820.529	171.07
820.966	155.17
821.403	108.67
821.839	88.87
822.276	86.07
822.713	98.77
823.15	104.07
823.587	85.97
824.023	112.67
824.46	228.98
824.897	701.27
825.333	1117.68
825.77	471.07
826.206	179.97
826.643	111.57
827.08	77.37
827.516	68.57
827.953	58.67
828.389	64.37
828.825	53.27
829.262	51.87
829.698	44.67
830.135	48.07
830.571	49.17
831.007	51.37
831.443	51.47
831.88	49.37
832.316	51.37
832.752	48.87
833.188	50.07
833.624	54.37
834.06	52.47
834.497	60.07
834.933	50.57
835.369	55.47
835.805	46.77
836.241	60.37
836.677	57.07
837.112	68.67
837.548	80.67
837.984	102.07
838.42	155.27
838.856	372.07
839.292	1205.28
839.727	1935.48
840.163	886.47
840.599	729.67
841.034	1639.28
841.47	1801.28
841.906	642.87
842.341	270.47
842.777	185.07
843.212	253.87
843.648	259.07
844.083	131.37
844.519	72.77
844.954	58.97
845.39	47.87
845.825	48.67
846.261	48.37
846.696	43.97
847.131	43.37
847.566	41.37
848.002	45.07
848.437	44.97
848.872	50.87
849.307	44.07
849.742	64.87
850.177	135.87
850.613	441.17
851.048	724.77
851.483	309.67
851.918	117.87
852.353	63.37
852.788	48.97
853.223	46.27
853.657	44.97
854.092	38.97
854.527	34.47
854.962	39.67
855.397	33.17
855.832	40.17
856.266	30.27
856.701	36.27
857.136	32.37
857.57	33.57
858.005	36.87
858.44	49.67
858.874	35.87
859.309	37.07
859.743	27.27
860.178	36.87
860.612	38.67
861.047	40.07
861.481	53.17
861.915	64.37
862.35	36.27
862.784	28.77
863.218	34.27
863.653	27.37
864.087	37.87
864.521	43.37
864.955	52.17
865.39	123.87
865.824	147.57
866.258	90.27
866.692	127.37
867.126	148.77
867.56	85.67
867.994	45.27
868.428	25.97
868.862	37.07
869.296	43.77
869.73	43.47
870.164	45.47
870.598	32.87
871.031	23.07
871.465	26.37
871.899	23.27
872.333	25.87
872.766	15.77
873.2	18.87
873.634	23.07
874.067	20.27
874.501	14.07
874.935	27.97
875.368	32.77
875.802	18.67
876.235	17.87
876.669	17.97
877.102	22.37
877.535	23.17
877.969	15.87
878.402	14.37
878.836	9.77
879.269	18.67
879.702	18.97
880.135	18.57
880.569	17.37
881.002	21.27
881.435	17.27
881.868	14.17
882.301	19.37
882.734	11.77
883.167	20.17
883.601	9.67
884.034	19.47
884.467	7.77
884.899	18.77
885.332	12.07
885.765	12.67
886.198	11.27
886.631	9.97
887.064	13.27
887.497	17.77
887.929	19.57
888.362	5.67
888.795	5.77
889.228	10.07
889.66	16.37
890.093	6.87
890.526	13.17
890.958	13.87
891.391	14.87
891.823	15.77
892.256	3.07
892.688	2.07
893.121	16.87
893.553	12.87
893.985	17.17
894.418	18.97
894.85	9.17
895.282	9.57
895.715	15.77
896.147	7.57
896.579	11.17
897.011	3.87
897.444	8.47
897.876	10.67
898.308	14.87
898.74	11.37
899.172	7.87
899.604	20.47
900.036	15.77
900.468	10.37
900.9	10.47
901.332	13.67
901.764	13.57
902.196	11.27
902.628	13.67
903.06	11.77
903.491	23.87
903.923	14.47
904.355	9.77
904.787	23.97
905.218	19.47
905.65	10.67
906.082	11.67
906.513	10.57
906.945	14.97
907.376	7.97
907.808	12.47
908.239	15.07
908.671	14.17
909.102	22.47
909.534	17.17
909.965	38.67
910.397	67.27
910.828	254.67
911.259	405.27
911.691	180.37
912.122	82.77
912.553	38.97
912.984	30.77
913.415	17.07
913.847	19.57
914.278	10.27
914.709	10.97
915.14	13.27
915.571	13.77
916.002	10.57
916.433	11.77
916.864	14.77
917.295	4.77
917.726	16.67
918.157	11.07
918.587	27.57
919.018	20.67
919.449	24.37
919.88	19.17
920.311	21.77
920.741	35.87
921.172	130.77
921.603	129.77
922.033	51.37
922.464	35.57
922.895	14.57
923.325	16.57
923.756	11.17
924.186	10.57
924.617	20.87
925.047	30.07
925.478	45.77
925.908	33.27
926.338	23.97
926.769	16.47
927.199	19.97
927.629	5.87
928.06	14.77
928.49	12.27
928.92	13.97
929.35	9.57
929.78	9.77
930.21	7.27
930.641	9.57
931.071	9.77
931.501	2.77
931.931	3.67
932.361	9.17
932.791	2.67
933.221	4.37
933.651	3.17
934.08	10.27
934.51	22.67
934.94	13.57
935.37	6.87
935.8	1.87
936.229	8.47
936.659	7.77
937.089	1.07
937.519	10.67
937.948	21.87
938.378	12.37
938.807	1.57
939.237	0.57
939.666	12.47
940.096	-2.53
940.525	-5.73
940.955	8.37
941.384	0.47
941.814	-2.93
942.243	6.67
942.672	7.87
943.102	-1.53
943.531	-3.33
943.96	5.97
944.39	0.77
944.819	2.37
945.248	4.07
945.677	3.17
946.106	3.77
946.535	3.87
946.964	-1.93
947.393	5.67
947.822	4.97
948.251	-5.33
948.68	4.87
949.109	3.97
949.538	8.17
949.967	3.07
950.396	1.77
950.825	-2.33
951.254	5.07
951.682	-10.33
952.111	1.67
952.54	5.47
952.969	-6.23
953.397	-4.43
953.826	0.07
954.254	-4.33
954.683	3.57
955.112	-3.03
955.54	1.37
955.969	-2.93
956.397	3.47
956.826	-6.33
957.254	2.57
957.682	-4.43
958.111	5.87
958.539	-3.73
958.967	2.87
959.396	-6.53
959.824	-0.13
960.252	-2.03
960.68	-7.63
961.109	-0.93
961.537	-7.93
961.965	2.67
962.393	-6.13
962.821	-1.83
963.249	3.17
963.677	1.67
964.105	8.27
964.533	35.77
964.961	39.37
965.389	17.97
965.817	8.87
966.245	-0.33
966.672	1.47
967.1	-4.83
967.528	-1.13
967.956	0.07
968.383	-0.13
968.811	-1.63
969.239	0.07
969.666	-5.63
970.094	-0.53
970.522	4.77
970.949	-7.53
971.377	-5.63
971.804	3.27
972.232	0.67
972.659	-0.93
973.087	-7.03
973.514	2.47
973.941	-6.23
974.369	2.97
974.796	0.67
975.223	2.87
975.651	-4.73
976.078	1.67
976.505	-3.33
976.932	4.77
977.359	12.47
977.786	16.67
978.214	-1.23
978.641	-9.43
979.068	-1.23
979.495	-1.33
979.922	-1.03
980.349	-7.13
980.776	1.17
981.202	-1.33
981.629	2.37
982.056	10.17
982.483	-4.53
982.91	-1.23
983.337	-4.03
983.763	4.57
984.19	-8.13
984.617	-1.53
985.043	-12.43
985.47	-4.63
985.897	-3.23
986.323	-13.83
986.75	1.37
987.176	-5.53
987.603	2.87
988.029	-1.33
988.456	2.87
988.882	1.87
989.308	-11.23
989.735	-3.03
990.161	-4.13
990.587	-5.33
991.014	-4.63
991.44	5.47
991.866	1.57
992.292	-3.03
992.719	-6.53
993.145	2.27
993.571	-6.93
993.997	-7.23
994.423	-1.13
994.849	-3.93
995.275	2.77
995.701	1.17
996.127	-6.03
996.553	1.57
996.979	-3.03
997.405	1.77
997.83	-1.93
998.256	-5.93
998.682	-9.63
999.108	-9.63
999.534	2.17
999.959	-0.23
1000.385	1.97
1000.811	0.27
1001.236	-1.13
1001.662	-6.63
1002.087	-7.83
1002.513	-0.83
1002.938	1.07
1003.364	-0.93
1003.789	-1.03
1004.215	-2.13
1004.64	-0.93
1005.066	7.87
1005.491	3.67
1005.916	-2.93
1006.342	-7.73
1006.767	-5.53
1007.192	4.07
1007.617	-3.33
1008.042	-9.53
1008.468	-11.03
1008.893	-7.03
1009.318	-7.83
1009.743	-5.13
1010.168	-1.23
1010.593	-0.53
1011.018	-11.03
1011.443	0.37
1011.868	3.57
1012.293	-8.53
1012.718	-8.83
1013.143	3.17
1013.567	-2.03
1013.992	-4.33
1014.417	-14.93
1014.842	6.97
1015.267	-7.23
1015.691	-9.83
1016.116	3.57
1016.541	-2.13
1016.965	1.87
1017.39	1.77
1017.814	1.97
1018.239	1.37
1018.663	-11.63
1019.088	-7.43
1019.512	-7.03
1019.937	-5.63
1020.361	-3.73
1020.785	-13.03
1021.21	2.07
1021.634	-6.83
1022.058	-0.33
1022.483	4.17
1022.907	-2.33
1023.331	1.17
1023.755	-3.33
1024.179	-2.93
1024.604	-8.53
1025.028	-7.23
1025.452	-4.53
1025.876	3.17
1026.3	-1.43
1026.724	-9.23
1027.148	-2.53
1027.572	-8.33
1027.996	-6.43
1028.42	-2.63
1028.843	-3.43
1029.267	-6.93
1029.691	-1.23
1030.115	-6.63
1030.539	-2.63
1030.962	-0.53
1031.386	-7.33
1031.81	1.57
1032.233	-3.23
1032.657	-0.23
1033.08	-2.13
1033.504	1.37
1033.927	-7.93
1034.351	-0.13
1034.774	-3.43
1035.198	-3.23
1035.621	-0.63
1036.045	-11.63
1036.468	-0.33
1036.891	-6.63
1037.315	-7.33
1037.738	-11.73
1038.161	1.27
1038.584	-8.53
1039.008	-3.93
1039.431	-1.43
1039.854	-1.33
1040.277	-8.23
1040.7	-9.43
1041.123	-2.53
1041.546	-6.83
1041.969	-2.83
1042.392	-5.23
1042.815	-2.03
1043.238	2.77
1043.661	4.57
1044.084	-11.53
1044.507	-5.83
1044.93	-5.63
1045.352	-6.03
1045.775	1.57
1046.198	-5.13
1046.621	-3.33
1047.043	-2.93
1047.466	5.87
1047.889	3.07
1048.311	-4.23
1048.734	-7.53
1049.156	0.37
1049.579	-0.23
1050.001	-3.03
1050.424	-3.73
1050.846	-0.73
1051.269	-3.13
1051.691	-5.53
1052.113	-4.63
1052.536	0.27
1052.958	-3.13
1053.38	-8.63
1053.802	-12.43
1054.225	1.87
1054.647	-14.73
1055.069	-8.43
1055.491	6.77
1055.913	-8.23
1056.335	5.47
1056.757	-0.73
1057.179	-3.43
1057.601	-8.63
1058.023	-1.33
1058.445	-0.93
1058.867	-4.33
1059.289	-6.83
1059.711	-8.13
1060.133	-3.03
1060.555	-8.63
1060.976	-5.43
1061.398	-7.73
1061.82	-4.73
1062.241	-5.83
1062.663	-3.33
1063.085	-2.93
1063.506	4.17
1063.928	-3.33
1064.35	-2.03
1064.771	-11.73
1065.193	-4.53
1065.614	-8.23
1066.035	-10.33
1066.457	-1.33
1066.878	-1.83
1067.3	-2.13
1067.721	-4.43
1068.142	-3.83
1068.564	-5.93
1068.985	-1.53
1069.406	-3.83
1069.827	-6.53
1070.248	1.97
1070.67	-14.43
1071.091	-8.23
1071.512	-1.13
1071.933	-11.23
1072.354	-11.43
1072.775	-1.13
1073.196	-4.03
1073.617	-0.73
1074.038	-1.13
1074.459	-3.93
1074.88	-9.83
1075.3	0.17
1075.721	-5.73
1076.142	3.37
1076.563	-4.63
1076.983	-9.43
1077.404	-11.63
1077.825	-14.53
1078.246	1.27
1078.666	-9.93
1079.087	-4.63
1079.507	-5.53
1079.928	0.77
1080.348	-3.23
1080.769	-8.83
1081.189	-2.93
1081.61	-1.73
1082.03	-2.73
1082.451	-6.03
1082.871	-2.93
1083.291	-8.53
1083.711	-8.93
1084.132	-2.03
1084.552	-1.43
1084.972	-0.23
1085.392	-8.33
1085.813	-9.43
1086.233	-11.63
1086.653	-6.83
1087.073	-2.73
1087.493	-5.23
1087.913	-4.93
1088.333	-8.63
1088.753	-3.33
1089.173	2.07
1089.593	-3.63
1090.013	-3.53
1090.433	2.97
1090.852	-6.73
1091.272	-1.23
1091.692	2.27
1092.112	-7.73
1092.531	-8.53
1092.951	-14.33
1093.371	-2.03
1093.79	2.17
1094.21	-8.43
1094.63	-5.63
1095.049	-6.93
1095.469	-5.43
1095.888	1.17
1096.308	2.67
1096.727	4.27
1097.146	-9.63
1097.566	-2.03
1097.985	-3.93
1098.405	-0.13
1098.824	-6.83
1099.243	-6.03
1099.662	-13.53
1100.082	-8.13
1100.501	-1.13
1100.92	-8.33
1101.339	-3.53
1101.758	-8.73
