Data from 20171114-ORNL-Ar_H_NY_Subt18_08-07-03-318.txt Node
Date: Tue Nov 14 08:07:03 EST 2017
User: Ender
Spectrometer: HR+D1039
Trigger mode: 0
Integration Time (sec): 2.730000E-2
Scans to average: 10
Electric dark correction enabled: true
Nonlinearity correction enabled: false
Boxcar width: 0
XAxis mode: Wavelengths
Number of Pixels in Spectrum: 2048
>>>>>Begin Spectral Data<<<<<
187.836	-7.17
188.309	-7.17
188.782	-7.17
189.255	2.03
189.728	-0.37
190.201	4.13
190.674	5.13
191.147	4.13
191.619	-4.27
192.092	-1.37
192.565	5.43
193.038	-0.97
193.511	4.03
193.984	-3.07
194.456	0.13
194.929	-1.77
195.402	-5.57
195.874	-0.37
196.347	0.03
196.82	-5.17
197.292	7.83
197.765	1.83
198.237	-5.97
198.71	-1.07
199.182	-2.57
199.655	5.73
200.127	1.63
200.6	-3.17
201.072	-4.07
201.544	-5.47
202.017	-1.37
202.489	6.23
202.961	-2.07
203.433	-0.27
203.906	-8.57
204.378	-1.37
204.85	-1.87
205.322	-11.17
205.794	-6.47
206.266	-2.87
206.739	-11.77
207.211	0.83
207.683	-9.37
208.155	-7.97
208.627	-9.87
209.099	-9.07
209.57	-7.17
210.042	0.23
210.514	-6.27
210.986	-3.17
211.458	-9.57
211.93	-0.77
212.402	1.83
212.873	-6.17
213.345	-12.87
213.817	-6.47
214.288	-4.77
214.76	-8.17
215.232	-6.07
215.703	-6.07
216.175	-5.97
216.646	-7.97
217.118	-1.27
217.589	-3.07
218.061	-0.37
218.532	-2.47
219.004	-1.17
219.475	-4.77
219.946	-8.97
220.418	-10.07
220.889	2.83
221.36	1.83
221.832	-4.17
222.303	-11.67
222.774	-1.37
223.245	-12.17
223.717	-5.27
224.188	-6.97
224.659	-10.37
225.13	-12.47
225.601	-4.47
226.072	-1.07
226.543	-6.67
227.014	-3.37
227.485	-2.07
227.956	-7.67
228.427	-5.37
228.898	-2.87
229.369	-0.87
229.839	-5.87
230.31	-6.27
230.781	-1.47
231.252	-6.37
231.722	-5.07
232.193	-3.17
232.664	-1.67
233.135	-2.67
233.605	-10.07
234.076	-12.37
234.546	-3.87
235.017	3.03
235.487	-1.57
235.958	-5.67
236.428	-6.87
236.899	-4.37
237.369	-5.97
237.84	-0.97
238.31	-0.67
238.78	-6.47
239.251	-8.87
239.721	-6.37
240.191	-5.37
240.662	-2.17
241.132	0.03
241.602	-9.77
242.072	-7.87
242.542	4.43
243.013	-6.27
243.483	0.13
243.953	-2.27
244.423	-3.97
244.893	-8.47
245.363	2.63
245.833	-1.67
246.303	-6.77
246.773	-2.37
247.243	0.63
247.712	-5.47
248.182	5.43
248.652	0.23
249.122	-9.27
249.592	0.63
250.061	1.53
250.531	7.33
251.001	-5.67
251.471	-0.97
251.94	5.03
252.41	-3.47
252.879	-3.17
253.349	9.83
253.818	6.63
254.288	4.63
254.757	-2.67
255.227	-5.97
255.696	0.83
256.166	3.53
256.635	-1.77
257.105	0.13
257.574	0.13
258.043	-1.17
258.513	-6.97
258.982	-4.17
259.451	-3.47
259.92	-2.57
260.389	0.93
260.859	3.63
261.328	1.33
261.797	-5.47
262.266	0.33
262.735	8.13
263.204	1.63
263.673	-4.57
264.142	-3.77
264.611	-7.37
265.08	-0.57
265.549	-3.47
266.018	3.83
266.487	-4.27
266.955	-4.67
267.424	-6.87
267.893	1.83
268.362	-3.37
268.83	-1.87
269.299	10.33
269.768	-3.77
270.236	7.83
270.705	-1.47
271.174	-2.17
271.642	-0.87
272.111	-2.47
272.579	3.53
273.048	6.13
273.516	2.03
273.985	5.83
274.453	7.43
274.922	8.93
275.39	0.63
275.858	-2.47
276.327	9.53
276.795	12.73
277.263	-1.47
277.731	7.23
278.2	5.63
278.668	-0.87
279.136	8.83
279.604	5.33
280.072	5.53
280.54	6.43
281.008	4.83
281.477	13.83
281.945	8.03
282.413	10.53
282.881	10.43
283.348	4.33
283.816	8.63
284.284	6.73
284.752	8.73
285.22	6.33
285.688	9.63
286.156	8.93
286.623	20.13
287.091	7.93
287.559	17.43
288.026	11.73
288.494	11.43
288.962	4.83
289.429	5.93
289.897	12.63
290.364	7.73
290.832	9.03
291.3	7.63
291.767	10.23
292.234	15.63
292.702	6.23
293.169	8.13
293.637	13.43
294.104	12.53
294.571	6.43
295.039	10.43
295.506	0.93
295.973	13.13
296.44	11.13
296.908	11.63
297.375	9.13
297.842	5.83
298.309	6.23
298.776	7.53
299.243	15.73
299.71	7.43
300.177	17.63
300.644	14.83
301.111	13.13
301.578	12.93
302.045	9.33
302.512	20.23
302.979	19.33
303.446	19.23
303.913	9.63
304.379	11.63
304.846	23.23
305.313	20.93
305.78	14.73
306.246	14.13
306.713	20.43
307.18	21.23
307.646	15.73
308.113	19.73
308.579	16.33
309.046	21.13
309.512	23.03
309.979	9.43
310.445	30.53
310.912	25.23
311.378	25.53
311.845	21.03
312.311	29.03
312.777	28.73
313.244	27.93
313.71	34.53
314.176	25.13
314.642	21.73
315.109	22.33
315.575	21.23
316.041	33.13
316.507	22.73
316.973	26.93
317.439	21.13
317.905	30.33
318.371	29.23
318.837	33.43
319.303	23.93
319.769	25.93
320.235	29.13
320.701	27.33
321.167	23.13
321.633	23.73
322.099	31.53
322.564	31.23
323.03	28.73
323.496	34.33
323.962	27.73
324.427	26.13
324.893	32.43
325.359	32.53
325.824	29.13
326.29	30.53
326.755	32.73
327.221	29.83
327.686	34.03
328.152	32.93
328.617	34.53
329.083	43.23
329.548	49.83
330.014	36.53
330.479	37.13
330.944	31.43
331.41	33.73
331.875	38.23
332.34	38.63
332.805	39.23
333.271	36.33
333.736	28.53
334.201	39.43
334.666	43.93
335.131	42.13
335.596	44.63
336.061	42.33
336.526	31.33
336.991	42.03
337.456	44.23
337.921	41.03
338.386	37.03
338.851	42.63
339.316	41.83
339.781	43.33
340.246	41.93
340.711	39.63
341.175	44.83
341.64	41.13
342.105	49.03
342.569	49.33
343.034	47.23
343.499	51.53
343.963	49.23
344.428	58.83
344.893	53.03
345.357	50.23
345.822	52.03
346.286	57.63
346.751	60.13
347.215	61.63
347.679	58.13
348.144	79.83
348.608	66.23
349.073	64.73
349.537	62.93
350.001	75.73
350.465	78.23
350.93	63.13
351.394	80.93
351.858	64.23
352.322	75.43
352.786	79.73
353.25	87.53
353.715	89.73
354.179	88.43
354.643	106.13
355.107	96.63
355.571	91.43
356.035	85.93
356.498	99.43
356.962	97.53
357.426	102.73
357.89	98.73
358.354	80.73
358.818	79.13
359.281	69.03
359.745	67.83
360.209	61.43
360.673	61.63
361.136	69.03
361.6	75.83
362.064	75.13
362.527	76.53
362.991	85.33
363.454	74.33
363.918	68.43
364.381	73.03
364.845	81.13
365.308	81.33
365.772	83.13
366.235	80.73
366.698	79.23
367.162	76.33
367.625	71.93
368.088	83.23
368.552	86.23
369.015	73.43
369.478	84.23
369.941	89.73
370.404	77.73
370.867	89.83
371.331	83.23
371.794	98.83
372.257	85.43
372.72	103.53
373.183	93.83
373.646	82.43
374.109	84.43
374.572	90.73
375.035	87.13
375.497	99.33
375.96	102.53
376.423	99.53
376.886	109.83
377.349	101.93
377.811	88.43
378.274	99.63
378.737	94.73
379.199	98.73
379.662	101.03
380.125	104.33
380.587	97.83
381.05	102.93
381.512	101.83
381.975	116.03
382.437	113.63
382.9	107.43
383.362	119.83
383.825	118.43
384.287	119.53
384.75	109.33
385.212	114.73
385.674	126.33
386.136	128.13
386.599	111.63
387.061	115.53
387.523	118.73
387.985	122.53
388.447	125.43
388.91	121.53
389.372	125.53
389.834	130.13
390.296	118.13
390.758	124.63
391.22	123.93
391.682	136.93
392.144	144.73
392.606	139.73
393.068	135.13
393.529	148.13
393.991	139.63
394.453	127.83
394.915	126.03
395.377	129.73
395.838	135.03
396.3	128.43
396.762	141.23
397.224	136.13
397.685	134.83
398.147	135.13
398.608	128.83
399.07	125.53
399.531	127.33
399.993	140.13
400.454	153.93
400.916	139.63
401.377	138.73
401.839	145.53
402.3	152.53
402.762	164.83
403.223	174.33
403.684	173.23
404.145	156.23
404.607	165.83
405.068	159.03
405.529	166.73
405.99	180.03
406.451	169.03
406.913	170.63
407.374	162.73
407.835	159.43
408.296	166.33
408.757	170.13
409.218	186.43
409.679	178.23
410.14	171.03
410.601	177.33
411.062	181.33
411.522	183.23
411.983	175.93
412.444	169.93
412.905	179.33
413.366	183.23
413.826	201.83
414.287	224.33
414.748	270.53
415.208	258.93
415.669	218.43
416.13	206.93
416.59	210.12
417.051	215.23
417.511	226.03
417.972	246.03
418.432	249.83
418.893	299.13
419.353	257.63
419.814	204.83
420.274	185.83
420.734	178.73
421.195	197.13
421.655	191.93
422.115	200.83
422.576	199.53
423.036	210.23
423.496	217.43
423.956	219.53
424.416	236.53
424.876	273.83
425.336	267.33
425.797	267.43
426.257	259.13
426.717	251.53
427.177	234.83
427.637	228.23
428.097	232.83
428.556	250.03
429.016	268.83
429.476	261.03
429.936	268.33
430.396	272.63
430.856	288.03
431.315	311.23
431.775	341.03
432.235	376.03
432.694	350.13
433.154	358.53
433.614	380.73
434.073	335.23
434.533	284.23
434.993	270.33
435.452	281.03
435.912	283.03
436.371	282.23
436.83	282.53
437.29	265.33
437.749	245.53
438.209	247.23
438.668	275.33
439.127	286.83
439.587	265.13
440.046	245.83
440.505	264.33
440.964	285.12
441.424	315.53
441.883	311.43
442.342	264.53
442.801	225.43
443.26	231.33
443.719	229.13
444.178	229.03
444.637	219.33
445.096	232.53
445.555	238.43
446.014	234.93
446.473	237.43
446.932	244.33
447.391	236.63
447.849	238.03
448.308	228.03
448.767	230.93
449.226	246.93
449.685	249.23
450.143	263.63
450.602	246.03
451.061	232.73
451.519	245.93
451.978	245.53
452.436	244.53
452.895	248.03
453.353	269.83
453.812	249.63
454.27	250.23
454.729	245.63
455.187	246.03
455.646	254.33
456.104	261.73
456.562	276.43
457.021	277.43
457.479	275.83
457.937	288.43
458.395	272.63
458.854	262.63
459.312	270.73
459.77	287.83
460.228	263.12
460.686	257.93
461.144	266.43
461.602	257.33
462.06	251.63
462.518	270.53
462.976	271.03
463.434	269.43
463.892	279.23
464.35	291.23
464.808	296.23
465.266	285.23
465.724	285.33
466.181	296.63
466.639	292.23
467.097	301.63
467.555	315.13
468.012	317.03
468.47	328.33
468.928	347.33
469.385	357.03
469.843	354.73
470.3	372.73
470.758	380.73
471.215	397.93
471.673	422.53
472.13	425.13
472.588	436.43
473.045	396.03
473.503	399.43
473.96	417.63
474.417	428.03
474.875	448.12
475.332	492.03
475.789	476.73
476.246	483.73
476.704	509.93
477.161	531.73
477.618	546.03
478.075	585.03
478.532	627.63
478.989	708.73
479.446	810.63
479.903	775.53
480.36	805.63
480.817	854.73
481.274	955.23
481.731	1045.53
482.188	1123.12
482.645	1238.62
483.102	1323.82
483.558	1445.63
484.015	1493.32
484.472	1470.13
484.929	1417.83
485.385	1400.33
485.842	1359.93
486.299	1305.83
486.755	1278.43
487.212	1086.83
487.668	930.93
488.125	856.93
488.582	785.13
489.038	754.43
489.494	734.13
489.951	706.23
490.407	695.23
490.864	670.23
491.32	666.63
491.776	665.03
492.233	674.62
492.689	635.33
493.145	638.23
493.602	631.53
494.058	636.53
494.514	647.83
494.97	666.13
495.426	670.53
495.882	650.13
496.338	641.53
496.794	651.63
497.251	636.43
497.707	664.83
498.163	657.33
498.618	673.93
499.074	676.13
499.53	697.83
499.986	699.43
500.442	673.93
500.898	649.33
501.354	648.53
501.809	654.23
502.265	650.03
502.721	657.62
503.177	669.83
503.632	674.23
504.088	676.33
504.543	699.63
504.999	721.33
505.455	685.93
505.91	669.13
506.366	681.23
506.821	661.93
507.277	676.23
507.732	665.93
508.187	668.53
508.643	684.13
509.098	680.53
509.553	697.53
510.009	705.33
510.464	717.23
510.919	727.13
511.375	746.93
511.83	750.53
512.285	765.33
512.74	800.53
513.195	818.43
513.65	813.03
514.105	811.73
514.56	810.23
515.015	831.63
515.47	841.13
515.925	833.03
516.38	828.83
516.835	838.43
517.29	822.83
517.745	817.03
518.2	806.62
518.655	789.23
519.109	781.83
519.564	779.83
520.019	777.53
520.474	762.53
520.928	768.73
521.383	764.93
521.838	756.13
522.292	750.53
522.747	764.73
523.201	750.93
523.656	737.73
524.11	744.33
524.565	741.43
525.019	730.03
525.474	731.83
525.928	735.83
526.382	732.43
526.837	739.43
527.291	742.73
527.745	737.73
528.2	736.23
528.654	729.33
529.108	722.63
529.562	729.63
530.016	735.43
530.47	730.63
530.925	725.13
531.379	727.43
531.833	734.33
532.287	742.43
532.741	742.43
533.195	749.93
533.649	750.73
534.103	762.23
534.556	736.33
535.01	740.13
535.464	738.93
535.918	756.43
536.372	766.33
536.826	755.63
537.279	739.63
537.733	754.23
538.187	748.63
538.64	751.53
539.094	759.23
539.548	771.13
540.001	762.43
540.455	766.93
540.908	772.63
541.362	779.63
541.815	777.63
542.269	797.03
542.722	803.23
543.175	813.03
543.629	818.33
544.082	821.13
544.536	828.83
544.989	830.43
545.442	842.23
545.895	841.03
546.349	843.33
546.802	843.33
547.255	845.13
547.708	853.33
548.161	863.43
548.614	882.62
549.067	872.93
549.52	870.23
549.973	860.83
550.426	856.33
550.879	843.43
551.332	847.33
551.785	852.53
552.238	858.13
552.691	876.33
553.144	885.43
553.596	905.83
554.049	905.83
554.502	939.73
554.955	969.53
555.407	961.33
555.86	958.13
556.313	950.73
556.765	943.43
557.218	936.73
557.67	925.23
558.123	914.33
558.576	929.23
559.028	929.93
559.48	945.03
559.933	927.93
560.385	899.03
560.838	858.53
561.29	837.93
561.742	838.33
562.195	816.03
562.647	817.03
563.099	817.93
563.551	816.63
564.004	823.53
564.456	814.03
564.908	810.62
565.36	791.73
565.812	777.33
566.264	755.63
566.716	756.93
567.168	746.43
567.62	754.93
568.072	745.73
568.524	737.73
568.976	732.62
569.428	720.33
569.88	728.73
570.332	722.23
570.784	735.73
571.235	731.13
571.687	736.93
572.139	742.73
572.59	749.23
573.042	752.43
573.494	752.73
573.945	756.83
574.397	726.73
574.849	728.03
575.3	727.43
575.752	725.03
576.203	730.93
576.655	723.53
577.106	720.03
577.557	703.73
578.009	708.83
578.46	697.13
578.912	696.33
579.363	701.73
579.814	704.73
580.265	702.83
580.717	708.63
581.168	708.23
581.619	711.33
582.07	720.73
582.521	712.53
582.972	707.63
583.423	714.93
583.875	710.53
584.326	716.53
584.777	735.53
585.227	759.53
585.678	766.03
586.129	779.83
586.58	800.13
587.031	811.63
587.482	851.33
587.933	878.03
588.384	856.93
588.834	818.23
589.285	816.73
589.736	811.03
590.186	819.03
590.637	802.53
591.088	787.03
591.538	773.83
591.989	766.33
592.439	769.43
592.89	749.33
593.34	738.53
593.791	744.12
594.241	728.93
594.692	728.13
595.142	729.93
595.593	726.33
596.043	738.73
596.493	743.73
596.943	738.73
597.394	756.93
597.844	756.43
598.294	775.43
598.744	793.93
599.195	821.63
599.645	855.13
600.095	910.43
600.545	965.53
600.995	1010.73
601.445	1078.53
601.895	1148.23
602.345	1189.62
602.795	1165.62
603.245	1121.63
603.695	1067.83
604.145	1007.73
604.594	969.73
605.044	910.33
605.494	847.33
605.944	791.33
606.393	784.93
606.843	761.53
607.293	760.43
607.743	762.03
608.192	778.93
608.642	788.53
609.091	792.23
609.541	805.13
609.99	793.73
610.44	800.53
610.889	746.43
611.339	735.43
611.788	712.33
612.238	723.33
612.687	737.12
613.136	725.63
613.586	731.03
614.035	734.63
614.484	740.43
614.933	736.03
615.383	731.03
615.832	733.03
616.281	739.53
616.73	697.43
617.179	677.23
617.628	676.83
618.077	658.53
618.526	653.62
618.975	648.63
619.424	647.03
619.873	641.23
620.322	642.83
620.771	627.83
621.22	631.73
621.669	605.83
622.118	617.93
622.567	604.93
623.015	596.23
623.464	597.63
623.913	577.63
624.361	581.53
624.81	589.93
625.259	575.53
625.707	570.33
626.156	577.23
626.604	604.23
627.053	594.62
627.501	588.12
627.95	596.43
628.398	609.23
628.847	608.23
629.295	599.93
629.744	603.43
630.192	594.63
630.64	584.62
631.089	572.73
631.537	568.03
631.985	555.93
632.433	547.63
632.881	537.33
633.33	554.12
633.778	547.43
634.226	538.83
634.674	551.53
635.122	561.43
635.57	575.33
636.018	578.33
636.466	588.63
636.914	577.03
637.362	595.63
637.81	599.83
638.258	605.13
638.705	618.33
639.153	642.23
639.601	643.23
640.049	663.62
640.497	700.53
640.944	721.73
641.392	678.23
641.84	640.23
642.287	604.93
642.735	575.83
643.182	590.43
643.63	584.73
644.078	592.33
644.525	594.53
644.973	609.63
645.42	618.63
645.867	645.13
646.315	656.83
646.762	667.83
647.21	700.73
647.657	727.23
648.104	763.63
648.551	786.03
648.999	842.53
649.446	914.93
649.893	990.33
650.34	1142.03
650.787	1368.93
651.234	1664.93
651.682	2146.02
652.129	2867.82
652.576	4117.12
653.023	6006.32
653.47	8110.12
653.917	10107.32
654.363	11651.83
654.81	12836.62
655.257	12177.12
655.704	8030.63
656.151	4849.62
656.598	3192.62
657.044	2293.43
657.491	1799.53
657.938	1451.92
658.385	1212.73
658.831	1068.43
659.278	953.03
659.724	854.33
660.171	792.03
660.618	731.93
661.064	687.43
661.511	679.23
661.957	669.33
662.404	659.73
662.85	662.93
663.296	639.73
663.743	582.53
664.189	554.33
664.635	545.63
665.082	545.83
665.528	555.83
665.974	538.33
666.42	528.63
666.867	525.63
667.313	503.33
667.759	481.53
668.205	463.13
668.651	468.63
669.097	460.93
669.543	462.03
669.989	461.73
670.435	464.23
670.881	470.53
671.327	465.23
671.773	484.23
672.219	511.03
672.665	567.13
673.11	615.12
673.556	666.03
674.002	691.33
674.448	675.83
674.893	572.23
675.339	494.93
675.785	461.93
676.23	443.13
676.676	416.83
677.122	399.13
677.567	398.93
678.013	389.13
678.458	372.93
678.904	381.83
679.349	370.33
679.794	372.63
680.24	373.03
680.685	365.73
681.131	367.63
681.576	370.43
682.021	374.53
682.466	372.93
682.912	362.53
683.357	367.23
683.802	406.33
684.247	432.62
684.692	476.13
685.137	521.53
685.583	564.43
686.028	600.23
686.473	551.43
686.918	465.53
687.363	439.33
687.807	409.13
688.252	379.43
688.697	372.73
689.142	348.83
689.587	350.03
690.032	347.93
690.477	350.33
690.921	369.53
691.366	403.63
691.811	427.93
692.255	453.93
692.7	477.53
693.145	524.53
693.589	731.33
694.034	1204.53
694.478	1626.23
694.923	1831.72
695.367	2369.03
695.812	1268.33
696.256	529.53
696.701	390.23
697.145	357.23
697.59	342.23
698.034	327.23
698.478	340.63
698.922	335.23
699.367	337.93
699.811	352.93
700.255	372.03
700.699	400.23
701.143	446.33
701.588	489.63
702.032	530.03
702.476	534.23
702.92	515.23
703.364	514.12
703.808	674.12
704.252	1114.33
704.696	1532.83
705.14	1767.73
705.584	2263.53
706.027	1133.73
706.471	552.43
706.915	425.03
707.359	369.93
707.803	346.12
708.246	330.83
708.69	330.23
709.134	327.53
709.577	324.13
710.021	326.53
710.465	321.53
710.908	319.43
711.352	313.23
711.795	315.33
712.239	360.03
712.682	407.62
713.126	440.33
713.569	471.03
714.012	375.43
714.456	314.73
714.899	305.23
715.342	284.43
715.786	277.53
716.229	276.13
716.672	269.63
717.115	257.93
717.558	269.03
718.002	267.23
718.445	277.93
718.888	290.13
719.331	304.03
719.774	325.83
720.217	305.63
720.66	301.43
721.103	273.93
721.546	268.73
721.989	267.43
722.432	248.93
722.874	246.03
723.317	237.83
723.76	241.23
724.203	261.93
724.645	329.83
725.088	469.83
725.531	600.23
725.974	673.73
726.416	578.53
726.859	323.53
727.301	261.93
727.744	242.33
728.187	239.03
728.629	253.53
729.071	255.73
729.514	276.83
729.956	285.93
730.399	288.83
730.841	299.43
731.283	286.33
731.726	283.93
732.168	281.83
732.61	286.93
733.053	298.93
733.495	335.13
733.937	366.13
734.379	420.03
734.821	460.23
735.263	576.03
735.705	883.73
736.148	1681.43
736.59	2750.93
737.032	3252.02
737.474	2628.02
737.916	858.73
738.357	453.53
738.799	346.63
739.241	312.13
739.683	295.73
740.125	301.03
740.567	307.63
741.008	334.33
741.45	331.43
741.892	328.93
742.334	370.73
742.775	384.03
743.217	357.62
743.658	285.43
744.1	273.63
744.542	276.13
744.983	327.03
745.425	371.93
745.866	361.13
746.307	298.93
746.749	293.23
747.19	337.33
747.632	481.93
748.073	944.53
748.514	1977.62
748.956	3031.42
749.397	3795.12
749.838	3145.33
750.279	3126.42
750.72	1589.43
751.162	577.93
751.603	339.43
752.044	263.03
752.485	228.43
752.926	220.53
753.367	213.53
753.808	205.83
754.249	200.63
754.69	192.33
755.131	190.23
755.572	194.23
756.013	187.23
756.453	189.83
756.894	190.33
757.335	199.43
757.776	206.43
758.216	204.73
758.657	210.43
759.098	217.73
759.538	240.13
759.979	285.93
760.42	400.53
760.86	755.33
761.301	1955.33
761.741	4721.82
762.182	6803.62
762.622	4803.12
763.063	1404.92
763.503	569.43
763.943	342.73
764.384	285.03
764.824	257.83
765.264	238.83
765.705	214.73
766.145	196.93
766.585	186.63
767.025	174.93
767.465	162.23
767.906	179.73
768.346	195.23
768.786	210.23
769.226	222.33
769.666	322.03
770.106	653.62
770.546	1667.12
770.986	2793.03
771.426	2478.03
771.866	835.63
772.306	345.93
772.745	217.43
773.185	172.03
773.625	170.13
774.065	151.53
774.505	166.43
774.944	214.03
775.384	369.03
775.824	606.53
776.263	587.33
776.703	286.23
777.142	160.83
777.582	140.03
778.021	134.93
778.461	129.13
778.9	132.03
779.34	124.63
779.779	112.83
780.219	105.53
780.658	115.73
781.097	117.23
781.537	114.03
781.976	112.23
782.415	107.33
782.855	110.43
783.294	106.33
783.733	115.13
784.172	115.03
784.611	106.73
785.05	115.73
785.489	118.83
785.928	120.13
786.367	121.13
786.806	119.43
787.245	135.13
787.684	141.23
788.123	149.23
788.562	138.93
789.001	131.93
789.44	125.03
789.879	117.33
790.317	121.53
790.756	131.33
791.195	136.23
791.634	157.23
792.072	212.73
792.511	386.33
792.95	1059.13
793.388	2237.23
793.827	2020.22
794.265	706.33
794.704	299.53
795.142	194.13
795.581	163.43
796.019	138.13
796.458	139.73
796.896	133.73
797.334	130.23
797.773	164.43
798.211	226.93
798.649	467.23
799.087	1079.83
799.526	1687.03
799.964	2118.83
800.402	2126.73
800.84	810.03
801.278	316.93
801.716	197.73
802.154	155.83
802.592	153.83
803.03	145.23
803.468	140.83
803.906	148.83
804.344	154.13
804.782	148.33
805.22	139.13
805.658	137.93
806.096	158.23
806.533	171.83
806.971	188.43
807.409	233.83
807.847	342.23
808.284	723.43
808.722	2000.52
809.16	3507.62
809.597	3341.53
810.035	5768.73
810.472	6103.82
810.91	2212.43
811.347	852.63
811.785	440.63
812.222	271.23
812.66	212.43
813.097	171.43
813.535	149.23
813.972	131.73
814.409	128.63
814.846	113.73
815.284	121.73
815.721	105.03
816.158	111.23
816.595	111.23
817.032	159.03
817.47	189.73
817.907	148.63
818.344	106.43
818.781	102.83
819.218	100.43
819.655	128.93
820.092	205.73
820.529	225.73
820.966	182.63
821.403	126.73
821.839	102.13
822.276	97.33
822.713	131.53
823.15	146.53
823.587	125.73
824.023	155.03
824.46	320.03
824.897	947.93
825.333	1436.43
825.77	622.33
826.206	241.03
826.643	141.13
827.08	113.33
827.516	84.83
827.953	84.33
828.389	78.63
828.825	71.83
829.262	66.33
829.698	62.83
830.135	68.03
830.571	58.83
831.007	63.73
831.443	63.23
831.88	63.13
832.316	69.63
832.752	68.33
833.188	68.03
833.624	66.83
834.06	69.83
834.497	72.03
834.933	75.43
835.369	73.83
835.805	74.43
836.241	81.23
836.677	80.83
837.112	96.33
837.548	115.03
837.984	140.33
838.42	217.43
838.856	529.13
839.292	1600.03
839.727	2449.83
840.163	1137.43
840.599	983.53
841.034	2151.22
841.47	2235.72
841.906	813.43
842.341	347.83
842.777	205.43
843.212	209.53
843.648	187.93
844.083	114.53
844.519	86.13
844.954	75.03
845.39	59.43
845.825	58.43
846.261	65.53
846.696	56.73
847.131	52.83
847.566	65.13
848.002	53.43
848.437	62.93
848.872	67.93
849.307	62.03
849.742	84.13
850.177	195.33
850.613	582.33
851.048	925.33
851.483	406.23
851.918	161.53
852.353	91.73
852.788	59.03
853.223	56.13
853.657	53.53
854.092	50.23
854.527	37.63
854.962	36.93
855.397	43.03
855.832	47.43
856.266	45.73
856.701	46.13
857.136	44.93
857.57	42.73
858.005	53.43
858.44	64.23
858.874	48.83
859.309	51.63
859.743	40.43
860.178	48.03
860.612	44.73
861.047	53.83
861.481	72.03
861.915	75.33
862.35	51.53
862.784	31.13
863.218	40.23
863.653	34.43
864.087	49.83
864.521	55.93
864.955	72.73
865.39	161.03
865.824	175.83
866.258	120.13
866.692	174.23
867.126	194.83
867.56	117.63
867.994	57.03
868.428	38.83
868.862	52.23
869.296	57.53
869.73	58.53
870.164	59.83
870.598	48.33
871.031	40.73
871.465	30.53
871.899	33.93
872.333	25.73
872.766	26.53
873.2	24.73
873.634	30.43
874.067	25.33
874.501	28.63
874.935	33.33
875.368	30.53
875.802	26.43
876.235	24.13
876.669	23.93
877.102	29.53
877.535	29.13
877.969	18.63
878.402	19.23
878.836	20.73
879.269	18.53
879.702	25.13
880.135	23.03
880.569	23.73
881.002	27.63
881.435	21.73
881.868	20.23
882.301	26.63
882.734	19.93
883.167	23.83
883.601	22.13
884.034	22.63
884.467	17.73
884.899	15.33
885.332	20.63
885.765	9.93
886.198	16.83
886.631	21.73
887.064	19.93
887.497	23.73
887.929	21.93
888.362	17.43
888.795	17.33
889.228	16.13
889.66	20.63
890.093	13.83
890.526	17.33
890.958	21.23
891.391	21.03
891.823	21.73
892.256	20.13
892.688	9.53
893.121	19.23
893.553	13.63
893.985	19.43
894.418	19.13
894.85	5.53
895.282	12.93
895.715	18.33
896.147	20.63
896.579	12.63
897.011	14.13
897.444	14.13
897.876	13.83
898.308	15.03
898.74	15.83
899.172	12.63
899.604	22.53
900.036	20.93
900.468	9.73
900.9	14.33
901.332	17.63
901.764	16.83
902.196	23.03
902.628	15.93
903.06	14.13
903.491	37.23
903.923	26.03
904.355	24.03
904.787	25.03
905.218	22.53
905.65	21.53
906.082	12.33
906.513	14.33
906.945	17.43
907.376	13.43
907.808	20.03
908.239	18.33
908.671	19.73
909.102	19.03
909.534	28.03
909.965	49.13
910.397	99.43
910.828	337.13
911.259	496.93
911.691	225.43
912.122	119.13
912.553	56.03
912.984	36.53
913.415	24.93
913.847	21.33
914.278	16.23
914.709	12.93
915.14	18.33
915.571	17.63
916.002	14.33
916.433	16.33
916.864	20.43
917.295	14.43
917.726	18.03
918.157	17.73
918.587	24.73
919.018	23.73
919.449	19.63
919.88	22.43
920.311	31.23
920.741	52.73
921.172	178.53
921.603	158.33
922.033	70.63
922.464	45.43
922.895	23.53
923.325	16.23
923.756	12.73
924.186	7.23
924.617	19.13
925.047	16.93
925.478	23.13
925.908	22.33
926.338	13.43
926.769	14.03
927.199	15.33
927.629	7.03
928.06	16.23
928.49	18.63
928.92	9.23
929.35	12.43
929.78	12.93
930.21	5.33
930.641	9.53
931.071	12.43
931.501	4.13
931.931	7.93
932.361	4.83
932.791	2.83
933.221	11.83
933.651	5.03
934.08	12.13
934.51	26.83
934.94	12.73
935.37	11.23
935.8	9.93
936.229	11.83
936.659	12.53
937.089	4.03
937.519	12.93
937.948	19.33
938.378	11.53
938.807	5.23
939.237	4.93
939.666	0.13
940.096	-7.47
940.525	-1.87
940.955	6.23
941.384	6.53
941.814	-4.37
942.243	-3.47
942.672	2.33
943.102	3.93
943.531	1.53
943.96	0.73
944.39	7.03
944.819	-0.17
945.248	2.73
945.677	2.43
946.106	8.33
946.535	3.13
946.964	0.63
947.393	7.43
947.822	4.83
948.251	-6.47
948.68	0.93
949.109	2.33
949.538	3.83
949.967	5.73
950.396	2.23
950.825	1.03
951.254	1.93
951.682	-6.87
952.111	8.43
952.54	1.63
952.969	-4.27
953.397	-11.67
953.826	2.83
954.254	-2.17
954.683	4.13
955.112	-1.67
955.54	-1.57
955.969	2.13
956.397	2.93
956.826	-1.67
957.254	-0.07
957.682	0.83
958.111	0.83
958.539	-2.67
958.967	3.43
959.396	0.93
959.824	1.33
960.252	1.03
960.68	-7.17
961.109	-3.27
961.537	-6.57
961.965	0.03
962.393	2.43
962.821	-4.37
963.249	-1.07
963.677	5.13
964.105	4.13
964.533	47.03
964.961	44.73
965.389	21.53
965.817	12.73
966.245	0.13
966.672	-0.07
967.1	-7.57
967.528	2.83
967.956	-4.47
968.383	1.33
968.811	0.63
969.239	0.23
969.666	-5.17
970.094	6.03
970.522	6.53
970.949	-5.77
971.377	-6.57
971.804	-0.67
972.232	-0.27
972.659	-1.17
973.087	-4.27
973.514	-3.57
973.941	-6.37
974.369	4.33
974.796	-2.37
975.223	0.13
975.651	0.03
976.078	5.23
976.505	2.53
976.932	5.73
977.359	16.13
977.786	14.33
978.214	1.03
978.641	-1.97
979.068	-4.37
979.495	-9.17
979.922	2.03
980.349	-7.97
980.776	0.43
981.202	-1.37
981.629	2.43
982.056	10.73
982.483	2.13
982.91	-2.57
983.337	-8.37
983.763	-0.37
984.19	-4.27
984.617	-4.57
985.043	-5.97
985.47	1.63
985.897	-2.67
986.323	-5.37
986.75	2.23
987.176	-4.37
987.603	0.43
988.029	0.23
988.456	1.43
988.882	4.03
989.308	-10.37
989.735	-4.47
990.161	1.73
990.587	-1.37
991.014	-7.97
991.44	3.93
991.866	0.03
992.292	-1.57
992.719	-2.87
993.145	0.63
993.571	-3.47
993.997	-7.67
994.423	-6.87
994.849	-3.17
995.275	0.83
995.701	-1.57
996.127	-1.07
996.553	0.53
996.979	-1.67
997.405	-4.77
997.83	-8.77
998.256	-7.27
998.682	-8.07
999.108	-2.37
999.534	-2.57
999.959	-2.17
1000.385	-7.37
1000.811	3.73
1001.236	-8.47
1001.662	-3.77
1002.087	-6.27
1002.513	-0.27
1002.938	-5.47
1003.364	-2.67
1003.789	3.13
1004.215	7.93
1004.64	-2.07
1005.066	-2.17
1005.491	-3.17
1005.916	-0.07
1006.342	-7.07
1006.767	-8.77
1007.192	5.43
1007.617	-10.67
1008.042	-9.67
1008.468	-9.47
1008.893	2.73
1009.318	-2.77
1009.743	-4.67
1010.168	6.13
1010.593	1.33
1011.018	-7.57
1011.443	5.13
1011.868	0.53
1012.293	-1.37
1012.718	-8.17
1013.143	-3.67
1013.567	5.23
1013.992	-2.07
1014.417	-6.87
1014.842	-1.57
1015.267	-3.57
1015.691	-4.77
1016.116	-0.97
1016.541	-3.17
1016.965	-0.77
1017.39	0.83
1017.814	-1.07
1018.239	-2.07
1018.663	-4.07
1019.088	-7.77
1019.512	-2.27
1019.937	-2.87
1020.361	-3.87
1020.785	-9.07
1021.21	-3.47
1021.634	-5.07
1022.058	0.23
1022.483	1.33
1022.907	-3.57
1023.331	-3.17
1023.755	-3.87
1024.179	-4.77
1024.604	-11.77
1025.028	-13.37
1025.452	-4.77
1025.876	-0.17
1026.3	-1.17
1026.724	-14.77
1027.148	-6.17
1027.572	-10.97
1027.996	-8.77
1028.42	-0.87
1028.843	-1.57
1029.267	-6.17
1029.691	-6.97
1030.115	-9.97
1030.539	-9.17
1030.962	-5.37
1031.386	-11.67
1031.81	-1.27
1032.233	-1.47
1032.657	-6.87
1033.08	-4.37
1033.504	-3.77
1033.927	-3.97
1034.351	-4.37
1034.774	-1.47
1035.198	-1.97
1035.621	-10.87
1036.045	-8.77
1036.468	-3.07
1036.891	-8.77
1037.315	-5.97
1037.738	-10.17
1038.161	-5.77
1038.584	-8.47
1039.008	-6.17
1039.431	-3.07
1039.854	-4.17
1040.277	-10.87
1040.7	-8.87
1041.123	-2.87
1041.546	-6.47
1041.969	-4.97
1042.392	-5.27
1042.815	-2.97
1043.238	2.23
1043.661	3.03
1044.084	-7.07
1044.507	-6.67
1044.93	-9.87
1045.352	-11.07
1045.775	-5.67
1046.198	-3.27
1046.621	-0.57
1047.043	0.43
1047.466	11.43
1047.889	-0.47
1048.311	-0.27
1048.734	-4.67
1049.156	-3.97
1049.579	-2.67
1050.001	-7.07
1050.424	-1.37
1050.846	-9.47
1051.269	-12.97
1051.691	-11.07
1052.113	-5.77
1052.536	2.93
1052.958	-2.77
1053.38	-5.17
1053.802	-14.87
1054.225	1.53
1054.647	-14.77
1055.069	-7.97
1055.491	1.13
1055.913	-2.67
1056.335	0.93
1056.757	-8.97
1057.179	-9.37
1057.601	-6.87
1058.023	-8.77
1058.445	-7.67
1058.867	-7.07
1059.289	-0.57
1059.711	-7.57
1060.133	-1.47
1060.555	-3.67
1060.976	-3.27
1061.398	-2.47
1061.82	-7.17
1062.241	-10.07
1062.663	-6.97
1063.085	-1.97
1063.506	-0.87
1063.928	-6.47
1064.35	-1.57
1064.771	-13.17
1065.193	-8.47
1065.614	-4.07
1066.035	-4.17
1066.457	-0.37
1066.878	0.03
1067.3	-4.77
1067.721	-7.37
1068.142	-5.17
1068.564	-6.57
1068.985	-3.67
1069.406	-9.57
1069.827	-4.07
1070.248	-5.57
1070.67	-8.47
1071.091	-5.67
1071.512	-4.07
1071.933	-6.87
1072.354	-10.37
1072.775	-5.37
1073.196	-9.37
1073.617	-1.57
1074.038	-0.27
1074.459	-2.07
1074.88	-7.17
1075.3	-4.27
1075.721	-0.87
1076.142	-3.67
1076.563	-0.87
1076.983	-6.07
1077.404	-10.27
1077.825	-17.97
1078.246	-5.37
1078.666	-9.57
1079.087	-2.37
1079.507	-6.97
1079.928	-7.27
1080.348	-0.67
1080.769	-4.67
1081.189	-5.57
1081.61	2.33
1082.03	-3.57
1082.451	-8.17
1082.871	-3.27
1083.291	-4.87
1083.711	-9.47
1084.132	-5.97
1084.552	-5.97
1084.972	-5.97
1085.392	-10.97
1085.813	-9.57
1086.233	-9.07
1086.653	-6.87
1087.073	-2.17
1087.493	-7.67
1087.913	-9.17
1088.333	-4.67
1088.753	-8.07
1089.173	4.63
1089.593	-5.47
1090.013	1.83
1090.433	3.03
1090.852	-7.87
1091.272	-1.17
1091.692	-2.97
1092.112	-4.77
1092.531	-9.97
1092.951	-8.97
1093.371	-9.97
1093.79	-1.77
1094.21	-4.87
1094.63	-4.27
1095.049	-8.77
1095.469	-6.17
1095.888	-5.47
1096.308	-1.57
1096.727	6.43
1097.146	-9.87
1097.566	-6.67
1097.985	-10.87
1098.405	-4.97
1098.824	-6.27
1099.243	-5.27
1099.662	-12.77
1100.082	-6.17
1100.501	-2.37
1100.92	-6.57
1101.339	-1.87
1101.758	-9.17
