Data from 20171114-ORNL-Ar_H_NY_Subt18_08-05-38-150.txt Node
Date: Tue Nov 14 08:05:38 EST 2017
User: Ender
Spectrometer: HR+D1039
Trigger mode: 0
Integration Time (sec): 2.730000E-2
Scans to average: 10
Electric dark correction enabled: true
Nonlinearity correction enabled: false
Boxcar width: 0
XAxis mode: Wavelengths
Number of Pixels in Spectrum: 2048
>>>>>Begin Spectral Data<<<<<
187.836	-2.7
188.309	-2.7
188.782	-2.7
189.255	3.4
189.728	0.5
190.201	4.7
190.674	-6.3
191.147	3.4
191.619	-9.7
192.092	4.1
192.565	7.5
193.038	-2
193.511	3.2
193.984	-0.3
194.456	-4.7
194.929	-0.7
195.402	-1.5
195.874	1.1
196.347	-0.2
196.82	-7.3
197.292	5.6
197.765	1.8
198.237	-6.6
198.71	4.5
199.182	-3.1
199.655	3.5
200.127	4.1
200.6	4.1
201.072	-2.2
201.544	-6.3
202.017	1.6
202.489	4.3
202.961	-3.5
203.433	-1.3
203.906	-1.7
204.378	-2.8
204.85	-2.5
205.322	-7.9
205.794	-3.7
206.266	-4.5
206.739	-8.1
207.211	3.9
207.683	-11.1
208.155	-3.7
208.627	-3
209.099	-5.6
209.57	-4.5
210.042	-6.4
210.514	-0.1
210.986	1.7
211.458	-7.1
211.93	2.8
212.402	7.4
212.873	-8.8
213.345	-12.8
213.817	-5.9
214.288	-3.4
214.76	-8.3
215.232	-0.8
215.703	-1.9
216.175	-0.3
216.646	0.1
217.118	-4.4
217.589	-7
218.061	-5.5
218.532	-2.1
219.004	0.6
219.475	2.8
219.946	-5.2
220.418	-1.9
220.889	1.4
221.36	-0.7
221.832	-1.3
222.303	-6.3
222.774	-1.1
223.245	-6
223.717	-2.5
224.188	-3.5
224.659	-1.8
225.13	-2.3
225.601	-4.7
226.072	-1.8
226.543	-3.4
227.014	-1.2
227.485	-5.2
227.956	3.4
228.427	-3.2
228.898	3.3
229.369	6.3
229.839	-1.3
230.31	-4.4
230.781	0.2
231.252	-3.3
231.722	1.1
232.193	6.5
232.664	4.2
233.135	2.9
233.605	0.8
234.076	-4.6
234.546	5.5
235.017	5.2
235.487	-3.6
235.958	-0.5
236.428	-1
236.899	6.1
237.369	8.8
237.84	1
238.31	9.1
238.78	5.1
239.251	-3
239.721	7.6
240.191	5.4
240.662	3.4
241.132	0.4
241.602	-5.3
242.072	4.3
242.542	4.8
243.013	1
243.483	3.1
243.953	7
244.423	3.2
244.893	-4.4
245.363	6.4
245.833	-1.4
246.303	-2.6
246.773	3.9
247.243	3.7
247.712	3.2
248.182	13.4
248.652	5.2
249.122	4.8
249.592	12.2
250.061	22.1
250.531	36.4
251.001	16.2
251.471	26.1
251.94	17.4
252.41	6.8
252.879	2.6
253.349	16.3
253.818	14.4
254.288	7.8
254.757	7.5
255.227	3.3
255.696	-2.1
256.166	8.9
256.635	5.6
257.105	9.1
257.574	6
258.043	10.4
258.513	10.9
258.982	16.5
259.451	11.3
259.92	11.8
260.389	13.1
260.859	18.4
261.328	12.2
261.797	17.8
262.266	9.9
262.735	12.4
263.204	7.5
263.673	3
264.142	8.9
264.611	3.5
265.08	7.2
265.549	6.6
266.018	10.5
266.487	0.3
266.955	3.8
267.424	3.3
267.893	7.9
268.362	-1.2
268.83	4.7
269.299	13.8
269.768	12.9
270.236	9
270.705	-0.5
271.174	9
271.642	11
272.111	8.5
272.579	18.2
273.048	33.8
273.516	29.9
273.985	31.5
274.453	26.8
274.922	22.1
275.39	8.9
275.858	4.1
276.327	19.6
276.795	24.2
277.263	16
277.731	34.4
278.2	58.8
278.668	62.1
279.136	57.6
279.604	24.3
280.072	21.4
280.54	18.1
281.008	14.8
281.477	19.1
281.945	13.3
282.413	18.1
282.881	19.4
283.348	8.9
283.816	15.2
284.284	20.2
284.752	29.1
285.22	18.6
285.688	15.2
286.156	22
286.623	44
287.091	54.9
287.559	34
288.026	19.9
288.494	18.3
288.962	7.1
289.429	10.8
289.897	19.3
290.364	19.4
290.832	22.6
291.3	14.3
291.767	19.8
292.234	24.8
292.702	16.6
293.169	24.4
293.637	25
294.104	22
294.571	9.3
295.039	14.2
295.506	12.5
295.973	21.3
296.44	19
296.908	21.3
297.375	21.5
297.842	21.2
298.309	18.5
298.776	19.6
299.243	22.8
299.71	16
300.177	27.4
300.644	26.6
301.111	25.3
301.578	26.2
302.045	22.9
302.512	24.3
302.979	27.6
303.446	21.2
303.913	24.2
304.379	18.7
304.846	30.6
305.313	30.1
305.78	25.2
306.246	24.7
306.713	27.6
307.18	24.2
307.646	31.9
308.113	34.4
308.579	23.8
309.046	30.7
309.512	29.3
309.979	25.1
310.445	30.3
310.912	31.2
311.378	32.8
311.845	34.6
312.311	31
312.777	28.8
313.244	35.7
313.71	42.2
314.176	36.5
314.642	38.2
315.109	31.8
315.575	39.7
316.041	42.4
316.507	35.7
316.973	42.3
317.439	31
317.905	40.9
318.371	42.1
318.837	44.2
319.303	38.1
319.769	35.5
320.235	35.6
320.701	35.9
321.167	39.5
321.633	34
322.099	34.6
322.564	47
323.03	45.6
323.496	42.3
323.962	40.6
324.427	36.5
324.893	46.3
325.359	41.5
325.824	38.6
326.29	36.7
326.755	41.1
327.221	48.3
327.686	44.5
328.152	47.6
328.617	48.1
329.083	47.5
329.548	52.5
330.014	48.1
330.479	39.7
330.944	49.2
331.41	47
331.875	44
332.34	48.1
332.805	44.3
333.271	50.2
333.736	47.6
334.201	62.6
334.666	54.5
335.131	54.7
335.596	52.1
336.061	49.6
336.526	46.6
336.991	48.7
337.456	57.6
337.921	48.9
338.386	45
338.851	41.2
339.316	49.8
339.781	48.4
340.246	56.5
340.711	49.8
341.175	51.3
341.64	44
342.105	52.9
342.569	56.9
343.034	68.7
343.499	57.9
343.963	50.5
344.428	70.3
344.893	57.4
345.357	63.8
345.822	64
346.286	66.2
346.751	78.9
347.215	70.5
347.679	76.5
348.144	93.9
348.608	88.9
349.073	76.2
349.537	78
350.001	86
350.465	87.6
350.93	89.8
351.394	88.2
351.858	78.4
352.322	93.7
352.786	86.2
353.25	107.6
353.715	112.8
354.179	100.9
354.643	125.7
355.107	127.1
355.571	111.5
356.035	106.7
356.498	117.3
356.962	127.3
357.426	137.2
357.89	116.6
358.354	94
358.818	81.6
359.281	90
359.745	84
360.209	82.9
360.673	81.7
361.136	87.3
361.6	87.5
362.064	85.3
362.527	88.8
362.991	87.5
363.454	82.2
363.918	75.6
364.381	82.8
364.845	89.9
365.308	89.4
365.772	94.9
366.235	90.7
366.698	85.8
367.162	89.6
367.625	86.1
368.088	92.9
368.552	88.4
369.015	88.7
369.478	102
369.941	106.8
370.404	98.7
370.867	105.2
371.331	108
371.794	113.5
372.257	111.4
372.72	114.3
373.183	106.6
373.646	107.7
374.109	104.7
374.572	108.1
375.035	111.4
375.497	112.2
375.96	103.7
376.423	99.3
376.886	113.8
377.349	113.4
377.811	100.3
378.274	104.5
378.737	109.2
379.199	115.9
379.662	116.1
380.125	120.2
380.587	117.6
381.05	130.5
381.512	131.7
381.975	133.4
382.437	128.3
382.9	123.7
383.362	129.2
383.825	145.3
384.287	149.2
384.75	141
385.212	143.6
385.674	143.2
386.136	132.6
386.599	132
387.061	130.4
387.523	134.7
387.985	137.9
388.447	152.4
388.91	146.4
389.372	159.2
389.834	160.1
390.296	146
390.758	153.6
391.22	166.6
391.682	215.9
392.144	296.6
392.606	231.5
393.068	168.1
393.529	173.9
393.991	153.9
394.453	150.1
394.915	154.8
395.377	201.7
395.838	221.8
396.3	157.1
396.762	144.7
397.224	138.7
397.685	129.2
398.147	128.7
398.608	120.6
399.07	125.1
399.531	136.5
399.993	138
400.454	151.9
400.916	144.8
401.377	140.7
401.839	145.6
402.3	153
402.762	170
403.223	185.1
403.684	177.2
404.145	157.9
404.607	164.9
405.068	164.1
405.529	170.9
405.99	189.4
406.451	172.9
406.913	179.5
407.374	169.5
407.835	165.2
408.296	164.2
408.757	176.7
409.218	189
409.679	179.7
410.14	177.1
410.601	180.3
411.062	184.8
411.522	189.8
411.983	195.1
412.444	170.6
412.905	182.6
413.366	187.4
413.826	188.5
414.287	218.3
414.748	263.6
415.208	242.7
415.669	221.4
416.13	204.6
416.59	197.6
417.051	211.5
417.511	214.7
417.972	236
418.432	239.1
418.893	288.7
419.353	258.6
419.814	198
420.274	180.8
420.734	185.1
421.195	195.2
421.655	199.6
422.115	191.3
422.576	195.8
423.036	196.9
423.496	210.4
423.956	219.4
424.416	231.9
424.876	273.3
425.336	265.8
425.797	266.1
426.257	257.6
426.717	241.1
427.177	233
427.637	221.6
428.097	243.5
428.556	246.4
429.016	265.1
429.476	265
429.936	276.5
430.396	278.6
430.856	288.6
431.315	318.5
431.775	350.4
432.235	382.3
432.694	350.1
433.154	368.7
433.614	391.4
434.073	335.2
434.533	287.1
434.993	274.7
435.452	284.5
435.912	298.1
436.371	292.7
436.83	288.5
437.29	271.9
437.749	251.4
438.209	246.7
438.668	276.5
439.127	284.5
439.587	268.7
440.046	251.9
440.505	265.6
440.964	291.9
441.424	330.8
441.883	313.5
442.342	261.3
442.801	228
443.26	218.4
443.719	216.3
444.178	223.9
444.637	207.7
445.096	214.9
445.555	228.7
446.014	225.6
446.473	219.1
446.932	229.6
447.391	225.6
447.849	234.9
448.308	225.5
448.767	225.1
449.226	235.4
449.685	237.1
450.143	256.1
450.602	238.9
451.061	222.5
451.519	237.3
451.978	232
452.436	236.1
452.895	249.7
453.353	256.3
453.812	241.4
454.27	236.5
454.729	244.1
455.187	233.5
455.646	245.7
456.104	252.7
456.562	259.3
457.021	261
457.479	267
457.937	271.5
458.395	263.1
458.854	248.4
459.312	255.7
459.77	272.9
460.228	258.5
460.686	240
461.144	245.2
461.602	244.6
462.06	245
462.518	250.8
462.976	255.8
463.434	261
463.892	261.1
464.35	278.9
464.808	293.7
465.266	267.4
465.724	266.6
466.181	274.5
466.639	269.5
467.097	281.3
467.555	295.8
468.012	298.7
468.47	316.1
468.928	327.6
469.385	335.4
469.843	337.6
470.3	353.2
470.758	366.1
471.215	387.1
471.673	414
472.13	407.8
472.588	420.8
473.045	370
473.503	378.2
473.96	391.3
474.417	408
474.875	435
475.332	476.1
475.789	463.2
476.246	467.2
476.704	489
477.161	507.9
477.618	531.6
478.075	570.9
478.532	620.1
478.989	706.3
479.446	806.3
479.903	777.1
480.36	814.6
480.817	879.5
481.274	981.6
481.731	1079
482.188	1173.1
482.645	1316.4
483.102	1419.7
483.558	1565.2
484.015	1617.2
484.472	1594.7
484.929	1555.2
485.385	1493.9
485.842	1450.4
486.299	1382.2
486.755	1310.4
487.212	1101.2
487.668	934.8
488.125	859.7
488.582	774.2
489.038	755
489.494	712.4
489.951	685.4
490.407	675.7
490.864	660.3
491.32	645.8
491.776	634.9
492.233	645.9
492.689	608.3
493.145	616.4
493.602	603
494.058	609.4
494.514	620.6
494.97	627.6
495.426	644.2
495.882	629.9
496.338	622.5
496.794	625.6
497.251	623.7
497.707	639.1
498.163	639.7
498.618	648.2
499.074	657
499.53	683
499.986	686.1
500.442	660.4
500.898	641.1
501.354	627.4
501.809	630
502.265	646.6
502.721	658.1
503.177	662.9
503.632	672.2
504.088	680.9
504.543	714.6
504.999	712.9
505.455	665.1
505.91	633.1
506.366	631.3
506.821	625.4
507.277	626.7
507.732	622.9
508.187	621
508.643	628.4
509.098	628.6
509.553	657
510.009	661.3
510.464	668.5
510.919	686.6
511.375	690.7
511.83	703.9
512.285	729.5
512.74	758
513.195	785.3
513.65	777.9
514.105	765.8
514.56	777.2
515.015	793.7
515.47	808.4
515.925	792.8
516.38	785.8
516.835	799
517.29	786.8
517.745	778.1
518.2	764.1
518.655	746.7
519.109	741
519.564	738
520.019	731.6
520.474	730.6
520.928	725.9
521.383	726.8
521.838	709.2
522.292	711.5
522.747	707.1
523.201	692.9
523.656	695.6
524.11	693.2
524.565	690.7
525.019	687.1
525.474	701.8
525.928	692.1
526.382	695.2
526.837	700.6
527.291	707
527.745	697.8
528.2	691
528.654	692.4
529.108	692.5
529.562	689.5
530.016	696.2
530.47	700.9
530.925	701.2
531.379	696.2
531.833	711.9
532.287	705.3
532.741	702.1
533.195	715.3
533.649	715.1
534.103	724.2
534.556	716.6
535.01	703.3
535.464	714
535.918	710.7
536.372	723.9
536.826	724.7
537.279	694.1
537.733	712.3
538.187	713.1
538.64	716.5
539.094	721
539.548	740.9
540.001	719.3
540.455	717.5
540.908	724.7
541.362	732.5
541.815	741.5
542.269	755.6
542.722	762.5
543.175	767.7
543.629	771.3
544.082	779
544.536	775.8
544.989	775.6
545.442	786
545.895	790
546.349	789.8
546.802	784.2
547.255	792.1
547.708	802.3
548.161	809.7
548.614	818.7
549.067	818.2
549.52	810.2
549.973	811.1
550.426	805.8
550.879	792.8
551.332	782.8
551.785	802.5
552.238	806.7
552.691	813.3
553.144	826.3
553.596	836.5
554.049	864.9
554.502	893.8
554.955	907.9
555.407	901.9
555.86	886.8
556.313	891.2
556.765	871.4
557.218	875.2
557.67	874.7
558.123	877.7
558.576	869.6
559.028	870
559.48	883.3
559.933	864.7
560.385	829.5
560.838	801.1
561.29	777.6
561.742	772.4
562.195	761.6
562.647	760.4
563.099	766.4
563.551	768
564.004	778.6
564.456	768.4
564.908	742.3
565.36	739.2
565.812	727.5
566.264	714.8
566.716	717.4
567.168	712.3
567.62	711.2
568.072	697.2
568.524	693.1
568.976	681.1
569.428	673.5
569.88	668
570.332	680.3
570.784	667.7
571.235	673.8
571.687	693.3
572.139	694.5
572.59	702.5
573.042	705.4
573.494	713.5
573.945	694.9
574.397	670.7
574.849	694.8
575.3	682.8
575.752	679.4
576.203	674.7
576.655	683.4
577.106	666.1
577.557	660.8
578.009	658.8
578.46	656.2
578.912	652.4
579.363	653.9
579.814	653.9
580.265	653.7
580.717	660.2
581.168	662.3
581.619	672.9
582.07	664.1
582.521	662.7
582.972	661.1
583.423	676.5
583.875	674.8
584.326	688.2
584.777	739.4
585.227	815
585.678	895.6
586.129	999.7
586.58	1068.5
587.031	1144.6
587.482	1299.9
587.933	1493.9
588.384	1299.7
588.834	967.6
589.285	791.2
589.736	767.4
590.186	764.2
590.637	750.7
591.088	735.9
591.538	724.7
591.989	724.3
592.439	712.8
592.89	707
593.34	692.8
593.791	699.5
594.241	694.8
594.692	695
595.142	691.7
595.593	683.3
596.043	690.9
596.493	699.2
596.943	693.6
597.394	706.2
597.844	703
598.294	712.3
598.744	738.7
599.195	765.4
599.645	782.2
600.095	836.1
600.545	898.2
600.995	937.5
601.445	1000.6
601.895	1062.7
602.345	1120.4
602.795	1088.4
603.245	1042.5
603.695	989.6
604.145	946.3
604.594	894.6
605.044	832.2
605.494	782.8
605.944	740.4
606.393	730.7
606.843	710.6
607.293	725.2
607.743	714.3
608.192	732.6
608.642	746.7
609.091	746.2
609.541	759.1
609.99	753.2
610.44	752.1
610.889	709.7
611.339	690.1
611.788	678.8
612.238	691.9
612.687	705.3
613.136	700.9
613.586	721.8
614.035	724.8
614.484	733.8
614.933	747.6
615.383	743
615.832	728.7
616.281	704.4
616.73	674.4
617.179	648
617.628	632.9
618.077	615.5
618.526	597.6
618.975	597.4
619.424	597.5
619.873	593.9
620.322	608.7
620.771	598.2
621.22	596
621.669	577.6
622.118	576.2
622.567	560.4
623.015	554.4
623.464	561.7
623.913	549.5
624.361	537.8
624.81	528.5
625.259	532.3
625.707	538.4
626.156	545.7
626.604	549.9
627.053	550.8
627.501	549.4
627.95	553.9
628.398	566.7
628.847	557.3
629.295	559.3
629.744	558.6
630.192	547.9
630.64	548.2
631.089	545.3
631.537	562.6
631.985	565.7
632.433	578.7
632.881	599.4
633.33	642.4
633.778	622.6
634.226	552.1
634.674	553.4
635.122	569.9
635.57	574
636.018	609
636.466	556.3
636.914	536.6
637.362	550.2
637.81	554.3
638.258	561.1
638.705	563.9
639.153	581.2
639.601	597.9
640.049	632.3
640.497	648
640.944	668.7
641.392	625.7
641.84	594.7
642.287	564.2
642.735	551.7
643.182	558.1
643.63	549.8
644.078	561.7
644.525	575.4
644.973	568.2
645.42	588.7
645.867	602.7
646.315	624
646.762	640.7
647.21	660.9
647.657	699.2
648.104	731.7
648.551	743.7
648.999	816.8
649.446	881.3
649.893	968
650.34	1125.3
650.787	1350.6
651.234	1667
651.682	2187.4
652.129	2990.4
652.576	4286.6
653.023	6368.3
653.47	8752.1
653.917	10983.3
654.363	12751.2
654.81	14183.7
655.257	13467.2
655.704	8821.1
656.151	5180.4
656.598	3347.6
657.044	2375.6
657.491	1825.8
657.938	1437.2
658.385	1213.7
658.831	1051.3
659.278	936.7
659.724	835.7
660.171	772.9
660.618	700.7
661.064	671.4
661.511	648.3
661.957	635.6
662.404	622.5
662.85	631.7
663.296	603.9
663.743	539.2
664.189	516.7
664.635	512.1
665.082	510.3
665.528	510.5
665.974	492.2
666.42	493.3
666.867	491.1
667.313	469.2
667.759	466.2
668.205	459
668.651	465.6
669.097	475.1
669.543	477.8
669.989	449.4
670.435	427.7
670.881	431
671.327	435.6
671.773	445.9
672.219	469.3
672.665	514
673.11	555
673.556	597.5
674.002	646.5
674.448	631.4
674.893	527.1
675.339	454.4
675.785	415
676.23	393.4
676.676	378.5
677.122	362.8
677.567	357.1
678.013	352.3
678.458	348.7
678.904	350.2
679.349	337
679.794	343
680.24	343.9
680.685	334.4
681.131	334.9
681.576	332
682.021	329.8
682.466	327.8
682.912	334.4
683.357	337.7
683.802	367.7
684.247	393.1
684.692	434.2
685.137	477.7
685.583	515.2
686.028	531.8
686.473	498.3
686.918	425.2
687.363	398
687.807	379.7
688.252	345
688.697	337.7
689.142	327.5
689.587	320.3
690.032	312.8
690.477	319.9
690.921	339.2
691.366	362.7
691.811	388.4
692.255	406.1
692.7	436.3
693.145	477.3
693.589	657.6
694.034	1048.9
694.478	1450.2
694.923	1658.1
695.367	2168.4
695.812	1138.4
696.256	477.1
696.701	363.8
697.145	332
697.59	322.1
698.034	304.6
698.478	316.3
698.922	309.6
699.367	312.7
699.811	322.5
700.255	336.9
700.699	365.8
701.143	404.9
701.588	443.7
702.032	494
702.476	493.3
702.92	466.1
703.364	466.2
703.808	600
704.252	960.3
704.696	1363.7
705.14	1595
705.584	2056.4
706.027	1011.7
706.471	500.3
706.915	375
707.359	334.4
707.803	305.3
708.246	296
708.69	292.7
709.134	291.4
709.577	298.4
710.021	302.3
710.465	303.3
710.908	286.4
711.352	291.8
711.795	294.4
712.239	327.7
712.682	362.2
713.126	400.9
713.569	446.3
714.012	354.7
714.456	306
714.899	287.7
715.342	264.9
715.786	248.9
716.229	249.9
716.672	240.9
717.115	235.1
717.558	240.1
718.002	240
718.445	255.1
718.888	265.2
719.331	280.6
719.774	284.3
720.217	291.1
720.66	269.4
721.103	247.5
721.546	229.6
721.989	243.2
722.432	218.9
722.874	222.9
723.317	219.7
723.76	227.9
724.203	237.6
724.645	297
725.088	421.8
725.531	530.1
725.974	615.2
726.416	517.8
726.859	287.2
727.301	241.5
727.744	226.1
728.187	223.8
728.629	229.7
729.071	227.4
729.514	253.9
729.956	257
730.399	271.8
730.841	279.9
731.283	256.4
731.726	247.9
732.168	247.8
732.61	251.8
733.053	275.9
733.495	298.8
733.937	329.9
734.379	372.2
734.821	404.1
735.263	501.2
735.705	784.1
736.148	1460.7
736.59	2414.4
737.032	2917.6
737.474	2373.2
737.916	767
738.357	401.9
738.799	305.8
739.241	282.6
739.683	274.9
740.125	278.2
740.567	277.4
741.008	298.9
741.45	299.2
741.892	297.7
742.334	327.1
742.775	338.8
743.217	317.4
743.658	255.3
744.1	234.6
744.542	251.9
744.983	296.2
745.425	329.5
745.866	330.1
746.307	267
746.749	265.9
747.19	304.4
747.632	427.5
748.073	806.7
748.514	1729.8
748.956	2688.5
749.397	3364.1
749.838	2781.4
750.279	2819.9
750.72	1420.5
751.162	518
751.603	302.1
752.044	236.1
752.485	204.6
752.926	202.5
753.367	189.4
753.808	180.8
754.249	175
754.69	174.4
755.131	169.5
755.572	175.3
756.013	173
756.453	170.2
756.894	177.4
757.335	177.8
757.776	177
758.216	178.9
758.657	191.5
759.098	190.2
759.538	211.8
759.979	258.1
760.42	338.8
760.86	643.3
761.301	1669.8
761.741	4076.9
762.182	6134.3
762.622	4316.8
763.063	1241
763.503	510.9
763.943	335.5
764.384	316.8
764.824	383.7
765.264	417.5
765.705	290.5
766.145	204
766.585	172.1
767.025	169.2
767.465	180.4
767.906	237.7
768.346	306.5
768.786	330.4
769.226	250.4
769.666	300.2
770.106	571
770.546	1432.9
770.986	2507.2
771.426	2261.8
771.866	752.1
772.306	306.2
772.745	196.2
773.185	162.4
773.625	162.7
774.065	158.7
774.505	193.4
774.944	283.7
775.384	638.7
775.824	1196.4
776.263	1181
776.703	498.1
777.142	205.9
777.582	147.5
778.021	133.8
778.461	132.4
778.9	135.5
779.34	122.4
779.779	106.1
780.219	109.8
780.658	103.1
781.097	103.4
781.537	112.5
781.976	104.8
782.415	99.7
782.855	97.6
783.294	98.7
783.733	98.4
784.172	97.6
784.611	106.6
785.05	111.2
785.489	109.2
785.928	116.5
786.367	110.4
786.806	112.6
787.245	125.6
787.684	134.4
788.123	135.5
788.562	132.2
789.001	124.4
789.44	114.8
789.879	117.3
790.317	117.2
790.756	121.8
791.195	117.5
791.634	139.9
792.072	194.7
792.511	335.6
792.95	923.8
793.388	2017.8
793.827	1846.7
794.265	641.9
794.704	265.4
795.142	177.5
795.581	144.3
796.019	130.7
796.458	120.5
796.896	112.6
797.334	119.4
797.773	145.5
798.211	196.4
798.649	409.7
799.087	939.8
799.526	1497.9
799.964	1885.4
800.402	1918.7
800.84	717.7
801.278	286.8
801.716	178.3
802.154	144.6
802.592	140.4
803.03	129.6
803.468	126.1
803.906	131.6
804.344	141
804.782	132.5
805.22	122.3
805.658	123.9
806.096	144.5
806.533	159.1
806.971	162.7
807.409	207.2
807.847	293.8
808.284	606.2
808.722	1705.4
809.16	3104.2
809.597	2898.8
810.035	5076
810.472	5539.1
810.91	1990.9
811.347	741.9
811.785	385.7
812.222	241.6
812.66	183.5
813.097	158.1
813.535	135.6
813.972	127.8
814.409	112.8
814.846	101.8
815.284	104.5
815.721	98.2
816.158	99.3
816.595	112.8
817.032	164.5
817.47	190
817.907	167
818.344	147.9
818.781	109
819.218	94.7
819.655	118
820.092	173.2
820.529	198.3
820.966	168.6
821.403	128
821.839	105.9
822.276	99.6
822.713	114.2
823.15	129.9
823.587	113.1
824.023	135.8
824.46	272.8
824.897	825.6
825.333	1279.2
825.77	550.6
826.206	207
826.643	123.8
827.08	92.2
827.516	73.3
827.953	77
828.389	74.8
828.825	67.6
829.262	67
829.698	62.4
830.135	63.4
830.571	61.3
831.007	57.7
831.443	65.3
831.88	64.1
832.316	60.1
832.752	62.6
833.188	61.9
833.624	61.7
834.06	65.2
834.497	65.5
834.933	73
835.369	73.5
835.805	67.5
836.241	76.5
836.677	73.2
837.112	87.5
837.548	98.6
837.984	120
838.42	184.4
838.856	444.2
839.292	1403.9
839.727	2190.4
840.163	1009.7
840.599	847.4
841.034	1900.5
841.47	2023.5
841.906	732.6
842.341	321.7
842.777	219.2
843.212	304.8
843.648	301.8
844.083	149
844.519	90.7
844.954	72.2
845.39	56.2
845.825	55.8
846.261	50.6
846.696	54.1
847.131	49.3
847.566	56.1
848.002	47.9
848.437	58.5
848.872	62.6
849.307	60.6
849.742	85.3
850.177	168.1
850.613	513.8
851.048	834.8
851.483	358.9
851.918	153.3
852.353	86.2
852.788	57.9
853.223	51.8
853.657	50.9
854.092	47.8
854.527	41.6
854.962	34.3
855.397	42.2
855.832	51.2
856.266	41.8
856.701	36.1
857.136	34.8
857.57	40
858.005	45.8
858.44	59.4
858.874	41.6
859.309	48.9
859.743	36.3
860.178	43.6
860.612	41.4
861.047	49.5
861.481	67.9
861.915	73.9
862.35	50.9
862.784	29.6
863.218	32.9
863.653	29.2
864.087	39.5
864.521	52
864.955	62.1
865.39	148.2
865.824	167.1
866.258	99.9
866.692	156.4
867.126	166.8
867.56	98.3
867.994	53.1
868.428	40.3
868.862	43
869.296	47.3
869.73	58.9
870.164	50.7
870.598	48.2
871.031	36.1
871.465	28.8
871.899	32.8
872.333	23.7
872.766	31.1
873.2	24.5
873.634	30.5
874.067	22.9
874.501	25.5
874.935	32.6
875.368	25.2
875.802	27.1
876.235	23.1
876.669	22.3
877.102	21.4
877.535	22.9
877.969	20.8
878.402	23
878.836	13.4
879.269	17.5
879.702	19.7
880.135	18.4
880.569	23.9
881.002	26.7
881.435	25.6
881.868	14.5
882.301	15.4
882.734	14.7
883.167	26
883.601	15.6
884.034	22.1
884.467	13.9
884.899	21.6
885.332	18.6
885.765	14.6
886.198	15.7
886.631	14.1
887.064	18.8
887.497	18.5
887.929	27.2
888.362	10.5
888.795	17.8
889.228	21
889.66	22
890.093	18.5
890.526	23
890.958	19.1
891.391	20.7
891.823	21.1
892.256	13.7
892.688	7.6
893.121	9.9
893.553	18.1
893.985	24.8
894.418	20.9
894.85	8.3
895.282	14.8
895.715	13.2
896.147	14.6
896.579	17.9
897.011	5.8
897.444	16.6
897.876	18.7
898.308	18.7
898.74	13.5
899.172	9.7
899.604	21.1
900.036	20.5
900.468	13.3
900.9	12
901.332	18.5
901.764	12.9
902.196	18.7
902.628	16.9
903.06	18.7
903.491	27.1
903.923	18.4
904.355	19.4
904.787	24.8
905.218	22.6
905.65	24.9
906.082	11.2
906.513	11.9
906.945	16.2
907.376	15
907.808	18.8
908.239	20
908.671	20
909.102	23
909.534	25.2
909.965	42.2
910.397	89.5
910.828	289.8
911.259	454.8
911.691	205.7
912.122	90.5
912.553	51.5
912.984	34
913.415	29.1
913.847	25.1
914.278	16.6
914.709	11.7
915.14	19.5
915.571	17.4
916.002	12.1
916.433	20.5
916.864	12.5
917.295	12.7
917.726	15.7
918.157	16.4
918.587	29.1
919.018	18.3
919.449	20.7
919.88	24.6
920.311	31
920.741	45.3
921.172	158.8
921.603	142.6
922.033	69.3
922.464	42.3
922.895	20.3
923.325	25.4
923.756	19.3
924.186	16.8
924.617	22.9
925.047	41.4
925.478	55.2
925.908	44.2
926.338	27.2
926.769	14.5
927.199	21.4
927.629	11
928.06	18.1
928.49	18.5
928.92	16.8
929.35	11.9
929.78	5.9
930.21	4.4
930.641	6.2
931.071	9.5
931.501	5.7
931.931	11.4
932.361	5
932.791	-1.8
933.221	10.9
933.651	3.5
934.08	15.2
934.51	24.7
934.94	7.1
935.37	11.7
935.8	16.8
936.229	14.9
936.659	8.4
937.089	6
937.519	15.1
937.948	28.2
938.378	18.7
938.807	8.3
939.237	-1.7
939.666	13.5
940.096	-7.9
940.525	7.6
940.955	7.7
941.384	9.7
941.814	-3.8
942.243	0.8
942.672	0.7
943.102	-4.3
943.531	6.2
943.96	7.3
944.39	6.6
944.819	-1
945.248	1.5
945.677	0.7
946.106	6.3
946.535	6.8
946.964	4.6
947.393	6
947.822	5.7
948.251	-0.4
948.68	5.1
949.109	6.4
949.538	4.8
949.967	2.1
950.396	-0.1
950.825	-3.1
951.254	0
951.682	-3
952.111	10.4
952.54	3.5
952.969	-1
953.397	-2.3
953.826	-1.3
954.254	-4
954.683	4
955.112	-1
955.54	0.9
955.969	0.8
956.397	2.9
956.826	-5.4
957.254	-0.8
957.682	4.3
958.111	6.6
958.539	-2.3
958.967	-2.9
959.396	-2.7
959.824	-0.6
960.252	3.4
960.68	-3.8
961.109	-4
961.537	-0.9
961.965	-0.7
962.393	2.9
962.821	-6.5
963.249	2.3
963.677	4.5
964.105	11.4
964.533	39.4
964.961	38.5
965.389	24.3
965.817	12.2
966.245	0.8
966.672	-2.6
967.1	-6.9
967.528	-2.6
967.956	-0.4
968.383	3.5
968.811	-3.4
969.239	1.2
969.666	-6.8
970.094	-2.9
970.522	3.8
970.949	0
971.377	-4.6
971.804	-2
972.232	-0.4
972.659	-4.8
973.087	-2.5
973.514	-0.3
973.941	0.1
974.369	4.5
974.796	1.2
975.223	2.4
975.651	-2
976.078	3.1
976.505	-0.8
976.932	2.5
977.359	15.8
977.786	16.7
978.214	6.5
978.641	-0.2
979.068	-2.4
979.495	-3.9
979.922	0.3
980.349	-2.5
980.776	3.4
981.202	-1
981.629	7.2
982.056	-1.1
982.483	0.7
982.91	9
983.337	-5.8
983.763	4.9
984.19	-0.3
984.617	0.7
985.043	-2.5
985.47	-2.9
985.897	-1.1
986.323	-3.7
986.75	2.3
987.176	1
987.603	2.1
988.029	2.5
988.456	-4.8
988.882	1.9
989.308	-5.6
989.735	-7.6
990.161	-1.4
990.587	-3.5
991.014	2.8
991.44	7.2
991.866	-3
992.292	-3.2
992.719	0.7
993.145	5.6
993.571	-6.4
993.997	-2.6
994.423	-1.3
994.849	-5.8
995.275	6.8
995.701	5.6
996.127	4.2
996.553	3.8
996.979	0.7
997.405	2.2
997.83	1.9
998.256	-10
998.682	-7.9
999.108	-6.8
999.534	-2.5
999.959	3.4
1000.385	-1.6
1000.811	0.9
1001.236	-8.4
1001.662	-10.3
1002.087	-2.1
1002.513	2
1002.938	3.9
1003.364	2.8
1003.789	-1.2
1004.215	4.9
1004.64	-4.7
1005.066	2.7
1005.491	-0.5
1005.916	-0.4
1006.342	-0.6
1006.767	-7.4
1007.192	5.6
1007.617	-6
1008.042	-4
1008.468	0.3
1008.893	3.2
1009.318	-0.7
1009.743	-1.7
1010.168	6.6
1010.593	-1.7
1011.018	-6.3
1011.443	-6.1
1011.868	0.7
1012.293	-4.3
1012.718	-10.7
1013.143	1.8
1013.567	1.8
1013.992	0.3
1014.417	-11.7
1014.842	2.8
1015.267	-1.6
1015.691	-0.6
1016.116	3.5
1016.541	0.5
1016.965	-0.3
1017.39	4.9
1017.814	1.4
1018.239	-5.8
1018.663	-11.7
1019.088	-7.9
1019.512	-2.8
1019.937	1.1
1020.361	-2.2
1020.785	-8.1
1021.21	-0.4
1021.634	-0.1
1022.058	-2.5
1022.483	5.9
1022.907	-3.2
1023.331	-5.5
1023.755	-4.2
1024.179	-1.4
1024.604	-4.9
1025.028	-4.2
1025.452	-4.4
1025.876	-5.2
1026.3	1.2
1026.724	-14.5
1027.148	-3
1027.572	-7.3
1027.996	-0.3
1028.42	-0.7
1028.843	-5.4
1029.267	-4.4
1029.691	-1.6
1030.115	0.6
1030.539	-9.2
1030.962	-6.5
1031.386	-6.4
1031.81	-0.1
1032.233	-3.1
1032.657	-1
1033.08	2.7
1033.504	-5.3
1033.927	-0.2
1034.351	0.2
1034.774	-5.3
1035.198	1.9
1035.621	-3.8
1036.045	-4.4
1036.468	-1.9
1036.891	-9
1037.315	-5.1
1037.738	-3.6
1038.161	3.9
1038.584	-6.8
1039.008	-5.1
1039.431	-7.6
1039.854	-4
1040.277	-6.4
1040.7	-7.3
1041.123	-5.2
1041.546	-7.8
1041.969	-3.8
1042.392	-7.7
1042.815	2.6
1043.238	7.4
1043.661	0
1044.084	-5.5
1044.507	0.4
1044.93	-10.8
1045.352	-6.2
1045.775	-3.3
1046.198	-1.5
1046.621	0.9
1047.043	-4.3
1047.466	0.7
1047.889	-3.4
1048.311	0
1048.734	-2.1
1049.156	1.2
1049.579	-1.3
1050.001	-1.5
1050.424	3.9
1050.846	-3.6
1051.269	-6
1051.691	-4.4
1052.113	-4.7
1052.536	1.9
1052.958	-2.1
1053.38	-5.2
1053.802	-11.6
1054.225	4.3
1054.647	-6.3
1055.069	-3
1055.491	0.7
1055.913	-3.6
1056.335	0.6
1056.757	-2.4
1057.179	-7.6
1057.601	-3.3
1058.023	-2.4
1058.445	-3.6
1058.867	-2.6
1059.289	-1.1
1059.711	-10.9
1060.133	2.9
1060.555	1.9
1060.976	-3.7
1061.398	-6.6
1061.82	-5.9
1062.241	-6.2
1062.663	-8.9
1063.085	-1.5
1063.506	2
1063.928	-4.5
1064.35	-2
1064.771	-11.3
1065.193	-4.6
1065.614	-7.7
1066.035	-1.9
1066.457	-6.1
1066.878	2.3
1067.3	-8.4
1067.721	-4.8
1068.142	-2.4
1068.564	-6.1
1068.985	-5.9
1069.406	-1
1069.827	-3.4
1070.248	1.3
1070.67	-5.1
1071.091	-2.6
1071.512	-5.8
1071.933	-3.9
1072.354	-9.5
1072.775	-0.2
1073.196	-9.4
1073.617	-6.2
1074.038	-4.8
1074.459	1.2
1074.88	-7.6
1075.3	3
1075.721	-4.9
1076.142	2.1
1076.563	-3.1
1076.983	-10.5
1077.404	-5.1
1077.825	-4.4
1078.246	-5.5
1078.666	-9.2
1079.087	-6.6
1079.507	-1.6
1079.928	1.1
1080.348	-9.6
1080.769	-7.9
1081.189	-6
1081.61	-4.7
1082.03	-11.6
1082.451	-9.6
1082.871	-4.2
1083.291	-5.6
1083.711	-6.5
1084.132	-6.3
1084.552	1.6
1084.972	0.3
1085.392	-9.1
1085.813	-14
1086.233	-9.7
1086.653	-11.1
1087.073	-8.1
1087.493	-9
1087.913	-7.7
1088.333	-5.3
1088.753	-5.7
1089.173	-0.7
1089.593	-2.5
1090.013	-3.8
1090.433	-1.2
1090.852	1.1
1091.272	-0.2
1091.692	1.3
1092.112	-1.7
1092.531	-8.2
1092.951	-13.9
1093.371	-1.9
1093.79	1.5
1094.21	-7.5
1094.63	-3
1095.049	-5.7
1095.469	-5.8
1095.888	-2.5
1096.308	3.7
1096.727	4.8
1097.146	-6.9
1097.566	-0.6
1097.985	-2.7
1098.405	-3.2
1098.824	-7.1
1099.243	-3.2
1099.662	-7.9
1100.082	-0.5
1100.501	-1
1100.92	-10.4
1101.339	1.6
1101.758	-8.7
