Data from 20171114-ORNL-Ar_H_NY_Subt18_08-08-25-757.txt Node
Date: Tue Nov 14 08:08:25 EST 2017
User: Ender
Spectrometer: HR+D1039
Trigger mode: 0
Integration Time (sec): 2.730000E-2
Scans to average: 10
Electric dark correction enabled: true
Nonlinearity correction enabled: false
Boxcar width: 0
XAxis mode: Wavelengths
Number of Pixels in Spectrum: 2048
>>>>>Begin Spectral Data<<<<<
187.836	3.36
188.309	3.36
188.782	3.36
189.255	-0.64
189.728	-2.04
190.201	5.36
190.674	-0.24
191.147	-3.54
191.619	-7.64
192.092	1.36
192.565	1.06
193.038	3.96
193.511	-0.84
193.984	3.36
194.456	-3.34
194.929	3.16
195.402	-1.04
195.874	-2.34
196.347	-1.84
196.82	-11.64
197.292	10.56
197.765	-7.04
198.237	-6.84
198.71	1.26
199.182	-4.24
199.655	1.86
200.127	0.96
200.6	-2.24
201.072	-3.14
201.544	-10.94
202.017	-2.64
202.489	0.26
202.961	-8.04
203.433	-5.14
203.906	-6.84
204.378	-9.64
204.85	-5.94
205.322	-11.64
205.794	2.56
206.266	-2.24
206.739	-11.14
207.211	0.36
207.683	-11.94
208.155	-5.24
208.627	-4.54
209.099	-2.74
209.57	-7.34
210.042	-2.84
210.514	-5.64
210.986	-5.64
211.458	-12.74
211.93	-7.74
212.402	-0.24
212.873	-3.14
213.345	-6.74
213.817	-14.84
214.288	-5.74
214.76	-8.94
215.232	-3.64
215.703	-7.34
216.175	-0.94
216.646	-10.04
217.118	-11.84
217.589	-6.64
218.061	-2.04
218.532	-11.14
219.004	-5.74
219.475	-2.04
219.946	-6.84
220.418	-9.44
220.889	3.96
221.36	1.16
221.832	-6.64
222.303	-5.24
222.774	-1.44
223.245	-12.44
223.717	-9.54
224.188	-1.54
224.659	-4.74
225.13	-6.44
225.601	-4.84
226.072	-4.14
226.543	-2.74
227.014	1.46
227.485	-4.04
227.956	-6.64
228.427	-2.74
228.898	-1.94
229.369	2.16
229.839	-4.94
230.31	-2.94
230.781	1.06
231.252	-1.84
231.722	-7.84
232.193	-1.94
232.664	-3.04
233.135	0.36
233.605	-10.24
234.076	-9.54
234.546	1.26
235.017	-4.54
235.487	-5.14
235.958	-1.84
236.428	-6.94
236.899	-10.34
237.369	-1.34
237.84	-3.44
238.31	-1.04
238.78	-4.94
239.251	-6.14
239.721	-4.94
240.191	-3.34
240.662	-3.54
241.132	-1.24
241.602	0.26
242.072	-4.24
242.542	4.96
243.013	-8.14
243.483	-1.64
243.953	6.36
244.423	-0.14
244.893	-6.04
245.363	-7.44
245.833	-1.84
246.303	-11.04
246.773	-5.64
247.243	-5.34
247.712	-6.14
248.182	1.36
248.652	5.36
249.122	-8.74
249.592	-2.54
250.061	7.06
250.531	9.86
251.001	0.86
251.471	5.76
251.94	6.26
252.41	2.96
252.879	-5.54
253.349	9.06
253.818	-4.84
254.288	0.36
254.757	-5.84
255.227	-9.04
255.696	6.36
256.166	4.66
256.635	1.46
257.105	3.36
257.574	3.06
258.043	0.96
258.513	3.06
258.982	-0.54
259.451	-4.64
259.92	-1.44
260.389	2.76
260.859	5.46
261.328	1.26
261.797	6.36
262.266	2.36
262.735	5.16
263.204	3.76
263.673	-3.54
264.142	-1.84
264.611	-4.54
265.08	1.66
265.549	-2.14
266.018	3.96
266.487	-9.44
266.955	-6.34
267.424	1.06
267.893	5.16
268.362	-6.64
268.83	3.06
269.299	6.06
269.768	4.56
270.236	7.86
270.705	1.46
271.174	6.06
271.642	0.76
272.111	2.86
272.579	3.86
273.048	6.36
273.516	3.86
273.985	6.46
274.453	13.36
274.922	7.06
275.39	9.46
275.858	0.66
276.327	7.96
276.795	15.86
277.263	4.46
277.731	18.76
278.2	10.56
278.668	15.26
279.136	20.06
279.604	4.76
280.072	5.26
280.54	7.96
281.008	6.56
281.477	11.36
281.945	3.76
282.413	7.16
282.881	14.56
283.348	5.66
283.816	6.96
284.284	3.96
284.752	11.96
285.22	4.86
285.688	15.26
286.156	10.26
286.623	19.96
287.091	14.26
287.559	12.96
288.026	15.06
288.494	7.86
288.962	7.86
289.429	10.16
289.897	16.46
290.364	12.16
290.832	18.66
291.3	13.76
291.767	8.86
292.234	15.26
292.702	5.56
293.169	15.36
293.637	17.06
294.104	19.06
294.571	9.46
295.039	12.56
295.506	13.46
295.973	20.96
296.44	10.46
296.908	13.06
297.375	10.36
297.842	17.86
298.309	16.76
298.776	9.66
299.243	14.26
299.71	11.66
300.177	23.66
300.644	18.56
301.111	16.46
301.578	18.76
302.045	18.46
302.512	22.56
302.979	23.66
303.446	17.76
303.913	18.76
304.379	14.16
304.846	26.26
305.313	22.26
305.78	23.16
306.246	23.56
306.713	25.56
307.18	22.66
307.646	18.26
308.113	22.06
308.579	21.66
309.046	23.96
309.512	18.96
309.979	18.86
310.445	25.46
310.912	24.36
311.378	27.86
311.845	25.36
312.311	25.86
312.777	26.76
313.244	26.66
313.71	34.76
314.176	27.96
314.642	25.96
315.109	26.46
315.575	27.76
316.041	39.86
316.507	25.86
316.973	32.26
317.439	37.56
317.905	34.16
318.371	33.36
318.837	35.76
319.303	29.86
319.769	33.66
320.235	32.06
320.701	32.46
321.167	27.86
321.633	31.06
322.099	27.16
322.564	39.56
323.03	37.46
323.496	33.56
323.962	35.56
324.427	35.16
324.893	38.66
325.359	38.36
325.824	37.06
326.29	34.16
326.755	36.46
327.221	38.56
327.686	40.06
328.152	42.16
328.617	42.76
329.083	45.16
329.548	45.56
330.014	48.86
330.479	33.96
330.944	42.26
331.41	39.36
331.875	37.06
332.34	40.86
332.805	35.46
333.271	40.66
333.736	38.76
334.201	47.96
334.666	49.96
335.131	49.76
335.596	45.66
336.061	49.26
336.526	34.76
336.991	44.06
337.456	55.06
337.921	44.06
338.386	41.76
338.851	42.76
339.316	49.36
339.781	43.16
340.246	50.76
340.711	45.16
341.175	49.76
341.64	45.36
342.105	49.66
342.569	55.96
343.034	54.16
343.499	59.96
343.963	49.16
344.428	55.26
344.893	56.96
345.357	59.96
345.822	60.46
346.286	66.36
346.751	69.66
347.215	64.36
347.679	78.86
348.144	94.56
348.608	79.86
349.073	72.36
349.537	76.06
350.001	73.46
350.465	86.46
350.93	80.16
351.394	85.66
351.858	71.96
352.322	89.26
352.786	86.66
353.25	99.66
353.715	113.86
354.179	103.66
354.643	122.16
355.107	130.36
355.571	111.86
356.035	102.36
356.498	111.86
356.962	117.26
357.426	119.56
357.89	118.06
358.354	85.66
358.818	85.76
359.281	81.06
359.745	68.66
360.209	75.06
360.673	68.76
361.136	73.76
361.6	85.36
362.064	87.26
362.527	85.36
362.991	86.76
363.454	88.46
363.918	80.56
364.381	88.16
364.845	84.06
365.308	88.36
365.772	88.06
366.235	89.96
366.698	78.46
367.162	86.26
367.625	85.36
368.088	88.06
368.552	90.46
369.015	86.66
369.478	89.76
369.941	95.96
370.404	90.56
370.867	104.36
371.331	105.96
371.794	114.26
372.257	103.06
372.72	109.06
373.183	100.86
373.646	92.56
374.109	98.86
374.572	108.56
375.035	98.76
375.497	109.36
375.96	101.26
376.423	103.16
376.886	113.26
377.349	112.86
377.811	99.86
378.274	103.36
378.737	107.96
379.199	111.16
379.662	112.76
380.125	116.06
380.587	100.86
381.05	111.66
381.512	113.66
381.975	128.46
382.437	119.96
382.9	120.06
383.362	125.56
383.825	127.66
384.287	129.16
384.75	126.46
385.212	130.46
385.674	136.86
386.136	135.16
386.599	116.06
387.061	123.06
387.523	122.26
387.985	131.46
388.447	137.96
388.91	134.56
389.372	134.06
389.834	134.06
390.296	129.96
390.758	130.96
391.22	141.86
391.682	157.56
392.144	176.56
392.606	153.46
393.068	146.96
393.529	155.06
393.991	144.46
394.453	133.36
394.915	138.16
395.377	139.76
395.838	143.16
396.3	143.66
396.762	143.36
397.224	139.26
397.685	131.96
398.147	128.86
398.608	134.26
399.07	130.26
399.531	140.26
399.993	148.06
400.454	159.96
400.916	146.66
401.377	152.26
401.839	154.86
402.3	160.66
402.762	175.36
403.223	186.76
403.684	175.26
404.145	164.76
404.607	167.46
405.068	169.56
405.529	177.26
405.99	193.66
406.451	181.86
406.913	179.56
407.374	169.86
407.835	167.86
408.296	172.46
408.757	178.76
409.218	188.06
409.679	187.56
410.14	176.56
410.601	181.36
411.062	188.16
411.522	194.16
411.983	182.96
412.444	181.66
412.905	188.46
413.366	191.66
413.826	194.96
414.287	226.76
414.748	273.56
415.208	266.16
415.669	220.56
416.13	220.46
416.59	215.36
417.051	230.86
417.511	233.26
417.972	248.56
418.432	256.16
418.893	304.66
419.353	264.26
419.814	215.16
420.274	195.96
420.734	184.66
421.195	203.76
421.655	207.76
422.115	203.36
422.576	201.36
423.036	208.86
423.496	217.76
423.956	225.56
424.416	238.26
424.876	276.06
425.336	275.66
425.797	273.46
426.257	263.56
426.717	254.66
427.177	239.66
427.637	238.36
428.097	244.26
428.556	251.56
429.016	277.56
429.476	272.76
429.936	286.96
430.396	283.36
430.856	298.06
431.315	320.56
431.775	358.26
432.235	398.26
432.694	361.06
433.154	368.86
433.614	406.36
434.073	349.66
434.533	299.96
434.993	277.46
435.452	281.76
435.912	301.96
436.371	300.06
436.83	290.76
437.29	273.06
437.749	261.56
438.209	254.26
438.668	294.66
439.127	308.26
439.587	272.26
440.046	264.56
440.505	275.16
440.964	289.46
441.424	335.56
441.883	328.96
442.342	272.66
442.801	242.96
443.26	232.36
443.719	238.66
444.178	234.06
444.637	230.66
445.096	229.56
445.555	236.96
446.014	227.56
446.473	237.86
446.932	247.86
447.391	250.26
447.849	241.26
448.308	235.76
448.767	235.26
449.226	249.96
449.685	245.76
450.143	259.86
450.602	253.26
451.061	238.06
451.519	248.46
451.978	246.56
452.436	252.36
452.895	250.56
453.353	273.96
453.812	255.66
454.27	258.76
454.729	251.56
455.187	256.76
455.646	264.86
456.104	268.76
456.562	283.36
457.021	281.56
457.479	275.86
457.937	292.56
458.395	272.16
458.854	263.96
459.312	271.16
459.77	293.56
460.228	275.16
460.686	256.66
461.144	267.96
461.602	258.26
462.06	267.76
462.518	268.36
462.976	273.56
463.434	276.16
463.892	285.16
464.35	294.26
464.808	305.06
465.266	284.16
465.724	290.46
466.181	293.96
466.639	289.36
467.097	308.56
467.555	325.06
468.012	320.76
468.47	338.26
468.928	356.06
469.385	359.96
469.843	371.66
470.3	373.56
470.758	384.36
471.215	402.36
471.673	431.26
472.13	429.46
472.588	444.56
473.045	395.36
473.503	403.56
473.96	417.16
474.417	423.06
474.875	456.46
475.332	502.86
475.789	491.36
476.246	497.66
476.704	506.86
477.161	528.36
477.618	542.86
478.075	584.26
478.532	641.06
478.989	723.46
479.446	830.06
479.903	792.46
480.36	824.76
480.817	863.96
481.274	966.26
481.731	1049.76
482.188	1132.06
482.645	1259.06
483.102	1347.16
483.558	1467.66
484.015	1508.56
484.472	1473.86
484.929	1439.26
485.385	1393.36
485.842	1378.36
486.299	1316.56
486.755	1281.86
487.212	1079.06
487.668	930.16
488.125	857.26
488.582	798.96
489.038	769.66
489.494	730.56
489.951	706.06
490.407	686.76
490.864	675.46
491.32	679.46
491.776	677.16
492.233	673.76
492.689	644.36
493.145	637.46
493.602	629.56
494.058	641.26
494.514	643.66
494.97	665.86
495.426	676.96
495.882	656.86
496.338	643.96
496.794	647.36
497.251	652.56
497.707	646.66
498.163	664.36
498.618	673.36
499.074	667.26
499.53	708.76
499.986	704.76
500.442	669.16
500.898	651.26
501.354	641.26
501.809	646.66
502.265	652.26
502.721	659.66
503.177	665.66
503.632	677.06
504.088	682.66
504.543	703.06
504.999	737.86
505.455	684.76
505.91	670.66
506.366	654.76
506.821	661.26
507.277	654.36
507.732	667.46
508.187	655.16
508.643	673.56
509.098	673.46
509.553	693.76
510.009	710.46
510.464	699.86
510.919	723.66
511.375	732.96
511.83	742.46
512.285	757.26
512.74	799.56
513.195	810.66
513.65	800.96
514.105	806.66
514.56	806.66
515.015	823.76
515.47	829.56
515.925	813.96
516.38	823.46
516.835	826.46
517.29	812.16
517.745	814.26
518.2	803.46
518.655	786.66
519.109	777.96
519.564	783.36
520.019	765.86
520.474	759.76
520.928	770.16
521.383	745.86
521.838	742.66
522.292	747.66
522.747	750.86
523.201	741.16
523.656	733.76
524.11	729.66
524.565	731.66
525.019	724.76
525.474	731.06
525.928	726.86
526.382	721.36
526.837	726.96
527.291	751.06
527.745	729.96
528.2	731.86
528.654	723.06
529.108	708.16
529.562	726.66
530.016	732.06
530.47	723.56
530.925	723.66
531.379	729.56
531.833	732.06
532.287	737.26
532.741	733.16
533.195	733.36
533.649	736.56
534.103	753.66
534.556	736.26
535.01	733.96
535.464	746.36
535.918	751.56
536.372	755.66
536.826	753.06
537.279	732.46
537.733	749.26
538.187	753.46
538.64	747.36
539.094	749.56
539.548	763.86
540.001	759.86
540.455	759.56
540.908	770.86
541.362	775.96
541.815	781.06
542.269	788.76
542.722	796.26
543.175	797.86
543.629	804.76
544.082	822.96
544.536	834.86
544.989	823.96
545.442	846.66
545.895	828.46
546.349	830.76
546.802	826.56
547.255	838.66
547.708	843.36
548.161	860.56
548.614	861.46
549.067	878.06
549.52	865.46
549.973	860.06
550.426	849.46
550.879	838.06
551.332	850.36
551.785	850.96
552.238	857.06
552.691	862.66
553.144	884.96
553.596	884.56
554.049	897.46
554.502	930.16
554.955	953.66
555.407	952.96
555.86	944.66
556.313	941.86
556.765	921.66
557.218	926.36
557.67	929.76
558.123	926.46
558.576	918.66
559.028	923.26
559.48	926.76
559.933	913.66
560.385	882.46
560.838	848.96
561.29	828.96
561.742	834.76
562.195	814.86
562.647	811.96
563.099	819.86
563.551	817.16
564.004	826.36
564.456	808.76
564.908	797.46
565.36	791.76
565.812	770.66
566.264	763.86
566.716	759.56
567.168	745.56
567.62	755.96
568.072	738.76
568.524	729.66
568.976	726.16
569.428	709.66
569.88	717.86
570.332	717.46
570.784	731.86
571.235	716.86
571.687	732.26
572.139	735.96
572.59	740.26
573.042	745.16
573.494	756.36
573.945	743.76
574.397	724.86
574.849	734.46
575.3	739.56
575.752	719.76
576.203	716.06
576.655	725.66
577.106	713.06
577.557	706.96
578.009	711.66
578.46	700.26
578.912	701.26
579.363	707.86
579.814	705.06
580.265	698.96
580.717	711.26
581.168	701.16
581.619	716.66
582.07	718.96
582.521	712.56
582.972	715.96
583.423	723.36
583.875	710.66
584.326	721.66
584.777	745.86
585.227	767.66
585.678	784.86
586.129	811.76
586.58	839.86
587.031	860.06
587.482	905.96
587.933	956.36
588.384	924.76
588.834	851.96
589.285	819.36
589.736	820.86
590.186	814.26
590.637	795.76
591.088	781.76
591.538	773.56
591.989	775.46
592.439	761.96
592.89	753.26
593.34	740.56
593.791	753.46
594.241	739.96
594.692	731.16
595.142	735.46
595.593	731.56
596.043	737.56
596.493	750.56
596.943	744.86
597.394	763.66
597.844	756.16
598.294	772.56
598.744	802.66
599.195	820.36
599.645	868.56
600.095	914.26
600.545	964.06
600.995	1013.26
601.445	1073.86
601.895	1142.46
602.345	1186.56
602.795	1176.76
603.245	1127.16
603.695	1054.46
604.145	1012.66
604.594	970.56
605.044	910.96
605.494	841.96
605.944	790.46
606.393	783.76
606.843	770.16
607.293	767.46
607.743	773.76
608.192	778.86
608.642	797.36
609.091	805.16
609.541	803.06
609.99	810.26
610.44	803.86
610.889	760.36
611.339	737.36
611.788	715.66
612.238	723.36
612.687	735.06
613.136	724.46
613.586	752.16
614.035	734.66
614.484	756.76
614.933	747.16
615.383	740.06
615.832	733.56
616.281	736.36
616.73	706.96
617.179	684.56
617.628	673.46
618.077	664.06
618.526	650.76
618.975	644.46
619.424	646.86
619.873	638.86
620.322	655.66
620.771	631.86
621.22	631.56
621.669	620.56
622.118	621.86
622.567	619.96
623.015	598.96
623.464	600.06
623.913	592.36
624.361	587.66
624.81	586.06
625.259	585.66
625.707	585.66
626.156	589.36
626.604	599.36
627.053	596.26
627.501	590.56
627.95	599.96
628.398	613.16
628.847	602.46
629.295	606.26
629.744	602.76
630.192	596.86
630.64	600.96
631.089	576.66
631.537	565.06
631.985	564.76
632.433	561.36
632.881	559.16
633.33	573.26
633.778	560.86
634.226	552.56
634.674	574.46
635.122	573.66
635.57	588.76
636.018	595.26
636.466	589.36
636.914	586.46
637.362	600.36
637.81	611.96
638.258	607.86
638.705	611.66
639.153	649.86
639.601	651.46
640.049	680.36
640.497	712.76
640.944	722.96
641.392	692.46
641.84	652.16
642.287	614.96
642.735	583.16
643.182	585.86
643.63	590.86
644.078	586.66
644.525	606.66
644.973	617.36
645.42	618.66
645.867	638.96
646.315	679.46
646.762	689.76
647.21	715.86
647.657	730.66
648.104	770.26
648.551	785.26
648.999	851.56
649.446	934.46
649.893	1005.76
650.34	1164.36
650.787	1388.46
651.234	1718.96
651.682	2218.56
652.129	2974.96
652.576	4233.06
653.023	6140.36
653.47	8333.86
653.917	10279.86
654.363	11817.46
654.81	12956.36
655.257	12279.16
655.704	8151.66
656.151	4912.16
656.598	3241.16
657.044	2329.96
657.491	1825.76
657.938	1462.46
658.385	1239.96
658.831	1082.96
659.278	963.76
659.724	862.26
660.171	802.16
660.618	747.56
661.064	705.16
661.511	695.36
661.957	665.16
662.404	671.06
662.85	678.86
663.296	654.26
663.743	589.56
664.189	573.76
664.635	557.06
665.082	556.36
665.528	556.76
665.974	540.86
666.42	536.66
666.867	530.86
667.313	510.86
667.759	495.66
668.205	479.66
668.651	484.66
669.097	469.06
669.543	475.66
669.989	466.66
670.435	467.16
670.881	465.36
671.327	463.86
671.773	488.66
672.219	521.56
672.665	580.06
673.11	618.36
673.556	669.46
674.002	701.76
674.448	687.76
674.893	577.16
675.339	500.06
675.785	476.76
676.23	449.36
676.676	414.06
677.122	415.96
677.567	394.36
678.013	386.86
678.458	383.06
678.904	384.36
679.349	375.16
679.794	379.96
680.24	376.36
680.685	367.26
681.131	370.76
681.576	365.86
682.021	372.96
682.466	363.86
682.912	366.66
683.357	374.26
683.802	412.66
684.247	440.76
684.692	486.76
685.137	531.06
685.583	568.36
686.028	592.66
686.473	557.46
686.918	481.36
687.363	438.06
687.807	415.66
688.252	381.76
688.697	371.66
689.142	360.46
689.587	353.16
690.032	351.56
690.477	362.26
690.921	371.96
691.366	405.36
691.811	435.36
692.255	450.56
692.7	483.56
693.145	541.76
693.589	768.96
694.034	1232.06
694.478	1657.56
694.923	1832.26
695.367	2373.76
695.812	1281.06
696.256	535.76
696.701	399.36
697.145	366.16
697.59	353.96
698.034	343.06
698.478	351.76
698.922	346.86
699.367	343.26
699.811	356.86
700.255	386.16
700.699	402.96
701.143	452.66
701.588	502.96
702.032	540.36
702.476	546.26
702.92	519.56
703.364	538.16
703.808	701.36
704.252	1137.26
704.696	1575.16
705.14	1774.16
705.584	2254.86
706.027	1134.56
706.471	550.36
706.915	427.16
707.359	379.76
707.803	347.26
708.246	334.86
708.69	333.06
709.134	331.76
709.577	332.76
710.021	330.96
710.465	332.46
710.908	319.46
711.352	310.46
711.795	336.86
712.239	381.86
712.682	412.26
713.126	430.46
713.569	470.36
714.012	375.86
714.456	320.66
714.899	304.46
715.342	291.26
715.786	281.66
716.229	278.06
716.672	272.46
717.115	265.56
717.558	262.96
718.002	262.86
718.445	279.36
718.888	303.56
719.331	314.96
719.774	325.86
720.217	318.06
720.66	302.06
721.103	290.96
721.546	273.56
721.989	268.66
722.432	243.06
722.874	254.06
723.317	238.46
723.76	247.66
724.203	277.46
724.645	339.46
725.088	477.26
725.531	613.26
725.974	673.46
726.416	580.06
726.859	324.26
727.301	256.06
727.744	251.66
728.187	247.66
728.629	254.06
729.071	257.26
729.514	276.86
729.956	298.76
730.399	301.36
730.841	307.96
731.283	284.16
731.726	285.26
732.168	275.66
732.61	279.86
733.053	309.66
733.495	334.56
733.937	378.26
734.379	422.16
734.821	460.86
735.263	586.46
735.705	915.06
736.148	1749.06
736.59	2789.66
737.032	3226.66
737.474	2628.36
737.916	882.56
738.357	461.86
738.799	352.76
739.241	320.66
739.683	302.76
740.125	313.56
740.567	318.76
741.008	337.46
741.45	342.66
741.892	343.36
742.334	371.66
742.775	380.06
743.217	363.36
743.658	284.46
744.1	279.46
744.542	284.66
744.983	340.16
745.425	369.16
745.866	369.26
746.307	303.06
746.749	297.26
747.19	352.26
747.632	495.56
748.073	974.56
748.514	2052.16
748.956	3069.66
749.397	3854.86
749.838	3184.96
750.279	3102.76
750.72	1596.06
751.162	594.26
751.603	339.56
752.044	270.16
752.485	234.26
752.926	228.56
753.367	211.16
753.808	205.36
754.249	205.56
754.69	200.46
755.131	197.86
755.572	187.76
756.013	197.86
756.453	193.96
756.894	197.86
757.335	203.26
757.776	206.66
758.216	214.36
758.657	216.26
759.098	216.96
759.538	238.36
759.979	289.76
760.42	405.46
760.86	781.06
761.301	2050.86
761.741	4805.86
762.182	6729.66
762.622	4763.46
763.063	1410.36
763.503	575.36
763.943	354.46
764.384	301.46
764.824	292.06
765.264	284.16
765.705	234.66
766.145	201.56
766.585	189.76
767.025	183.56
767.465	180.66
767.906	201.26
768.346	224.56
768.786	238.06
769.226	243.96
769.666	333.16
770.106	687.36
770.546	1717.96
770.986	2793.96
771.426	2477.86
771.866	845.56
772.306	343.86
772.745	218.76
773.185	181.06
773.625	171.26
774.065	165.46
774.505	174.96
774.944	225.26
775.384	406.16
775.824	652.76
776.263	623.46
776.703	310.96
777.142	166.36
777.582	140.66
778.021	127.46
778.461	128.86
778.9	128.96
779.34	131.66
779.779	123.56
780.219	106.26
780.658	108.26
781.097	117.36
781.537	115.16
781.976	115.36
782.415	107.76
782.855	112.86
783.294	112.46
783.733	111.36
784.172	112.06
784.611	111.36
785.05	110.96
785.489	119.46
785.928	120.86
786.367	128.36
786.806	128.76
787.245	130.36
787.684	138.36
788.123	154.66
788.562	143.26
789.001	139.76
789.44	135.36
789.879	126.96
790.317	124.66
790.756	132.96
791.195	139.66
791.634	157.76
792.072	211.76
792.511	397.36
792.95	1100.56
793.388	2254.86
793.827	1989.06
794.265	703.46
794.704	299.46
795.142	195.76
795.581	159.16
796.019	144.76
796.458	137.06
796.896	127.66
797.334	141.66
797.773	166.36
798.211	232.56
798.649	480.56
799.087	1109.56
799.526	1720.06
799.964	2172.66
800.402	2090.86
800.84	804.06
801.278	328.56
801.716	204.16
802.154	167.56
802.592	156.56
803.03	151.06
803.468	146.86
803.906	154.66
804.344	161.86
804.782	147.66
805.22	142.66
805.658	139.06
806.096	162.76
806.533	168.26
806.971	187.56
807.409	237.46
807.847	345.56
808.284	738.46
808.722	2017.76
809.16	3490.26
809.597	3424.16
810.035	5803.66
810.472	6018.56
810.91	2221.26
811.347	849.26
811.785	432.56
812.222	279.06
812.66	209.86
813.097	176.66
813.535	152.86
813.972	136.76
814.409	119.26
814.846	113.06
815.284	116.06
815.721	108.26
816.158	109.26
816.595	115.76
817.032	164.16
817.47	187.46
817.907	136.76
818.344	113.26
818.781	105.26
819.218	97.96
819.655	129.46
820.092	200.66
820.529	226.96
820.966	178.06
821.403	134.96
821.839	105.66
822.276	99.66
822.713	131.76
823.15	141.16
823.587	119.56
824.023	160.56
824.46	331.86
824.897	982.26
825.333	1415.86
825.77	620.86
826.206	251.96
826.643	146.26
827.08	111.76
827.516	88.26
827.953	85.66
828.389	85.56
828.825	76.26
829.262	70.86
829.698	63.96
830.135	60.36
830.571	63.66
831.007	66.86
831.443	66.46
831.88	63.76
832.316	61.76
832.752	65.66
833.188	68.26
833.624	72.06
834.06	72.06
834.497	69.16
834.933	81.46
835.369	74.76
835.805	76.16
836.241	76.76
836.677	81.66
837.112	97.36
837.548	109.56
837.984	144.66
838.42	219.16
838.856	545.86
839.292	1641.06
839.727	2405.76
840.163	1137.66
840.599	1025.26
841.034	2168.86
841.47	2206.06
841.906	825.76
842.341	349.46
842.777	214.66
843.212	217.56
843.648	203.26
844.083	120.86
844.519	89.96
844.954	78.96
845.39	59.26
845.825	60.96
846.261	58.76
846.696	54.16
847.131	51.96
847.566	60.86
848.002	58.56
848.437	52.36
848.872	60.96
849.307	63.06
849.742	90.96
850.177	200.66
850.613	606.56
851.048	914.76
851.483	396.66
851.918	161.66
852.353	91.06
852.788	56.46
853.223	48.46
853.657	54.46
854.092	45.26
854.527	41.86
854.962	46.16
855.397	46.26
855.832	53.16
856.266	49.26
856.701	37.56
857.136	39.96
857.57	40.16
858.005	50.16
858.44	61.26
858.874	49.36
859.309	54.36
859.743	42.06
860.178	50.36
860.612	41.56
861.047	58.26
861.481	73.16
861.915	76.86
862.35	50.86
862.784	35.26
863.218	37.76
863.653	34.26
864.087	48.26
864.521	54.56
864.955	70.56
865.39	160.86
865.824	179.86
866.258	120.56
866.692	185.56
867.126	198.86
867.56	114.56
867.994	52.06
868.428	41.36
868.862	52.16
869.296	57.56
869.73	61.96
870.164	62.76
870.598	53.06
871.031	38.06
871.465	34.56
871.899	35.86
872.333	22.36
872.766	29.76
873.2	26.06
873.634	26.66
874.067	27.36
874.501	27.16
874.935	35.96
875.368	31.66
875.802	33.36
876.235	27.86
876.669	25.06
877.102	23.56
877.535	26.56
877.969	20.46
878.402	25.56
878.836	13.36
879.269	22.76
879.702	19.66
880.135	20.06
880.569	25.86
881.002	21.56
881.435	18.36
881.868	19.06
882.301	24.16
882.734	22.96
883.167	25.76
883.601	22.66
884.034	19.06
884.467	16.46
884.899	16.46
885.332	18.66
885.765	14.26
886.198	12.16
886.631	20.26
887.064	17.56
887.497	23.86
887.929	20.16
888.362	10.66
888.795	13.96
889.228	17.96
889.66	22.16
890.093	16.36
890.526	14.56
890.958	13.16
891.391	14.66
891.823	20.86
892.256	14.06
892.688	11.76
893.121	20.26
893.553	16.76
893.985	22.46
894.418	20.16
894.85	11.96
895.282	15.76
895.715	22.36
896.147	16.06
896.579	13.06
897.011	16.46
897.444	18.26
897.876	13.76
898.308	17.96
898.74	17.26
899.172	17.56
899.604	28.46
900.036	23.46
900.468	19.16
900.9	15.86
901.332	22.06
901.764	15.36
902.196	22.16
902.628	15.46
903.06	15.66
903.491	31.06
903.923	17.36
904.355	22.76
904.787	17.56
905.218	26.16
905.65	15.86
906.082	15.96
906.513	9.96
906.945	13.16
907.376	9.16
907.808	17.76
908.239	20.16
908.671	22.96
909.102	20.16
909.534	25.96
909.965	49.86
910.397	102.66
910.828	334.46
911.259	499.16
911.691	231.36
912.122	112.56
912.553	56.56
912.984	34.66
913.415	28.46
913.847	27.96
914.278	18.96
914.709	11.86
915.14	15.96
915.571	15.46
916.002	15.06
916.433	16.26
916.864	17.96
917.295	7.86
917.726	16.56
918.157	15.66
918.587	27.96
919.018	23.06
919.449	21.36
919.88	24.76
920.311	27.06
920.741	50.06
921.172	179.46
921.603	164.86
922.033	79.96
922.464	52.26
922.895	21.76
923.325	19.86
923.756	9.76
924.186	14.16
924.617	16.36
925.047	19.86
925.478	18.96
925.908	21.66
926.338	16.06
926.769	14.06
927.199	21.06
927.629	5.96
928.06	11.36
928.49	16.26
928.92	13.36
929.35	12.86
929.78	11.66
930.21	2.16
930.641	5.26
931.071	8.66
931.501	-1.64
931.931	3.66
932.361	6.56
932.791	3.56
933.221	2.76
933.651	5.86
934.08	19.06
934.51	29.86
934.94	12.86
935.37	11.06
935.8	11.56
936.229	7.56
936.659	6.86
937.089	4.46
937.519	14.36
937.948	21.86
938.378	17.46
938.807	7.16
939.237	8.06
939.666	3.56
940.096	-6.14
940.525	0.26
940.955	-2.44
941.384	8.06
941.814	2.56
942.243	3.16
942.672	4.46
943.102	-5.14
943.531	2.66
943.96	-1.24
944.39	0.46
944.819	1.56
945.248	7.26
945.677	2.76
946.106	2.96
946.535	7.36
946.964	-1.54
947.393	10.36
947.822	-2.14
948.251	-5.84
948.68	3.26
949.109	3.36
949.538	9.66
949.967	0.06
950.396	-1.74
950.825	-2.04
951.254	0.76
951.682	-4.94
952.111	-1.94
952.54	-1.24
952.969	-5.74
953.397	-8.14
953.826	-5.94
954.254	-7.54
954.683	-2.84
955.112	-3.34
955.54	-2.84
955.969	0.36
956.397	-0.84
956.826	2.36
957.254	9.86
957.682	2.76
958.111	2.36
958.539	-6.64
958.967	4.36
959.396	-7.44
959.824	2.66
960.252	-0.04
960.68	-3.44
961.109	-2.04
961.537	-3.44
961.965	0.46
962.393	3.76
962.821	-1.24
963.249	-2.34
963.677	3.26
964.105	4.36
964.533	50.46
964.961	45.66
965.389	25.56
965.817	5.66
966.245	-2.24
966.672	-2.24
967.1	-11.44
967.528	2.86
967.956	-1.14
968.383	2.06
968.811	-2.34
969.239	-2.24
969.666	-5.84
970.094	-1.84
970.522	1.76
970.949	-4.04
971.377	-4.24
971.804	-0.74
972.232	-0.94
972.659	1.06
973.087	-4.04
973.514	-7.74
973.941	-8.54
974.369	-1.14
974.796	-3.84
975.223	1.86
975.651	-1.24
976.078	4.06
976.505	-6.14
976.932	5.06
977.359	14.06
977.786	16.16
978.214	2.96
978.641	-3.24
979.068	-3.04
979.495	-6.74
979.922	-2.94
980.349	-5.24
980.776	0.36
981.202	-5.44
981.629	3.46
982.056	3.16
982.483	-4.14
982.91	3.16
983.337	-8.94
983.763	-1.74
984.19	-11.04
984.617	-5.94
985.043	-2.34
985.47	-5.94
985.897	-2.04
986.323	-7.54
986.75	1.06
987.176	-6.64
987.603	2.96
988.029	-1.14
988.456	-2.74
988.882	1.36
989.308	-8.04
989.735	-4.14
990.161	-1.54
990.587	-4.44
991.014	-1.24
991.44	6.96
991.866	-2.84
992.292	-9.44
992.719	-4.44
993.145	1.66
993.571	-7.54
993.997	-3.64
994.423	-2.94
994.849	1.26
995.275	-2.04
995.701	2.56
996.127	-7.64
996.553	0.46
996.979	-3.04
997.405	-4.44
997.83	-6.74
998.256	-7.94
998.682	-5.44
999.108	-13.74
999.534	-3.24
999.959	-1.34
1000.385	-3.74
1000.811	-0.94
1001.236	-10.84
1001.662	-3.14
1002.087	-10.34
1002.513	-1.34
1002.938	4.96
1003.364	-4.94
1003.789	0.26
1004.215	0.36
1004.64	-1.44
1005.066	3.46
1005.491	-4.34
1005.916	-1.84
1006.342	-6.34
1006.767	-10.34
1007.192	1.56
1007.617	-0.34
1008.042	-6.94
1008.468	-10.24
1008.893	-7.04
1009.318	-9.74
1009.743	-6.84
1010.168	1.36
1010.593	-1.54
1011.018	-8.44
1011.443	-2.14
1011.868	-1.34
1012.293	-1.54
1012.718	-7.14
1013.143	0.36
1013.567	2.56
1013.992	-3.64
1014.417	-10.74
1014.842	5.66
1015.267	-7.94
1015.691	-6.34
1016.116	1.56
1016.541	-1.64
1016.965	1.96
1017.39	2.56
1017.814	-8.84
1018.239	-1.84
1018.663	-9.24
1019.088	-8.74
1019.512	-2.44
1019.937	-1.94
1020.361	-7.34
1020.785	-11.64
1021.21	-6.14
1021.634	-6.84
1022.058	1.46
1022.483	4.36
1022.907	-7.04
1023.331	-7.34
1023.755	-3.04
1024.179	-5.64
1024.604	-13.84
1025.028	-4.44
1025.452	-7.44
1025.876	-1.54
1026.3	-2.94
1026.724	-9.04
1027.148	-2.74
1027.572	-14.54
1027.996	-6.74
1028.42	-5.44
1028.843	-4.44
1029.267	-7.24
1029.691	5.16
1030.115	-7.44
1030.539	-7.64
1030.962	-9.14
1031.386	-14.24
1031.81	-2.24
1032.233	-7.04
1032.657	-1.64
1033.08	-0.84
1033.504	-3.04
1033.927	-6.74
1034.351	-2.94
1034.774	-2.74
1035.198	-4.24
1035.621	-5.14
1036.045	-8.14
1036.468	-0.64
1036.891	-8.94
1037.315	-11.24
1037.738	-10.34
1038.161	0.16
1038.584	-7.94
1039.008	-9.44
1039.431	-7.74
1039.854	-7.04
1040.277	-4.04
1040.7	-13.84
1041.123	-1.14
1041.546	-7.74
1041.969	-9.34
1042.392	-9.04
1042.815	-2.64
1043.238	-4.64
1043.661	-0.24
1044.084	-14.74
1044.507	-8.14
1044.93	-3.04
1045.352	-8.74
1045.775	3.36
1046.198	-2.94
1046.621	-0.14
1047.043	4.56
1047.466	5.76
1047.889	-10.54
1048.311	-5.64
1048.734	-1.84
1049.156	-0.64
1049.579	0.06
1050.001	-5.84
1050.424	4.46
1050.846	-4.64
1051.269	-8.04
1051.691	-6.64
1052.113	-8.24
1052.536	4.36
1052.958	-4.64
1053.38	-2.24
1053.802	-8.64
1054.225	1.96
1054.647	-10.54
1055.069	-7.84
1055.491	0.56
1055.913	-7.44
1056.335	2.16
1056.757	-1.24
1057.179	-12.94
1057.601	-7.14
1058.023	-5.24
1058.445	-7.14
1058.867	-8.84
1059.289	-7.74
1059.711	-7.24
1060.133	1.66
1060.555	-10.34
1060.976	-7.94
1061.398	-11.94
1061.82	-11.94
1062.241	-11.24
1062.663	-5.64
1063.085	-5.44
1063.506	-6.24
1063.928	-5.84
1064.35	-5.84
1064.771	-12.84
1065.193	-4.14
1065.614	-4.64
1066.035	-1.74
1066.457	-5.24
1066.878	-0.64
1067.3	-6.74
1067.721	-1.24
1068.142	-12.04
1068.564	-6.74
1068.985	-6.74
1069.406	-6.24
1069.827	-3.94
1070.248	-1.04
1070.67	-1.74
1071.091	-5.84
1071.512	-2.04
1071.933	-7.04
1072.354	-9.74
1072.775	-0.64
1073.196	-12.34
1073.617	-8.34
1074.038	-14.24
1074.459	-5.94
1074.88	-11.54
1075.3	2.76
1075.721	-1.24
1076.142	2.26
1076.563	-2.04
1076.983	-9.54
1077.404	-5.24
1077.825	-17.54
1078.246	-9.74
1078.666	-16.74
1079.087	-8.04
1079.507	-10.84
1079.928	3.16
1080.348	-3.44
1080.769	-4.04
1081.189	-6.64
1081.61	-1.74
1082.03	-7.54
1082.451	-9.44
1082.871	-7.24
1083.291	-9.24
1083.711	-16.44
1084.132	-1.24
1084.552	1.76
1084.972	-7.84
1085.392	-14.34
1085.813	-12.64
1086.233	-11.94
1086.653	-14.64
1087.073	-6.84
1087.493	-13.54
1087.913	-11.94
1088.333	-6.74
1088.753	-9.64
1089.173	-0.54
1089.593	-6.54
1090.013	-0.54
1090.433	-2.34
1090.852	-3.04
1091.272	-6.64
1091.692	2.66
1092.112	-0.74
1092.531	-5.54
1092.951	-11.44
1093.371	-3.84
1093.79	-3.04
1094.21	-6.04
1094.63	-8.74
1095.049	-6.54
1095.469	-13.64
1095.888	-6.84
1096.308	-4.84
1096.727	2.36
1097.146	-8.24
1097.566	-6.34
1097.985	-3.04
1098.405	-2.54
1098.824	-6.74
1099.243	-9.04
1099.662	-5.64
1100.082	-7.54
1100.501	-0.74
1100.92	-9.04
1101.339	-3.34
1101.758	-5.34
