Data from 20171114-ORNL-Ar_H_NY_Subt18_08-05-52-890.txt Node
Date: Tue Nov 14 08:05:52 EST 2017
User: Ender
Spectrometer: HR+D1039
Trigger mode: 0
Integration Time (sec): 2.730000E-2
Scans to average: 10
Electric dark correction enabled: true
Nonlinearity correction enabled: false
Boxcar width: 0
XAxis mode: Wavelengths
Number of Pixels in Spectrum: 2048
>>>>>Begin Spectral Data<<<<<
187.836	-6.59
188.309	-6.59
188.782	-6.59
189.255	1.41
189.728	-4.49
190.201	6.21
190.674	2.41
191.147	6.81
191.619	-7.19
192.092	3.11
192.565	5.21
193.038	-2.69
193.511	-2.79
193.984	-0.19
194.456	0.51
194.929	5.01
195.402	-5.89
195.874	-0.89
196.347	-1.39
196.82	-8.09
197.292	3.51
197.765	-2.79
198.237	-9.59
198.71	4.11
199.182	-4.29
199.655	7.61
200.127	1.51
200.6	-6.19
201.072	-6.59
201.544	-8.89
202.017	-6.29
202.489	7.41
202.961	-1.39
203.433	-8.09
203.906	-6.29
204.378	-8.89
204.85	-2.19
205.322	-3.29
205.794	-1.19
206.266	-3.79
206.739	-14.89
207.211	-3.19
207.683	-10.99
208.155	-4.99
208.627	-7.39
209.099	-2.09
209.57	-11.09
210.042	-5.69
210.514	-2.79
210.986	0.01
211.458	-6.59
211.93	-3.69
212.402	3.31
212.873	-6.39
213.345	-10.09
213.817	-11.69
214.288	-6.29
214.76	-8.59
215.232	-6.59
215.703	-3.59
216.175	-5.39
216.646	-0.79
217.118	-7.09
217.589	-1.59
218.061	-3.09
218.532	-6.09
219.004	-1.59
219.475	-3.89
219.946	0.91
220.418	-3.49
220.889	0.71
221.36	0.41
221.832	-1.29
222.303	-8.89
222.774	1.91
223.245	-9.59
223.717	-10.39
224.188	1.11
224.659	-4.19
225.13	0.01
225.601	-5.79
226.072	-5.89
226.543	8.21
227.014	0.81
227.485	-2.59
227.956	-7.89
228.427	-3.99
228.898	-1.59
229.369	2.21
229.839	-3.59
230.31	-6.79
230.781	-2.39
231.252	-5.79
231.722	-7.79
232.193	-5.99
232.664	0.51
233.135	-1.59
233.605	0.71
234.076	-6.39
234.546	0.51
235.017	1.31
235.487	2.31
235.958	-1.29
236.428	-2.39
236.899	7.81
237.369	6.01
237.84	-0.99
238.31	10.21
238.78	0.71
239.251	-1.09
239.721	3.31
240.191	-0.69
240.662	-0.59
241.132	-2.89
241.602	-3.39
242.072	0.41
242.542	6.61
243.013	0.31
243.483	7.81
243.953	7.41
244.423	0.91
244.893	2.11
245.363	3.81
245.833	-1.49
246.303	-1.39
246.773	7.51
247.243	3.11
247.712	4.91
248.182	13.21
248.652	8.21
249.122	-1.29
249.592	13.11
250.061	24.51
250.531	31.11
251.001	15.31
251.471	19.41
251.94	22.01
252.41	6.41
252.879	-2.19
253.349	12.91
253.818	8.31
254.288	5.21
254.757	9.91
255.227	-2.09
255.696	-1.09
256.166	8.21
256.635	4.91
257.105	11.81
257.574	3.51
258.043	10.81
258.513	12.71
258.982	15.21
259.451	5.31
259.92	13.91
260.389	6.91
260.859	20.71
261.328	11.81
261.797	18.01
262.266	6.81
262.735	4.51
263.204	6.71
263.673	-1.59
264.142	8.91
264.611	-5.09
265.08	2.01
265.549	6.41
266.018	7.81
266.487	-0.79
266.955	5.41
267.424	-1.79
267.893	6.51
268.362	-0.19
268.83	5.81
269.299	10.81
269.768	10.91
270.236	5.11
270.705	7.61
271.174	4.91
271.642	9.61
272.111	11.31
272.579	17.31
273.048	20.91
273.516	23.61
273.985	29.91
274.453	27.21
274.922	23.21
275.39	14.61
275.858	1.81
276.327	7.81
276.795	16.81
277.263	9.11
277.731	32.61
278.2	58.31
278.668	69.61
279.136	58.01
279.604	19.21
280.072	16.41
280.54	14.71
281.008	10.21
281.477	11.31
281.945	17.31
282.413	12.61
282.881	19.61
283.348	6.91
283.816	12.61
284.284	16.31
284.752	19.81
285.22	8.61
285.688	14.71
286.156	24.11
286.623	46.81
287.091	54.21
287.559	26.91
288.026	20.61
288.494	20.01
288.962	8.71
289.429	8.51
289.897	20.71
290.364	14.11
290.832	15.71
291.3	16.71
291.767	20.21
292.234	20.11
292.702	10.91
293.169	17.91
293.637	23.21
294.104	23.71
294.571	16.81
295.039	16.01
295.506	11.51
295.973	21.21
296.44	14.01
296.908	22.61
297.375	25.31
297.842	19.31
298.309	17.01
298.776	16.41
299.243	21.01
299.71	14.01
300.177	15.01
300.644	19.51
301.111	20.21
301.578	19.91
302.045	15.21
302.512	25.01
302.979	28.31
303.446	21.51
303.913	18.31
304.379	18.81
304.846	29.71
305.313	28.91
305.78	21.61
306.246	25.61
306.713	26.11
307.18	25.01
307.646	28.51
308.113	32.31
308.579	22.71
309.046	25.61
309.512	25.71
309.979	18.51
310.445	27.71
310.912	24.91
311.378	32.11
311.845	28.61
312.311	30.21
312.777	28.41
313.244	36.31
313.71	35.91
314.176	32.71
314.642	29.71
315.109	32.51
315.575	38.41
316.041	37.61
316.507	35.11
316.973	39.81
317.439	39.41
317.905	32.31
318.371	31.71
318.837	33.91
319.303	34.81
319.769	36.31
320.235	37.41
320.701	37.51
321.167	43.01
321.633	42.71
322.099	40.81
322.564	46.91
323.03	35.51
323.496	45.41
323.962	40.21
324.427	41.11
324.893	43.61
325.359	37.31
325.824	35.61
326.29	39.51
326.755	41.31
327.221	41.01
327.686	38.61
328.152	48.31
328.617	41.21
329.083	46.91
329.548	51.61
330.014	48.81
330.479	44.91
330.944	47.61
331.41	41.71
331.875	48.51
332.34	46.11
332.805	45.11
333.271	44.51
333.736	49.91
334.201	48.51
334.666	47.01
335.131	57.21
335.596	47.71
336.061	51.01
336.526	45.91
336.991	46.11
337.456	55.51
337.921	51.01
338.386	48.31
338.851	46.41
339.316	47.11
339.781	45.21
340.246	52.41
340.711	43.81
341.175	58.21
341.64	46.51
342.105	50.61
342.569	50.51
343.034	63.41
343.499	59.21
343.963	52.71
344.428	72.51
344.893	67.71
345.357	55.01
345.822	59.11
346.286	70.71
346.751	77.31
347.215	66.11
347.679	75.11
348.144	98.31
348.608	85.61
349.073	71.81
349.537	74.51
350.001	74.81
350.465	86.31
350.93	80.61
351.394	76.51
351.858	74.61
352.322	85.51
352.786	81.81
353.25	103.01
353.715	110.41
354.179	104.41
354.643	120.41
355.107	125.71
355.571	109.81
356.035	102.91
356.498	115.11
356.962	137.71
357.426	126.61
357.89	116.11
358.354	93.61
358.818	87.11
359.281	86.01
359.745	83.41
360.209	71.11
360.673	78.21
361.136	81.61
361.6	81.11
362.064	86.51
362.527	92.11
362.991	96.81
363.454	84.51
363.918	74.81
364.381	74.31
364.845	82.41
365.308	84.41
365.772	84.01
366.235	89.01
366.698	85.91
367.162	85.41
367.625	88.71
368.088	81.51
368.552	90.71
369.015	88.41
369.478	98.01
369.941	97.91
370.404	98.91
370.867	108.61
371.331	102.01
371.794	112.91
372.257	109.91
372.72	112.81
373.183	104.71
373.646	101.51
374.109	96.41
374.572	112.31
375.035	111.91
375.497	114.71
375.96	111.11
376.423	111.41
376.886	115.41
377.349	112.11
377.811	101.41
378.274	107.01
378.737	104.41
379.199	115.81
379.662	111.11
380.125	118.41
380.587	110.11
381.05	121.51
381.512	128.21
381.975	136.81
382.437	129.71
382.9	126.01
383.362	125.51
383.825	134.81
384.287	149.81
384.75	146.01
385.212	139.21
385.674	139.11
386.136	139.91
386.599	124.11
387.061	126.21
387.523	123.61
387.985	134.61
388.447	148.21
388.91	146.71
389.372	156.81
389.834	151.01
390.296	146.31
390.758	157.11
391.22	169.51
391.682	211.31
392.144	294.51
392.606	232.21
393.068	161.01
393.529	169.41
393.991	156.71
394.453	147.51
394.915	155.01
395.377	187.51
395.838	217.01
396.3	148.41
396.762	137.11
397.224	136.61
397.685	128.41
398.147	124.71
398.608	132.91
399.07	135.61
399.531	135.51
399.993	134.91
400.454	157.31
400.916	143.71
401.377	145.31
401.839	157.31
402.3	147.51
402.762	165.01
403.223	177.71
403.684	174.01
404.145	156.01
404.607	159.01
405.068	164.41
405.529	165.31
405.99	191.61
406.451	181.21
406.913	176.31
407.374	159.61
407.835	158.91
408.296	163.71
408.757	170.71
409.218	184.11
409.679	184.11
410.14	173.21
410.601	179.61
411.062	179.71
411.522	185.31
411.983	193.31
412.444	180.51
412.905	184.61
413.366	184.11
413.826	194.81
414.287	216.21
414.748	261.11
415.208	243.61
415.669	209.31
416.13	207.11
416.59	202.51
417.051	213.11
417.511	223.31
417.972	241.21
418.432	242.61
418.893	284.31
419.353	248.51
419.814	196.21
420.274	183.71
420.734	176.51
421.195	196.01
421.655	199.21
422.115	188.61
422.576	195.51
423.036	200.61
423.496	208.21
423.956	211.71
424.416	227.61
424.876	256.31
425.336	263.71
425.797	261.61
426.257	250.51
426.717	241.01
427.177	238.61
427.637	219.21
428.097	234.41
428.556	248.21
429.016	263.61
429.476	266.31
429.936	273.21
430.396	274.21
430.856	291.01
431.315	307.91
431.775	349.81
432.235	379.81
432.694	346.51
433.154	360.51
433.614	397.01
434.073	330.21
434.533	284.01
434.993	261.71
435.452	284.11
435.912	307.41
436.371	291.91
436.83	285.51
437.29	270.01
437.749	247.41
438.209	240.41
438.668	271.41
439.127	293.61
439.587	263.61
440.046	243.71
440.505	264.21
440.964	283.71
441.424	319.41
441.883	317.91
442.342	256.21
442.801	221.31
443.26	215.81
443.719	220.41
444.178	222.01
444.637	214.31
445.096	216.41
445.555	220.71
446.014	224.41
446.473	222.31
446.932	236.21
447.391	220.91
447.849	224.91
448.308	221.71
448.767	223.21
449.226	243.01
449.685	235.81
450.143	247.71
450.602	229.01
451.061	216.81
451.519	234.31
451.978	235.11
452.436	232.91
452.895	244.81
453.353	259.21
453.812	244.71
454.27	243.81
454.729	234.11
455.187	242.91
455.646	247.01
456.104	250.41
456.562	260.71
457.021	268.41
457.479	262.61
457.937	273.71
458.395	268.31
458.854	249.71
459.312	253.81
459.77	276.01
460.228	258.21
460.686	245.31
461.144	248.01
461.602	246.31
462.06	240.21
462.518	251.21
462.976	254.41
463.434	261.71
463.892	261.21
464.35	279.51
464.808	284.21
465.266	265.81
465.724	267.91
466.181	271.41
466.639	268.51
467.097	279.51
467.555	301.31
468.012	297.51
468.47	305.51
468.928	335.91
469.385	341.71
469.843	348.31
470.3	350.71
470.758	361.81
471.215	378.81
471.673	411.01
472.13	404.71
472.588	411.61
473.045	371.81
473.503	380.11
473.96	392.91
474.417	394.91
474.875	436.71
475.332	479.01
475.789	462.61
476.246	466.51
476.704	480.71
477.161	510.91
477.618	522.11
478.075	557.81
478.532	622.51
478.989	689.61
479.446	810.41
479.903	775.31
480.36	810.81
480.817	869.21
481.274	979.81
481.731	1075.11
482.188	1171.71
482.645	1297.11
483.102	1413.21
483.558	1548.91
484.015	1618.61
484.472	1586.11
484.929	1537.31
485.385	1483.41
485.842	1438.91
486.299	1371.11
486.755	1307.71
487.212	1106.01
487.668	930.41
488.125	862.71
488.582	785.21
489.038	739.21
489.494	705.71
489.951	684.81
490.407	659.01
490.864	644.91
491.32	649.21
491.776	649.71
492.233	643.91
492.689	622.81
493.145	615.31
493.602	605.61
494.058	609.71
494.514	610.81
494.97	635.61
495.426	647.81
495.882	628.81
496.338	614.01
496.794	620.71
497.251	614.61
497.707	634.61
498.163	630.41
498.618	648.81
499.074	652.91
499.53	684.21
499.986	679.61
500.442	649.81
500.898	644.51
501.354	627.81
501.809	635.61
502.265	649.01
502.721	668.41
503.177	674.71
503.632	672.91
504.088	673.41
504.543	717.61
504.999	716.31
505.455	660.41
505.91	636.41
506.366	631.51
506.821	617.81
507.277	628.21
507.732	623.41
508.187	616.21
508.643	633.21
509.098	634.41
509.553	647.31
510.009	658.31
510.464	680.51
510.919	683.11
511.375	691.11
511.83	704.41
512.285	724.81
512.74	763.61
513.195	777.71
513.65	786.21
514.105	772.51
514.56	777.61
515.015	789.11
515.47	821.21
515.925	788.61
516.38	800.91
516.835	797.11
517.29	790.31
517.745	779.21
518.2	762.81
518.655	744.11
519.109	737.11
519.564	744.51
520.019	734.11
520.474	725.71
520.928	730.41
521.383	717.11
521.838	714.01
522.292	708.01
522.747	705.91
523.201	709.51
523.656	691.71
524.11	684.31
524.565	690.21
525.019	691.11
525.474	696.11
525.928	703.61
526.382	696.11
526.837	706.51
527.291	691.61
527.745	696.31
528.2	696.21
528.654	690.51
529.108	682.91
529.562	696.51
530.016	696.41
530.47	689.01
530.925	694.21
531.379	693.11
531.833	710.11
532.287	700.21
532.741	703.71
533.195	702.81
533.649	711.91
534.103	717.41
534.556	709.41
535.01	712.51
535.464	709.61
535.918	721.31
536.372	724.11
536.826	710.81
537.279	704.51
537.733	703.11
538.187	712.51
538.64	708.01
539.094	727.31
539.548	720.11
540.001	723.81
540.455	723.61
540.908	730.41
541.362	750.11
541.815	743.01
542.269	752.11
542.722	757.91
543.175	769.21
543.629	763.61
544.082	797.91
544.536	788.31
544.989	772.31
545.442	789.71
545.895	783.71
546.349	790.71
546.802	793.11
547.255	789.41
547.708	809.91
548.161	805.71
548.614	818.11
549.067	822.51
549.52	819.31
549.973	814.31
550.426	799.61
550.879	792.51
551.332	800.21
551.785	801.51
552.238	806.81
552.691	813.11
553.144	837.11
553.596	844.01
554.049	872.81
554.502	896.71
554.955	910.51
555.407	898.41
555.86	903.31
556.313	893.91
556.765	877.81
557.218	884.01
557.67	879.31
558.123	874.01
558.576	875.31
559.028	857.01
559.48	873.31
559.933	870.61
560.385	843.91
560.838	810.41
561.29	784.51
561.742	781.71
562.195	760.01
562.647	764.11
563.099	770.51
563.551	767.41
564.004	781.51
564.456	770.11
564.908	760.21
565.36	750.31
565.812	729.81
566.264	712.51
566.716	719.91
567.168	711.01
567.62	713.41
568.072	712.81
568.524	701.51
568.976	681.51
569.428	673.11
569.88	672.81
570.332	678.51
570.784	687.71
571.235	678.91
571.687	690.61
572.139	698.01
572.59	704.11
573.042	702.81
573.494	710.91
573.945	697.81
574.397	680.21
574.849	687.31
575.3	689.61
575.752	687.91
576.203	681.31
576.655	681.01
577.106	666.01
577.557	657.41
578.009	658.01
578.46	662.51
578.912	663.21
579.363	661.21
579.814	659.71
580.265	655.81
580.717	663.91
581.168	666.51
581.619	680.21
582.07	688.91
582.521	666.11
582.972	665.01
583.423	680.51
583.875	679.71
584.326	701.01
584.777	740.91
585.227	814.01
585.678	911.51
586.129	992.91
586.58	1065.21
587.031	1146.61
587.482	1295.31
587.933	1475.21
588.384	1286.91
588.834	959.31
589.285	802.21
589.736	777.11
590.186	755.41
590.637	750.31
591.088	738.71
591.538	733.31
591.989	721.01
592.439	722.21
592.89	701.21
593.34	701.01
593.791	708.21
594.241	699.31
594.692	699.51
595.142	688.31
595.593	692.21
596.043	698.31
596.493	705.21
596.943	715.01
597.394	713.51
597.844	715.61
598.294	723.01
598.744	745.41
599.195	765.51
599.645	804.01
600.095	843.81
600.545	901.31
600.995	953.31
601.445	996.31
601.895	1066.51
602.345	1113.11
602.795	1110.71
603.245	1047.61
603.695	998.91
604.145	945.11
604.594	898.01
605.044	861.91
605.494	797.01
605.944	745.71
606.393	742.61
606.843	720.51
607.293	722.11
607.743	723.41
608.192	733.11
608.642	742.41
609.091	755.61
609.541	759.81
609.99	757.31
610.44	760.81
610.889	705.41
611.339	683.71
611.788	676.91
612.238	688.71
612.687	700.61
613.136	700.81
613.586	728.91
614.035	728.11
614.484	736.81
614.933	743.31
615.383	739.51
615.832	731.61
616.281	714.71
616.73	682.81
617.179	658.91
617.628	642.01
618.077	626.11
618.526	612.61
618.975	606.51
619.424	602.11
619.873	599.61
620.322	606.21
620.771	598.11
621.22	595.61
621.669	582.11
622.118	580.81
622.567	570.11
623.015	554.91
623.464	562.01
623.913	543.41
624.361	535.91
624.81	542.61
625.259	546.21
625.707	548.61
626.156	543.11
626.604	560.01
627.053	549.61
627.501	544.11
627.95	563.41
628.398	563.81
628.847	554.11
629.295	556.01
629.744	568.11
630.192	556.91
630.64	560.71
631.089	551.71
631.537	570.21
631.985	572.11
632.433	595.11
632.881	600.01
633.33	645.81
633.778	630.21
634.226	555.31
634.674	553.31
635.122	572.51
635.57	582.61
636.018	610.71
636.466	574.31
636.914	543.81
637.362	560.91
637.81	567.51
638.258	569.21
638.705	561.61
639.153	598.01
639.601	599.61
640.049	624.91
640.497	657.21
640.944	673.01
641.392	620.81
641.84	599.71
642.287	583.11
642.735	557.71
643.182	562.31
643.63	561.51
644.078	566.91
644.525	577.11
644.973	584.11
645.42	590.31
645.867	612.61
646.315	628.31
646.762	650.81
647.21	675.01
647.657	690.51
648.104	734.91
648.551	747.61
648.999	810.71
649.446	896.71
649.893	993.21
650.34	1137.71
650.787	1362.51
651.234	1691.31
651.682	2201.51
652.129	3008.71
652.576	4359.11
653.023	6416.51
653.47	8804.71
653.917	11056.91
654.363	12790.11
654.81	14175.11
655.257	13485.51
655.704	8827.81
656.151	5206.51
656.598	3372.41
657.044	2385.31
657.491	1835.11
657.938	1458.61
658.385	1218.61
658.831	1064.21
659.278	945.51
659.724	846.01
660.171	774.21
660.618	706.11
661.064	672.81
661.511	657.31
661.957	652.81
662.404	630.81
662.85	638.81
663.296	611.31
663.743	550.81
664.189	528.81
664.635	522.21
665.082	521.41
665.528	511.71
665.974	510.71
666.42	496.31
666.867	492.31
667.313	476.91
667.759	465.71
668.205	454.41
668.651	468.31
669.097	472.81
669.543	487.31
669.989	461.11
670.435	440.71
670.881	440.21
671.327	438.71
671.773	457.21
672.219	473.91
672.665	521.11
673.11	562.11
673.556	610.81
674.002	655.51
674.448	635.71
674.893	533.41
675.339	457.31
675.785	427.01
676.23	405.01
676.676	385.01
677.122	372.11
677.567	361.41
678.013	356.01
678.458	352.81
678.904	345.91
679.349	333.91
679.794	334.01
680.24	340.51
680.685	341.91
681.131	342.01
681.576	339.81
682.021	343.11
682.466	338.61
682.912	338.61
683.357	340.51
683.802	373.51
684.247	396.91
684.692	434.91
685.137	475.31
685.583	518.31
686.028	541.71
686.473	496.51
686.918	433.51
687.363	394.01
687.807	384.11
688.252	347.81
688.697	339.91
689.142	318.91
689.587	324.91
690.032	317.61
690.477	333.01
690.921	343.61
691.366	368.11
691.811	380.21
692.255	415.11
692.7	443.01
693.145	480.01
693.589	670.11
694.034	1061.41
694.478	1464.61
694.923	1681.81
695.367	2199.21
695.812	1148.81
696.256	480.91
696.701	366.41
697.145	328.81
697.59	323.21
698.034	319.51
698.478	319.51
698.922	316.81
699.367	311.51
699.811	330.81
700.255	357.21
700.699	371.11
701.143	409.81
701.588	455.71
702.032	494.01
702.476	495.91
702.92	471.51
703.364	468.31
703.808	607.41
704.252	983.71
704.696	1384.51
705.14	1617.01
705.584	2080.21
706.027	1029.81
706.471	502.11
706.915	376.21
707.359	331.61
707.803	311.51
708.246	295.61
708.69	308.91
709.134	303.61
709.577	292.61
710.021	300.11
710.465	295.71
710.908	288.41
711.352	291.01
711.795	304.41
712.239	337.81
712.682	374.11
713.126	399.21
713.569	453.11
714.012	362.11
714.456	312.21
714.899	287.91
715.342	267.91
715.786	251.21
716.229	253.11
716.672	248.11
717.115	246.71
717.558	243.31
718.002	239.21
718.445	245.11
718.888	266.71
719.331	292.01
719.774	297.31
720.217	296.11
720.66	274.71
721.103	262.81
721.546	246.91
721.989	241.51
722.432	221.31
722.874	223.21
723.317	220.01
723.76	224.51
724.203	248.21
724.645	308.21
725.088	430.31
725.531	551.61
725.974	624.21
726.416	529.51
726.859	296.21
727.301	233.11
727.744	235.81
728.187	231.91
728.629	228.11
729.071	230.61
729.514	246.21
729.956	254.41
730.399	267.21
730.841	273.51
731.283	259.81
731.726	249.01
732.168	249.91
732.61	257.31
733.053	274.81
733.495	301.01
733.937	334.91
734.379	377.81
734.821	406.31
735.263	518.01
735.705	792.01
736.148	1484.91
736.59	2458.51
737.032	2958.91
737.474	2406.71
737.916	773.31
738.357	414.01
738.799	313.41
739.241	280.51
739.683	275.61
740.125	277.81
740.567	281.41
741.008	308.51
741.45	295.91
741.892	305.31
742.334	330.91
742.775	347.81
743.217	330.81
743.658	261.41
744.1	241.71
744.542	253.61
744.983	297.21
745.425	333.31
745.866	330.61
746.307	273.11
746.749	276.01
747.19	301.01
747.632	433.71
748.073	836.11
748.514	1765.31
748.956	2733.41
749.397	3402.31
749.838	2850.51
750.279	2860.41
750.72	1451.91
751.162	522.21
751.603	302.71
752.044	242.01
752.485	207.41
752.926	202.41
753.367	194.81
753.808	179.81
754.249	181.91
754.69	182.01
755.131	172.11
755.572	167.91
756.013	169.11
756.453	170.71
756.894	177.41
757.335	182.11
757.776	191.41
758.216	186.01
758.657	187.71
759.098	190.51
759.538	212.11
759.979	257.01
760.42	353.81
760.86	660.01
761.301	1706.71
761.741	4169.11
762.182	6209.21
762.622	4379.91
763.063	1247.51
763.503	506.71
763.943	337.81
764.384	327.41
764.824	385.91
765.264	428.61
765.705	293.81
766.145	203.11
766.585	181.51
767.025	167.01
767.465	177.81
767.906	225.51
768.346	292.11
768.786	328.21
769.226	254.41
769.666	303.21
770.106	583.21
770.546	1461.61
770.986	2527.61
771.426	2284.91
771.866	767.71
772.306	316.61
772.745	205.11
773.185	163.71
773.625	156.61
774.065	159.11
774.505	189.51
774.944	300.81
775.384	648.51
775.824	1181.51
776.263	1174.01
776.703	490.61
777.142	219.31
777.582	151.71
778.021	126.51
778.461	136.01
778.9	137.01
779.34	127.41
779.779	115.11
780.219	106.41
780.658	105.31
781.097	103.11
781.537	112.91
781.976	105.11
782.415	106.01
782.855	97.11
783.294	95.41
783.733	103.11
784.172	105.51
784.611	99.01
785.05	107.81
785.489	109.81
785.928	117.11
786.367	112.91
786.806	112.51
787.245	127.81
787.684	128.11
788.123	139.71
788.562	124.01
789.001	124.51
789.44	118.31
789.879	114.11
790.317	114.61
790.756	116.31
791.195	121.71
791.634	138.61
792.072	195.61
792.511	344.21
792.95	949.01
793.388	2047.01
793.827	1883.11
794.265	647.31
794.704	268.71
795.142	172.81
795.581	143.21
796.019	134.31
796.458	125.61
796.896	115.91
797.334	121.71
797.773	142.01
798.211	206.21
798.649	414.01
799.087	968.91
799.526	1514.21
799.964	1916.91
800.402	1948.81
800.84	733.81
801.278	289.31
801.716	181.21
802.154	148.91
802.592	137.51
803.03	136.11
803.468	127.11
803.906	138.01
804.344	141.71
804.782	141.61
805.22	121.11
805.658	133.31
806.096	139.41
806.533	151.21
806.971	165.91
807.409	206.81
807.847	299.31
808.284	627.01
808.722	1742.21
809.16	3155.11
809.597	2954.31
810.035	5126.21
810.472	5619.31
810.91	2014.81
811.347	761.61
811.785	384.11
812.222	246.41
812.66	187.81
813.097	154.41
813.535	131.41
813.972	119.61
814.409	112.11
814.846	106.81
815.284	106.71
815.721	98.31
816.158	105.71
816.595	116.41
817.032	169.21
817.47	191.41
817.907	167.51
818.344	143.41
818.781	112.61
819.218	102.51
819.655	116.91
820.092	179.71
820.529	203.21
820.966	167.41
821.403	125.31
821.839	104.01
822.276	98.71
822.713	111.91
823.15	129.31
823.587	107.41
824.023	137.31
824.46	275.01
824.897	844.71
825.333	1310.31
825.77	567.31
826.206	223.81
826.643	127.91
827.08	98.21
827.516	83.11
827.953	78.81
828.389	76.51
828.825	63.51
829.262	69.61
829.698	64.21
830.135	61.31
830.571	61.61
831.007	59.11
831.443	59.11
831.88	63.51
832.316	60.71
832.752	59.61
833.188	64.91
833.624	54.21
834.06	60.51
834.497	63.01
834.933	70.61
835.369	70.81
835.805	59.61
836.241	69.01
836.677	79.71
837.112	82.11
837.548	100.31
837.984	131.81
838.42	189.51
838.856	457.31
839.292	1427.81
839.727	2213.81
840.163	1031.21
840.599	859.61
841.034	1934.51
841.47	2046.41
841.906	756.11
842.341	314.31
842.777	219.21
843.212	309.61
843.648	302.31
844.083	154.11
844.519	93.71
844.954	70.91
845.39	54.31
845.825	57.21
846.261	60.21
846.696	58.71
847.131	51.91
847.566	61.81
848.002	45.71
848.437	47.01
848.872	59.61
849.307	59.11
849.742	83.31
850.177	161.51
850.613	520.31
851.048	840.41
851.483	361.21
851.918	142.81
852.353	84.81
852.788	60.41
853.223	56.91
853.657	49.61
854.092	47.11
854.527	39.41
854.962	37.31
855.397	39.21
855.832	44.51
856.266	40.21
856.701	41.61
857.136	33.91
857.57	50.01
858.005	47.31
858.44	59.51
858.874	40.01
859.309	50.11
859.743	33.91
860.178	46.61
860.612	35.81
861.047	49.91
861.481	57.91
861.915	66.91
862.35	48.51
862.784	30.71
863.218	39.01
863.653	29.71
864.087	48.21
864.521	52.31
864.955	62.31
865.39	150.21
865.824	168.21
866.258	114.11
866.692	151.01
867.126	169.61
867.56	95.21
867.994	47.91
868.428	39.61
868.862	46.81
869.296	56.91
869.73	58.61
870.164	52.01
870.598	47.51
871.031	42.51
871.465	34.11
871.899	29.51
872.333	19.01
872.766	23.81
873.2	26.81
873.634	28.91
874.067	23.81
874.501	22.51
874.935	31.61
875.368	26.71
875.802	21.21
876.235	16.21
876.669	22.41
877.102	24.01
877.535	20.81
877.969	24.71
878.402	25.51
878.836	23.11
879.269	30.21
879.702	26.51
880.135	22.71
880.569	24.21
881.002	25.31
881.435	21.11
881.868	17.41
882.301	23.61
882.734	15.61
883.167	20.31
883.601	18.81
884.034	19.31
884.467	11.81
884.899	23.01
885.332	15.11
885.765	21.11
886.198	19.31
886.631	16.51
887.064	15.81
887.497	24.41
887.929	24.21
888.362	11.41
888.795	10.01
889.228	18.01
889.66	21.51
890.093	17.71
890.526	16.31
890.958	20.11
891.391	16.71
891.823	22.71
892.256	17.21
892.688	11.71
893.121	20.61
893.553	13.31
893.985	21.81
894.418	21.41
894.85	12.51
895.282	14.51
895.715	18.41
896.147	16.21
896.579	14.11
897.011	13.31
897.444	17.81
897.876	9.81
898.308	15.91
898.74	10.61
899.172	10.01
899.604	17.61
900.036	15.41
900.468	20.31
900.9	12.41
901.332	14.11
901.764	11.71
902.196	12.91
902.628	14.91
903.06	12.01
903.491	25.91
903.923	22.31
904.355	18.31
904.787	19.81
905.218	23.81
905.65	22.21
906.082	8.91
906.513	19.01
906.945	15.31
907.376	13.61
907.808	21.51
908.239	18.11
908.671	18.91
909.102	22.51
909.534	23.51
909.965	41.91
910.397	87.91
910.828	288.81
911.259	455.01
911.691	203.41
912.122	106.11
912.553	55.51
912.984	36.01
913.415	27.01
913.847	22.81
914.278	14.71
914.709	18.81
915.14	23.61
915.571	13.51
916.002	9.01
916.433	17.01
916.864	16.21
917.295	8.71
917.726	23.51
918.157	13.41
918.587	25.71
919.018	16.41
919.449	19.11
919.88	25.31
920.311	29.21
920.741	44.01
921.172	159.31
921.603	140.21
922.033	72.21
922.464	49.41
922.895	20.51
923.325	17.41
923.756	10.11
924.186	21.61
924.617	27.01
925.047	39.91
925.478	54.41
925.908	43.51
926.338	21.41
926.769	17.61
927.199	17.31
927.629	4.81
928.06	24.41
928.49	17.11
928.92	12.91
929.35	13.31
929.78	9.81
930.21	10.51
930.641	10.71
931.071	9.81
931.501	8.01
931.931	9.11
932.361	7.81
932.791	-2.79
933.221	6.71
933.651	1.01
934.08	14.71
934.51	24.61
934.94	11.51
935.37	7.21
935.8	13.71
936.229	10.21
936.659	8.41
937.089	-1.39
937.519	14.21
937.948	23.21
938.378	16.41
938.807	0.81
939.237	5.61
939.666	5.21
940.096	-4.59
940.525	1.21
940.955	-6.59
941.384	1.81
941.814	-4.79
942.243	-4.79
942.672	1.91
943.102	-5.39
943.531	4.71
943.96	3.41
944.39	4.51
944.819	-2.09
945.248	2.41
945.677	3.81
946.106	7.41
946.535	7.21
946.964	1.41
947.393	7.51
947.822	1.61
948.251	-4.69
948.68	2.51
949.109	8.31
949.538	0.41
949.967	-1.19
950.396	4.61
950.825	-2.99
951.254	-0.09
951.682	-5.29
952.111	4.51
952.54	5.51
952.969	-4.49
953.397	-3.59
953.826	0.81
954.254	-6.99
954.683	0.61
955.112	-0.39
955.54	1.71
955.969	1.51
956.397	0.81
956.826	-1.99
957.254	2.01
957.682	-0.69
958.111	4.01
958.539	-2.79
958.967	3.31
959.396	-2.09
959.824	-1.29
960.252	-0.09
960.68	-8.29
961.109	-3.19
961.537	-9.49
961.965	-2.79
962.393	-1.69
962.821	-6.09
963.249	0.71
963.677	7.81
964.105	5.31
964.533	38.41
964.961	41.81
965.389	19.21
965.817	11.11
966.245	1.81
966.672	-5.89
967.1	-10.89
967.528	3.01
967.956	-3.39
968.383	-2.19
968.811	-3.39
969.239	-0.89
969.666	-8.99
970.094	1.81
970.522	3.01
970.949	0.71
971.377	-3.09
971.804	-0.99
972.232	-2.39
972.659	0.41
973.087	-7.69
973.514	-2.19
973.941	-8.79
974.369	5.41
974.796	2.31
975.223	1.41
975.651	-6.19
976.078	6.71
976.505	-7.09
976.932	1.51
977.359	17.61
977.786	13.11
978.214	7.31
978.641	-3.09
979.068	-4.69
979.495	-6.29
979.922	-4.29
980.349	-1.49
980.776	4.81
981.202	0.11
981.629	2.41
982.056	0.21
982.483	-1.09
982.91	5.41
983.337	-0.99
983.763	0.21
984.19	-9.89
984.617	-4.29
985.043	-5.39
985.47	2.71
985.897	-5.89
986.323	-5.99
986.75	1.11
987.176	-1.59
987.603	-6.19
988.029	5.41
988.456	-4.39
988.882	3.41
989.308	-9.99
989.735	-2.39
990.161	4.61
990.587	-0.49
991.014	2.51
991.44	10.61
991.866	-1.39
992.292	-4.39
992.719	-3.79
993.145	-2.59
993.571	-12.29
993.997	-2.69
994.423	-5.29
994.849	-8.89
995.275	0.41
995.701	-7.49
996.127	-5.19
996.553	-1.79
996.979	-3.89
997.405	-6.99
997.83	-8.69
998.256	-4.79
998.682	-7.19
999.108	-8.39
999.534	-0.69
999.959	-2.19
1000.385	-1.19
1000.811	-2.59
1001.236	-10.09
1001.662	-5.89
1002.087	-3.79
1002.513	-0.29
1002.938	0.81
1003.364	1.51
1003.789	1.01
1004.215	1.01
1004.64	-5.39
1005.066	0.21
1005.491	-3.29
1005.916	-1.09
1006.342	-6.39
1006.767	-6.19
1007.192	7.61
1007.617	0.81
1008.042	-1.99
1008.468	-11.49
1008.893	-7.19
1009.318	-5.89
1009.743	-0.89
1010.168	3.81
1010.593	-0.09
1011.018	-9.19
1011.443	-8.59
1011.868	-3.19
1012.293	-3.29
1012.718	-14.99
1013.143	-1.59
1013.567	0.41
1013.992	-3.99
1014.417	-14.39
1014.842	1.91
1015.267	-2.69
1015.691	-5.79
1016.116	1.21
1016.541	-1.29
1016.965	1.91
1017.39	0.21
1017.814	-6.09
1018.239	-5.69
1018.663	-4.39
1019.088	-7.69
1019.512	-3.59
1019.937	-4.79
1020.361	0.51
1020.785	-13.79
1021.21	-5.29
1021.634	-2.99
1022.058	-0.49
1022.483	1.31
1022.907	-7.19
1023.331	-2.79
1023.755	-6.79
1024.179	-2.09
1024.604	-7.79
1025.028	-9.39
1025.452	-5.49
1025.876	-1.79
1026.3	1.41
1026.724	-13.19
1027.148	-8.69
1027.572	-8.79
1027.996	-0.79
1028.42	-0.89
1028.843	-2.89
1029.267	-6.09
1029.691	-2.39
1030.115	-9.39
1030.539	-3.09
1030.962	-4.39
1031.386	-8.19
1031.81	-4.39
1032.233	-4.29
1032.657	0.21
1033.08	-1.69
1033.504	-5.79
1033.927	-8.89
1034.351	-0.79
1034.774	-6.79
1035.198	-2.49
1035.621	-9.79
1036.045	-9.89
1036.468	-1.39
1036.891	-9.89
1037.315	-10.19
1037.738	-9.29
1038.161	-3.89
1038.584	-7.09
1039.008	-7.89
1039.431	-5.89
1039.854	-3.99
1040.277	-8.89
1040.7	-9.19
1041.123	-1.89
1041.546	-5.89
1041.969	-4.39
1042.392	-3.99
1042.815	-8.39
1043.238	-0.79
1043.661	2.21
1044.084	-8.19
1044.507	-7.69
1044.93	-4.79
1045.352	-11.79
1045.775	4.31
1046.198	-3.29
1046.621	0.31
1047.043	-6.29
1047.466	-0.99
1047.889	-7.29
1048.311	-5.89
1048.734	-3.99
1049.156	-3.69
1049.579	-2.99
1050.001	-5.49
1050.424	1.01
1050.846	-4.39
1051.269	-4.09
1051.691	-5.29
1052.113	-4.09
1052.536	-0.29
1052.958	-5.79
1053.38	-6.59
1053.802	-7.89
1054.225	-5.49
1054.647	-11.99
1055.069	-8.39
1055.491	-3.49
1055.913	-6.09
1056.335	2.41
1056.757	-4.19
1057.179	-7.99
1057.601	-9.49
1058.023	-7.99
1058.445	-7.39
1058.867	-8.29
1059.289	-1.49
1059.711	-5.19
1060.133	-2.69
1060.555	-6.29
1060.976	-10.89
1061.398	-7.89
1061.82	-8.89
1062.241	-5.49
1062.663	-3.79
1063.085	-3.39
1063.506	0.21
1063.928	-7.99
1064.35	0.91
1064.771	-11.69
1065.193	-6.09
1065.614	-4.09
1066.035	-6.09
1066.457	-4.09
1066.878	-1.59
1067.3	-12.09
1067.721	-5.59
1068.142	-3.39
1068.564	-4.39
1068.985	-8.29
1069.406	-6.49
1069.827	-6.79
1070.248	-0.79
1070.67	-4.99
1071.091	-9.19
1071.512	-5.99
1071.933	-7.09
1072.354	-6.49
1072.775	-7.29
1073.196	-4.19
1073.617	-7.89
1074.038	-1.69
1074.459	-1.99
1074.88	-9.29
1075.3	1.01
1075.721	-3.89
1076.142	-2.19
1076.563	-4.59
1076.983	-14.69
1077.404	-7.99
1077.825	-12.99
1078.246	-4.89
1078.666	-7.99
1079.087	-5.99
1079.507	-8.09
1079.928	-2.69
1080.348	-0.99
1080.769	-4.99
1081.189	-3.79
1081.61	-5.49
1082.03	-7.49
1082.451	-8.99
1082.871	-7.19
1083.291	-1.89
1083.711	-12.19
1084.132	-9.69
1084.552	-8.49
1084.972	-4.79
1085.392	-13.39
1085.813	-8.09
1086.233	-10.19
1086.653	-0.39
1087.073	-4.59
1087.493	-8.99
1087.913	-6.99
1088.333	-4.89
1088.753	-4.39
1089.173	1.71
1089.593	-4.99
1090.013	-0.49
1090.433	-3.09
1090.852	-1.09
1091.272	-3.09
1091.692	-4.89
1092.112	-4.89
1092.531	-8.79
1092.951	-14.79
1093.371	-2.49
1093.79	3.91
1094.21	-1.19
1094.63	-3.79
1095.049	-7.69
1095.469	-4.29
1095.888	-3.29
1096.308	-3.79
1096.727	2.41
1097.146	-6.29
1097.566	0.01
1097.985	-8.69
1098.405	-5.99
1098.824	-6.79
1099.243	-5.79
1099.662	-7.49
1100.082	-4.29
1100.501	2.11
1100.92	-6.79
1101.339	-7.79
1101.758	-4.49
