Data from 20171114-ORNL-Ar_H_NY_Subt18_08-06-34-119.txt Node
Date: Tue Nov 14 08:06:34 EST 2017
User: Ender
Spectrometer: HR+D1039
Trigger mode: 0
Integration Time (sec): 2.730000E-2
Scans to average: 10
Electric dark correction enabled: true
Nonlinearity correction enabled: false
Boxcar width: 0
XAxis mode: Wavelengths
Number of Pixels in Spectrum: 2048
>>>>>Begin Spectral Data<<<<<
187.836	-2.72
188.309	-2.72
188.782	-2.72
189.255	-2.32
189.728	2.28
190.201	5.38
190.674	1.18
191.147	1.78
191.619	-7.02
192.092	-2.32
192.565	2.58
193.038	-1.52
193.511	5.58
193.984	-0.42
194.456	2.58
194.929	-1.82
195.402	-3.72
195.874	0.48
196.347	3.88
196.82	-10.72
197.292	7.48
197.765	3.28
198.237	0.68
198.71	6.98
199.182	-0.72
199.655	2.08
200.127	4.98
200.6	2.18
201.072	0.28
201.544	-5.62
202.017	-3.52
202.489	2.38
202.961	-4.12
203.433	-3.72
203.906	-6.02
204.378	4.28
204.85	-3.82
205.322	-5.12
205.794	-1.82
206.266	-2.92
206.739	-8.72
207.211	4.08
207.683	-2.62
208.155	-2.92
208.627	-5.82
209.099	-4.02
209.57	-5.72
210.042	-7.72
210.514	-1.82
210.986	-0.72
211.458	-6.92
211.93	-0.82
212.402	0.28
212.873	-2.12
213.345	-8.32
213.817	-10.12
214.288	-5.52
214.76	-8.42
215.232	-2.92
215.703	2.68
216.175	-4.22
216.646	-7.62
217.118	-1.92
217.589	-3.02
218.061	0.18
218.532	-6.32
219.004	-4.92
219.475	-5.52
219.946	-6.42
220.418	-4.82
220.889	5.68
221.36	2.38
221.832	-8.72
222.303	-5.22
222.774	1.08
223.245	-10.72
223.717	-3.42
224.188	-0.92
224.659	-7.22
225.13	-1.42
225.601	-2.22
226.072	1.28
226.543	-3.42
227.014	1.18
227.485	-0.82
227.956	-4.52
228.427	-6.62
228.898	-4.02
229.369	6.98
229.839	-5.62
230.31	-5.12
230.781	2.78
231.252	-8.22
231.722	-2.82
232.193	-5.22
232.664	3.78
233.135	3.58
233.605	-0.72
234.076	-8.12
234.546	2.88
235.017	2.18
235.487	4.78
235.958	-1.82
236.428	-1.62
236.899	-2.52
237.369	6.58
237.84	2.28
238.31	7.38
238.78	1.08
239.251	1.28
239.721	0.48
240.191	2.28
240.662	-4.52
241.132	8.98
241.602	-1.02
242.072	2.28
242.542	8.38
243.013	-5.22
243.483	3.58
243.953	0.98
244.423	2.18
244.893	1.28
245.363	2.18
245.833	5.08
246.303	4.38
246.773	9.78
247.243	6.68
247.712	4.78
248.182	9.08
248.652	6.78
249.122	-2.12
249.592	10.98
250.061	21.88
250.531	31.48
251.001	11.58
251.471	26.18
251.94	19.98
252.41	9.08
252.879	2.08
253.349	16.08
253.818	9.08
254.288	5.78
254.757	6.68
255.227	0.38
255.696	5.78
256.166	7.78
256.635	11.18
257.105	4.58
257.574	4.48
258.043	6.18
258.513	6.28
258.982	14.38
259.451	3.28
259.92	16.68
260.389	13.98
260.859	17.78
261.328	10.38
261.797	19.18
262.266	10.38
262.735	11.98
263.204	7.48
263.673	1.08
264.142	11.18
264.611	-0.52
265.08	2.68
265.549	4.38
266.018	0.98
266.487	0.88
266.955	-6.62
267.424	0.68
267.893	6.18
268.362	0.88
268.83	3.28
269.299	12.58
269.768	11.38
270.236	5.88
270.705	0.18
271.174	10.78
271.642	14.58
272.111	10.48
272.579	19.18
273.048	21.18
273.516	31.28
273.985	27.98
274.453	24.58
274.922	18.28
275.39	10.68
275.858	7.18
276.327	10.48
276.795	21.48
277.263	11.28
277.731	28.58
278.2	58.38
278.668	61.18
279.136	50.48
279.604	23.08
280.072	20.38
280.54	18.08
281.008	9.98
281.477	16.58
281.945	11.18
282.413	12.08
282.881	18.08
283.348	9.88
283.816	18.58
284.284	15.98
284.752	28.58
285.22	8.88
285.688	20.48
286.156	17.98
286.623	42.08
287.091	49.78
287.559	36.58
288.026	17.58
288.494	20.68
288.962	8.18
289.429	10.78
289.897	18.58
290.364	17.78
290.832	16.98
291.3	16.78
291.767	18.98
292.234	20.28
292.702	16.38
293.169	13.18
293.637	27.98
294.104	24.28
294.571	17.28
295.039	10.58
295.506	14.98
295.973	22.58
296.44	20.58
296.908	20.08
297.375	17.08
297.842	22.28
298.309	17.08
298.776	20.98
299.243	23.18
299.71	12.88
300.177	24.08
300.644	23.18
301.111	19.18
301.578	21.98
302.045	14.38
302.512	18.58
302.979	25.58
303.446	18.88
303.913	15.88
304.379	20.18
304.846	30.68
305.313	28.48
305.78	22.88
306.246	26.78
306.713	28.38
307.18	26.48
307.646	28.88
308.113	30.38
308.579	31.18
309.046	29.38
309.512	23.68
309.979	22.38
310.445	34.38
310.912	29.78
311.378	32.78
311.845	28.68
312.311	28.88
312.777	36.28
313.244	35.38
313.71	42.98
314.176	30.18
314.642	33.48
315.109	30.68
315.575	38.58
316.041	39.98
316.507	31.88
316.973	39.78
317.439	33.48
317.905	37.88
318.371	38.48
318.837	33.18
319.303	36.28
319.769	36.08
320.235	31.28
320.701	31.58
321.167	39.18
321.633	31.78
322.099	41.58
322.564	44.38
323.03	42.08
323.496	44.48
323.962	43.18
324.427	39.28
324.893	45.48
325.359	40.28
325.824	42.58
326.29	41.08
326.755	38.48
327.221	42.78
327.686	42.08
328.152	50.38
328.617	46.68
329.083	44.38
329.548	52.98
330.014	47.78
330.479	43.58
330.944	45.68
331.41	39.38
331.875	47.98
332.34	43.68
332.805	45.48
333.271	47.68
333.736	43.68
334.201	53.88
334.666	49.18
335.131	47.28
335.596	55.48
336.061	51.28
336.526	45.68
336.991	46.18
337.456	64.88
337.921	54.38
338.386	40.98
338.851	47.98
339.316	48.78
339.781	49.38
340.246	53.58
340.711	51.68
341.175	57.18
341.64	46.18
342.105	51.58
342.569	57.38
343.034	59.88
343.499	53.08
343.963	56.98
344.428	65.98
344.893	61.08
345.357	63.68
345.822	58.08
346.286	71.78
346.751	75.78
347.215	66.68
347.679	73.58
348.144	104.48
348.608	89.48
349.073	68.98
349.537	77.28
350.001	78.08
350.465	93.68
350.93	82.68
351.394	82.98
351.858	70.98
352.322	90.98
352.786	89.78
353.25	104.58
353.715	113.28
354.179	106.18
354.643	124.48
355.107	120.08
355.571	111.18
356.035	107.98
356.498	121.88
356.962	133.38
357.426	134.68
357.89	113.48
358.354	96.18
358.818	81.48
359.281	79.08
359.745	75.68
360.209	82.18
360.673	85.58
361.136	82.18
361.6	87.78
362.064	77.68
362.527	85.48
362.991	84.68
363.454	86.48
363.918	74.58
364.381	83.78
364.845	87.08
365.308	80.98
365.772	89.08
366.235	94.08
366.698	79.88
367.162	93.18
367.625	89.18
368.088	93.58
368.552	94.08
369.015	94.48
369.478	95.28
369.941	100.08
370.404	95.08
370.867	103.08
371.331	109.28
371.794	119.38
372.257	117.88
372.72	124.58
373.183	108.38
373.646	106.28
374.109	110.28
374.572	112.78
375.035	108.98
375.497	109.48
375.96	110.18
376.423	111.08
376.886	113.68
377.349	115.98
377.811	109.28
378.274	114.98
378.737	109.18
379.199	115.88
379.662	115.28
380.125	122.88
380.587	122.88
381.05	128.28
381.512	137.08
381.975	134.08
382.437	138.88
382.9	128.98
383.362	141.98
383.825	148.08
384.287	146.78
384.75	145.48
385.212	148.88
385.674	144.98
386.136	144.38
386.599	132.58
387.061	132.88
387.523	133.38
387.985	142.98
388.447	150.58
388.91	143.48
389.372	166.38
389.834	155.88
390.296	146.08
390.758	162.28
391.22	171.18
391.682	219.68
392.144	311.88
392.606	238.38
393.068	170.08
393.529	175.28
393.991	164.08
394.453	150.38
394.915	160.58
395.377	200.08
395.838	227.48
396.3	161.18
396.762	153.18
397.224	141.58
397.685	141.48
398.147	131.58
398.608	131.08
399.07	136.58
399.531	142.28
399.993	145.98
400.454	157.28
400.916	150.98
401.377	150.98
401.839	145.48
402.3	159.98
402.762	171.68
403.223	187.28
403.684	178.48
404.145	167.78
404.607	166.28
405.068	164.88
405.529	170.98
405.99	195.38
406.451	183.08
406.913	178.98
407.374	171.38
407.835	169.28
408.296	177.48
408.757	180.28
409.218	198.68
409.679	184.28
410.14	180.28
410.601	188.18
411.062	195.28
411.522	198.48
411.983	201.88
412.444	187.68
412.905	190.28
413.366	193.18
413.826	197.38
414.287	224.58
414.748	273.08
415.208	260.58
415.669	219.08
416.13	213.28
416.59	211.28
417.051	221.58
417.511	225.98
417.972	248.38
418.432	258.48
418.893	296.18
419.353	269.08
419.814	203.38
420.274	190.68
420.734	194.78
421.195	207.88
421.655	205.88
422.115	200.78
422.576	202.18
423.036	202.88
423.496	213.48
423.956	220.88
424.416	238.28
424.876	273.98
425.336	274.08
425.797	277.58
426.257	267.08
426.717	255.78
427.177	246.88
427.637	230.88
428.097	247.78
428.556	261.58
429.016	283.38
429.476	278.88
429.936	286.88
430.396	291.48
430.856	304.48
431.315	328.28
431.775	369.28
432.235	390.18
432.694	370.38
433.154	377.08
433.614	406.18
434.073	352.98
434.533	293.48
434.993	287.08
435.452	288.68
435.912	303.38
436.371	299.48
436.83	296.68
437.29	277.48
437.749	260.38
438.209	256.28
438.668	284.98
439.127	299.88
439.587	273.78
440.046	256.98
440.505	267.78
440.964	290.68
441.424	344.58
441.883	321.18
442.342	274.68
442.801	236.78
443.26	230.38
443.719	229.68
444.178	237.68
444.637	220.18
445.096	230.98
445.555	227.28
446.014	234.38
446.473	240.48
446.932	248.08
447.391	236.18
447.849	236.18
448.308	225.28
448.767	224.18
449.226	245.38
449.685	244.38
450.143	256.38
450.602	243.68
451.061	229.08
451.519	243.08
451.978	244.88
452.436	245.38
452.895	248.68
453.353	260.18
453.812	249.48
454.27	243.28
454.729	251.88
455.187	254.78
455.646	258.78
456.104	256.38
456.562	273.18
457.021	276.98
457.479	269.88
457.937	282.28
458.395	272.88
458.854	257.98
459.312	271.08
459.77	286.58
460.228	265.08
460.686	253.88
461.144	253.78
461.602	249.58
462.06	250.08
462.518	270.98
462.976	263.98
463.434	266.28
463.892	276.08
464.35	290.08
464.808	299.08
465.266	277.78
465.724	277.78
466.181	283.38
466.639	280.78
467.097	295.98
467.555	311.18
468.012	314.58
468.47	328.18
468.928	335.78
469.385	356.88
469.843	356.38
470.3	359.28
470.758	377.58
471.215	393.98
471.673	422.68
472.13	431.08
472.588	436.78
473.045	387.18
473.503	390.88
473.96	420.58
474.417	417.68
474.875	449.58
475.332	493.68
475.789	482.68
476.246	489.98
476.704	519.48
477.161	533.08
477.618	544.38
478.075	584.38
478.532	639.28
478.989	713.68
479.446	832.48
479.903	795.28
480.36	840.78
480.817	897.58
481.274	997.58
481.731	1098.38
482.188	1211.08
482.645	1331.18
483.102	1456.88
483.558	1596.68
484.015	1655.88
484.472	1622.98
484.929	1574.58
485.385	1519.88
485.842	1475.78
486.299	1395.38
486.755	1337.38
487.212	1121.48
487.668	958.88
488.125	883.08
488.582	805.78
489.038	770.98
489.494	732.28
489.951	713.08
490.407	694.78
490.864	676.98
491.32	665.98
491.776	665.88
492.233	670.88
492.689	643.28
493.145	633.08
493.602	626.98
494.058	632.78
494.514	638.98
494.97	658.08
495.426	666.38
495.882	647.38
496.338	624.68
496.794	649.58
497.251	644.48
497.707	664.88
498.163	658.18
498.618	666.78
499.074	663.38
499.53	694.08
499.986	696.58
500.442	673.98
500.898	653.48
501.354	640.98
501.809	656.38
502.265	654.18
502.721	683.18
503.177	694.18
503.632	690.78
504.088	690.18
504.543	732.58
504.999	731.08
505.455	684.48
505.91	651.68
506.366	653.28
506.821	650.48
507.277	639.48
507.732	652.98
508.187	652.68
508.643	660.88
509.098	657.28
509.553	680.88
510.009	685.58
510.464	699.28
510.919	715.28
511.375	716.18
511.83	724.78
512.285	761.88
512.74	789.58
513.195	816.98
513.65	802.98
514.105	791.08
514.56	796.28
515.015	820.18
515.47	830.48
515.925	819.38
516.38	815.28
516.835	820.88
517.29	811.08
517.745	798.18
518.2	787.98
518.655	770.78
519.109	758.98
519.564	766.38
520.019	748.38
520.474	752.18
520.928	746.38
521.383	732.28
521.838	732.28
522.292	741.98
522.747	734.78
523.201	726.68
523.656	724.48
524.11	720.88
524.565	728.18
525.019	713.28
525.474	732.38
525.928	718.88
526.382	714.78
526.837	711.18
527.291	731.98
527.745	711.68
528.2	722.18
528.654	713.38
529.108	707.68
529.562	715.78
530.016	719.28
530.47	720.28
530.925	716.88
531.379	718.18
531.833	733.98
532.287	724.48
532.741	726.88
533.195	731.08
533.649	738.18
534.103	740.98
534.556	736.28
535.01	726.38
535.464	732.78
535.918	742.98
536.372	743.58
536.826	738.38
537.279	734.68
537.733	735.18
538.187	735.98
538.64	736.58
539.094	739.48
539.548	753.58
540.001	748.78
540.455	752.98
540.908	759.08
541.362	760.98
541.815	772.28
542.269	785.38
542.722	785.98
543.175	800.08
543.629	804.08
544.082	814.98
544.536	809.58
544.989	821.88
545.442	811.88
545.895	815.38
546.349	821.78
546.802	820.78
547.255	822.58
547.708	832.28
548.161	843.78
548.614	847.58
549.067	855.18
549.52	849.08
549.973	832.08
550.426	830.88
550.879	821.58
551.332	823.68
551.785	828.98
552.238	828.58
552.691	843.48
553.144	862.68
553.596	882.38
554.049	884.48
554.502	912.58
554.955	944.88
555.407	941.98
555.86	933.18
556.313	922.28
556.765	907.28
557.218	922.18
557.67	913.48
558.123	894.38
558.576	900.38
559.028	904.18
559.48	905.98
559.933	901.28
560.385	854.68
560.838	832.88
561.29	807.98
561.742	805.78
562.195	786.48
562.647	797.48
563.099	799.48
563.551	803.08
564.004	805.58
564.456	802.68
564.908	779.68
565.36	773.58
565.812	756.58
566.264	749.18
566.716	741.78
567.168	730.38
567.62	748.68
568.072	726.78
568.524	722.98
568.976	709.18
569.428	702.58
569.88	704.18
570.332	699.98
570.784	707.98
571.235	708.28
571.687	715.48
572.139	716.88
572.59	730.88
573.042	734.48
573.494	724.08
573.945	718.38
574.397	698.28
574.849	708.88
575.3	710.28
575.752	710.08
576.203	701.78
576.655	702.18
577.106	688.28
577.557	684.88
578.009	689.38
578.46	685.78
578.912	691.78
579.363	680.38
579.814	687.18
580.265	676.28
580.717	684.58
581.168	683.68
581.619	705.68
582.07	695.48
582.521	688.88
582.972	697.68
583.423	705.18
583.875	703.48
584.326	721.98
584.777	767.88
585.227	845.28
585.678	937.18
586.129	1012.28
586.58	1093.98
587.031	1170.88
587.482	1320.68
587.933	1498.38
588.384	1311.78
588.834	999.18
589.285	826.78
589.736	808.98
590.186	792.98
590.637	782.08
591.088	763.78
591.538	758.28
591.989	752.78
592.439	751.48
592.89	747.28
593.34	735.98
593.791	737.68
594.241	727.98
594.692	722.58
595.142	731.68
595.593	718.58
596.043	726.98
596.493	734.28
596.943	737.68
597.394	740.98
597.844	741.78
598.294	753.68
598.744	772.88
599.195	791.98
599.645	835.88
600.095	888.58
600.545	938.78
600.995	995.58
601.445	1045.58
601.895	1107.98
602.345	1158.68
602.795	1142.88
603.245	1090.58
603.695	1036.68
604.145	981.68
604.594	933.28
605.044	890.28
605.494	826.48
605.944	772.38
606.393	755.38
606.843	746.28
607.293	758.48
607.743	752.98
608.192	762.38
608.642	781.08
609.091	788.08
609.541	783.18
609.99	799.58
610.44	788.78
610.889	740.38
611.339	721.58
611.788	706.88
612.238	723.18
612.687	742.88
613.136	739.78
613.586	765.48
614.035	752.38
614.484	773.68
614.933	778.38
615.383	773.48
615.832	754.98
616.281	752.48
616.73	717.28
617.179	693.18
617.628	671.88
618.077	654.48
618.526	640.88
618.975	629.28
619.424	638.18
619.873	626.18
620.322	637.48
620.771	620.78
621.22	623.28
621.669	601.08
622.118	595.48
622.567	595.88
623.015	582.08
623.464	589.08
623.913	581.08
624.361	567.78
624.81	565.48
625.259	575.48
625.707	576.28
626.156	567.58
626.604	586.18
627.053	581.88
627.501	581.88
627.95	582.48
628.398	596.88
628.847	583.48
629.295	583.38
629.744	590.08
630.192	590.88
630.64	583.78
631.089	576.78
631.537	593.18
631.985	598.78
632.433	612.38
632.881	630.88
633.33	680.58
633.778	654.68
634.226	582.98
634.674	587.08
635.122	590.38
635.57	610.38
636.018	645.48
636.466	603.38
636.914	567.38
637.362	592.08
637.81	589.88
638.258	600.38
638.705	588.08
639.153	620.28
639.601	637.58
640.049	662.28
640.497	690.28
640.944	702.48
641.392	661.28
641.84	628.28
642.287	600.08
642.735	583.88
643.182	585.08
643.63	585.38
644.078	587.78
644.525	599.38
644.973	610.98
645.42	615.88
645.867	639.18
646.315	651.38
646.762	682.68
647.21	704.48
647.657	727.58
648.104	772.48
648.551	794.98
648.999	854.18
649.446	942.08
649.893	1031.68
650.34	1184.28
650.787	1434.28
651.234	1762.08
651.682	2325.68
652.129	3151.98
652.576	4585.28
653.023	6741.98
653.47	9212.08
653.917	11501.98
654.363	13274.68
654.81	14619.98
655.257	13952.08
655.704	9136.78
656.151	5402.48
656.598	3497.78
657.044	2473.28
657.491	1905.28
657.938	1518.68
658.385	1275.28
658.831	1108.68
659.278	982.18
659.724	873.28
660.171	808.68
660.618	738.28
661.064	700.48
661.511	685.78
661.957	664.28
662.404	652.38
662.85	667.98
663.296	642.78
663.743	566.98
664.189	556.28
664.635	553.68
665.082	533.88
665.528	537.28
665.974	531.48
666.42	531.98
666.867	511.88
667.313	496.48
667.759	499.48
668.205	488.68
668.651	498.48
669.097	500.98
669.543	506.48
669.989	474.48
670.435	467.08
670.881	449.38
671.327	465.18
671.773	481.58
672.219	496.58
672.665	559.88
673.11	594.88
673.556	648.18
674.002	688.38
674.448	674.98
674.893	565.18
675.339	485.08
675.785	443.08
676.23	429.98
676.676	406.78
677.122	387.28
677.567	385.68
678.013	377.88
678.458	367.88
678.904	359.58
679.349	362.58
679.794	364.38
680.24	352.08
680.685	363.18
681.131	355.78
681.576	361.38
682.021	359.78
682.466	350.98
682.912	356.08
683.357	360.98
683.802	384.38
684.247	415.48
684.692	464.78
685.137	508.78
685.583	543.98
686.028	565.88
686.473	532.78
686.918	454.08
687.363	429.18
687.807	405.78
688.252	373.98
688.697	367.38
689.142	353.18
689.587	335.18
690.032	338.98
690.477	350.18
690.921	364.58
691.366	387.78
691.811	405.68
692.255	437.38
692.7	469.18
693.145	509.98
693.589	713.38
694.034	1149.48
694.478	1574.48
694.923	1772.28
695.367	2306.28
695.812	1224.68
696.256	498.88
696.701	378.78
697.145	350.68
697.59	333.58
698.034	330.48
698.478	340.28
698.922	336.28
699.367	339.58
699.811	348.38
700.255	362.88
700.699	384.38
701.143	437.88
701.588	484.58
702.032	520.78
702.476	531.18
702.92	500.58
703.364	502.88
703.808	646.28
704.252	1055.38
704.696	1477.68
705.14	1704.88
705.584	2158.98
706.027	1081.98
706.471	535.08
706.915	412.58
707.359	366.08
707.803	329.38
708.246	321.48
708.69	321.78
709.134	323.58
709.577	313.28
710.021	321.28
710.465	311.48
710.908	307.28
711.352	305.78
711.795	322.28
712.239	359.98
712.682	391.88
713.126	426.48
713.569	471.78
714.012	374.28
714.456	331.68
714.899	302.58
715.342	286.08
715.786	266.48
716.229	260.98
716.672	263.78
717.115	250.78
717.558	256.88
718.002	258.38
718.445	266.68
718.888	290.48
719.331	300.58
719.774	315.08
720.217	308.58
720.66	290.58
721.103	277.78
721.546	256.78
721.989	252.68
722.432	239.88
722.874	243.18
723.317	240.48
723.76	245.68
724.203	267.08
724.645	324.48
725.088	452.78
725.531	582.78
725.974	656.98
726.416	554.98
726.859	312.08
727.301	250.38
727.744	245.18
728.187	236.78
728.629	244.18
729.071	249.88
729.514	267.78
729.956	275.98
730.399	282.38
730.841	292.78
731.283	281.48
731.726	269.48
732.168	259.48
732.61	268.98
733.053	286.98
733.495	311.58
733.937	357.58
734.379	400.08
734.821	446.78
735.263	547.88
735.705	846.08
736.148	1600.08
736.59	2610.68
737.032	3099.18
737.474	2509.18
737.916	825.38
738.357	441.28
738.799	331.48
739.241	300.58
739.683	290.58
740.125	299.98
740.567	299.18
741.008	314.98
741.45	322.28
741.892	318.48
742.334	353.18
742.775	367.38
743.217	350.28
743.658	269.78
744.1	253.38
744.542	266.98
744.983	312.48
745.425	351.48
745.866	346.18
746.307	285.78
746.749	290.48
747.19	325.88
747.632	459.88
748.073	889.18
748.514	1888.68
748.956	2874.08
749.397	3613.08
749.838	3001.78
750.279	3006.68
750.72	1500.48
751.162	548.88
751.603	328.58
752.044	253.08
752.485	218.58
752.926	212.28
753.367	207.08
753.808	197.98
754.249	194.28
754.69	187.68
755.131	189.38
755.572	186.78
756.013	191.08
756.453	185.38
756.894	190.28
757.335	196.48
757.776	202.58
758.216	197.38
758.657	200.88
759.098	210.68
759.538	233.88
759.979	273.38
760.42	379.28
760.86	713.78
761.301	1831.18
761.741	4469.38
762.182	6521.38
762.622	4574.68
763.063	1323.98
763.503	552.88
763.943	352.98
764.384	342.88
764.824	402.48
765.264	437.88
765.705	306.48
766.145	215.48
766.585	187.78
767.025	182.58
767.465	185.48
767.906	245.88
768.346	316.78
768.786	339.78
769.226	266.28
769.666	324.08
770.106	629.68
770.546	1579.28
770.986	2690.78
771.426	2409.48
771.866	805.38
772.306	330.68
772.745	214.38
773.185	176.78
773.625	173.88
774.065	173.28
774.505	193.98
774.944	308.78
775.384	683.48
775.824	1206.88
776.263	1178.38
776.703	509.58
777.142	216.38
777.582	158.98
778.021	139.48
778.461	144.68
778.9	139.48
779.34	132.08
779.779	121.78
780.219	117.98
780.658	113.88
781.097	116.58
781.537	120.58
781.976	115.08
782.415	110.98
782.855	106.48
783.294	107.18
783.733	112.38
784.172	111.38
784.611	104.68
785.05	112.08
785.489	113.28
785.928	121.88
786.367	125.98
786.806	120.68
787.245	135.88
787.684	140.28
788.123	145.08
788.562	138.38
789.001	126.78
789.44	124.08
789.879	119.18
790.317	124.98
790.756	127.08
791.195	132.38
791.634	149.78
792.072	203.78
792.511	369.58
792.95	1007.08
793.388	2146.18
793.827	1957.98
794.265	683.18
794.704	281.68
795.142	184.38
795.581	151.78
796.019	138.18
796.458	137.78
796.896	126.78
797.334	136.08
797.773	161.28
798.211	222.78
798.649	437.08
799.087	1037.78
799.526	1615.18
799.964	2030.08
800.402	2024.18
800.84	770.28
801.278	302.88
801.716	182.88
802.154	159.28
802.592	145.98
803.03	142.48
803.468	136.58
803.906	149.88
804.344	155.98
804.782	142.98
805.22	134.08
805.658	135.28
806.096	148.98
806.533	153.28
806.971	182.88
807.409	224.88
807.847	316.48
808.284	665.58
808.722	1876.78
809.16	3313.38
809.597	3133.08
810.035	5490.98
810.472	5843.18
810.91	2108.68
811.347	781.48
811.785	407.78
812.222	258.88
812.66	202.58
813.097	165.08
813.535	145.98
813.972	132.48
814.409	119.98
814.846	114.18
815.284	108.48
815.721	106.08
816.158	114.78
816.595	120.58
817.032	181.38
817.47	195.88
817.907	184.88
818.344	154.08
818.781	116.08
819.218	100.68
819.655	122.18
820.092	190.58
820.529	215.58
820.966	184.98
821.403	131.28
821.839	106.68
822.276	99.88
822.713	126.68
823.15	127.68
823.587	120.68
824.023	149.78
824.46	300.98
824.897	903.18
825.333	1374.78
825.77	597.08
826.206	234.38
826.643	141.38
827.08	95.78
827.516	92.78
827.953	81.48
828.389	85.98
828.825	71.38
829.262	70.08
829.698	64.58
830.135	67.28
830.571	65.08
831.007	67.68
831.443	64.88
831.88	61.38
832.316	64.58
832.752	67.38
833.188	63.48
833.624	66.68
834.06	66.48
834.497	69.68
834.933	73.78
835.369	72.68
835.805	69.08
836.241	80.28
836.677	82.78
837.112	93.18
837.548	108.28
837.984	133.68
838.42	201.38
838.856	496.58
839.292	1520.78
839.727	2320.28
840.163	1082.98
840.599	924.78
841.034	2037.08
841.47	2129.18
841.906	780.48
842.341	346.28
842.777	231.08
843.212	317.48
843.648	308.68
844.083	154.68
844.519	98.38
844.954	83.98
845.39	62.98
845.825	61.28
846.261	59.98
846.696	54.08
847.131	58.98
847.566	58.98
848.002	55.58
848.437	53.18
848.872	59.38
849.307	64.48
849.742	90.08
850.177	185.18
850.613	556.88
851.048	888.88
851.483	378.58
851.918	155.28
852.353	87.38
852.788	62.18
853.223	64.08
853.657	61.68
854.092	53.38
854.527	46.88
854.962	41.48
855.397	44.28
855.832	49.28
856.266	42.18
856.701	35.38
857.136	34.88
857.57	44.38
858.005	51.68
858.44	60.38
858.874	47.38
859.309	50.98
859.743	42.88
860.178	52.48
860.612	44.68
861.047	57.88
861.481	73.88
861.915	70.48
862.35	45.98
862.784	36.58
863.218	35.28
863.653	34.98
864.087	43.58
864.521	46.58
864.955	71.18
865.39	155.28
865.824	175.08
866.258	120.98
866.692	161.88
867.126	176.28
867.56	103.38
867.994	50.58
868.428	34.78
868.862	50.28
869.296	58.08
869.73	60.88
870.164	56.28
870.598	45.58
871.031	42.48
871.465	32.88
871.899	29.48
872.333	24.48
872.766	26.18
873.2	25.68
873.634	28.38
874.067	28.88
874.501	28.78
874.935	34.18
875.368	30.18
875.802	30.28
876.235	28.28
876.669	21.68
877.102	25.48
877.535	28.38
877.969	27.78
878.402	30.88
878.836	23.98
879.269	26.88
879.702	25.68
880.135	21.08
880.569	27.28
881.002	26.38
881.435	21.98
881.868	19.68
882.301	27.88
882.734	17.18
883.167	24.28
883.601	15.18
884.034	23.38
884.467	16.68
884.899	18.18
885.332	15.28
885.765	11.98
886.198	20.18
886.631	18.88
887.064	16.68
887.497	17.48
887.929	26.38
888.362	15.68
888.795	12.98
889.228	22.18
889.66	21.88
890.093	17.88
890.526	18.28
890.958	13.38
891.391	17.58
891.823	26.28
892.256	22.28
892.688	14.98
893.121	20.58
893.553	8.18
893.985	23.28
894.418	22.98
894.85	19.38
895.282	17.78
895.715	21.68
896.147	16.98
896.579	14.78
897.011	14.58
897.444	18.88
897.876	17.38
898.308	12.48
898.74	15.88
899.172	17.68
899.604	27.18
900.036	20.08
900.468	12.98
900.9	15.48
901.332	17.58
901.764	14.38
902.196	18.08
902.628	22.98
903.06	19.58
903.491	33.88
903.923	21.18
904.355	22.28
904.787	22.88
905.218	25.18
905.65	21.38
906.082	17.98
906.513	9.88
906.945	18.78
907.376	14.28
907.808	22.38
908.239	23.78
908.671	19.58
909.102	30.58
909.534	27.28
909.965	46.38
910.397	99.38
910.828	327.68
911.259	481.58
911.691	219.48
912.122	112.88
912.553	52.88
912.984	33.48
913.415	27.88
913.847	20.28
914.278	14.48
914.709	17.68
915.14	23.68
915.571	11.08
916.002	17.18
916.433	23.08
916.864	13.38
917.295	18.58
917.726	16.88
918.157	12.18
918.587	31.08
919.018	27.38
919.449	25.98
919.88	29.18
920.311	30.88
920.741	47.18
921.172	169.58
921.603	154.68
922.033	73.88
922.464	44.18
922.895	24.88
923.325	26.98
923.756	14.98
924.186	11.88
924.617	28.98
925.047	40.88
925.478	48.88
925.908	44.28
926.338	26.78
926.769	18.28
927.199	20.88
927.629	10.28
928.06	19.18
928.49	18.28
928.92	14.08
929.35	7.38
929.78	12.58
930.21	8.58
930.641	9.58
931.071	12.38
931.501	5.18
931.931	2.08
932.361	11.28
932.791	9.28
933.221	6.38
933.651	4.28
934.08	21.58
934.51	32.98
934.94	15.58
935.37	14.18
935.8	9.98
936.229	6.38
936.659	12.38
937.089	5.08
937.519	9.38
937.948	23.58
938.378	20.38
938.807	3.58
939.237	6.08
939.666	8.38
940.096	-9.32
940.525	1.48
940.955	1.48
941.384	7.48
941.814	-11.82
942.243	1.18
942.672	4.38
943.102	-2.52
943.531	4.18
943.96	7.58
944.39	-0.32
944.819	3.38
945.248	0.98
945.677	1.98
946.106	5.88
946.535	5.28
946.964	3.98
947.393	9.48
947.822	2.98
948.251	0.58
948.68	7.38
949.109	5.38
949.538	3.38
949.967	0.48
950.396	7.18
950.825	4.48
951.254	-0.72
951.682	-6.32
952.111	0.08
952.54	5.98
952.969	0.48
953.397	-4.52
953.826	0.18
954.254	-2.82
954.683	-1.52
955.112	-4.22
955.54	9.48
955.969	2.88
956.397	-0.02
956.826	-2.82
957.254	4.98
957.682	0.88
958.111	4.18
958.539	-0.62
958.967	4.98
959.396	-6.72
959.824	0.68
960.252	2.28
960.68	-2.22
961.109	-3.42
961.537	-9.62
961.965	-2.92
962.393	3.38
962.821	-3.02
963.249	0.28
963.677	0.68
964.105	3.58
964.533	42.58
964.961	40.58
965.389	20.18
965.817	12.48
966.245	3.68
966.672	2.28
967.1	-3.72
967.528	2.48
967.956	1.38
968.383	5.68
968.811	-1.22
969.239	-2.12
969.666	-6.22
970.094	0.08
970.522	-3.12
970.949	-0.92
971.377	-3.02
971.804	0.58
972.232	-4.82
972.659	2.38
973.087	-0.12
973.514	0.78
973.941	-3.02
974.369	4.38
974.796	3.58
975.223	1.68
975.651	5.08
976.078	4.98
976.505	-5.52
976.932	2.88
977.359	12.28
977.786	12.78
978.214	1.38
978.641	1.28
979.068	-2.72
979.495	-3.52
979.922	-4.32
980.349	-2.32
980.776	6.58
981.202	-2.22
981.629	-0.32
982.056	4.28
982.483	0.48
982.91	3.18
983.337	-7.02
983.763	6.18
984.19	-6.82
984.617	-6.62
985.043	-8.92
985.47	4.38
985.897	-7.62
986.323	-5.92
986.75	2.58
987.176	0.38
987.603	-0.22
988.029	-0.02
988.456	-0.82
988.882	3.48
989.308	-1.32
989.735	-3.02
990.161	6.98
990.587	-6.22
991.014	-0.22
991.44	7.08
991.866	-3.92
992.292	-4.72
992.719	2.98
993.145	4.88
993.571	-9.62
993.997	1.68
994.423	4.88
994.849	-1.82
995.275	1.68
995.701	-1.02
996.127	-7.92
996.553	-4.52
996.979	-1.92
997.405	2.88
997.83	-11.32
998.256	-2.92
998.682	-2.22
999.108	-12.02
999.534	0.68
999.959	-2.02
1000.385	-1.32
1000.811	3.38
1001.236	-4.52
1001.662	-8.22
1002.087	-5.12
1002.513	-0.42
1002.938	2.68
1003.364	-4.52
1003.789	1.88
1004.215	5.38
1004.64	6.58
1005.066	2.38
1005.491	4.88
1005.916	4.08
1006.342	-5.42
1006.767	-12.02
1007.192	0.48
1007.617	-4.32
1008.042	-5.72
1008.468	-3.92
1008.893	-3.42
1009.318	-6.62
1009.743	-7.82
1010.168	0.58
1010.593	0.98
1011.018	-2.62
1011.443	-0.02
1011.868	-1.62
1012.293	-0.42
1012.718	-12.22
1013.143	0.28
1013.567	6.38
1013.992	3.88
1014.417	-11.82
1014.842	8.68
1015.267	-1.22
1015.691	-0.72
1016.116	4.88
1016.541	-0.72
1016.965	-1.62
1017.39	4.28
1017.814	-1.52
1018.239	-2.62
1018.663	-2.72
1019.088	-7.02
1019.512	-0.42
1019.937	-1.02
1020.361	-2.92
1020.785	-8.92
1021.21	-4.72
1021.634	-3.82
1022.058	-2.02
1022.483	4.18
1022.907	-6.82
1023.331	-1.92
1023.755	-2.22
1024.179	0.28
1024.604	-6.52
1025.028	-4.62
1025.452	-4.62
1025.876	1.28
1026.3	2.18
1026.724	-14.32
1027.148	-3.22
1027.572	-5.32
1027.996	-1.52
1028.42	2.48
1028.843	-6.62
1029.267	-3.82
1029.691	-2.52
1030.115	-1.62
1030.539	-9.32
1030.962	-6.32
1031.386	-10.12
1031.81	1.28
1032.233	-0.72
1032.657	-1.52
1033.08	-2.02
1033.504	-6.12
1033.927	0.08
1034.351	-6.62
1034.774	-1.02
1035.198	0.68
1035.621	-6.52
1036.045	-6.62
1036.468	-0.42
1036.891	-8.72
1037.315	-11.82
1037.738	-8.02
1038.161	-2.62
1038.584	-7.12
1039.008	-5.12
1039.431	2.58
1039.854	-3.52
1040.277	-6.82
1040.7	-10.42
1041.123	-1.72
1041.546	-2.42
1041.969	-5.22
1042.392	-3.22
1042.815	-0.32
1043.238	-1.72
1043.661	3.68
1044.084	-12.22
1044.507	-2.42
1044.93	-3.62
1045.352	0.88
1045.775	1.18
1046.198	-2.82
1046.621	2.38
1047.043	-1.92
1047.466	2.88
1047.889	-7.42
1048.311	-4.92
1048.734	-2.32
1049.156	-0.72
1049.579	-2.82
1050.001	0.38
1050.424	0.58
1050.846	-4.52
1051.269	-3.32
1051.691	-1.82
1052.113	-6.52
1052.536	2.78
1052.958	-3.32
1053.38	-6.12
1053.802	-7.82
1054.225	1.08
1054.647	-6.12
1055.069	-7.52
1055.491	3.88
1055.913	-7.02
1056.335	-1.32
1056.757	-7.52
1057.179	-9.12
1057.601	-7.02
1058.023	-2.22
1058.445	-3.12
1058.867	-6.52
1059.289	-7.02
1059.711	-8.32
1060.133	-1.42
1060.555	1.88
1060.976	-8.62
1061.398	-7.32
1061.82	-5.32
1062.241	-8.72
1062.663	-8.02
1063.085	-3.42
1063.506	0.28
1063.928	-5.12
1064.35	0.78
1064.771	-14.92
1065.193	0.88
1065.614	-5.22
1066.035	2.68
1066.457	-4.22
1066.878	-3.22
1067.3	-4.82
1067.721	-2.52
1068.142	-3.42
1068.564	0.88
1068.985	-5.72
1069.406	-3.92
1069.827	-3.52
1070.248	-1.42
1070.67	-8.32
1071.091	-4.02
1071.512	-3.82
1071.933	-2.32
1072.354	-3.12
1072.775	1.38
1073.196	-4.92
1073.617	-4.12
1074.038	-3.02
1074.459	-1.42
1074.88	-4.72
1075.3	2.98
1075.721	-3.12
1076.142	-0.22
1076.563	-5.52
1076.983	-11.92
1077.404	-2.22
1077.825	-9.32
1078.246	-1.02
1078.666	-11.42
1079.087	-5.92
1079.507	-6.82
1079.928	1.58
1080.348	4.28
1080.769	-5.42
1081.189	-0.62
1081.61	1.88
1082.03	-5.62
1082.451	-2.12
1082.871	-2.62
1083.291	-8.72
1083.711	-7.02
1084.132	-4.12
1084.552	-3.42
1084.972	1.08
1085.392	-9.82
1085.813	-7.22
1086.233	-3.02
1086.653	-6.52
1087.073	-2.32
1087.493	0.68
1087.913	-3.62
1088.333	-7.62
1088.753	-4.52
1089.173	-0.52
1089.593	-3.72
1090.013	-0.22
1090.433	1.28
1090.852	-1.32
1091.272	0.68
1091.692	-1.52
1092.112	-1.52
1092.531	-7.42
1092.951	-12.32
1093.371	-2.02
1093.79	-1.72
1094.21	-3.12
1094.63	-1.92
1095.049	-6.92
1095.469	-2.62
1095.888	-8.32
1096.308	2.68
1096.727	3.78
1097.146	0.98
1097.566	2.88
1097.985	-3.42
1098.405	2.68
1098.824	-4.12
1099.243	-3.72
1099.662	-9.42
1100.082	-5.52
1100.501	-0.72
1100.92	-5.32
1101.339	-3.22
1101.758	-2.52
