Data from 20171114-ORNL-Ar_H_NY_Subt18_08-03-46-776.txt Node
Date: Tue Nov 14 08:03:46 EST 2017
User: Ender
Spectrometer: HR+D1039
Trigger mode: 0
Integration Time (sec): 2.730000E-2
Scans to average: 10
Electric dark correction enabled: true
Nonlinearity correction enabled: false
Boxcar width: 0
XAxis mode: Wavelengths
Number of Pixels in Spectrum: 2048
>>>>>Begin Spectral Data<<<<<
187.836	-4.51
188.309	-4.51
188.782	-4.51
189.255	-1.11
189.728	-4.51
190.201	7.09
190.674	-0.21
191.147	1.59
191.619	-5.31
192.092	2.89
192.565	6.69
193.038	-0.31
193.511	5.39
193.984	-3.31
194.456	-8.51
194.929	0.39
195.402	1.09
195.874	2.59
196.347	-0.91
196.82	-7.71
197.292	5.19
197.765	3.89
198.237	-6.91
198.71	3.69
199.182	-6.81
199.655	4.39
200.127	0.89
200.6	-0.31
201.072	-0.41
201.544	-4.01
202.017	-3.31
202.489	4.39
202.961	-0.01
203.433	-2.41
203.906	-3.91
204.378	-7.31
204.85	-3.41
205.322	-3.11
205.794	-5.51
206.266	-6.31
206.739	-6.31
207.211	7.59
207.683	-7.91
208.155	-3.31
208.627	-3.91
209.099	-6.61
209.57	-4.81
210.042	-4.81
210.514	-6.41
210.986	-1.01
211.458	-8.31
211.93	-1.91
212.402	3.99
212.873	-3.81
213.345	-4.71
213.817	-9.91
214.288	-0.41
214.76	-11.91
215.232	-6.41
215.703	-4.81
216.175	2.19
216.646	-8.41
217.118	-10.61
217.589	-5.31
218.061	-4.01
218.532	-2.61
219.004	0.29
219.475	-5.31
219.946	-1.31
220.418	-6.51
220.889	1.79
221.36	0.99
221.832	-5.01
222.303	-6.61
222.774	2.79
223.245	-7.21
223.717	-3.41
224.188	-7.21
224.659	-12.81
225.13	-4.71
225.601	-4.11
226.072	1.29
226.543	1.59
227.014	-0.91
227.485	-1.21
227.956	-8.31
228.427	-3.71
228.898	-1.91
229.369	5.99
229.839	-3.11
230.31	-4.71
230.781	1.39
231.252	-0.91
231.722	-2.21
232.193	-7.21
232.664	3.19
233.135	-4.01
233.605	-8.21
234.076	-9.01
234.546	0.59
235.017	4.09
235.487	-2.61
235.958	1.09
236.428	-10.51
236.899	1.09
237.369	-2.71
237.84	-3.11
238.31	2.99
238.78	2.09
239.251	-12.81
239.721	-1.61
240.191	-7.01
240.662	-0.31
241.132	-2.51
241.602	-6.11
242.072	-1.81
242.542	-0.51
243.013	-6.21
243.483	1.29
243.953	6.69
244.423	-2.01
244.893	-6.31
245.363	1.49
245.833	3.49
246.303	-6.61
246.773	1.69
247.243	-1.51
247.712	-7.01
248.182	-1.21
248.652	4.19
249.122	-6.21
249.592	-0.91
250.061	6.29
250.531	6.39
251.001	0.19
251.471	5.09
251.94	7.09
252.41	1.29
252.879	-9.21
253.349	8.59
253.818	3.29
254.288	3.99
254.757	-3.61
255.227	-0.81
255.696	-1.01
256.166	3.89
256.635	1.89
257.105	-4.91
257.574	-2.61
258.043	1.59
258.513	-6.21
258.982	-2.11
259.451	-4.71
259.92	1.39
260.389	1.89
260.859	7.39
261.328	-0.11
261.797	1.79
262.266	-3.51
262.735	9.89
263.204	1.49
263.673	-1.91
264.142	2.49
264.611	-5.11
265.08	-2.51
265.549	-3.11
266.018	1.49
266.487	0.29
266.955	-0.51
267.424	-3.71
267.893	9.09
268.362	3.49
268.83	3.89
269.299	4.39
269.768	-0.71
270.236	4.09
270.705	-2.81
271.174	4.19
271.642	0.59
272.111	2.69
272.579	0.59
273.048	0.19
273.516	0.69
273.985	3.39
274.453	4.29
274.922	7.79
275.39	7.39
275.858	-3.21
276.327	5.79
276.795	11.89
277.263	-0.01
277.731	11.89
278.2	3.19
278.668	4.99
279.136	8.09
279.604	2.09
280.072	1.09
280.54	5.79
281.008	2.49
281.477	3.99
281.945	9.39
282.413	11.29
282.881	10.09
283.348	1.29
283.816	9.89
284.284	9.89
284.752	14.89
285.22	4.19
285.688	12.69
286.156	7.89
286.623	13.59
287.091	8.89
287.559	5.69
288.026	5.89
288.494	12.19
288.962	-0.71
289.429	4.09
289.897	8.49
290.364	8.69
290.832	8.99
291.3	12.59
291.767	6.29
292.234	12.89
292.702	5.09
293.169	6.89
293.637	9.39
294.104	12.69
294.571	-1.61
295.039	-0.81
295.506	9.99
295.973	14.29
296.44	8.19
296.908	10.29
297.375	8.49
297.842	11.09
298.309	5.99
298.776	8.19
299.243	12.29
299.71	3.69
300.177	14.89
300.644	13.89
301.111	9.89
301.578	17.29
302.045	10.79
302.512	13.59
302.979	15.29
303.446	11.59
303.913	10.99
304.379	8.19
304.846	20.29
305.313	14.79
305.78	17.59
306.246	19.89
306.713	16.29
307.18	14.29
307.646	12.49
308.113	25.59
308.579	17.89
309.046	15.99
309.512	21.79
309.979	12.69
310.445	22.09
310.912	19.29
311.378	30.49
311.845	21.59
312.311	15.59
312.777	21.99
313.244	23.39
313.71	26.39
314.176	14.49
314.642	22.19
315.109	26.59
315.575	26.49
316.041	28.09
316.507	31.09
316.973	25.49
317.439	23.29
317.905	28.49
318.371	25.69
318.837	23.19
319.303	28.59
319.769	29.49
320.235	26.89
320.701	31.69
321.167	24.99
321.633	27.29
322.099	25.89
322.564	29.59
323.03	32.79
323.496	32.59
323.962	29.19
324.427	27.59
324.893	38.69
325.359	31.59
325.824	30.09
326.29	33.89
326.755	30.19
327.221	29.79
327.686	32.59
328.152	37.69
328.617	37.09
329.083	42.79
329.548	38.19
330.014	40.39
330.479	32.99
330.944	34.69
331.41	36.59
331.875	36.19
332.34	32.79
332.805	32.49
333.271	37.29
333.736	32.49
334.201	48.39
334.666	45.59
335.131	53.49
335.596	41.19
336.061	40.99
336.526	36.19
336.991	48.19
337.456	49.09
337.921	42.89
338.386	39.69
338.851	36.39
339.316	45.09
339.781	42.79
340.246	45.99
340.711	40.89
341.175	43.19
341.64	44.99
342.105	44.79
342.569	51.19
343.034	50.89
343.499	48.99
343.963	42.99
344.428	55.99
344.893	55.19
345.357	53.89
345.822	56.89
346.286	55.09
346.751	67.69
347.215	62.59
347.679	61.99
348.144	81.59
348.608	68.29
349.073	60.59
349.537	64.09
350.001	66.69
350.465	72.99
350.93	71.39
351.394	75.09
351.858	72.99
352.322	72.79
352.786	71.89
353.25	79.69
353.715	101.49
354.179	84.69
354.643	98.19
355.107	114.49
355.571	87.89
356.035	98.59
356.498	100.99
356.962	99.69
357.426	108.49
357.89	94.69
358.354	82.99
358.818	82.89
359.281	76.39
359.745	64.99
360.209	68.89
360.673	68.99
361.136	70.19
361.6	76.99
362.064	84.39
362.527	79.39
362.991	88.39
363.454	81.29
363.918	73.19
364.381	75.49
364.845	85.79
365.308	83.69
365.772	87.69
366.235	82.49
366.698	77.49
367.162	84.79
367.625	93.09
368.088	86.79
368.552	88.99
369.015	86.19
369.478	97.49
369.941	98.29
370.404	93.19
370.867	89.89
371.331	95.99
371.794	101.79
372.257	102.39
372.72	109.19
373.183	99.39
373.646	93.69
374.109	93.59
374.572	99.89
375.035	100.69
375.497	101.49
375.96	111.09
376.423	102.29
376.886	115.19
377.349	106.69
377.811	109.29
378.274	105.59
378.737	103.99
379.199	111.29
379.662	108.89
380.125	112.59
380.587	119.99
381.05	119.39
381.512	121.79
381.975	126.69
382.437	123.29
382.9	117.19
383.362	126.89
383.825	136.49
384.287	131.49
384.75	124.39
385.212	127.69
385.674	125.79
386.136	140.89
386.599	125.79
387.061	129.19
387.523	126.69
387.985	130.89
388.447	142.39
388.91	130.89
389.372	132.99
389.834	135.49
390.296	132.49
390.758	141.19
391.22	146.29
391.682	150.29
392.144	149.99
392.606	148.29
393.068	146.39
393.529	154.09
393.991	153.89
394.453	140.09
394.915	137.99
395.377	140.99
395.838	141.29
396.3	147.79
396.762	148.19
397.224	142.19
397.685	134.39
398.147	139.49
398.608	145.29
399.07	138.59
399.531	149.39
399.993	155.69
400.454	163.19
400.916	155.69
401.377	155.19
401.839	165.39
402.3	163.69
402.762	178.59
403.223	189.89
403.684	178.19
404.145	167.39
404.607	165.39
405.068	170.19
405.529	183.89
405.99	189.79
406.451	181.79
406.913	183.89
407.374	171.89
407.835	173.79
408.296	179.19
408.757	177.99
409.218	191.79
409.679	184.89
410.14	189.39
410.601	187.39
411.062	191.79
411.522	193.99
411.983	189.79
412.444	186.09
412.905	199.79
413.366	188.89
413.826	206.39
414.287	235.39
414.748	295.19
415.208	274.29
415.669	231.39
416.13	228.89
416.59	221.09
417.051	236.09
417.511	240.19
417.972	260.29
418.432	279.49
418.893	318.29
419.353	284.89
419.814	221.49
420.274	196.39
420.734	200.69
421.195	209.59
421.655	195.89
422.115	211.59
422.576	203.89
423.036	218.49
423.496	224.79
423.956	230.29
424.416	248.69
424.876	283.89
425.336	273.99
425.797	281.29
426.257	272.69
426.717	254.19
427.177	249.79
427.637	235.79
428.097	244.49
428.556	257.99
429.016	277.39
429.476	275.99
429.936	280.49
430.396	285.69
430.856	300.99
431.315	321.49
431.775	354.49
432.235	388.59
432.694	360.79
433.154	366.39
433.614	382.79
434.073	338.39
434.533	300.19
434.993	275.99
435.452	290.79
435.912	290.99
436.371	279.69
436.83	276.99
437.29	262.29
437.749	247.49
438.209	249.39
438.668	278.19
439.127	276.39
439.587	265.89
440.046	248.39
440.505	256.29
440.964	269.89
441.424	303.39
441.883	293.69
442.342	267.19
442.801	241.39
443.26	246.29
443.719	233.29
444.178	230.29
444.637	230.29
445.096	238.19
445.555	241.59
446.014	236.79
446.473	238.19
446.932	243.79
447.391	244.29
447.849	242.69
448.308	231.79
448.767	238.39
449.226	247.89
449.685	246.89
450.143	266.39
450.602	246.89
451.061	241.99
451.519	240.39
451.978	245.69
452.436	244.89
452.895	249.19
453.353	268.19
453.812	255.99
454.27	252.69
454.729	249.09
455.187	253.09
455.646	250.19
456.104	257.89
456.562	256.79
457.021	268.79
457.479	261.39
457.937	275.69
458.395	273.19
458.854	259.89
459.312	259.09
459.77	267.59
460.228	265.89
460.686	253.69
461.144	259.79
461.602	250.59
462.06	261.89
462.518	265.09
462.976	265.29
463.434	269.89
463.892	267.49
464.35	286.49
464.808	280.39
465.266	279.49
465.724	272.39
466.181	289.39
466.639	281.49
467.097	295.39
467.555	303.59
468.012	309.59
468.47	313.69
468.928	332.39
469.385	343.39
469.843	349.89
470.3	345.09
470.758	358.69
471.215	370.39
471.673	389.39
472.13	406.09
472.588	414.39
473.045	383.09
473.503	379.39
473.96	401.29
474.417	411.39
474.875	429.49
475.332	459.69
475.789	458.59
476.246	461.89
476.704	481.99
477.161	509.39
477.618	507.69
478.075	547.39
478.532	599.99
478.989	655.89
479.446	729.89
479.903	718.19
480.36	755.69
480.817	807.19
481.274	887.79
481.731	964.59
482.188	1044.89
482.645	1161.29
483.102	1251.79
483.558	1357.79
484.015	1417.09
484.472	1399.99
484.929	1358.49
485.385	1308.39
485.842	1291.49
486.299	1246.99
486.755	1187.19
487.212	1021.19
487.668	888.69
488.125	818.19
488.582	756.89
489.038	726.69
489.494	697.99
489.951	665.29
490.407	648.09
490.864	627.09
491.32	626.29
491.776	627.89
492.233	624.49
492.689	602.59
493.145	594.29
493.602	588.19
494.058	590.79
494.514	585.59
494.97	604.19
495.426	609.29
495.882	582.69
496.338	591.09
496.794	588.29
497.251	581.99
497.707	603.39
498.163	591.89
498.618	591.19
499.074	602.49
499.53	624.79
499.986	617.49
500.442	597.59
500.898	579.09
501.354	583.79
501.809	589.99
502.265	597.29
502.721	602.69
503.177	606.59
503.632	619.59
504.088	616.29
504.543	622.39
504.999	640.39
505.455	620.19
505.91	603.49
506.366	611.29
506.821	603.89
507.277	603.29
507.732	609.99
508.187	607.79
508.643	613.89
509.098	614.29
509.553	632.59
510.009	632.69
510.464	639.49
510.919	645.89
511.375	654.89
511.83	652.69
512.285	678.29
512.74	703.39
513.195	718.49
513.65	708.79
514.105	714.19
514.56	710.29
515.015	731.79
515.47	737.09
515.925	718.19
516.38	726.09
516.835	727.99
517.29	734.29
517.745	725.79
518.2	715.19
518.655	698.19
519.109	688.29
519.564	680.89
520.019	673.69
520.474	666.59
520.928	663.19
521.383	663.09
521.838	659.99
522.292	656.69
522.747	662.19
523.201	655.89
523.656	649.49
524.11	642.39
524.565	648.49
525.019	636.79
525.474	639.29
525.928	636.79
526.382	641.19
526.837	639.09
527.291	640.79
527.745	629.29
528.2	640.69
528.654	634.39
529.108	625.59
529.562	625.19
530.016	620.09
530.47	620.09
530.925	626.79
531.379	621.19
531.833	628.89
532.287	630.19
532.741	625.69
533.195	629.49
533.649	641.29
534.103	637.89
534.556	618.39
535.01	631.59
535.464	619.39
535.918	634.89
536.372	641.69
536.826	629.89
537.279	623.49
537.733	621.69
538.187	622.09
538.64	634.39
539.094	645.59
539.548	638.39
540.001	642.09
540.455	640.69
540.908	648.99
541.362	645.09
541.815	668.09
542.269	669.09
542.722	666.99
543.175	669.59
543.629	679.39
544.082	690.19
544.536	698.09
544.989	695.19
545.442	693.09
545.895	695.09
546.349	698.69
546.802	694.39
547.255	696.69
547.708	706.39
548.161	704.59
548.614	719.39
549.067	722.39
549.52	719.69
549.973	712.69
550.426	696.29
550.879	692.29
551.332	685.89
551.785	691.59
552.238	697.69
552.691	708.19
553.144	719.79
553.596	729.79
554.049	738.19
554.502	764.59
554.955	772.29
555.407	769.59
555.86	761.29
556.313	752.69
556.765	743.39
557.218	751.89
557.67	746.59
558.123	744.89
558.576	743.19
559.028	746.39
559.48	748.39
559.933	735.29
560.385	720.89
560.838	691.89
561.29	671.89
561.742	664.69
562.195	651.79
562.647	659.99
563.099	659.99
563.551	655.99
564.004	665.69
564.456	655.69
564.908	642.29
565.36	624.09
565.812	606.39
566.264	601.89
566.716	603.29
567.168	589.49
567.62	590.19
568.072	581.69
568.524	579.19
568.976	574.79
569.428	564.49
569.88	568.49
570.332	576.49
570.784	576.59
571.235	571.69
571.687	573.89
572.139	578.59
572.59	583.09
573.042	587.59
573.494	581.59
573.945	577.29
574.397	562.29
574.849	569.59
575.3	572.09
575.752	556.09
576.203	556.09
576.655	557.59
577.106	544.29
577.557	538.89
578.009	548.59
578.46	547.69
578.912	540.49
579.363	543.29
579.814	544.59
580.265	538.69
580.717	541.69
581.168	545.29
581.619	549.79
582.07	556.39
582.521	542.59
582.972	541.59
583.423	546.39
583.875	534.49
584.326	545.89
584.777	563.49
585.227	575.39
585.678	596.19
586.129	624.39
586.58	644.59
587.031	667.49
587.482	709.89
587.933	746.59
588.384	711.49
588.834	659.19
589.285	632.29
589.736	628.39
590.186	618.39
590.637	612.39
591.088	602.89
591.538	586.89
591.989	587.79
592.439	582.89
592.89	570.19
593.34	557.79
593.791	550.69
594.241	549.09
594.692	546.59
595.142	546.49
595.593	538.89
596.043	552.19
596.493	554.19
596.943	554.29
597.394	566.19
597.844	566.29
598.294	570.29
598.744	581.39
599.195	607.89
599.645	647.29
600.095	676.09
600.545	712.59
600.995	741.79
601.445	790.99
601.895	845.89
602.345	877.09
602.795	874.39
603.245	825.69
603.695	785.59
604.145	748.39
604.594	719.09
605.044	663.59
605.494	629.29
605.944	610.19
606.393	578.29
606.843	553.39
607.293	562.79
607.743	549.39
608.192	566.29
608.642	576.59
609.091	580.89
609.541	574.69
609.99	586.49
610.44	576.29
610.889	548.19
611.339	527.19
611.788	518.09
612.238	536.09
612.687	542.49
613.136	534.29
613.586	543.19
614.035	540.49
614.484	544.49
614.933	535.79
615.383	538.29
615.832	537.69
616.281	533.09
616.73	510.59
617.179	507.09
617.628	493.29
618.077	478.29
618.526	475.19
618.975	468.79
619.424	478.39
619.873	455.89
620.322	469.69
620.771	455.89
621.22	454.39
621.669	447.09
622.118	445.59
622.567	440.39
623.015	422.89
623.464	427.29
623.913	422.09
624.361	421.09
624.81	411.09
625.259	417.59
625.707	413.19
626.156	414.19
626.604	429.59
627.053	418.79
627.501	419.09
627.95	424.19
628.398	435.89
628.847	429.99
629.295	423.79
629.744	433.09
630.192	423.89
630.64	414.89
631.089	406.69
631.537	406.99
631.985	385.99
632.433	392.79
632.881	386.59
633.33	395.09
633.778	384.59
634.226	387.09
634.674	404.89
635.122	398.89
635.57	401.29
636.018	413.49
636.466	414.49
636.914	403.69
637.362	413.79
637.81	419.49
638.258	427.99
638.705	431.09
639.153	442.29
639.601	454.69
640.049	468.09
640.497	499.69
640.944	517.89
641.392	476.99
641.84	454.69
642.287	427.99
642.735	414.49
643.182	416.69
643.63	418.59
644.078	411.69
644.525	416.99
644.973	436.69
645.42	437.79
645.867	453.49
646.315	466.09
646.762	476.69
647.21	487.29
647.657	515.59
648.104	534.19
648.551	534.09
648.999	594.49
649.446	635.89
649.893	690.59
650.34	774.99
650.787	908.39
651.234	1122.79
651.682	1432.89
652.129	1921.79
652.576	2733.69
653.023	3972.09
653.47	5529.49
653.917	6975.89
654.363	8179.09
654.81	9294.29
655.257	8801.09
655.704	5848.69
656.151	3443.89
656.598	2267.79
657.044	1620.89
657.491	1254.79
657.938	1012.69
658.385	855.19
658.831	747.29
659.278	673.29
659.724	592.09
660.171	545.79
660.618	503.99
661.064	478.79
661.511	458.79
661.957	437.99
662.404	434.59
662.85	445.39
663.296	429.39
663.743	392.59
664.189	381.69
664.635	391.99
665.082	373.19
665.528	372.79
665.974	364.79
666.42	365.49
666.867	366.49
667.313	340.39
667.759	335.59
668.205	318.59
668.651	332.49
669.097	326.29
669.543	311.09
669.989	316.49
670.435	321.89
670.881	315.09
671.327	318.19
671.773	334.29
672.219	357.39
672.665	392.99
673.11	420.89
673.556	458.09
674.002	493.49
674.448	474.39
674.893	402.49
675.339	349.19
675.785	324.09
676.23	299.79
676.676	286.49
677.122	281.49
677.567	269.99
678.013	255.89
678.458	251.79
678.904	264.09
679.349	244.49
679.794	258.69
680.24	255.59
680.685	251.59
681.131	247.89
681.576	249.89
682.021	252.99
682.466	245.59
682.912	238.99
683.357	249.09
683.802	266.79
684.247	286.29
684.692	318.49
685.137	353.29
685.583	384.29
686.028	411.69
686.473	373.69
686.918	323.79
687.363	296.79
687.807	282.69
688.252	254.79
688.697	257.99
689.142	239.99
689.587	237.09
690.032	227.79
690.477	242.69
690.921	248.99
691.366	267.69
691.811	283.79
692.255	304.09
692.7	329.79
693.145	350.19
693.589	473.59
694.034	774.79
694.478	1085.39
694.923	1271.89
695.367	1700.59
695.812	885.79
696.256	361.49
696.701	261.59
697.145	245.89
697.59	234.79
698.034	228.89
698.478	238.59
698.922	223.49
699.367	229.09
699.811	235.49
700.255	247.69
700.699	267.99
701.143	295.59
701.588	336.99
702.032	370.09
702.476	360.89
702.92	355.39
703.364	352.49
703.808	437.39
704.252	714.49
704.696	1014.29
705.14	1227.39
705.584	1590.59
706.027	781.89
706.471	372.09
706.915	283.59
707.359	256.59
707.803	226.19
708.246	220.89
708.69	225.29
709.134	225.19
709.577	217.69
710.021	223.79
710.465	215.59
710.908	210.19
711.352	208.69
711.795	220.29
712.239	249.79
712.682	268.29
713.126	289.59
713.569	326.09
714.012	257.39
714.456	216.69
714.899	208.29
715.342	197.89
715.786	183.39
716.229	180.49
716.672	174.69
717.115	175.99
717.558	177.59
718.002	177.29
718.445	186.09
718.888	198.79
719.331	207.69
719.774	216.89
720.217	217.89
720.66	205.79
721.103	188.09
721.546	179.09
721.989	178.99
722.432	160.99
722.874	165.29
723.317	163.79
723.76	165.39
724.203	184.09
724.645	217.79
725.088	294.69
725.531	388.59
725.974	463.89
726.416	398.89
726.859	212.39
727.301	171.99
727.744	171.79
728.187	162.19
728.629	167.09
729.071	174.29
729.514	179.89
729.956	193.09
730.399	198.89
730.841	203.39
731.283	197.89
731.726	188.19
732.168	181.69
732.61	185.49
733.053	198.69
733.495	211.39
733.937	248.39
734.379	277.39
734.821	306.39
735.263	372.99
735.705	565.09
736.148	1060.79
736.59	1816.19
737.032	2274.49
737.474	1863.09
737.916	598.79
738.357	304.49
738.799	230.39
739.241	211.29
739.683	200.19
740.125	209.89
740.567	210.89
741.008	232.79
741.45	227.29
741.892	227.79
742.334	252.49
742.775	270.19
743.217	258.49
743.658	198.29
744.1	186.89
744.542	186.99
744.983	228.69
745.425	262.39
745.866	258.19
746.307	197.89
746.749	196.39
747.19	223.89
747.632	309.19
748.073	580.29
748.514	1268.09
748.956	2043.39
749.397	2552.19
749.838	2137.69
750.279	2213.19
750.72	1107.89
751.162	403.29
751.603	226.29
752.044	184.99
752.485	151.99
752.926	148.69
753.367	140.99
753.808	138.19
754.249	135.49
754.69	133.69
755.131	127.69
755.572	128.69
756.013	124.99
756.453	124.19
756.894	137.19
757.335	128.49
757.776	134.79
758.216	134.79
758.657	144.19
759.098	142.39
759.538	153.99
759.979	175.79
760.42	252.89
760.86	476.19
761.301	1232.39
761.741	3123.79
762.182	4934.99
762.622	3515.89
763.063	988.89
763.503	385.39
763.943	241.09
764.384	194.09
764.824	200.89
765.264	189.79
765.705	157.29
766.145	125.89
766.585	121.49
767.025	117.19
767.465	110.49
767.906	127.19
768.346	157.59
768.786	167.79
769.226	153.69
769.666	210.09
770.106	405.79
770.546	1051.39
770.986	1938.09
771.426	1780.39
771.866	572.39
772.306	234.09
772.745	144.89
773.185	114.69
773.625	114.19
774.065	107.69
774.505	114.69
774.944	142.89
775.384	260.89
775.824	466.79
776.263	477.29
776.703	217.79
777.142	110.09
777.582	97.09
778.021	87.69
778.461	84.39
778.9	87.99
779.34	85.99
779.779	78.79
780.219	74.79
780.658	67.79
781.097	79.89
781.537	83.19
781.976	72.79
782.415	72.59
782.855	73.69
783.294	68.99
783.733	69.99
784.172	79.29
784.611	65.49
785.05	73.29
785.489	83.19
785.928	76.39
786.367	86.69
786.806	77.99
787.245	93.09
787.684	92.69
788.123	104.19
788.562	92.79
789.001	89.69
789.44	88.49
789.879	80.59
790.317	80.59
790.756	90.49
791.195	90.29
791.634	101.99
792.072	137.79
792.511	237.49
792.95	669.59
793.388	1540.59
793.827	1456.39
794.265	486.69
794.704	199.39
795.142	126.09
795.581	116.29
796.019	99.79
796.458	89.59
796.896	83.59
797.334	95.29
797.773	105.29
798.211	156.89
798.649	295.29
799.087	703.79
799.526	1143.39
799.964	1448.39
800.402	1531.29
800.84	559.69
801.278	214.29
801.716	128.99
802.154	115.49
802.592	107.09
803.03	104.89
803.468	93.89
803.906	105.09
804.344	104.29
804.782	94.69
805.22	95.39
805.658	92.09
806.096	106.39
806.533	109.69
806.971	119.39
807.409	144.99
807.847	222.19
808.284	453.79
808.722	1300.39
809.16	2451.49
809.597	2244.19
810.035	4006.09
810.472	4592.99
810.91	1624.39
811.347	590.79
811.785	300.99
812.222	190.09
812.66	147.09
813.097	114.29
813.535	98.89
813.972	95.19
814.409	83.89
814.846	77.19
815.284	78.69
815.721	78.29
816.158	80.69
816.595	77.49
817.032	119.19
817.47	144.49
817.907	106.99
818.344	79.39
818.781	69.39
819.218	65.19
819.655	83.59
820.092	143.69
820.529	171.79
820.966	132.89
821.403	96.39
821.839	73.09
822.276	72.09
822.713	92.89
823.15	107.09
823.587	88.49
824.023	99.39
824.46	198.29
824.897	617.19
825.333	1026.29
825.77	440.99
826.206	169.19
826.643	100.89
827.08	68.49
827.516	53.29
827.953	53.49
828.389	54.99
828.825	50.39
829.262	49.69
829.698	37.69
830.135	40.79
830.571	43.39
831.007	38.59
831.443	49.49
831.88	46.69
832.316	41.19
832.752	37.89
833.188	43.39
833.624	44.09
834.06	44.69
834.497	47.99
834.933	52.99
835.369	55.69
835.805	48.69
836.241	48.99
836.677	50.79
837.112	66.19
837.548	73.49
837.984	94.69
838.42	131.19
838.856	333.69
839.292	1090.99
839.727	1781.89
840.163	819.49
840.599	645.69
841.034	1491.39
841.47	1662.09
841.906	586.19
842.341	239.59
842.777	144.09
843.212	149.69
843.648	147.49
844.083	80.59
844.519	60.29
844.954	50.09
845.39	36.69
845.825	42.69
846.261	42.59
846.696	34.59
847.131	35.39
847.566	40.09
848.002	31.89
848.437	33.09
848.872	37.49
849.307	42.39
849.742	61.09
850.177	125.09
850.613	388.69
851.048	661.29
851.483	277.99
851.918	113.69
852.353	54.79
852.788	42.19
853.223	32.49
853.657	38.09
854.092	29.59
854.527	24.49
854.962	26.19
855.397	31.39
855.832	40.89
856.266	33.89
856.701	26.89
857.136	24.89
857.57	29.59
858.005	33.39
858.44	45.89
858.874	35.49
859.309	36.49
859.743	26.09
860.178	40.69
860.612	31.19
861.047	35.39
861.481	52.89
861.915	56.39
862.35	37.49
862.784	28.19
863.218	29.19
863.653	21.59
864.087	32.19
864.521	42.69
864.955	36.29
865.39	107.29
865.824	127.19
866.258	90.99
866.692	134.19
867.126	156.59
867.56	87.69
867.994	40.79
868.428	27.99
868.862	38.09
869.296	41.49
869.73	47.99
870.164	41.79
870.598	41.09
871.031	24.89
871.465	24.39
871.899	23.49
872.333	13.09
872.766	18.49
873.2	18.89
873.634	19.89
874.067	14.29
874.501	17.19
874.935	24.39
875.368	25.09
875.802	17.99
876.235	19.69
876.669	17.59
877.102	15.29
877.535	18.49
877.969	14.29
878.402	19.09
878.836	13.89
879.269	19.49
879.702	20.09
880.135	15.29
880.569	14.49
881.002	22.69
881.435	11.79
881.868	17.89
882.301	19.39
882.734	10.59
883.167	22.79
883.601	13.59
884.034	17.49
884.467	2.89
884.899	16.49
885.332	9.89
885.765	7.99
886.198	7.69
886.631	13.09
887.064	18.29
887.497	17.49
887.929	14.39
888.362	6.19
888.795	1.59
889.228	8.59
889.66	22.09
890.093	11.89
890.526	12.09
890.958	18.19
891.391	9.49
891.823	17.09
892.256	7.69
892.688	5.19
893.121	7.49
893.553	12.19
893.985	19.59
894.418	13.69
894.85	7.59
895.282	10.09
895.715	14.19
896.147	14.29
896.579	12.29
897.011	9.79
897.444	15.69
897.876	11.19
898.308	10.49
898.74	18.99
899.172	4.09
899.604	19.39
900.036	9.39
900.468	11.59
900.9	11.39
901.332	17.09
901.764	7.69
902.196	12.39
902.628	8.89
903.06	5.49
903.491	26.69
903.923	14.09
904.355	18.49
904.787	11.99
905.218	11.89
905.65	11.89
906.082	11.39
906.513	6.29
906.945	13.09
907.376	4.19
907.808	11.59
908.239	18.39
908.671	13.19
909.102	15.69
909.534	12.79
909.965	31.49
910.397	69.09
910.828	230.39
911.259	366.09
911.691	171.19
912.122	80.49
912.553	31.89
912.984	22.99
913.415	23.29
913.847	19.19
914.278	9.39
914.709	8.59
915.14	12.49
915.571	10.39
916.002	9.99
916.433	12.29
916.864	14.79
917.295	6.39
917.726	13.89
918.157	10.39
918.587	21.99
919.018	15.69
919.449	17.29
919.88	16.89
920.311	22.19
920.741	30.89
921.172	117.89
921.603	110.09
922.033	48.19
922.464	33.39
922.895	15.59
923.325	16.79
923.756	11.89
924.186	7.29
924.617	15.69
925.047	10.49
925.478	16.29
925.908	15.99
926.338	15.19
926.769	9.59
927.199	15.09
927.629	2.99
928.06	11.19
928.49	11.39
928.92	11.59
929.35	8.69
929.78	10.29
930.21	7.09
930.641	0.79
931.071	11.39
931.501	-0.81
931.931	6.89
932.361	5.99
932.791	4.99
933.221	2.39
933.651	4.39
934.08	18.19
934.51	26.49
934.94	4.09
935.37	9.59
935.8	5.09
936.229	1.69
936.659	6.49
937.089	-1.61
937.519	8.99
937.948	19.19
938.378	18.69
938.807	4.99
939.237	0.49
939.666	7.79
940.096	-3.81
940.525	1.09
940.955	0.89
941.384	5.09
941.814	-6.91
942.243	-0.21
942.672	2.19
943.102	1.79
943.531	1.99
943.96	10.19
944.39	4.89
944.819	-0.61
945.248	3.59
945.677	0.39
946.106	3.79
946.535	4.89
946.964	-2.81
947.393	1.29
947.822	0.39
948.251	-5.31
948.68	1.89
949.109	5.49
949.538	1.29
949.967	3.09
950.396	-1.91
950.825	1.39
951.254	2.89
951.682	-5.61
952.111	0.49
952.54	6.29
952.969	-4.91
953.397	-2.01
953.826	0.99
954.254	-7.01
954.683	-7.11
955.112	-1.71
955.54	-1.61
955.969	-1.31
956.397	-2.71
956.826	-9.71
957.254	4.19
957.682	2.19
958.111	8.09
958.539	-1.01
958.967	5.39
959.396	-2.31
959.824	2.69
960.252	2.89
960.68	-7.81
961.109	-5.31
961.537	-1.51
961.965	-2.71
962.393	1.99
962.821	-5.91
963.249	-2.01
963.677	0.99
964.105	7.89
964.533	31.19
964.961	31.19
965.389	16.79
965.817	6.79
966.245	2.19
966.672	-3.91
967.1	-7.51
967.528	-2.01
967.956	-1.11
968.383	-2.91
968.811	2.09
969.239	2.39
969.666	-1.51
970.094	-3.91
970.522	4.09
970.949	0.19
971.377	-0.01
971.804	-8.21
972.232	-1.81
972.659	3.99
973.087	-2.11
973.514	0.69
973.941	-9.31
974.369	2.29
974.796	-2.11
975.223	4.99
975.651	-1.51
976.078	-1.51
976.505	0.59
976.932	6.29
977.359	6.09
977.786	11.19
978.214	1.09
978.641	-5.81
979.068	-5.31
979.495	-7.91
979.922	1.39
980.349	-8.51
980.776	-0.81
981.202	-2.91
981.629	3.79
982.056	7.29
982.483	-2.51
982.91	1.09
983.337	-2.61
983.763	0.49
984.19	-3.91
984.617	-5.11
985.043	-1.11
985.47	4.59
985.897	-0.81
986.323	-1.91
986.75	5.09
987.176	-4.31
987.603	2.79
988.029	-2.71
988.456	-6.31
988.882	-1.01
989.308	-6.81
989.735	-4.31
990.161	0.79
990.587	-2.41
991.014	0.19
991.44	7.99
991.866	-3.61
992.292	-5.71
992.719	0.39
993.145	4.59
993.571	-3.71
993.997	-4.31
994.423	-1.21
994.849	-0.11
995.275	6.39
995.701	3.39
996.127	-1.61
996.553	0.49
996.979	-1.31
997.405	-1.71
997.83	-3.81
998.256	-7.81
998.682	-4.21
999.108	-10.11
999.534	-5.91
999.959	-4.91
1000.385	-4.61
1000.811	-0.41
1001.236	-7.51
1001.662	-7.91
1002.087	-9.61
1002.513	2.29
1002.938	0.89
1003.364	-1.31
1003.789	3.09
1004.215	4.59
1004.64	-2.31
1005.066	6.49
1005.491	2.99
1005.916	-1.41
1006.342	-3.31
1006.767	-10.11
1007.192	3.79
1007.617	-3.71
1008.042	-1.91
1008.468	-1.81
1008.893	1.59
1009.318	-1.11
1009.743	-2.11
1010.168	1.29
1010.593	8.49
1011.018	-2.81
1011.443	-2.91
1011.868	0.39
1012.293	-3.11
1012.718	-4.41
1013.143	1.39
1013.567	0.99
1013.992	1.49
1014.417	-9.91
1014.842	8.79
1015.267	-9.81
1015.691	-1.21
1016.116	3.29
1016.541	-3.81
1016.965	1.59
1017.39	3.99
1017.814	1.69
1018.239	-2.91
1018.663	-8.41
1019.088	-5.21
1019.512	-4.81
1019.937	-10.01
1020.361	-6.11
1020.785	-10.91
1021.21	-0.11
1021.634	-5.51
1022.058	0.09
1022.483	0.59
1022.907	-1.51
1023.331	-3.61
1023.755	-2.71
1024.179	-1.41
1024.604	-5.71
1025.028	-3.01
1025.452	-5.81
1025.876	-2.51
1026.3	-2.61
1026.724	-13.01
1027.148	-9.51
1027.572	-7.71
1027.996	3.49
1028.42	-1.71
1028.843	-6.31
1029.267	-3.61
1029.691	-4.11
1030.115	-3.21
1030.539	-8.51
1030.962	-1.81
1031.386	-4.61
1031.81	-1.91
1032.233	-2.71
1032.657	-2.11
1033.08	0.79
1033.504	2.09
1033.927	-2.71
1034.351	1.69
1034.774	-5.41
1035.198	-3.71
1035.621	-5.41
1036.045	-9.51
1036.468	0.69
1036.891	-10.71
1037.315	-9.81
1037.738	-7.31
1038.161	-3.11
1038.584	-2.91
1039.008	1.49
1039.431	-4.41
1039.854	-1.31
1040.277	-9.31
1040.7	-9.91
1041.123	4.09
1041.546	-9.91
1041.969	-2.71
1042.392	-8.01
1042.815	-1.41
1043.238	2.59
1043.661	-1.41
1044.084	-2.41
1044.507	-5.81
1044.93	-8.81
1045.352	-7.21
1045.775	1.39
1046.198	-2.01
1046.621	5.69
1047.043	-6.41
1047.466	5.29
1047.889	-1.81
1048.311	-4.91
1048.734	-2.41
1049.156	-1.71
1049.579	0.99
1050.001	-6.21
1050.424	-0.91
1050.846	-2.01
1051.269	-5.71
1051.691	-12.51
1052.113	-7.01
1052.536	1.39
1052.958	7.99
1053.38	-0.81
1053.802	-9.41
1054.225	0.99
1054.647	-9.21
1055.069	-2.01
1055.491	0.39
1055.913	-8.01
1056.335	-0.81
1056.757	-0.81
1057.179	-2.21
1057.601	-4.21
1058.023	-1.41
1058.445	-5.21
1058.867	-5.61
1059.289	-0.71
1059.711	-10.61
1060.133	-1.71
1060.555	-11.01
1060.976	-5.71
1061.398	-5.61
1061.82	-6.11
1062.241	-7.51
1062.663	-5.21
1063.085	-2.51
1063.506	2.39
1063.928	-0.01
1064.35	1.29
1064.771	-7.71
1065.193	-2.41
1065.614	-10.31
1066.035	-2.11
1066.457	-1.71
1066.878	0.29
1067.3	-4.81
1067.721	-5.91
1068.142	-9.71
1068.564	-6.51
1068.985	-6.61
1069.406	0.69
1069.827	-5.01
1070.248	-0.61
1070.67	-8.21
1071.091	-4.71
1071.512	-3.91
1071.933	-3.21
1072.354	-6.21
1072.775	-6.01
1073.196	-4.41
1073.617	1.59
1074.038	-9.81
1074.459	-1.41
1074.88	-3.51
1075.3	2.79
1075.721	-4.01
1076.142	4.79
1076.563	-2.71
1076.983	-12.21
1077.404	-14.11
1077.825	-8.21
1078.246	-3.51
1078.666	-11.41
1079.087	-9.81
1079.507	-9.11
1079.928	2.79
1080.348	-2.31
1080.769	-1.51
1081.189	2.69
1081.61	-1.51
1082.03	-4.71
1082.451	-0.41
1082.871	-1.91
1083.291	-2.01
1083.711	-5.91
1084.132	-6.71
1084.552	0.79
1084.972	-1.71
1085.392	-10.01
1085.813	-4.51
1086.233	-7.91
1086.653	-3.91
1087.073	-4.41
1087.493	-7.81
1087.913	-10.01
1088.333	-6.61
1088.753	-7.51
1089.173	-0.71
1089.593	-1.81
1090.013	2.39
1090.433	1.79
1090.852	-3.81
1091.272	-3.71
1091.692	-0.31
1092.112	-5.51
1092.531	-14.81
1092.951	-14.11
1093.371	-1.61
1093.79	-2.31
1094.21	-5.61
1094.63	-5.11
1095.049	-5.61
1095.469	0.99
1095.888	-0.81
1096.308	2.39
1096.727	7.59
1097.146	-6.91
1097.566	-0.31
1097.985	-7.01
1098.405	-3.11
1098.824	-5.21
1099.243	-4.11
1099.662	-4.01
1100.082	-2.41
1100.501	-0.41
1100.92	-4.71
1101.339	-7.41
1101.758	-2.61
