Data from 20171114-ORNL-Ar_H_NY_Subt18_08-03-35-857.txt Node
Date: Tue Nov 14 08:03:35 EST 2017
User: Ender
Spectrometer: HR+D1039
Trigger mode: 0
Integration Time (sec): 2.730000E-2
Scans to average: 10
Electric dark correction enabled: true
Nonlinearity correction enabled: false
Boxcar width: 0
XAxis mode: Wavelengths
Number of Pixels in Spectrum: 2048
>>>>>Begin Spectral Data<<<<<
187.836	-6.22
188.309	-6.22
188.782	-6.22
189.255	-0.12
189.728	-5.72
190.201	3.48
190.674	-0.22
191.147	1.98
191.619	-4.92
192.092	2.58
192.565	5.28
193.038	-0.12
193.511	0.28
193.984	6.38
194.456	4.38
194.929	-1.82
195.402	-2.82
195.874	-2.42
196.347	-0.72
196.82	-4.72
197.292	5.38
197.765	3.68
198.237	-5.32
198.71	5.98
199.182	0.78
199.655	3.88
200.127	2.98
200.6	-2.62
201.072	-4.32
201.544	-6.02
202.017	-4.02
202.489	0.38
202.961	-6.82
203.433	-3.42
203.906	-3.22
204.378	-10.22
204.85	-5.22
205.322	-11.02
205.794	-5.72
206.266	-6.62
206.739	-12.82
207.211	3.38
207.683	-6.62
208.155	-6.42
208.627	-7.52
209.099	-3.92
209.57	-13.52
210.042	-9.02
210.514	-3.02
210.986	-2.02
211.458	-10.42
211.93	1.78
212.402	-0.02
212.873	-8.32
213.345	-9.62
213.817	-14.22
214.288	-4.42
214.76	-14.32
215.232	-3.32
215.703	-2.12
216.175	-5.52
216.646	-5.82
217.118	-1.72
217.589	-4.52
218.061	-4.62
218.532	-5.02
219.004	-1.32
219.475	-3.92
219.946	-1.22
220.418	-0.22
220.889	0.68
221.36	-0.42
221.832	5.18
222.303	-6.52
222.774	3.68
223.245	-8.42
223.717	-6.22
224.188	-10.32
224.659	-5.12
225.13	-7.32
225.601	0.48
226.072	3.08
226.543	-4.62
227.014	-6.22
227.485	-4.92
227.956	-10.12
228.427	0.78
228.898	-1.42
229.369	1.28
229.839	-5.92
230.31	-3.72
230.781	-4.32
231.252	-4.52
231.722	-6.12
232.193	-6.52
232.664	-3.12
233.135	-5.82
233.605	-3.92
234.076	-6.02
234.546	-0.12
235.017	1.58
235.487	1.18
235.958	-6.22
236.428	-4.42
236.899	-2.12
237.369	-6.52
237.84	-7.92
238.31	0.68
238.78	-4.62
239.251	-8.12
239.721	-4.92
240.191	-10.22
240.662	-1.42
241.132	-4.82
241.602	-6.32
242.072	2.68
242.542	1.38
243.013	-0.72
243.483	0.38
243.953	1.98
244.423	-3.42
244.893	-9.32
245.363	-1.92
245.833	4.38
246.303	-6.32
246.773	-6.02
247.243	-5.12
247.712	0.78
248.182	1.68
248.652	-3.12
249.122	-12.52
249.592	-3.02
250.061	0.38
250.531	3.98
251.001	-2.62
251.471	1.08
251.94	8.38
252.41	-3.22
252.879	-7.72
253.349	1.08
253.818	0.38
254.288	-0.42
254.757	-0.82
255.227	-8.82
255.696	-3.12
256.166	-1.12
256.635	-0.62
257.105	-1.12
257.574	-5.02
258.043	-6.02
258.513	-10.22
258.982	-2.02
259.451	-6.92
259.92	-2.42
260.389	-7.22
260.859	4.88
261.328	-4.82
261.797	-1.02
262.266	-2.32
262.735	5.18
263.204	-1.82
263.673	-2.32
264.142	0.28
264.611	-10.72
265.08	-9.32
265.549	-4.62
266.018	-3.12
266.487	-8.72
266.955	-8.82
267.424	-2.62
267.893	-3.42
268.362	-3.92
268.83	-7.02
269.299	5.08
269.768	-1.22
270.236	0.38
270.705	-9.92
271.174	-1.42
271.642	7.18
272.111	-3.52
272.579	3.88
273.048	0.48
273.516	-8.72
273.985	-3.62
274.453	-1.62
274.922	5.08
275.39	0.48
275.858	-10.72
276.327	4.28
276.795	4.58
277.263	-9.82
277.731	3.48
278.2	-5.72
278.668	-4.62
279.136	-4.32
279.604	-3.12
280.072	-6.22
280.54	2.58
281.008	0.58
281.477	6.08
281.945	0.08
282.413	0.68
282.881	6.88
283.348	-5.12
283.816	-1.72
284.284	2.48
284.752	8.68
285.22	0.58
285.688	2.58
286.156	5.58
286.623	9.48
287.091	0.78
287.559	1.78
288.026	-0.12
288.494	2.58
288.962	-7.62
289.429	3.48
289.897	7.68
290.364	3.28
290.832	-0.92
291.3	-0.12
291.767	2.68
292.234	1.88
292.702	-4.02
293.169	0.98
293.637	3.28
294.104	3.98
294.571	-8.32
295.039	-10.32
295.506	2.08
295.973	5.48
296.44	0.18
296.908	1.98
297.375	1.58
297.842	0.98
298.309	-2.22
298.776	-3.12
299.243	4.28
299.71	-3.32
300.177	4.38
300.644	2.68
301.111	7.18
301.578	9.48
302.045	1.98
302.512	5.08
302.979	11.28
303.446	1.68
303.913	0.48
304.379	1.68
304.846	12.88
305.313	8.98
305.78	5.98
306.246	-0.02
306.713	10.88
307.18	4.78
307.646	2.48
308.113	7.18
308.579	6.48
309.046	4.28
309.512	11.08
309.979	-2.22
310.445	8.28
310.912	6.28
311.378	13.98
311.845	9.08
312.311	9.38
312.777	13.38
313.244	7.98
313.71	20.98
314.176	8.68
314.642	6.68
315.109	4.98
315.575	10.98
316.041	13.98
316.507	1.28
316.973	8.08
317.439	6.68
317.905	17.58
318.371	11.48
318.837	8.98
319.303	9.68
319.769	7.78
320.235	9.28
320.701	14.08
321.167	12.38
321.633	6.48
322.099	11.28
322.564	9.58
323.03	15.28
323.496	7.98
323.962	14.28
324.427	10.08
324.893	18.08
325.359	10.98
325.824	12.08
326.29	13.48
326.755	16.88
327.221	12.58
327.686	9.68
328.152	20.38
328.617	11.98
329.083	18.58
329.548	21.28
330.014	16.28
330.479	10.68
330.944	12.48
331.41	13.58
331.875	14.98
332.34	15.18
332.805	15.48
333.271	18.48
333.736	11.48
334.201	20.28
334.666	24.68
335.131	27.28
335.596	21.58
336.061	12.98
336.526	10.68
336.991	13.68
337.456	25.88
337.921	14.38
338.386	11.58
338.851	17.28
339.316	21.48
339.781	21.48
340.246	25.78
340.711	16.48
341.175	29.08
341.64	12.18
342.105	21.58
342.569	26.38
343.034	29.88
343.499	20.18
343.963	19.98
344.428	35.08
344.893	27.08
345.357	20.38
345.822	25.28
346.286	25.08
346.751	24.58
347.215	31.48
347.679	25.48
348.144	41.98
348.608	38.38
349.073	22.68
349.537	28.58
350.001	25.98
350.465	31.68
350.93	34.28
351.394	38.58
351.858	26.48
352.322	38.58
352.786	33.58
353.25	39.08
353.715	50.18
354.179	42.08
354.643	49.48
355.107	47.58
355.571	41.88
356.035	32.98
356.498	52.38
356.962	42.58
357.426	55.08
357.89	49.88
358.354	43.68
358.818	39.18
359.281	39.98
359.745	34.78
360.209	31.88
360.673	23.68
361.136	35.58
361.6	39.78
362.064	38.88
362.527	38.88
362.991	42.68
363.454	35.78
363.918	36.18
364.381	34.58
364.845	39.18
365.308	36.78
365.772	39.88
366.235	38.58
366.698	40.68
367.162	39.98
367.625	31.88
368.088	40.28
368.552	41.78
369.015	34.58
369.478	45.48
369.941	50.58
370.404	41.98
370.867	46.18
371.331	48.48
371.794	50.18
372.257	37.38
372.72	57.68
373.183	51.48
373.646	44.98
374.109	38.68
374.572	50.08
375.035	39.38
375.497	54.38
375.96	52.78
376.423	45.58
376.886	53.08
377.349	51.08
377.811	52.68
378.274	52.08
378.737	51.18
379.199	50.28
379.662	51.78
380.125	52.68
380.587	52.38
381.05	50.58
381.512	51.98
381.975	60.58
382.437	51.78
382.9	53.28
383.362	53.68
383.825	67.08
384.287	57.08
384.75	57.18
385.212	62.28
385.674	70.28
386.136	65.38
386.599	57.88
387.061	57.78
387.523	60.58
387.985	67.28
388.447	70.58
388.91	58.88
389.372	66.38
389.834	67.48
390.296	63.38
390.758	67.98
391.22	73.78
391.682	73.58
392.144	76.58
392.606	76.58
393.068	79.28
393.529	74.88
393.991	74.38
394.453	67.88
394.915	71.88
395.377	74.28
395.838	72.88
396.3	69.38
396.762	76.98
397.224	72.98
397.685	74.18
398.147	72.38
398.608	70.28
399.07	68.28
399.531	71.08
399.993	74.48
400.454	81.18
400.916	86.28
401.377	77.48
401.839	79.58
402.3	84.08
402.762	89.38
403.223	95.48
403.684	88.28
404.145	82.88
404.607	85.78
405.068	81.08
405.529	83.98
405.99	85.78
406.451	82.88
406.913	91.98
407.374	84.98
407.835	77.98
408.296	88.68
408.757	91.28
409.218	94.38
409.679	88.68
410.14	92.58
410.601	94.28
411.062	99.28
411.522	94.98
411.983	95.08
412.444	88.78
412.905	101.78
413.366	104.08
413.826	120.38
414.287	129.38
414.748	165.18
415.208	151.38
415.669	127.28
416.13	121.68
416.59	123.88
417.051	135.68
417.511	140.98
417.972	157.28
418.432	158.18
418.893	194.68
419.353	166.58
419.814	129.58
420.274	110.78
420.734	105.38
421.195	111.88
421.655	106.48
422.115	115.58
422.576	115.68
423.036	121.68
423.496	116.28
423.956	126.88
424.416	132.28
424.876	160.38
425.336	149.18
425.797	151.08
426.257	142.58
426.717	128.08
427.177	125.18
427.637	110.88
428.097	115.88
428.556	119.88
429.016	134.78
429.476	120.58
429.936	125.28
430.396	119.38
430.856	127.88
431.315	137.18
431.775	143.18
432.235	167.68
432.694	146.68
433.154	153.08
433.614	166.68
434.073	142.98
434.533	127.48
434.993	120.98
435.452	125.58
435.912	134.88
436.371	136.98
436.83	129.88
437.29	130.08
437.749	129.58
438.209	121.18
438.668	135.08
439.127	141.78
439.587	138.28
440.046	126.28
440.505	135.88
440.964	139.48
441.424	160.98
441.883	157.18
442.342	153.28
442.801	132.48
443.26	126.78
443.719	130.08
444.178	134.48
444.637	120.98
445.096	134.28
445.555	129.18
446.014	134.58
446.473	133.68
446.932	134.58
447.391	131.88
447.849	130.68
448.308	128.48
448.767	129.28
449.226	137.48
449.685	143.98
450.143	150.48
450.602	141.68
451.061	131.38
451.519	141.28
451.978	129.18
452.436	135.48
452.895	130.08
453.353	146.28
453.812	131.28
454.27	145.48
454.729	138.78
455.187	133.78
455.646	135.18
456.104	139.68
456.562	144.58
457.021	152.58
457.479	149.78
457.937	149.78
458.395	152.98
458.854	139.68
459.312	142.38
459.77	147.28
460.228	140.88
460.686	142.78
461.144	150.28
461.602	149.28
462.06	138.78
462.518	152.78
462.976	143.88
463.434	146.48
463.892	154.68
464.35	143.68
464.808	161.18
465.266	146.08
465.724	152.08
466.181	152.98
466.639	161.58
467.097	163.38
467.555	171.18
468.012	167.28
468.47	173.98
468.928	178.68
469.385	181.18
469.843	185.08
470.3	187.08
470.758	188.68
471.215	197.88
471.673	207.08
472.13	204.38
472.588	218.18
473.045	198.58
473.503	202.68
473.96	209.58
474.417	213.08
474.875	215.78
475.332	239.08
475.789	227.58
476.246	230.28
476.704	230.58
477.161	236.48
477.618	234.08
478.075	243.18
478.532	260.98
478.989	269.78
479.446	295.88
479.903	270.08
480.36	262.18
480.817	249.08
481.274	262.48
481.731	268.48
482.188	262.48
482.645	277.48
483.102	284.28
483.558	303.08
484.015	306.58
484.472	297.98
484.929	298.78
485.385	304.68
485.842	308.78
486.299	321.18
486.755	340.98
487.212	315.98
487.668	297.68
488.125	291.58
488.582	283.88
489.038	288.98
489.494	297.58
489.951	289.18
490.407	288.08
490.864	282.08
491.32	297.38
491.776	300.88
492.233	300.08
492.689	294.88
493.145	295.18
493.602	296.78
494.058	299.28
494.514	299.48
494.97	309.48
495.426	302.48
495.882	296.48
496.338	306.18
496.794	303.98
497.251	302.08
497.707	310.58
498.163	308.88
498.618	314.18
499.074	317.78
499.53	328.38
499.986	326.98
500.442	311.38
500.898	308.98
501.354	299.08
501.809	310.58
502.265	308.88
502.721	317.68
503.177	329.38
503.632	334.38
504.088	330.48
504.543	332.38
504.999	336.18
505.455	328.78
505.91	316.38
506.366	324.08
506.821	330.58
507.277	322.48
507.732	331.18
508.187	326.58
508.643	328.58
509.098	326.88
509.553	337.08
510.009	338.08
510.464	334.08
510.919	353.48
511.375	355.68
511.83	362.68
512.285	360.58
512.74	381.18
513.195	383.78
513.65	377.18
514.105	382.68
514.56	391.48
515.015	401.18
515.47	404.38
515.925	385.48
516.38	394.68
516.835	414.78
517.29	398.58
517.745	398.68
518.2	389.08
518.655	366.88
519.109	372.78
519.564	366.68
520.019	353.48
520.474	355.48
520.928	365.08
521.383	351.28
521.838	351.08
522.292	349.28
522.747	346.38
523.201	354.08
523.656	349.98
524.11	348.98
524.565	346.38
525.019	336.28
525.474	347.38
525.928	343.78
526.382	343.28
526.837	342.88
527.291	339.08
527.745	329.18
528.2	336.28
528.654	334.38
529.108	327.58
529.562	335.88
530.016	339.18
530.47	331.78
530.925	333.18
531.379	325.48
531.833	332.38
532.287	329.18
532.741	328.58
533.195	331.28
533.649	337.18
534.103	333.48
534.556	323.48
535.01	327.88
535.464	317.18
535.918	332.28
536.372	333.48
536.826	336.48
537.279	327.38
537.733	330.28
538.187	326.88
538.64	325.68
539.094	330.48
539.548	324.88
540.001	334.88
540.455	333.58
540.908	341.58
541.362	347.48
541.815	354.88
542.269	355.58
542.722	354.08
543.175	358.98
543.629	352.88
544.082	366.48
544.536	367.78
544.989	374.08
545.442	377.58
545.895	369.78
546.349	369.78
546.802	368.78
547.255	371.58
547.708	375.58
548.161	387.78
548.614	389.68
549.067	390.38
549.52	387.48
549.973	375.08
550.426	379.58
550.879	369.28
551.332	366.68
551.785	373.38
552.238	365.28
552.691	375.68
553.144	384.38
553.596	388.68
554.049	399.08
554.502	415.08
554.955	419.48
555.407	413.28
555.86	401.18
556.313	408.38
556.765	400.68
557.218	395.68
557.67	396.98
558.123	391.78
558.576	386.68
559.028	395.18
559.48	404.38
559.933	402.08
560.385	375.18
560.838	373.58
561.29	350.68
561.742	342.78
562.195	339.58
562.647	343.08
563.099	355.38
563.551	352.18
564.004	346.88
564.456	338.28
564.908	334.98
565.36	314.98
565.812	316.78
566.264	309.38
566.716	317.18
567.168	306.38
567.62	311.58
568.072	300.98
568.524	294.58
568.976	294.18
569.428	286.28
569.88	289.28
570.332	291.98
570.784	298.28
571.235	290.88
571.687	290.08
572.139	303.58
572.59	308.68
573.042	308.58
573.494	300.98
573.945	304.78
574.397	287.48
574.849	297.48
575.3	294.38
575.752	287.98
576.203	285.18
576.655	284.68
577.106	283.18
577.557	277.48
578.009	282.98
578.46	278.98
578.912	277.58
579.363	273.78
579.814	274.38
580.265	263.18
580.717	271.28
581.168	267.78
581.619	281.78
582.07	283.38
582.521	283.28
582.972	277.78
583.423	269.68
583.875	274.48
584.326	272.28
584.777	278.78
585.227	293.68
585.678	293.58
586.129	294.08
586.58	305.08
587.031	313.98
587.482	327.98
587.933	330.28
588.384	325.68
588.834	329.78
589.285	328.08
589.736	323.48
590.186	333.18
590.637	318.68
591.088	305.08
591.538	309.58
591.989	297.68
592.439	297.88
592.89	294.38
593.34	291.28
593.791	285.08
594.241	281.48
594.692	279.68
595.142	282.58
595.593	277.18
596.043	284.18
596.493	288.48
596.943	286.38
597.394	289.08
597.844	284.28
598.294	292.48
598.744	306.78
599.195	324.28
599.645	339.68
600.095	348.48
600.545	388.78
600.995	404.88
601.445	437.38
601.895	460.98
602.345	495.28
602.795	479.08
603.245	446.28
603.695	421.48
604.145	397.38
604.594	378.88
605.044	348.08
605.494	317.28
605.944	296.08
606.393	296.18
606.843	285.68
607.293	284.58
607.743	293.18
608.192	291.28
608.642	296.38
609.091	298.58
609.541	297.68
609.99	303.18
610.44	299.38
610.889	279.98
611.339	273.68
611.788	264.18
612.238	264.58
612.687	285.18
613.136	279.98
613.586	280.28
614.035	274.48
614.484	271.38
614.933	269.88
615.383	278.78
615.832	276.18
616.281	273.38
616.73	258.18
617.179	255.18
617.628	252.08
618.077	243.78
618.526	239.78
618.975	244.88
619.424	240.28
619.873	234.28
620.322	233.78
620.771	232.58
621.22	231.48
621.669	232.68
622.118	222.98
622.567	211.08
623.015	213.38
623.464	215.88
623.913	210.98
624.361	202.68
624.81	210.18
625.259	203.08
625.707	209.08
626.156	203.48
626.604	210.38
627.053	213.88
627.501	205.28
627.95	213.08
628.398	213.88
628.847	215.08
629.295	210.78
629.744	216.08
630.192	215.98
630.64	210.88
631.089	198.58
631.537	194.58
631.985	191.68
632.433	195.68
632.881	186.68
633.33	190.48
633.778	189.28
634.226	187.58
634.674	194.48
635.122	187.68
635.57	202.68
636.018	206.58
636.466	205.18
636.914	194.38
637.362	209.48
637.81	212.28
638.258	212.18
638.705	197.08
639.153	223.08
639.601	210.88
640.049	230.98
640.497	242.08
640.944	254.58
641.392	220.38
641.84	209.38
642.287	192.28
642.735	186.28
643.182	182.48
643.63	175.58
644.078	175.28
644.525	172.18
644.973	180.08
645.42	181.38
645.867	180.48
646.315	185.18
646.762	183.18
647.21	184.18
647.657	173.98
648.104	182.88
648.551	172.78
648.999	172.18
649.446	170.08
649.893	162.18
650.34	167.28
650.787	167.38
651.234	176.78
651.682	172.58
652.129	177.58
652.576	183.78
653.023	206.08
653.47	213.98
653.917	224.18
654.363	244.58
654.81	245.18
655.257	241.88
655.704	205.68
656.151	187.08
656.598	169.98
657.044	164.58
657.491	161.38
657.938	159.78
658.385	166.68
658.831	166.08
659.278	175.08
659.724	164.08
660.171	164.98
660.618	155.08
661.064	160.68
661.511	160.58
661.957	158.88
662.404	167.98
662.85	170.38
663.296	167.78
663.743	159.98
664.189	164.98
664.635	154.38
665.082	168.18
665.528	166.48
665.974	164.38
666.42	160.38
666.867	164.98
667.313	148.08
667.759	154.08
668.205	148.18
668.651	155.48
669.097	143.48
669.543	138.68
669.989	146.38
670.435	143.68
670.881	148.48
671.327	156.68
671.773	161.18
672.219	165.48
672.665	193.58
673.11	207.78
673.556	230.18
674.002	255.48
674.448	246.48
674.893	196.88
675.339	167.28
675.785	154.98
676.23	157.28
676.676	137.78
677.122	132.98
677.567	129.18
678.013	131.28
678.458	126.28
678.904	121.38
679.349	115.78
679.794	122.08
680.24	115.88
680.685	119.48
681.131	117.58
681.576	118.08
682.021	124.78
682.466	121.38
682.912	115.18
683.357	115.08
683.802	134.28
684.247	148.18
684.692	166.18
685.137	178.08
685.583	201.18
686.028	209.58
686.473	190.48
686.918	163.88
687.363	151.68
687.807	139.88
688.252	133.58
688.697	122.78
689.142	108.68
689.587	119.18
690.032	105.08
690.477	120.08
690.921	122.68
691.366	136.88
691.811	151.58
692.255	155.68
692.7	170.68
693.145	188.98
693.589	252.88
694.034	433.18
694.478	622.58
694.923	736.28
695.367	991.78
695.812	489.18
696.256	189.48
696.701	133.08
697.145	117.78
697.59	119.88
698.034	111.98
698.478	127.38
698.922	117.78
699.367	113.78
699.811	125.18
700.255	125.18
700.699	145.58
701.143	159.98
701.588	174.68
702.032	197.48
702.476	195.58
702.92	187.98
703.364	179.98
703.808	226.48
704.252	398.78
704.696	574.08
705.14	703.68
705.584	920.48
706.027	450.38
706.471	202.88
706.915	149.38
707.359	126.48
707.803	106.78
708.246	105.88
708.69	112.08
709.134	115.98
709.577	108.88
710.021	120.78
710.465	106.98
710.908	109.28
711.352	106.68
711.795	106.28
712.239	125.38
712.682	139.08
713.126	151.48
713.569	177.38
714.012	132.88
714.456	107.88
714.899	108.38
715.342	92.28
715.786	90.28
716.229	91.88
716.672	101.98
717.115	84.98
717.558	84.78
718.002	82.48
718.445	93.08
718.888	107.38
719.331	106.28
719.774	116.18
720.217	119.38
720.66	98.38
721.103	97.58
721.546	80.98
721.989	89.68
722.432	72.28
722.874	87.68
723.317	72.48
723.76	79.28
724.203	93.68
724.645	112.08
725.088	163.28
725.531	211.58
725.974	255.28
726.416	222.18
726.859	111.28
727.301	86.98
727.744	84.28
728.187	75.38
728.629	90.78
729.071	80.88
729.514	95.58
729.956	99.18
730.399	102.18
730.841	107.88
731.283	93.08
731.726	90.18
732.168	84.28
732.61	91.98
733.053	101.48
733.495	106.68
733.937	127.88
734.379	154.08
734.821	159.88
735.263	202.78
735.705	313.68
736.148	613.08
736.59	1041.08
737.032	1311.68
737.474	1069.58
737.916	323.58
738.357	165.48
738.799	113.48
739.241	103.58
739.683	99.48
740.125	101.08
740.567	106.28
741.008	117.28
741.45	119.18
741.892	116.78
742.334	129.38
742.775	130.68
743.217	124.58
743.658	92.78
744.1	92.48
744.542	86.28
744.983	112.98
745.425	132.48
745.866	129.48
746.307	104.78
746.749	103.28
747.19	114.98
747.632	165.48
748.073	321.78
748.514	731.78
748.956	1177.78
749.397	1471.38
749.838	1230.28
750.279	1283.08
750.72	627.98
751.162	218.68
751.603	124.18
752.044	91.58
752.485	72.48
752.926	72.48
753.367	73.38
753.808	68.68
754.249	66.98
754.69	63.38
755.131	63.28
755.572	57.38
756.013	51.48
756.453	62.28
756.894	59.18
757.335	62.28
757.776	64.98
758.216	70.18
758.657	66.98
759.098	68.88
759.538	79.48
759.979	100.98
760.42	136.18
760.86	256.68
761.301	687.98
761.741	1760.08
762.182	2762.48
762.622	1992.28
763.063	551.78
763.503	209.68
763.943	114.68
764.384	90.98
764.824	74.58
765.264	69.38
765.705	71.78
766.145	57.68
766.585	50.58
767.025	54.28
767.465	51.88
767.906	57.28
768.346	66.78
768.786	61.88
769.226	70.68
769.666	109.98
770.106	223.68
770.546	598.48
770.986	1119.58
771.426	1034.68
771.866	325.68
772.306	127.38
772.745	68.28
773.185	52.98
773.625	56.68
774.065	53.48
774.505	57.28
774.944	75.18
775.384	121.98
775.824	225.68
776.263	227.38
776.703	97.58
777.142	49.98
777.582	44.28
778.021	34.28
778.461	43.48
778.9	43.08
779.34	39.98
779.779	36.48
780.219	31.08
780.658	30.78
781.097	39.68
781.537	42.28
781.976	34.68
782.415	36.18
782.855	31.68
783.294	19.48
783.733	27.38
784.172	39.58
784.611	29.28
785.05	32.48
785.489	31.78
785.928	36.48
786.367	44.48
786.806	34.68
787.245	39.78
787.684	41.68
788.123	54.38
788.562	43.58
789.001	44.98
789.44	40.48
789.879	36.98
790.317	33.78
790.756	41.98
791.195	44.08
791.634	50.88
792.072	70.38
792.511	131.58
792.95	389.78
793.388	881.78
793.827	846.68
794.265	270.88
794.704	111.98
795.142	67.78
795.581	55.88
796.019	44.78
796.458	43.88
796.896	40.68
797.334	45.88
797.773	53.88
798.211	82.08
798.649	161.28
799.087	414.58
799.526	653.08
799.964	835.88
800.402	893.48
800.84	317.18
801.278	117.48
801.716	72.68
802.154	54.78
802.592	55.88
803.03	50.28
803.468	43.38
803.906	51.88
804.344	55.48
804.782	43.88
805.22	44.18
805.658	43.18
806.096	56.68
806.533	56.88
806.971	65.48
807.409	84.68
807.847	114.78
808.284	246.98
808.722	740.08
809.16	1393.48
809.597	1281.38
810.035	2235.38
810.472	2567.78
810.91	925.08
811.347	332.68
811.785	155.18
812.222	96.28
812.66	79.08
813.097	64.78
813.535	53.08
813.972	53.88
814.409	42.98
814.846	33.88
815.284	38.28
815.721	30.58
816.158	40.08
816.595	33.18
817.032	59.88
817.47	70.38
817.907	53.78
818.344	34.78
818.781	34.78
819.218	24.38
819.655	44.58
820.092	64.18
820.529	77.68
820.966	62.08
821.403	45.88
821.839	31.68
822.276	37.38
822.713	44.58
823.15	51.68
823.587	42.68
824.023	49.78
824.46	110.08
824.897	358.18
825.333	596.58
825.77	249.78
826.206	88.68
826.643	47.38
827.08	41.18
827.516	28.08
827.953	28.38
828.389	32.38
828.825	23.68
829.262	23.98
829.698	16.18
830.135	16.58
830.571	16.58
831.007	22.88
831.443	14.28
831.88	19.78
832.316	19.08
832.752	17.48
833.188	25.18
833.624	22.38
834.06	24.68
834.497	24.78
834.933	27.48
835.369	28.58
835.805	21.58
836.241	28.08
836.677	31.18
837.112	26.98
837.548	28.78
837.984	45.78
838.42	72.18
838.856	186.48
839.292	625.38
839.727	1011.78
840.163	468.38
840.599	360.78
841.034	859.78
841.47	959.88
841.906	332.28
842.341	128.18
842.777	80.98
843.212	65.58
843.648	73.48
844.083	35.18
844.519	29.78
844.954	23.48
845.39	15.48
845.825	16.88
846.261	19.38
846.696	17.38
847.131	16.98
847.566	20.48
848.002	14.08
848.437	11.88
848.872	23.28
849.307	10.48
849.742	30.78
850.177	65.78
850.613	223.08
851.048	380.48
851.483	158.68
851.918	54.08
852.353	29.38
852.788	19.28
853.223	14.48
853.657	19.28
854.092	18.68
854.527	9.88
854.962	11.98
855.397	13.68
855.832	17.38
856.266	11.88
856.701	10.68
857.136	10.78
857.57	11.48
858.005	12.58
858.44	23.38
858.874	11.08
859.309	20.88
859.743	4.08
860.178	12.68
860.612	8.98
861.047	16.68
861.481	27.38
861.915	26.68
862.35	13.98
862.784	6.98
863.218	16.58
863.653	5.58
864.087	12.88
864.521	14.98
864.955	21.68
865.39	58.88
865.824	72.88
866.258	42.78
866.692	59.08
867.126	69.68
867.56	40.18
867.994	20.98
868.428	7.18
868.862	15.58
869.296	20.08
869.73	25.08
870.164	27.28
870.598	11.88
871.031	9.58
871.465	3.78
871.899	9.38
872.333	5.18
872.766	9.88
873.2	10.48
873.634	3.38
874.067	3.48
874.501	4.38
874.935	8.28
875.368	10.38
875.802	4.18
876.235	2.88
876.669	4.18
877.102	6.08
877.535	8.78
877.969	7.48
878.402	6.68
878.836	-1.52
879.269	3.78
879.702	7.98
880.135	7.98
880.569	2.38
881.002	10.38
881.435	6.38
881.868	0.78
882.301	7.58
882.734	-0.42
883.167	4.68
883.601	-1.22
884.034	5.08
884.467	3.58
884.899	0.38
885.332	1.48
885.765	-4.12
886.198	1.08
886.631	5.98
887.064	8.98
887.497	6.88
887.929	7.58
888.362	-0.12
888.795	-1.92
889.228	2.68
889.66	12.08
890.093	-1.32
890.526	3.98
890.958	1.98
891.391	-0.82
891.823	5.38
892.256	5.08
892.688	-2.92
893.121	6.98
893.553	5.98
893.985	10.18
894.418	6.68
894.85	-1.22
895.282	1.18
895.715	-0.22
896.147	0.78
896.579	5.08
897.011	-2.62
897.444	3.08
897.876	6.18
898.308	6.78
898.74	1.88
899.172	-2.62
899.604	15.18
900.036	8.28
900.468	-0.22
900.9	1.68
901.332	7.68
901.764	-1.12
902.196	3.08
902.628	3.58
903.06	3.18
903.491	8.38
903.923	5.28
904.355	4.38
904.787	5.48
905.218	2.48
905.65	5.48
906.082	-7.62
906.513	-0.72
906.945	0.28
907.376	-2.62
907.808	2.08
908.239	-0.62
908.671	7.68
909.102	7.38
909.534	6.78
909.965	15.68
910.397	37.88
910.828	140.78
911.259	217.78
911.691	88.88
912.122	40.98
912.553	16.18
912.984	17.78
913.415	7.48
913.847	10.48
914.278	2.08
914.709	1.18
915.14	6.88
915.571	11.28
916.002	3.68
916.433	10.28
916.864	5.18
917.295	-1.52
917.726	9.08
918.157	5.08
918.587	11.18
919.018	0.48
919.449	4.38
919.88	6.58
920.311	14.58
920.741	13.88
921.172	61.08
921.603	65.28
922.033	16.38
922.464	15.88
922.895	4.58
923.325	7.28
923.756	3.98
924.186	6.28
924.617	8.38
925.047	1.78
925.478	1.38
925.908	8.78
926.338	-1.72
926.769	3.18
927.199	3.98
927.629	-8.12
928.06	-1.82
928.49	-1.12
928.92	3.38
929.35	-1.12
929.78	2.38
930.21	-1.02
930.641	2.28
931.071	2.98
931.501	-0.12
931.931	0.88
932.361	0.88
932.791	-0.82
933.221	-3.92
933.651	-0.52
934.08	0.48
934.51	12.58
934.94	-1.92
935.37	-4.22
935.8	1.08
936.229	4.78
936.659	1.88
937.089	-1.12
937.519	10.48
937.948	10.28
938.378	10.68
938.807	0.98
939.237	-0.62
939.666	5.78
940.096	-10.42
940.525	-7.02
940.955	-5.92
941.384	-2.72
941.814	-5.42
942.243	1.78
942.672	-4.42
943.102	-7.42
943.531	-1.62
943.96	1.48
944.39	-1.32
944.819	-0.22
945.248	-5.52
945.677	-3.52
946.106	-1.02
946.535	5.48
946.964	-0.62
947.393	-3.42
947.822	-4.42
948.251	-5.22
948.68	0.58
949.109	0.78
949.538	8.98
949.967	-3.42
950.396	-1.92
950.825	-0.52
951.254	-0.92
951.682	-9.42
952.111	3.48
952.54	8.38
952.969	-8.92
953.397	-8.32
953.826	-1.32
954.254	-9.62
954.683	-4.52
955.112	-1.92
955.54	-1.02
955.969	-5.62
956.397	-0.02
956.826	-5.32
957.254	3.38
957.682	-1.72
958.111	4.88
958.539	0.48
958.967	-3.12
959.396	-7.32
959.824	-1.82
960.252	0.78
960.68	-7.62
961.109	-2.62
961.537	-1.02
961.965	-5.62
962.393	-4.62
962.821	-6.72
963.249	2.38
963.677	-1.82
964.105	-5.82
964.533	12.88
964.961	16.88
965.389	8.58
965.817	2.78
966.245	-4.72
966.672	-8.32
967.1	-11.22
967.528	-8.82
967.956	-7.42
968.383	-2.22
968.811	-4.32
969.239	-8.42
969.666	-2.92
970.094	-1.52
970.522	0.18
970.949	-3.22
971.377	-4.72
971.804	-3.12
972.232	-2.92
972.659	-4.02
973.087	-3.52
973.514	-5.82
973.941	-8.92
974.369	1.08
974.796	-2.42
975.223	3.88
975.651	-4.82
976.078	-1.22
976.505	0.78
976.932	-0.52
977.359	4.88
977.786	7.58
978.214	-5.22
978.641	-8.02
979.068	-7.12
979.495	-10.22
979.922	1.58
980.349	-2.72
980.776	6.68
981.202	-4.22
981.629	-2.12
982.056	-2.82
982.483	-3.22
982.91	-5.82
983.337	-13.62
983.763	5.58
984.19	-5.32
984.617	-2.62
985.043	-10.42
985.47	-1.92
985.897	-5.02
986.323	-13.02
986.75	2.98
987.176	-1.42
987.603	-7.52
988.029	-8.02
988.456	-8.22
988.882	2.78
989.308	-7.52
989.735	-8.52
990.161	1.08
990.587	-8.42
991.014	-1.32
991.44	5.38
991.866	-5.42
992.292	-5.32
992.719	-5.12
993.145	-1.82
993.571	-11.12
993.997	-0.02
994.423	-0.72
994.849	-5.52
995.275	-1.82
995.701	-4.42
996.127	-1.32
996.553	-4.72
996.979	-6.32
997.405	-8.92
997.83	-4.52
998.256	-6.52
998.682	-1.72
999.108	-12.42
999.534	-4.42
999.959	-5.52
1000.385	-4.42
1000.811	1.38
1001.236	-10.32
1001.662	-8.82
1002.087	-11.12
1002.513	-2.72
1002.938	-2.72
1003.364	-3.12
1003.789	0.08
1004.215	1.98
1004.64	-1.82
1005.066	-2.52
1005.491	-2.42
1005.916	-4.32
1006.342	-3.82
1006.767	-7.82
1007.192	0.48
1007.617	-7.82
1008.042	-5.92
1008.468	-8.32
1008.893	-8.52
1009.318	-10.52
1009.743	-2.12
1010.168	1.58
1010.593	-4.52
1011.018	-5.72
1011.443	-5.12
1011.868	0.28
1012.293	0.08
1012.718	-4.92
1013.143	-1.52
1013.567	-3.02
1013.992	-4.02
1014.417	-9.42
1014.842	2.88
1015.267	-1.22
1015.691	-1.72
1016.116	2.88
1016.541	-2.02
1016.965	-0.82
1017.39	5.68
1017.814	-3.12
1018.239	-6.52
1018.663	-8.92
1019.088	-14.22
1019.512	-1.52
1019.937	-1.52
1020.361	-9.22
1020.785	-12.02
1021.21	-4.82
1021.634	-4.22
1022.058	1.48
1022.483	8.18
1022.907	-5.82
1023.331	3.28
1023.755	-4.22
1024.179	2.78
1024.604	-1.02
1025.028	-5.62
1025.452	-9.32
1025.876	-1.92
1026.3	-0.42
1026.724	-16.32
1027.148	-2.72
1027.572	-5.22
1027.996	-8.02
1028.42	-2.52
1028.843	-4.72
1029.267	-10.62
1029.691	-5.62
1030.115	-7.52
1030.539	-8.02
1030.962	-4.52
1031.386	-2.92
1031.81	-3.82
1032.233	0.18
1032.657	2.78
1033.08	0.38
1033.504	-5.52
1033.927	-3.12
1034.351	-1.32
1034.774	-9.82
1035.198	-4.02
1035.621	-6.22
1036.045	-11.82
1036.468	2.78
1036.891	-9.32
1037.315	-6.22
1037.738	-3.92
1038.161	0.88
1038.584	-3.82
1039.008	-1.22
1039.431	0.98
1039.854	-2.42
1040.277	-8.62
1040.7	-14.42
1041.123	-1.42
1041.546	-4.92
1041.969	-1.82
1042.392	-5.72
1042.815	-1.12
1043.238	5.48
1043.661	3.78
1044.084	-6.12
1044.507	-4.62
1044.93	-17.92
1045.352	-4.82
1045.775	-7.52
1046.198	-1.32
1046.621	-3.22
1047.043	2.18
1047.466	6.58
1047.889	-0.72
1048.311	-5.12
1048.734	-5.92
1049.156	-5.92
1049.579	-4.92
1050.001	-5.52
1050.424	3.78
1050.846	-6.32
1051.269	0.78
1051.691	-6.02
1052.113	-4.42
1052.536	-1.62
1052.958	-0.62
1053.38	-4.92
1053.802	-5.92
1054.225	5.68
1054.647	-9.02
1055.069	-4.92
1055.491	2.48
1055.913	-6.62
1056.335	-2.02
1056.757	-4.12
1057.179	-4.12
1057.601	-5.02
1058.023	-6.42
1058.445	-1.52
1058.867	-5.12
1059.289	-3.02
1059.711	-3.72
1060.133	-2.42
1060.555	-6.22
1060.976	-3.12
1061.398	0.68
1061.82	-6.02
1062.241	-10.02
1062.663	-4.82
1063.085	-4.02
1063.506	-1.02
1063.928	-3.32
1064.35	-3.02
1064.771	-11.42
1065.193	-3.22
1065.614	-5.12
1066.035	1.98
1066.457	-4.82
1066.878	1.78
1067.3	-4.12
1067.721	-3.82
1068.142	-5.02
1068.564	-5.52
1068.985	-4.82
1069.406	-1.32
1069.827	-3.52
1070.248	-4.32
1070.67	-5.92
1071.091	-6.82
1071.512	-10.62
1071.933	0.18
1072.354	-10.52
1072.775	-3.02
1073.196	-7.72
1073.617	3.68
1074.038	-0.52
1074.459	-0.92
1074.88	-12.72
1075.3	-4.42
1075.721	-6.42
1076.142	0.48
1076.563	3.38
1076.983	-10.92
1077.404	-7.42
1077.825	-6.12
1078.246	-6.02
1078.666	-13.82
1079.087	-7.72
1079.507	-6.02
1079.928	0.48
1080.348	-0.72
1080.769	-2.82
1081.189	6.08
1081.61	-5.12
1082.03	-4.72
1082.451	-4.32
1082.871	-6.92
1083.291	-5.52
1083.711	-10.42
1084.132	-1.92
1084.552	-6.72
1084.972	-0.42
1085.392	-8.62
1085.813	-10.32
1086.233	-2.02
1086.653	-2.42
1087.073	-6.52
1087.493	-3.42
1087.913	-8.52
1088.333	-3.22
1088.753	-2.62
1089.173	1.08
1089.593	-5.32
1090.013	0.98
1090.433	-0.32
1090.852	-3.92
1091.272	-0.42
1091.692	-7.62
1092.112	-6.92
1092.531	-7.82
1092.951	-13.02
1093.371	-5.52
1093.79	0.88
1094.21	-5.72
1094.63	-2.52
1095.049	-4.02
1095.469	1.18
1095.888	-3.92
1096.308	-0.62
1096.727	3.18
1097.146	-5.92
1097.566	3.18
1097.985	-10.62
1098.405	-3.52
1098.824	-5.42
1099.243	-2.52
1099.662	-13.62
1100.082	-4.62
1100.501	-2.62
1100.92	-3.12
1101.339	-7.92
1101.758	-0.52
