Data from 20171114-ORNL-Ar_H_NY_Subt18_08-09-03-214.txt Node
Date: Tue Nov 14 08:09:03 EST 2017
User: Ender
Spectrometer: HR+D1039
Trigger mode: 0
Integration Time (sec): 2.730000E-2
Scans to average: 10
Electric dark correction enabled: true
Nonlinearity correction enabled: false
Boxcar width: 0
XAxis mode: Wavelengths
Number of Pixels in Spectrum: 2048
>>>>>Begin Spectral Data<<<<<
187.836	-4.73
188.309	-4.73
188.782	-4.73
189.255	2.37
189.728	-1.63
190.201	2.77
190.674	4.47
191.147	-0.33
191.619	-7.23
192.092	3.37
192.565	4.87
193.038	-0.33
193.511	3.87
193.984	3.17
194.456	-3.33
194.929	-3.53
195.402	-3.73
195.874	-0.13
196.347	1.57
196.82	-1.13
197.292	3.57
197.765	-0.33
198.237	-2.53
198.71	0.17
199.182	-1.03
199.655	3.07
200.127	2.97
200.6	-2.63
201.072	-0.43
201.544	-4.73
202.017	-8.73
202.489	3.17
202.961	0.37
203.433	-2.43
203.906	-10.33
204.378	-9.33
204.85	-4.63
205.322	-3.33
205.794	-5.83
206.266	1.17
206.739	-11.13
207.211	2.27
207.683	-11.43
208.155	-7.43
208.627	-5.33
209.099	-1.23
209.57	-11.33
210.042	-9.03
210.514	-3.33
210.986	-2.13
211.458	-9.53
211.93	-4.43
212.402	2.37
212.873	-6.23
213.345	-6.73
213.817	-14.23
214.288	-7.43
214.76	-12.83
215.232	-9.73
215.703	-4.23
216.175	-2.73
216.646	-5.53
217.118	-4.73
217.589	-10.53
218.061	2.07
218.532	-8.23
219.004	-7.83
219.475	-2.03
219.946	-0.63
220.418	-2.93
220.889	6.87
221.36	-4.73
221.832	-3.53
222.303	-8.93
222.774	-2.03
223.245	-6.53
223.717	-6.53
224.188	-4.53
224.659	-6.93
225.13	-6.53
225.601	-1.83
226.072	-3.33
226.543	-1.63
227.014	-3.43
227.485	0.77
227.956	-10.93
228.427	-0.53
228.898	1.77
229.369	5.87
229.839	-0.93
230.31	-8.03
230.781	8.27
231.252	-0.63
231.722	-3.53
232.193	1.27
232.664	-1.53
233.135	-0.93
233.605	1.37
234.076	-7.83
234.546	-6.03
235.017	0.47
235.487	-1.03
235.958	-4.63
236.428	-6.33
236.899	0.77
237.369	0.07
237.84	-3.53
238.31	-2.23
238.78	-6.43
239.251	-7.43
239.721	-5.53
240.191	-8.53
240.662	-7.43
241.132	-0.43
241.602	-5.73
242.072	-0.23
242.542	4.27
243.013	-3.73
243.483	-1.23
243.953	-2.73
244.423	0.37
244.893	-6.63
245.363	-0.33
245.833	-0.93
246.303	-8.23
246.773	2.57
247.243	2.17
247.712	-1.73
248.182	1.67
248.652	-0.33
249.122	-12.83
249.592	-3.73
250.061	2.37
250.531	6.37
251.001	-2.63
251.471	3.77
251.94	5.87
252.41	-3.33
252.879	-4.53
253.349	3.97
253.818	3.97
254.288	-2.73
254.757	0.07
255.227	-2.73
255.696	-3.13
256.166	-2.83
256.635	-0.03
257.105	0.27
257.574	-1.83
258.043	-3.93
258.513	-0.73
258.982	-4.93
259.451	1.47
259.92	-7.03
260.389	-3.63
260.859	6.77
261.328	1.57
261.797	2.57
262.266	2.97
262.735	6.57
263.204	1.67
263.673	-4.33
264.142	2.07
264.611	-5.23
265.08	0.37
265.549	-2.13
266.018	3.47
266.487	-0.43
266.955	-6.43
267.424	-4.03
267.893	2.97
268.362	-0.93
268.83	-4.63
269.299	2.87
269.768	3.27
270.236	2.77
270.705	-0.83
271.174	-2.33
271.642	-1.33
272.111	4.17
272.579	-1.53
273.048	-1.53
273.516	-2.43
273.985	1.47
274.453	3.87
274.922	10.37
275.39	-0.33
275.858	-4.03
276.327	7.27
276.795	6.67
277.263	3.47
277.731	11.07
278.2	4.67
278.668	3.87
279.136	10.47
279.604	1.87
280.072	2.67
280.54	0.47
281.008	9.07
281.477	8.67
281.945	5.67
282.413	6.57
282.881	5.97
283.348	2.77
283.816	11.77
284.284	7.57
284.752	10.07
285.22	6.37
285.688	6.17
286.156	1.47
286.623	14.17
287.091	8.67
287.559	12.77
288.026	8.87
288.494	9.97
288.962	-4.33
289.429	-2.13
289.897	10.37
290.364	8.77
290.832	9.47
291.3	5.67
291.767	9.97
292.234	13.17
292.702	4.77
293.169	10.37
293.637	19.57
294.104	10.67
294.571	-2.13
295.039	3.17
295.506	6.97
295.973	8.37
296.44	9.07
296.908	8.17
297.375	13.17
297.842	10.57
298.309	7.07
298.776	-2.73
299.243	13.47
299.71	6.07
300.177	16.77
300.644	12.27
301.111	9.67
301.578	16.57
302.045	8.67
302.512	19.87
302.979	17.67
303.446	11.37
303.913	11.77
304.379	7.67
304.846	17.57
305.313	18.77
305.78	8.17
306.246	16.07
306.713	16.67
307.18	20.67
307.646	15.37
308.113	15.87
308.579	14.27
309.046	18.57
309.512	20.37
309.979	13.17
310.445	19.27
310.912	15.07
311.378	21.07
311.845	23.77
312.311	24.37
312.777	28.57
313.244	19.87
313.71	23.97
314.176	20.57
314.642	19.77
315.109	21.37
315.575	20.67
316.041	21.57
316.507	17.77
316.973	26.87
317.439	26.87
317.905	26.67
318.371	27.07
318.837	20.67
319.303	23.17
319.769	25.37
320.235	21.57
320.701	24.87
321.167	25.17
321.633	18.27
322.099	26.57
322.564	34.27
323.03	28.97
323.496	26.27
323.962	29.07
324.427	31.07
324.893	24.97
325.359	25.17
325.824	30.47
326.29	24.67
326.755	28.77
327.221	30.07
327.686	32.27
328.152	37.87
328.617	35.87
329.083	39.27
329.548	41.47
330.014	35.77
330.479	25.37
330.944	30.17
331.41	31.17
331.875	32.07
332.34	30.97
332.805	32.47
333.271	37.87
333.736	32.27
334.201	40.97
334.666	43.67
335.131	36.47
335.596	35.07
336.061	33.57
336.526	32.07
336.991	37.57
337.456	52.07
337.921	38.77
338.386	35.87
338.851	37.67
339.316	32.97
339.781	36.77
340.246	41.17
340.711	37.77
341.175	41.27
341.64	33.17
342.105	42.57
342.569	45.87
343.034	45.37
343.499	44.27
343.963	39.27
344.428	49.27
344.893	51.37
345.357	47.97
345.822	46.07
346.286	52.17
346.751	49.57
347.215	50.17
347.679	55.67
348.144	72.97
348.608	69.67
349.073	58.47
349.537	59.07
350.001	61.47
350.465	76.47
350.93	61.17
351.394	66.07
351.858	59.47
352.322	72.97
352.786	65.37
353.25	81.77
353.715	85.87
354.179	70.77
354.643	96.57
355.107	93.27
355.571	79.87
356.035	83.57
356.498	89.47
356.962	83.17
357.426	94.67
357.89	89.17
358.354	76.17
358.818	65.57
359.281	63.47
359.745	65.67
360.209	60.67
360.673	60.77
361.136	63.27
361.6	65.27
362.064	66.47
362.527	69.97
362.991	76.47
363.454	68.07
363.918	58.87
364.381	67.77
364.845	73.27
365.308	68.77
365.772	73.67
366.235	70.37
366.698	68.47
367.162	70.67
367.625	77.97
368.088	71.97
368.552	73.27
369.015	71.77
369.478	85.37
369.941	85.07
370.404	80.17
370.867	79.77
371.331	85.67
371.794	90.87
372.257	83.07
372.72	90.37
373.183	85.27
373.646	80.77
374.109	78.87
374.572	85.57
375.035	86.87
375.497	87.77
375.96	93.37
376.423	87.37
376.886	93.57
377.349	93.37
377.811	87.47
378.274	94.07
378.737	91.37
379.199	97.37
379.662	96.47
380.125	96.77
380.587	85.67
381.05	94.37
381.512	103.97
381.975	110.77
382.437	97.57
382.9	98.47
383.362	108.77
383.825	114.97
384.287	106.17
384.75	105.57
385.212	110.77
385.674	113.17
386.136	113.67
386.599	108.67
387.061	105.57
387.523	108.27
387.985	109.97
388.447	116.97
388.91	105.37
389.372	108.07
389.834	121.97
390.296	116.67
390.758	114.47
391.22	124.77
391.682	130.47
392.144	136.77
392.606	138.57
393.068	120.17
393.529	135.37
393.991	127.47
394.453	114.07
394.915	117.17
395.377	123.77
395.838	124.57
396.3	124.77
396.762	128.27
397.224	124.27
397.685	123.57
398.147	120.77
398.608	113.77
399.07	122.97
399.531	127.37
399.993	135.67
400.454	142.97
400.916	142.27
401.377	129.17
401.839	140.07
402.3	143.47
402.762	152.47
403.223	157.77
403.684	154.27
404.145	146.77
404.607	143.57
405.068	147.17
405.529	149.17
405.99	167.17
406.451	152.87
406.913	158.37
407.374	150.57
407.835	150.37
408.296	154.07
408.757	148.27
409.218	166.87
409.679	161.07
410.14	160.87
410.601	164.97
411.062	164.17
411.522	168.67
411.983	163.77
412.444	158.57
412.905	167.97
413.366	174.57
413.826	192.27
414.287	213.47
414.748	255.07
415.208	234.07
415.669	200.37
416.13	196.67
416.59	192.37
417.051	207.77
417.511	210.57
417.972	230.87
418.432	233.17
418.893	272.87
419.353	242.17
419.814	190.07
420.274	170.77
420.734	169.17
421.195	190.97
421.655	178.77
422.115	187.57
422.576	184.97
423.036	196.67
423.496	201.17
423.956	208.87
424.416	222.17
424.876	246.67
425.336	241.77
425.797	249.57
426.257	248.47
426.717	222.57
427.177	220.57
427.637	210.17
428.097	221.27
428.556	238.57
429.016	257.97
429.476	249.47
429.936	259.67
430.396	264.67
430.856	269.57
431.315	294.87
431.775	316.37
432.235	353.97
432.694	332.07
433.154	335.87
433.614	364.17
434.073	313.07
434.533	269.57
434.993	244.87
435.452	255.67
435.912	273.37
436.371	267.27
436.83	268.47
437.29	249.77
437.749	240.87
438.209	229.27
438.668	257.87
439.127	266.47
439.587	250.37
440.046	233.97
440.505	258.47
440.964	265.47
441.424	301.27
441.883	292.97
442.342	254.37
442.801	220.67
443.26	218.27
443.719	216.47
444.178	212.37
444.637	210.97
445.096	211.57
445.555	221.27
446.014	220.17
446.473	224.67
446.932	231.17
447.391	226.27
447.849	223.67
448.308	211.97
448.767	218.97
449.226	234.87
449.685	233.27
450.143	239.37
450.602	235.87
451.061	224.97
451.519	230.97
451.978	221.47
452.436	230.57
452.895	234.07
453.353	256.17
453.812	238.27
454.27	234.07
454.729	237.67
455.187	237.97
455.646	236.77
456.104	243.97
456.562	252.17
457.021	262.17
457.479	256.47
457.937	272.77
458.395	260.67
458.854	244.97
459.312	253.17
459.77	269.77
460.228	251.17
460.686	243.07
461.144	242.67
461.602	243.97
462.06	245.97
462.518	254.87
462.976	258.37
463.434	261.07
463.892	265.17
464.35	270.47
464.808	286.17
465.266	261.87
465.724	263.07
466.181	279.07
466.639	269.67
467.097	281.97
467.555	300.27
468.012	303.87
468.47	308.87
468.928	331.17
469.385	342.77
469.843	341.27
470.3	342.17
470.758	364.07
471.215	377.47
471.673	402.47
472.13	391.57
472.588	412.57
473.045	369.47
473.503	376.27
473.96	385.97
474.417	404.27
474.875	434.17
475.332	469.27
475.789	454.67
476.246	466.47
476.704	479.77
477.161	492.37
477.618	515.97
478.075	542.17
478.532	592.97
478.989	671.77
479.446	782.57
479.903	743.07
480.36	773.17
480.817	804.17
481.274	905.17
481.731	996.77
482.188	1060.57
482.645	1187.78
483.102	1277.77
483.558	1384.97
484.015	1418.27
484.472	1391.57
484.929	1357.37
485.385	1311.77
485.842	1287.37
486.299	1242.47
486.755	1201.87
487.212	1006.17
487.668	873.07
488.125	807.07
488.582	746.37
489.038	728.07
489.494	688.67
489.951	661.37
490.407	653.77
490.864	629.77
491.32	621.37
491.776	629.27
492.233	630.87
492.689	600.67
493.145	599.97
493.602	579.17
494.058	613.47
494.514	613.07
494.97	624.67
495.426	637.67
495.882	618.77
496.338	609.77
496.794	604.67
497.251	607.57
497.707	631.47
498.163	630.87
498.618	633.37
499.074	633.57
499.53	665.57
499.986	655.67
500.442	640.87
500.898	614.67
501.354	605.37
501.809	612.77
502.265	625.87
502.721	628.87
503.177	638.77
503.632	638.87
504.088	644.27
504.543	660.47
504.999	684.47
505.455	656.77
505.91	633.17
506.366	641.07
506.821	623.67
507.277	630.17
507.732	623.87
508.187	630.47
508.643	632.87
509.098	642.67
509.553	653.27
510.009	677.27
510.464	683.67
510.919	694.07
511.375	697.17
511.83	705.17
512.285	727.77
512.74	756.17
513.195	764.37
513.65	764.57
514.105	770.97
514.56	772.47
515.015	788.57
515.47	798.47
515.925	776.87
516.38	792.77
516.835	795.97
517.29	784.97
517.745	780.77
518.2	760.07
518.655	751.37
519.109	741.27
519.564	748.97
520.019	733.07
520.474	741.57
520.928	728.57
521.383	725.87
521.838	714.37
522.292	713.47
522.747	718.07
523.201	712.97
523.656	708.67
524.11	708.07
524.565	693.77
525.019	703.17
525.474	709.57
525.928	701.47
526.382	704.97
526.837	697.67
527.291	706.87
527.745	706.97
528.2	707.67
528.654	692.87
529.108	685.17
529.562	687.27
530.016	700.57
530.47	694.97
530.925	702.17
531.379	696.97
531.833	702.27
532.287	699.07
532.741	699.67
533.195	709.87
533.649	723.97
534.103	716.57
534.556	711.47
535.01	717.37
535.464	710.37
535.918	724.47
536.372	722.37
536.826	718.37
537.279	719.77
537.733	716.47
538.187	723.17
538.64	719.07
539.094	731.07
539.548	737.97
540.001	732.87
540.455	729.27
540.908	737.07
541.362	744.27
541.815	756.77
542.269	763.77
542.722	765.07
543.175	773.67
543.629	775.77
544.082	795.87
544.536	797.27
544.989	802.37
545.442	811.17
545.895	804.57
546.349	804.07
546.802	806.57
547.255	816.37
547.708	828.27
548.161	836.07
548.614	834.67
549.067	850.67
549.52	834.17
549.973	826.27
550.426	822.57
550.879	816.97
551.332	809.27
551.785	833.97
552.238	823.27
552.691	833.97
553.144	857.67
553.596	860.27
554.049	870.97
554.502	902.67
554.955	923.47
555.407	930.67
555.86	910.77
556.313	901.67
556.765	886.87
557.218	900.27
557.67	895.37
558.123	891.27
558.576	892.97
559.028	889.97
559.48	897.17
559.933	895.77
560.385	854.97
560.838	821.97
561.29	795.57
561.742	796.57
562.195	785.77
562.647	783.07
563.099	786.47
563.551	794.17
564.004	796.57
564.456	790.77
564.908	771.87
565.36	754.27
565.812	740.97
566.264	732.07
566.716	739.87
567.168	719.97
567.62	725.37
568.072	709.07
568.524	709.77
568.976	700.37
569.428	685.17
569.88	687.17
570.332	696.47
570.784	705.87
571.235	713.47
571.687	714.07
572.139	725.97
572.59	733.97
573.042	729.67
573.494	731.07
573.945	719.37
574.397	698.07
574.849	701.47
575.3	711.57
575.752	701.47
576.203	693.97
576.655	703.87
577.106	693.97
577.557	684.87
578.009	687.27
578.46	684.17
578.912	675.07
579.363	685.87
579.814	678.07
580.265	677.47
580.717	692.17
581.168	688.77
581.619	696.67
582.07	698.87
582.521	693.37
582.972	684.67
583.423	692.07
583.875	685.07
584.326	694.27
584.777	716.37
585.227	739.17
585.678	745.37
586.129	765.97
586.58	789.97
587.031	815.27
587.482	847.47
587.933	870.57
588.384	851.47
588.834	814.17
589.285	790.87
589.736	794.97
590.186	787.57
590.637	787.77
591.088	764.87
591.538	760.57
591.989	750.17
592.439	739.47
592.89	740.97
593.34	720.77
593.791	728.47
594.241	717.87
594.692	719.87
595.142	708.07
595.593	717.97
596.043	726.27
596.493	726.27
596.943	723.27
597.394	737.07
597.844	734.47
598.294	748.07
598.744	778.87
599.195	794.77
599.645	836.07
600.095	887.17
600.545	946.57
600.995	999.88
601.445	1051.97
601.895	1116.67
602.345	1159.17
602.795	1145.67
603.245	1101.88
603.695	1036.47
604.145	987.17
604.594	938.37
605.044	892.47
605.494	821.57
605.944	775.47
606.393	768.37
606.843	748.37
607.293	755.97
607.743	748.57
608.192	761.17
608.642	776.67
609.091	778.87
609.541	787.37
609.99	784.47
610.44	768.17
610.889	736.97
611.339	711.37
611.788	699.97
612.238	702.47
612.687	716.87
613.136	718.17
613.586	729.87
614.035	724.87
614.484	730.77
614.933	723.47
615.383	731.67
615.832	723.47
616.281	725.57
616.73	691.17
617.179	671.57
617.628	665.37
618.077	647.57
618.526	643.47
618.975	628.77
619.424	632.67
619.873	623.67
620.322	639.17
620.771	621.87
621.22	629.07
621.669	603.97
622.118	606.77
622.567	597.37
623.015	588.07
623.464	585.27
623.913	573.77
624.361	569.67
624.81	562.37
625.259	571.37
625.707	581.07
626.156	569.87
626.604	583.77
627.053	572.87
627.501	587.17
627.95	591.37
628.398	597.37
628.847	581.17
629.295	589.37
629.744	590.67
630.192	587.87
630.64	581.87
631.089	565.47
631.537	554.27
631.985	546.07
632.433	546.97
632.881	539.77
633.33	550.67
633.778	547.77
634.226	537.77
634.674	552.67
635.122	552.77
635.57	567.67
636.018	573.27
636.466	572.27
636.914	572.57
637.362	581.37
637.81	605.27
638.258	603.57
638.705	602.87
639.153	631.47
639.601	637.87
640.049	663.47
640.497	693.57
640.944	719.47
641.392	664.07
641.84	638.17
642.287	598.27
642.735	579.87
643.182	577.57
643.63	583.07
644.078	583.37
644.525	584.57
644.973	594.47
645.42	611.97
645.867	631.27
646.315	655.27
646.762	676.87
647.21	707.57
647.657	723.67
648.104	756.87
648.551	767.77
648.999	831.17
649.446	915.87
649.893	989.27
650.34	1134.38
650.787	1355.17
651.234	1680.38
651.682	2172.57
652.129	2947.07
652.576	4180.07
653.023	6097.38
653.47	8155.58
653.917	10106.58
654.363	11557.78
654.81	12682.28
655.257	11970.48
655.704	7946.58
656.151	4787.37
656.598	3150.97
657.044	2253.97
657.491	1759.47
657.938	1432.87
658.385	1210.77
658.831	1057.37
659.278	951.57
659.724	846.17
660.171	786.77
660.618	723.87
661.064	691.17
661.511	672.47
661.957	662.47
662.404	651.67
662.85	658.77
663.296	646.87
663.743	578.07
664.189	555.57
664.635	553.27
665.082	540.27
665.528	536.67
665.974	537.67
666.42	530.27
666.867	516.67
667.313	495.87
667.759	475.97
668.205	468.07
668.651	461.97
669.097	459.77
669.543	449.07
669.989	460.57
670.435	456.67
670.881	469.77
671.327	470.97
671.773	484.37
672.219	510.47
672.665	570.37
673.11	622.77
673.556	653.87
674.002	691.17
674.448	679.97
674.893	576.77
675.339	499.27
675.785	458.47
676.23	435.67
676.676	408.97
677.122	399.77
677.567	388.07
678.013	383.47
678.458	384.07
678.904	375.77
679.349	367.17
679.794	369.57
680.24	362.27
680.685	369.97
681.131	360.97
681.576	359.47
682.021	365.77
682.466	369.27
682.912	367.97
683.357	372.97
683.802	393.07
684.247	425.77
684.692	480.37
685.137	535.27
685.583	554.07
686.028	584.87
686.473	540.97
686.918	464.57
687.363	440.67
687.807	405.57
688.252	378.07
688.697	368.47
689.142	354.57
689.587	348.77
690.032	337.77
690.477	356.07
690.921	370.47
691.366	397.07
691.811	425.47
692.255	446.97
692.7	484.67
693.145	539.87
693.589	761.07
694.034	1238.17
694.478	1640.57
694.923	1825.67
695.367	2350.17
695.812	1259.97
696.256	518.97
696.701	390.67
697.145	348.97
697.59	346.57
698.034	332.57
698.478	347.67
698.922	334.57
699.367	338.27
699.811	350.17
700.255	370.27
700.699	400.97
701.143	444.67
701.588	493.37
702.032	533.57
702.476	540.87
702.92	518.57
703.364	526.17
703.808	699.77
704.252	1135.07
704.696	1562.67
705.14	1754.07
705.584	2220.67
706.027	1122.17
706.471	552.67
706.915	424.17
707.359	369.17
707.803	337.67
708.246	325.47
708.69	332.77
709.134	330.77
709.577	322.87
710.021	329.17
710.465	326.67
710.908	316.97
711.352	319.97
711.795	332.47
712.239	373.67
712.682	405.87
713.126	435.37
713.569	472.77
714.012	378.67
714.456	319.17
714.899	299.27
715.342	282.97
715.786	272.97
716.229	271.17
716.672	265.27
717.115	258.87
717.558	269.47
718.002	263.27
718.445	273.57
718.888	296.07
719.331	305.47
719.774	316.17
720.217	320.07
720.66	296.07
721.103	275.77
721.546	267.77
721.989	255.37
722.432	246.67
722.874	244.17
723.317	247.87
723.76	243.67
724.203	274.47
724.645	345.77
725.088	482.17
725.531	605.37
725.974	673.17
726.416	564.67
726.859	319.97
727.301	264.47
727.744	255.27
728.187	247.57
728.629	254.57
729.071	260.07
729.514	272.77
729.956	285.57
730.399	294.07
730.841	302.37
731.283	289.17
731.726	280.97
732.168	275.07
732.61	285.57
733.053	302.77
733.495	334.77
733.937	369.87
734.379	423.37
734.821	469.47
735.263	586.57
735.705	921.67
736.148	1750.07
736.59	2788.88
737.032	3185.57
737.474	2586.88
737.916	863.07
738.357	464.37
738.799	341.97
739.241	312.37
739.683	294.67
740.125	304.47
740.567	316.17
741.008	324.67
741.45	329.97
741.892	331.27
742.334	374.17
742.775	384.37
743.217	359.77
743.658	286.87
744.1	269.37
744.542	288.67
744.983	339.37
745.425	376.97
745.866	364.17
746.307	299.17
746.749	293.37
747.19	355.27
747.632	499.47
748.073	991.07
748.514	2045.17
748.956	3039.17
749.397	3851.37
749.838	3180.77
750.279	3081.27
750.72	1586.47
751.162	589.37
751.603	347.07
752.044	269.57
752.485	231.07
752.926	224.27
753.367	214.47
753.808	213.97
754.249	203.17
754.69	195.37
755.131	191.97
755.572	184.67
756.013	199.37
756.453	191.27
756.894	196.87
757.335	202.17
757.776	205.17
758.216	196.07
758.657	208.47
759.098	212.37
759.538	233.47
759.979	286.27
760.42	420.77
760.86	794.27
761.301	2064.67
761.741	4836.97
762.182	6681.07
762.622	4725.47
763.063	1406.47
763.503	577.17
763.943	343.97
764.384	292.37
764.824	269.97
765.264	247.07
765.705	220.57
766.145	198.87
766.585	190.17
767.025	179.77
767.465	170.57
767.906	190.67
768.346	207.97
768.786	212.07
769.226	222.97
769.666	334.47
770.106	690.47
770.546	1717.47
770.986	2778.27
771.426	2443.68
771.866	834.27
772.306	347.87
772.745	215.87
773.185	172.27
773.625	168.87
774.065	153.67
774.505	175.77
774.944	220.67
775.384	399.07
775.824	620.17
776.263	594.27
776.703	285.37
777.142	163.07
777.582	143.57
778.021	129.57
778.461	126.67
778.9	140.07
779.34	131.37
779.779	113.77
780.219	118.17
780.658	114.57
781.097	114.57
781.537	129.47
781.976	113.87
782.415	108.27
782.855	113.17
783.294	112.27
783.733	109.77
784.172	114.67
784.611	107.67
785.05	117.27
785.489	118.87
785.928	127.47
786.367	126.37
786.806	125.27
787.245	136.67
787.684	143.97
788.123	155.47
788.562	143.57
789.001	133.67
789.44	124.97
789.879	124.47
790.317	122.57
790.756	133.67
791.195	139.37
791.634	157.17
792.072	210.07
792.511	410.47
792.95	1129.97
793.388	2253.97
793.827	1978.47
794.265	707.77
794.704	296.07
795.142	199.87
795.581	164.87
796.019	141.67
796.458	138.07
796.896	128.87
797.334	138.97
797.773	166.87
798.211	247.27
798.649	493.27
799.087	1112.17
799.526	1716.38
799.964	2171.37
800.402	2086.38
800.84	809.47
801.278	327.47
801.716	196.07
802.154	168.87
802.592	158.17
803.03	145.27
803.468	143.67
803.906	154.87
804.344	161.77
804.782	148.67
805.22	139.37
805.658	136.87
806.096	155.17
806.533	171.57
806.971	188.27
807.409	236.17
807.847	349.17
808.284	751.37
808.722	2061.77
809.16	3501.88
809.597	3457.77
810.035	5862.07
810.472	6000.77
810.91	2221.57
811.347	863.57
811.785	433.17
812.222	273.87
812.66	208.17
813.097	175.97
813.535	154.57
813.972	137.47
814.409	124.87
814.846	118.77
815.284	114.97
815.721	110.17
816.158	113.57
816.595	115.97
817.032	161.77
817.47	187.97
817.907	134.27
818.344	112.87
818.781	100.47
819.218	103.47
819.655	131.77
820.092	207.27
820.529	216.47
820.966	173.37
821.403	128.37
821.839	103.57
822.276	103.97
822.713	129.97
823.15	145.67
823.587	124.67
824.023	154.87
824.46	344.87
824.897	973.48
825.333	1415.17
825.77	608.57
826.206	250.17
826.643	141.87
827.08	108.07
827.516	85.67
827.953	87.17
828.389	81.97
828.825	74.57
829.262	80.37
829.698	63.77
830.135	65.47
830.571	68.27
831.007	64.57
831.443	68.57
831.88	64.37
832.316	73.37
832.752	65.27
833.188	72.07
833.624	66.37
834.06	76.17
834.497	70.17
834.933	69.27
835.369	78.17
835.805	73.97
836.241	82.47
836.677	84.47
837.112	91.37
837.548	115.47
837.984	145.77
838.42	220.57
838.856	551.67
839.292	1659.57
839.727	2409.68
840.163	1136.67
840.599	1031.37
841.034	2197.97
841.47	2207.77
841.906	828.67
842.341	356.67
842.777	210.37
843.212	218.97
843.648	199.47
844.083	119.97
844.519	84.37
844.954	69.67
845.39	59.87
845.825	59.97
846.261	62.97
846.696	61.37
847.131	55.17
847.566	60.77
848.002	54.47
848.437	59.27
848.872	64.17
849.307	65.27
849.742	90.67
850.177	204.37
850.613	609.47
851.048	919.17
851.483	396.77
851.918	167.07
852.353	86.57
852.788	62.07
853.223	55.37
853.657	58.57
854.092	50.87
854.527	42.47
854.962	42.07
855.397	47.97
855.832	50.27
856.266	40.97
856.701	41.17
857.136	36.77
857.57	38.97
858.005	53.67
858.44	60.27
858.874	44.17
859.309	51.67
859.743	43.67
860.178	46.57
860.612	48.67
861.047	48.37
861.481	73.27
861.915	76.67
862.35	54.07
862.784	38.57
863.218	42.37
863.653	45.37
864.087	49.47
864.521	57.97
864.955	68.37
865.39	160.57
865.824	173.07
866.258	123.87
866.692	177.37
867.126	192.67
867.56	109.97
867.994	55.67
868.428	47.77
868.862	55.37
869.296	57.37
869.73	61.77
870.164	56.67
870.598	50.07
871.031	38.57
871.465	35.97
871.899	32.97
872.333	25.57
872.766	23.27
873.2	25.97
873.634	28.07
874.067	26.27
874.501	30.37
874.935	36.97
875.368	32.27
875.802	31.47
876.235	25.07
876.669	24.67
877.102	27.37
877.535	33.07
877.969	26.47
878.402	26.67
878.836	18.17
879.269	27.47
879.702	27.97
880.135	17.37
880.569	21.77
881.002	25.47
881.435	22.27
881.868	21.07
882.301	26.27
882.734	16.87
883.167	25.77
883.601	21.57
884.034	18.07
884.467	9.27
884.899	17.27
885.332	14.37
885.765	16.07
886.198	19.57
886.631	21.27
887.064	22.37
887.497	24.17
887.929	29.37
888.362	20.67
888.795	12.97
889.228	18.77
889.66	17.07
890.093	22.17
890.526	15.87
890.958	15.77
891.391	17.37
891.823	21.57
892.256	14.17
892.688	17.57
893.121	16.97
893.553	13.77
893.985	25.57
894.418	20.27
894.85	14.87
895.282	18.77
895.715	12.27
896.147	17.57
896.579	19.37
897.011	11.97
897.444	21.67
897.876	12.97
898.308	14.27
898.74	13.87
899.172	16.27
899.604	18.87
900.036	19.67
900.468	16.67
900.9	16.47
901.332	20.57
901.764	13.67
902.196	18.17
902.628	16.67
903.06	18.47
903.491	28.77
903.923	23.47
904.355	20.17
904.787	24.97
905.218	22.67
905.65	22.07
906.082	13.07
906.513	12.77
906.945	17.17
907.376	18.67
907.808	19.87
908.239	15.87
908.671	24.17
909.102	23.67
909.534	26.27
909.965	47.07
910.397	100.07
910.828	336.77
911.259	494.47
911.691	226.57
912.122	112.27
912.553	48.27
912.984	39.47
913.415	25.07
913.847	27.77
914.278	15.47
914.709	16.37
915.14	20.17
915.571	18.57
916.002	10.27
916.433	20.57
916.864	12.67
917.295	10.97
917.726	24.37
918.157	19.57
918.587	29.67
919.018	19.27
919.449	22.67
919.88	27.17
920.311	29.07
920.741	48.67
921.172	181.27
921.603	153.47
922.033	75.27
922.464	52.27
922.895	20.37
923.325	22.27
923.756	15.47
924.186	12.57
924.617	19.87
925.047	23.37
925.478	28.47
925.908	25.97
926.338	10.47
926.769	6.27
927.199	16.27
927.629	11.67
928.06	14.57
928.49	17.77
928.92	17.47
929.35	5.07
929.78	14.97
930.21	7.27
930.641	9.67
931.071	15.07
931.501	0.57
931.931	10.67
932.361	12.27
932.791	4.77
933.221	5.77
933.651	6.37
934.08	18.07
934.51	32.17
934.94	7.17
935.37	0.17
935.8	13.17
936.229	2.17
936.659	8.97
937.089	6.97
937.519	8.77
937.948	20.97
938.378	19.07
938.807	10.07
939.237	6.07
939.666	7.17
940.096	-4.03
940.525	-1.23
940.955	4.07
941.384	5.97
941.814	-4.53
942.243	-1.53
942.672	2.27
943.102	4.17
943.531	-1.53
943.96	9.67
944.39	1.47
944.819	3.17
945.248	2.97
945.677	-1.63
946.106	-0.13
946.535	5.97
946.964	0.57
947.393	1.27
947.822	1.37
948.251	-6.13
948.68	-0.03
949.109	2.17
949.538	-1.33
949.967	0.27
950.396	-2.43
950.825	-5.23
951.254	-0.63
951.682	-7.93
952.111	0.27
952.54	5.87
952.969	-5.83
953.397	-3.13
953.826	0.67
954.254	-7.73
954.683	0.17
955.112	3.27
955.54	2.67
955.969	10.87
956.397	-5.73
956.826	-1.73
957.254	4.37
957.682	-2.33
958.111	12.27
958.539	-2.43
958.967	9.77
959.396	-5.73
959.824	1.77
960.252	5.57
960.68	-2.43
961.109	-1.23
961.537	-4.13
961.965	-2.03
962.393	2.47
962.821	-9.03
963.249	0.57
963.677	4.07
964.105	1.77
964.533	42.37
964.961	48.57
965.389	22.17
965.817	4.97
966.245	0.87
966.672	5.37
967.1	-10.03
967.528	1.27
967.956	2.77
968.383	-6.33
968.811	-4.23
969.239	-4.13
969.666	-1.43
970.094	-2.23
970.522	2.77
970.949	-0.33
971.377	-4.53
971.804	-3.63
972.232	-7.63
972.659	2.07
973.087	-5.93
973.514	0.17
973.941	-7.03
974.369	4.77
974.796	-0.33
975.223	-2.03
975.651	0.67
976.078	-0.43
976.505	-0.73
976.932	5.07
977.359	13.07
977.786	14.87
978.214	3.97
978.641	-5.13
979.068	-2.03
979.495	-4.73
979.922	-0.83
980.349	-1.73
980.776	8.27
981.202	0.07
981.629	5.87
982.056	0.77
982.483	-5.53
982.91	3.07
983.337	-5.93
983.763	-0.63
984.19	-7.33
984.617	-4.63
985.043	-8.03
985.47	0.77
985.897	-7.83
986.323	-6.53
986.75	4.67
987.176	0.67
987.603	-2.93
988.029	-0.23
988.456	-3.53
988.882	5.67
989.308	-2.93
989.735	-2.13
990.161	-1.33
990.587	-3.93
991.014	3.77
991.44	14.87
991.866	-1.53
992.292	-1.53
992.719	-3.03
993.145	-0.33
993.571	-6.23
993.997	-1.23
994.423	-4.73
994.849	-2.43
995.275	1.77
995.701	1.17
996.127	-2.93
996.553	-2.13
996.979	-6.43
997.405	2.57
997.83	-4.33
998.256	-9.53
998.682	-5.83
999.108	-9.83
999.534	-6.73
999.959	2.27
1000.385	-5.63
1000.811	0.67
1001.236	-7.63
1001.662	-3.03
1002.087	-10.53
1002.513	2.07
1002.938	0.37
1003.364	-2.83
1003.789	2.27
1004.215	3.27
1004.64	-1.23
1005.066	0.27
1005.491	-1.83
1005.916	-0.13
1006.342	-5.13
1006.767	-3.33
1007.192	0.07
1007.617	-4.23
1008.042	-8.13
1008.468	-7.63
1008.893	-2.43
1009.318	-4.73
1009.743	-3.93
1010.168	-0.03
1010.593	-1.13
1011.018	-10.63
1011.443	-4.33
1011.868	3.67
1012.293	-1.43
1012.718	-6.73
1013.143	-0.73
1013.567	2.37
1013.992	-6.83
1014.417	-13.73
1014.842	0.17
1015.267	-3.53
1015.691	-0.43
1016.116	1.97
1016.541	-3.13
1016.965	-1.13
1017.39	-1.23
1017.814	-1.73
1018.239	-1.83
1018.663	-2.73
1019.088	-7.53
1019.512	-5.53
1019.937	-5.53
1020.361	-4.63
1020.785	-11.53
1021.21	-3.63
1021.634	-3.83
1022.058	-0.93
1022.483	0.27
1022.907	-2.53
1023.331	-4.03
1023.755	-3.83
1024.179	-3.33
1024.604	-6.13
1025.028	-10.43
1025.452	-7.83
1025.876	0.57
1026.3	-7.13
1026.724	-14.13
1027.148	-4.83
1027.572	-11.33
1027.996	-7.33
1028.42	-7.33
1028.843	-2.13
1029.267	-1.03
1029.691	-7.43
1030.115	4.17
1030.539	-9.43
1030.962	-8.63
1031.386	-8.23
1031.81	-0.03
1032.233	-0.03
1032.657	-5.63
1033.08	-6.03
1033.504	-0.13
1033.927	-6.73
1034.351	-0.03
1034.774	-4.53
1035.198	-3.43
1035.621	-6.33
1036.045	-6.93
1036.468	-0.53
1036.891	-2.03
1037.315	-3.53
1037.738	-6.83
1038.161	-0.53
1038.584	-8.33
1039.008	-5.93
1039.431	-3.53
1039.854	-3.13
1040.277	-7.73
1040.7	-6.43
1041.123	-1.83
1041.546	-5.93
1041.969	-6.73
1042.392	-11.43
1042.815	-4.93
1043.238	-1.73
1043.661	2.27
1044.084	-2.33
1044.507	-1.53
1044.93	-6.43
1045.352	-5.33
1045.775	-5.33
1046.198	-0.13
1046.621	-3.43
1047.043	-0.63
1047.466	2.17
1047.889	-6.53
1048.311	-10.33
1048.734	-5.43
1049.156	-6.43
1049.579	-5.83
1050.001	-3.43
1050.424	-2.23
1050.846	-5.03
1051.269	-5.63
1051.691	-1.53
1052.113	-3.83
1052.536	-4.33
1052.958	-2.63
1053.38	-3.63
1053.802	-12.13
1054.225	-0.53
1054.647	-7.73
1055.069	-5.73
1055.491	2.67
1055.913	-5.53
1056.335	-0.43
1056.757	-6.13
1057.179	-9.03
1057.601	-7.03
1058.023	-6.33
1058.445	-6.43
1058.867	-7.83
1059.289	-3.23
1059.711	-5.13
1060.133	-0.03
1060.555	-1.73
1060.976	-5.93
1061.398	-10.33
1061.82	-10.13
1062.241	-8.63
1062.663	-10.43
1063.085	1.47
1063.506	-0.13
1063.928	-7.23
1064.35	-6.23
1064.771	-13.03
1065.193	-2.33
1065.614	-10.23
1066.035	-5.03
1066.457	-4.53
1066.878	-0.83
1067.3	-7.03
1067.721	-0.83
1068.142	-1.63
1068.564	-5.73
1068.985	-7.03
1069.406	-5.53
1069.827	-4.73
1070.248	3.67
1070.67	-2.13
1071.091	-7.83
1071.512	-8.13
1071.933	-2.63
1072.354	-11.93
1072.775	-3.73
1073.196	-6.63
1073.617	-2.83
1074.038	-8.23
1074.459	-1.63
1074.88	-6.03
1075.3	-2.93
1075.721	-6.23
1076.142	0.47
1076.563	-2.63
1076.983	-9.43
1077.404	-9.83
1077.825	-10.33
1078.246	-5.43
1078.666	-11.93
1079.087	-2.13
1079.507	-5.33
1079.928	-2.23
1080.348	-1.33
1080.769	1.17
1081.189	0.57
1081.61	-7.33
1082.03	-1.93
1082.451	-7.33
1082.871	-4.93
1083.291	-7.33
1083.711	-7.23
1084.132	-6.03
1084.552	-5.23
1084.972	-5.03
1085.392	-6.43
1085.813	-10.83
1086.233	-6.03
1086.653	-7.13
1087.073	-1.53
1087.493	-5.83
1087.913	-3.43
1088.333	-10.33
1088.753	-0.93
1089.173	5.57
1089.593	-6.43
1090.013	-2.03
1090.433	1.37
1090.852	-6.53
1091.272	-3.33
1091.692	0.67
1092.112	-0.83
1092.531	-9.83
1092.951	-8.73
1093.371	-6.83
1093.79	-0.63
1094.21	-7.43
1094.63	-5.93
1095.049	-4.03
1095.469	1.37
1095.888	-10.03
1096.308	3.17
1096.727	3.57
1097.146	-2.53
1097.566	-1.03
1097.985	-6.63
1098.405	-0.73
1098.824	-4.73
1099.243	-8.03
1099.662	-11.33
1100.082	-3.33
1100.501	-5.13
1100.92	-11.33
1101.339	-2.93
1101.758	-4.03
