Data from 20171114-ORNL-Ar_H_NY_Subt18_08-06-21-007.txt Node
Date: Tue Nov 14 08:06:21 EST 2017
User: Ender
Spectrometer: HR+D1039
Trigger mode: 0
Integration Time (sec): 2.730000E-2
Scans to average: 10
Electric dark correction enabled: true
Nonlinearity correction enabled: false
Boxcar width: 0
XAxis mode: Wavelengths
Number of Pixels in Spectrum: 2048
>>>>>Begin Spectral Data<<<<<
187.836	-5.21
188.309	-5.21
188.782	-5.21
189.255	-2.51
189.728	-0.01
190.201	-0.11
190.674	3.09
191.147	2.99
191.619	-8.91
192.092	2.59
192.565	6.29
193.038	0.89
193.511	6.69
193.984	2.59
194.456	-4.91
194.929	1.49
195.402	-5.21
195.874	0.29
196.347	3.29
196.82	-2.61
197.292	5.39
197.765	-2.31
198.237	-5.51
198.71	5.99
199.182	0.69
199.655	-0.31
200.127	1.19
200.6	-2.91
201.072	-2.81
201.544	-9.31
202.017	-8.41
202.489	4.09
202.961	-7.51
203.433	-4.71
203.906	-11.81
204.378	-7.91
204.85	-6.91
205.322	-12.11
205.794	-3.51
206.266	-2.31
206.739	-8.91
207.211	-0.91
207.683	-6.21
208.155	-1.61
208.627	-4.41
209.099	-3.91
209.57	-11.51
210.042	-7.91
210.514	-1.51
210.986	-0.01
211.458	-8.01
211.93	1.49
212.402	-3.41
212.873	-2.61
213.345	-11.51
213.817	-13.11
214.288	-5.11
214.76	-15.31
215.232	-3.11
215.703	-5.71
216.175	-1.71
216.646	-4.81
217.118	-3.81
217.589	-3.91
218.061	-3.01
218.532	-8.51
219.004	1.29
219.475	-0.81
219.946	-0.11
220.418	-8.41
220.889	3.69
221.36	-4.71
221.832	-9.31
222.303	-3.01
222.774	-3.01
223.245	-10.11
223.717	-1.81
224.188	-8.31
224.659	-8.41
225.13	-6.71
225.601	-1.01
226.072	-1.71
226.543	-1.11
227.014	-0.51
227.485	-0.11
227.956	-3.61
228.427	-6.61
228.898	-4.51
229.369	-1.41
229.839	-4.71
230.31	-0.21
230.781	2.09
231.252	-5.71
231.722	-4.01
232.193	-3.21
232.664	-1.41
233.135	-0.31
233.605	-7.21
234.076	-5.21
234.546	1.99
235.017	1.59
235.487	0.89
235.958	-3.31
236.428	-4.41
236.899	-0.11
237.369	5.29
237.84	-1.81
238.31	1.89
238.78	-1.01
239.251	-2.11
239.721	4.29
240.191	4.19
240.662	-0.81
241.132	-1.51
241.602	-1.51
242.072	-1.91
242.542	7.59
243.013	-3.51
243.483	3.59
243.953	-0.01
244.423	-3.91
244.893	-6.11
245.363	1.89
245.833	-2.71
246.303	-2.41
246.773	5.09
247.243	-0.61
247.712	-0.81
248.182	4.49
248.652	6.79
249.122	-5.11
249.592	14.89
250.061	21.79
250.531	32.19
251.001	16.99
251.471	24.29
251.94	18.39
252.41	8.29
252.879	-0.21
253.349	9.79
253.818	4.29
254.288	3.99
254.757	2.89
255.227	0.79
255.696	8.29
256.166	10.39
256.635	2.89
257.105	6.89
257.574	3.29
258.043	4.19
258.513	6.89
258.982	19.69
259.451	5.59
259.92	14.99
260.389	5.49
260.859	21.79
261.328	17.89
261.797	20.19
262.266	9.59
262.735	6.99
263.204	5.89
263.673	-0.91
264.142	7.49
264.611	-0.11
265.08	0.79
265.549	0.39
266.018	12.29
266.487	-1.31
266.955	-3.51
267.424	0.99
267.893	11.49
268.362	2.39
268.83	0.89
269.299	10.49
269.768	5.39
270.236	2.29
270.705	0.69
271.174	5.89
271.642	1.09
272.111	10.79
272.579	11.79
273.048	18.39
273.516	23.09
273.985	24.59
274.453	25.99
274.922	19.19
275.39	12.89
275.858	2.99
276.327	12.19
276.795	21.29
277.263	12.49
277.731	27.39
278.2	50.29
278.668	57.59
279.136	53.39
279.604	23.89
280.072	14.19
280.54	15.69
281.008	9.99
281.477	12.29
281.945	5.69
282.413	12.79
282.881	19.19
283.348	10.69
283.816	18.89
284.284	17.09
284.752	19.79
285.22	12.39
285.688	20.79
286.156	17.09
286.623	45.49
287.091	54.59
287.559	25.39
288.026	18.79
288.494	15.29
288.962	5.69
289.429	7.19
289.897	17.59
290.364	16.29
290.832	16.89
291.3	15.49
291.767	19.69
292.234	18.49
292.702	19.29
293.169	15.69
293.637	19.29
294.104	19.79
294.571	8.49
295.039	9.39
295.506	15.49
295.973	14.79
296.44	17.39
296.908	20.79
297.375	21.29
297.842	21.09
298.309	17.59
298.776	15.39
299.243	22.49
299.71	13.79
300.177	22.79
300.644	22.59
301.111	20.29
301.578	22.49
302.045	13.29
302.512	17.49
302.979	25.59
303.446	17.89
303.913	9.89
304.379	18.89
304.846	21.89
305.313	26.59
305.78	27.49
306.246	29.39
306.713	30.39
307.18	26.09
307.646	31.49
308.113	32.49
308.579	22.39
309.046	21.59
309.512	29.49
309.979	21.79
310.445	26.79
310.912	29.29
311.378	31.09
311.845	25.79
312.311	25.79
312.777	35.09
313.244	32.49
313.71	37.99
314.176	26.99
314.642	30.79
315.109	32.29
315.575	35.59
316.041	43.29
316.507	39.29
316.973	38.99
317.439	32.49
317.905	39.59
318.371	32.99
318.837	39.69
319.303	38.89
319.769	33.49
320.235	31.79
320.701	33.69
321.167	35.89
321.633	38.79
322.099	40.29
322.564	42.39
323.03	43.79
323.496	39.19
323.962	36.79
324.427	37.09
324.893	42.39
325.359	37.19
325.824	35.49
326.29	37.19
326.755	40.99
327.221	38.59
327.686	40.29
328.152	42.49
328.617	43.49
329.083	38.79
329.548	52.09
330.014	49.99
330.479	44.69
330.944	43.99
331.41	44.79
331.875	40.59
332.34	48.49
332.805	43.19
333.271	42.49
333.736	42.89
334.201	43.99
334.666	53.79
335.131	51.69
335.596	55.19
336.061	48.59
336.526	45.79
336.991	45.09
337.456	57.59
337.921	48.59
338.386	42.59
338.851	49.59
339.316	45.49
339.781	44.29
340.246	52.89
340.711	47.99
341.175	46.89
341.64	48.39
342.105	59.79
342.569	51.49
343.034	58.69
343.499	61.19
343.963	56.99
344.428	68.49
344.893	57.39
345.357	62.49
345.822	59.49
346.286	69.29
346.751	76.19
347.215	67.29
347.679	73.99
348.144	98.39
348.608	81.89
349.073	78.59
349.537	75.59
350.001	83.69
350.465	94.69
350.93	83.09
351.394	82.39
351.858	74.39
352.322	90.59
352.786	91.59
353.25	100.59
353.715	113.69
354.179	95.19
354.643	123.39
355.107	126.69
355.571	110.49
356.035	102.09
356.498	121.29
356.962	123.89
357.426	133.89
357.89	118.99
358.354	87.79
358.818	86.59
359.281	76.59
359.745	76.69
360.209	75.09
360.673	78.79
361.136	79.89
361.6	83.49
362.064	86.59
362.527	77.59
362.991	93.79
363.454	78.39
363.918	74.59
364.381	80.19
364.845	81.39
365.308	90.79
365.772	91.19
366.235	91.69
366.698	87.99
367.162	87.69
367.625	93.19
368.088	97.29
368.552	85.69
369.015	86.99
369.478	98.89
369.941	103.59
370.404	95.89
370.867	105.99
371.331	109.09
371.794	119.89
372.257	115.69
372.72	121.19
373.183	109.59
373.646	109.99
374.109	106.69
374.572	103.89
375.035	104.79
375.497	110.89
375.96	103.79
376.423	105.99
376.886	110.89
377.349	114.39
377.811	104.09
378.274	108.09
378.737	108.49
379.199	111.29
379.662	111.39
380.125	119.79
380.587	118.89
381.05	124.79
381.512	125.59
381.975	141.59
382.437	134.59
382.9	130.69
383.362	130.49
383.825	146.89
384.287	148.69
384.75	143.59
385.212	146.09
385.674	138.29
386.136	138.19
386.599	128.59
387.061	128.99
387.523	130.59
387.985	146.79
388.447	145.69
388.91	141.79
389.372	160.99
389.834	152.19
390.296	147.49
390.758	155.99
391.22	171.09
391.682	215.09
392.144	294.49
392.606	232.39
393.068	167.69
393.529	171.29
393.991	154.39
394.453	150.49
394.915	148.39
395.377	198.99
395.838	220.39
396.3	154.59
396.762	141.79
397.224	137.09
397.685	133.79
398.147	124.09
398.608	140.19
399.07	124.39
399.531	129.29
399.993	144.29
400.454	153.09
400.916	143.89
401.377	147.79
401.839	155.59
402.3	154.59
402.762	169.19
403.223	181.19
403.684	173.59
404.145	161.69
404.607	167.19
405.068	168.19
405.529	167.09
405.99	185.59
406.451	180.79
406.913	177.59
407.374	165.69
407.835	164.79
408.296	168.19
408.757	181.89
409.218	191.59
409.679	181.89
410.14	185.69
410.601	182.69
411.062	186.59
411.522	192.79
411.983	194.59
412.444	180.79
412.905	186.19
413.366	187.89
413.826	192.69
414.287	221.49
414.748	268.69
415.208	248.89
415.669	213.19
416.13	206.09
416.59	202.79
417.051	206.29
417.511	223.49
417.972	250.19
418.432	255.89
418.893	287.39
419.353	251.09
419.814	200.69
420.274	182.79
420.734	179.99
421.195	202.99
421.655	202.39
422.115	191.79
422.576	200.19
423.036	201.49
423.496	212.79
423.956	217.99
424.416	226.79
424.876	263.49
425.336	261.09
425.797	265.19
426.257	254.59
426.717	249.39
427.177	238.69
427.637	228.19
428.097	246.69
428.556	247.99
429.016	276.79
429.476	266.09
429.936	281.59
430.396	280.19
430.856	295.29
431.315	318.29
431.775	354.79
432.235	390.99
432.694	357.99
433.154	367.59
433.614	401.39
434.073	345.69
434.533	289.99
434.993	281.09
435.452	290.09
435.912	303.99
436.371	289.99
436.83	291.59
437.29	281.29
437.749	247.69
438.209	254.19
438.668	277.59
439.127	299.79
439.587	277.29
440.046	249.09
440.505	263.79
440.964	276.79
441.424	337.99
441.883	314.49
442.342	262.09
442.801	227.09
443.26	225.79
443.719	226.29
444.178	223.29
444.637	220.39
445.096	226.19
445.555	228.59
446.014	227.59
446.473	225.69
446.932	237.49
447.391	232.69
447.849	231.89
448.308	224.79
448.767	223.79
449.226	240.39
449.685	240.69
450.143	253.69
450.602	243.39
451.061	226.09
451.519	229.99
451.978	236.19
452.436	243.39
452.895	235.59
453.353	246.19
453.812	240.09
454.27	239.19
454.729	241.59
455.187	242.99
455.646	253.69
456.104	253.09
456.562	260.89
457.021	268.69
457.479	264.29
457.937	275.59
458.395	258.09
458.854	247.99
459.312	265.49
459.77	275.19
460.228	257.49
460.686	248.09
461.144	254.19
461.602	245.39
462.06	251.39
462.518	258.79
462.976	259.39
463.434	262.39
463.892	267.89
464.35	285.99
464.808	297.59
465.266	267.19
465.724	275.39
466.181	276.09
466.639	281.69
467.097	296.89
467.555	305.99
468.012	303.59
468.47	316.79
468.928	339.99
469.385	349.39
469.843	348.69
470.3	365.49
470.758	370.19
471.215	394.19
471.673	418.29
472.13	417.69
472.588	423.69
473.045	373.09
473.503	383.59
473.96	399.49
474.417	407.59
474.875	445.49
475.332	481.09
475.789	469.49
476.246	479.79
476.704	500.09
477.161	522.09
477.618	537.59
478.075	564.19
478.532	623.89
478.989	702.99
479.446	824.49
479.903	788.39
480.36	826.59
480.817	882.59
481.274	981.69
481.731	1088.99
482.188	1190.59
482.645	1318.89
483.102	1432.49
483.558	1577.79
484.015	1625.49
484.472	1596.79
484.929	1554.69
485.385	1506.89
485.842	1468.79
486.299	1394.09
486.755	1330.89
487.212	1112.59
487.668	945.59
488.125	880.89
488.582	791.69
489.038	764.79
489.494	724.89
489.951	702.29
490.407	675.59
490.864	663.89
491.32	657.39
491.776	652.59
492.233	658.79
492.689	627.19
493.145	621.19
493.602	607.29
494.058	630.39
494.514	621.49
494.97	656.19
495.426	662.09
495.882	637.59
496.338	627.09
496.794	638.39
497.251	625.79
497.707	634.89
498.163	643.69
498.618	652.49
499.074	654.79
499.53	691.79
499.986	680.89
500.442	654.29
500.898	636.59
501.354	634.39
501.809	642.59
502.265	653.99
502.721	671.99
503.177	673.09
503.632	668.39
504.088	679.19
504.543	720.29
504.999	718.79
505.455	672.39
505.91	634.49
506.366	637.39
506.821	633.59
507.277	627.79
507.732	632.09
508.187	636.19
508.643	651.99
509.098	640.09
509.553	662.59
510.009	674.19
510.464	672.09
510.919	700.19
511.375	695.29
511.83	715.49
512.285	735.79
512.74	775.99
513.195	798.09
513.65	785.39
514.105	779.49
514.56	788.59
515.015	795.59
515.47	816.19
515.925	794.79
516.38	796.79
516.835	799.79
517.29	794.49
517.745	784.79
518.2	770.29
518.655	753.99
519.109	752.59
519.564	749.09
520.019	739.19
520.474	737.19
520.928	737.29
521.383	719.09
521.838	720.49
522.292	724.49
522.747	716.69
523.201	717.99
523.656	700.59
524.11	703.39
524.565	702.99
525.019	693.89
525.474	708.69
525.928	709.49
526.382	702.59
526.837	700.29
527.291	707.79
527.745	705.19
528.2	715.19
528.654	690.89
529.108	698.29
529.562	702.69
530.016	698.09
530.47	703.69
530.925	699.79
531.379	706.99
531.833	711.29
532.287	710.39
532.741	704.89
533.195	715.69
533.649	723.59
534.103	729.79
534.556	718.69
535.01	718.89
535.464	720.19
535.918	724.99
536.372	728.19
536.826	728.39
537.279	718.29
537.733	724.09
538.187	727.19
538.64	717.89
539.094	732.29
539.548	742.19
540.001	724.29
540.455	740.29
540.908	745.59
541.362	740.59
541.815	750.29
542.269	772.09
542.722	773.39
543.175	777.39
543.629	781.79
544.082	795.29
544.536	782.79
544.989	787.99
545.442	800.79
545.895	801.99
546.349	799.19
546.802	802.39
547.255	802.89
547.708	809.39
548.161	820.09
548.614	829.59
549.067	829.09
549.52	824.39
549.973	816.89
550.426	816.99
550.879	812.69
551.332	813.69
551.785	818.39
552.238	806.59
552.691	825.69
553.144	835.79
553.596	851.09
554.049	882.19
554.502	903.69
554.955	924.59
555.407	914.99
555.86	911.99
556.313	896.19
556.765	892.69
557.218	880.49
557.67	892.99
558.123	871.79
558.576	870.29
559.028	887.59
559.48	885.49
559.933	879.49
560.385	840.39
560.838	807.69
561.29	789.39
561.742	788.79
562.195	768.79
562.647	776.29
563.099	784.59
563.551	782.09
564.004	793.39
564.456	783.39
564.908	769.89
565.36	745.89
565.812	741.09
566.264	744.29
566.716	733.19
567.168	724.99
567.62	731.69
568.072	710.39
568.524	704.39
568.976	699.09
569.428	678.79
569.88	684.89
570.332	683.89
570.784	689.39
571.235	689.09
571.687	702.99
572.139	708.89
572.59	722.59
573.042	712.69
573.494	718.49
573.945	713.39
574.397	688.09
574.849	709.19
575.3	705.39
575.752	687.29
576.203	679.79
576.655	684.89
577.106	677.69
577.557	666.59
578.009	677.29
578.46	674.99
578.912	669.29
579.363	672.39
579.814	675.19
580.265	669.29
580.717	667.59
581.168	687.39
581.619	684.69
582.07	687.19
582.521	679.99
582.972	675.99
583.423	687.89
583.875	686.89
584.326	712.09
584.777	742.79
585.227	826.09
585.678	917.29
586.129	1008.19
586.58	1082.69
587.031	1171.19
587.482	1332.39
587.933	1508.69
588.384	1305.99
588.834	985.39
589.285	819.69
589.736	783.39
590.186	773.59
590.637	761.59
591.088	765.69
591.538	744.69
591.989	735.69
592.439	728.99
592.89	722.69
593.34	705.99
593.791	716.69
594.241	714.19
594.692	708.09
595.142	700.49
595.593	709.09
596.043	716.89
596.493	728.99
596.943	717.99
597.394	728.89
597.844	714.99
598.294	735.29
598.744	760.79
599.195	784.29
599.645	822.69
600.095	860.29
600.545	916.19
600.995	963.99
601.445	1014.99
601.895	1094.39
602.345	1140.39
602.795	1114.29
603.245	1069.59
603.695	1022.79
604.145	970.99
604.594	915.19
605.044	863.49
605.494	804.29
605.944	743.89
606.393	744.69
606.843	724.99
607.293	734.09
607.743	731.79
608.192	748.79
608.642	757.89
609.091	771.69
609.541	775.39
609.99	772.39
610.44	773.39
610.889	724.39
611.339	716.69
611.788	694.49
612.238	702.69
612.687	720.99
613.136	726.89
613.586	745.99
614.035	738.89
614.484	752.39
614.933	762.29
615.383	756.29
615.832	755.79
616.281	733.49
616.73	695.09
617.179	670.19
617.628	654.39
618.077	630.59
618.526	625.09
618.975	610.59
619.424	614.19
619.873	624.59
620.322	624.79
620.771	605.19
621.22	600.09
621.669	601.59
622.118	580.79
622.567	588.49
623.015	565.99
623.464	566.09
623.913	566.79
624.361	544.29
624.81	550.29
625.259	560.29
625.707	560.89
626.156	551.39
626.604	564.09
627.053	557.79
627.501	567.89
627.95	571.99
628.398	581.89
628.847	569.49
629.295	561.79
629.744	578.49
630.192	564.39
630.64	572.59
631.089	563.29
631.537	587.79
631.985	586.29
632.433	601.39
632.881	619.29
633.33	661.29
633.778	638.29
634.226	573.09
634.674	572.79
635.122	571.59
635.57	593.79
636.018	625.59
636.466	574.19
636.914	556.49
637.362	575.29
637.81	575.69
638.258	583.29
638.705	579.79
639.153	608.69
639.601	618.39
640.049	639.99
640.497	666.69
640.944	700.29
641.392	637.29
641.84	619.89
642.287	586.59
642.735	564.49
643.182	570.49
643.63	580.59
644.078	574.19
644.525	602.79
644.973	596.99
645.42	607.09
645.867	616.39
646.315	637.59
646.762	664.79
647.21	693.39
647.657	727.09
648.104	741.69
648.551	776.99
648.999	839.59
649.446	919.29
649.893	1008.09
650.34	1167.79
650.787	1393.09
651.234	1736.29
651.682	2262.99
652.129	3117.19
652.576	4478.39
653.023	6635.29
653.47	9111.19
653.917	11389.29
654.363	13154.19
654.81	14517.49
655.257	13825.49
655.704	9072.39
656.151	5351.99
656.598	3450.89
657.044	2449.29
657.491	1886.39
657.938	1499.89
658.385	1249.09
658.831	1092.09
659.278	973.69
659.724	849.19
660.171	798.49
660.618	728.39
661.064	688.89
661.511	665.49
661.957	661.49
662.404	645.09
662.85	649.59
663.296	624.99
663.743	557.49
664.189	532.99
664.635	534.49
665.082	513.89
665.528	523.09
665.974	512.09
666.42	505.19
666.867	503.49
667.313	495.09
667.759	476.69
668.205	475.49
668.651	483.89
669.097	489.69
669.543	504.69
669.989	471.69
670.435	441.59
670.881	448.99
671.327	443.59
671.773	460.29
672.219	482.19
672.665	540.39
673.11	582.09
673.556	624.09
674.002	671.59
674.448	647.99
674.893	541.09
675.339	470.79
675.785	446.89
676.23	418.69
676.676	387.79
677.122	378.59
677.567	372.09
678.013	360.19
678.458	362.49
678.904	358.79
679.349	346.29
679.794	350.19
680.24	352.89
680.685	349.19
681.131	346.39
681.576	353.89
682.021	357.69
682.466	342.79
682.912	346.99
683.357	340.19
683.802	380.59
684.247	403.69
684.692	455.89
685.137	487.89
685.583	527.89
686.028	553.09
686.473	510.79
686.918	440.29
687.363	408.99
687.807	384.69
688.252	363.39
688.697	355.69
689.142	337.89
689.587	327.29
690.032	319.89
690.477	343.39
690.921	344.49
691.366	377.29
691.811	402.09
692.255	421.09
692.7	454.69
693.145	493.39
693.589	685.99
694.034	1112.69
694.478	1511.59
694.923	1713.79
695.367	2245.39
695.812	1182.29
696.256	491.69
696.701	369.69
697.145	337.99
697.59	335.29
698.034	316.99
698.478	327.79
698.922	318.89
699.367	319.29
699.811	333.79
700.255	350.69
700.699	381.89
701.143	422.49
701.588	480.59
702.032	511.09
702.476	508.59
702.92	487.39
703.364	484.79
703.808	624.89
704.252	1011.69
704.696	1432.19
705.14	1655.49
705.584	2110.59
706.027	1046.59
706.471	515.99
706.915	378.69
707.359	348.39
707.803	326.29
708.246	311.89
708.69	304.59
709.134	308.29
709.577	317.09
710.021	318.09
710.465	308.39
710.908	301.99
711.352	302.29
711.795	309.69
712.239	343.09
712.682	380.09
713.126	416.39
713.569	458.19
714.012	369.29
714.456	317.69
714.899	299.29
715.342	273.69
715.786	260.49
716.229	262.49
716.672	251.79
717.115	247.09
717.558	247.19
718.002	241.69
718.445	263.59
718.888	290.59
719.331	297.39
719.774	299.49
720.217	299.99
720.66	279.09
721.103	263.59
721.546	256.89
721.989	246.59
722.432	232.29
722.874	240.29
723.317	229.29
723.76	237.49
724.203	257.39
724.645	319.09
725.088	440.69
725.531	569.59
725.974	638.59
726.416	552.19
726.859	301.09
727.301	247.09
727.744	232.29
728.187	233.39
728.629	227.39
729.071	245.29
729.514	256.69
729.956	275.99
730.399	284.19
730.841	289.39
731.283	273.19
731.726	265.99
732.168	255.49
732.61	265.49
733.053	279.09
733.495	299.79
733.937	343.99
734.379	387.59
734.821	426.09
735.263	531.89
735.705	814.09
736.148	1555.59
736.59	2542.39
737.032	3004.69
737.474	2458.59
737.916	797.59
738.357	426.79
738.799	326.49
739.241	299.59
739.683	281.19
740.125	288.59
740.567	303.99
741.008	311.49
741.45	310.99
741.892	313.39
742.334	346.69
742.775	359.29
743.217	332.69
743.658	271.19
744.1	251.09
744.542	259.99
744.983	307.69
745.425	332.09
745.866	336.49
746.307	284.59
746.749	275.49
747.19	325.59
747.632	454.19
748.073	865.79
748.514	1818.29
748.956	2804.89
749.397	3534.49
749.838	2922.49
750.279	2914.89
750.72	1467.39
751.162	540.69
751.603	315.69
752.044	246.99
752.485	209.99
752.926	210.09
753.367	196.19
753.808	190.49
754.249	185.39
754.69	188.09
755.131	181.59
755.572	178.89
756.013	180.99
756.453	181.89
756.894	187.79
757.335	186.29
757.776	197.19
758.216	195.59
758.657	197.69
759.098	209.39
759.538	218.09
759.979	261.79
760.42	368.19
760.86	697.29
761.301	1782.19
761.741	4324.99
762.182	6302.39
762.622	4436.39
763.063	1279.49
763.503	533.19
763.943	347.59
764.384	334.99
764.824	395.19
765.264	430.59
765.705	312.89
766.145	208.09
766.585	187.69
767.025	178.99
767.465	187.99
767.906	238.59
768.346	318.59
768.786	335.89
769.226	254.59
769.666	313.79
770.106	609.09
770.546	1515.39
770.986	2613.59
771.426	2334.09
771.866	768.59
772.306	318.29
772.745	215.69
773.185	171.39
773.625	168.69
774.065	158.29
774.505	191.49
774.944	303.29
775.384	679.99
775.824	1239.69
776.263	1211.09
776.703	510.29
777.142	219.59
777.582	161.09
778.021	136.79
778.461	134.09
778.9	138.19
779.34	126.49
779.779	118.79
780.219	108.99
780.658	114.29
781.097	109.89
781.537	115.79
781.976	110.59
782.415	111.79
782.855	99.89
783.294	105.09
783.733	101.19
784.172	108.89
784.611	104.19
785.05	103.69
785.489	117.09
785.928	113.59
786.367	117.29
786.806	117.99
787.245	133.09
787.684	136.69
788.123	143.29
788.562	126.59
789.001	129.29
789.44	121.09
789.879	117.29
790.317	115.49
790.756	128.89
791.195	128.59
791.634	145.59
792.072	203.19
792.511	360.69
792.95	980.69
793.388	2092.69
793.827	1908.39
794.265	674.89
794.704	277.69
795.142	174.99
795.581	150.49
796.019	126.79
796.458	132.49
796.896	116.59
797.334	123.09
797.773	158.09
798.211	215.79
798.649	434.99
799.087	993.49
799.526	1559.19
799.964	1971.79
800.402	1970.79
800.84	737.09
801.278	293.59
801.716	182.09
802.154	149.39
802.592	146.29
803.03	140.89
803.468	133.79
803.906	142.39
804.344	149.09
804.782	141.09
805.22	133.59
805.658	123.79
806.096	147.19
806.533	154.29
806.971	178.99
807.409	215.39
807.847	308.09
808.284	648.49
808.722	1811.89
809.16	3221.39
809.597	3041.29
810.035	5281.59
810.472	5673.39
810.91	2042.59
811.347	776.89
811.785	397.79
812.222	250.19
812.66	193.79
813.097	161.09
813.535	137.09
813.972	128.19
814.409	121.79
814.846	111.79
815.284	109.39
815.721	108.49
816.158	106.99
816.595	123.79
817.032	174.49
817.47	193.09
817.907	169.99
818.344	147.99
818.781	111.59
819.218	101.79
819.655	122.09
820.092	186.29
820.529	210.29
820.966	182.29
821.403	134.49
821.839	109.89
822.276	96.39
822.713	117.59
823.15	136.69
823.587	110.89
824.023	150.39
824.46	292.59
824.897	879.09
825.333	1339.09
825.77	575.09
826.206	222.99
826.643	130.39
827.08	98.49
827.516	81.19
827.953	73.29
828.389	77.39
828.825	75.39
829.262	68.59
829.698	63.09
830.135	65.49
830.571	61.79
831.007	62.99
831.443	61.49
831.88	55.89
832.316	63.79
832.752	65.19
833.188	67.39
833.624	64.89
834.06	68.09
834.497	67.59
834.933	64.79
835.369	72.09
835.805	68.29
836.241	77.29
836.677	80.99
837.112	89.29
837.548	109.69
837.984	131.39
838.42	195.39
838.856	479.99
839.292	1473.59
839.727	2258.99
840.163	1043.89
840.599	898.69
841.034	1982.49
841.47	2083.49
841.906	756.59
842.341	323.39
842.777	230.09
843.212	319.29
843.648	313.69
844.083	160.19
844.519	93.29
844.954	74.59
845.39	58.59
845.825	62.79
846.261	62.89
846.696	57.19
847.131	49.39
847.566	56.09
848.002	49.79
848.437	52.79
848.872	57.69
849.307	57.49
849.742	79.79
850.177	178.29
850.613	536.19
851.048	868.49
851.483	373.89
851.918	148.79
852.353	83.09
852.788	56.39
853.223	60.09
853.657	52.79
854.092	48.39
854.527	41.29
854.962	41.79
855.397	45.09
855.832	48.19
856.266	40.09
856.701	37.39
857.136	33.79
857.57	39.09
858.005	46.79
858.44	61.09
858.874	42.89
859.309	49.89
859.743	37.29
860.178	46.99
860.612	40.79
861.047	46.69
861.481	67.99
861.915	69.79
862.35	53.29
862.784	35.09
863.218	33.19
863.653	33.89
864.087	44.79
864.521	55.39
864.955	73.79
865.39	150.89
865.824	169.59
866.258	112.09
866.692	157.79
867.126	174.69
867.56	98.79
867.994	54.19
868.428	33.69
868.862	45.49
869.296	48.69
869.73	54.79
870.164	50.49
870.598	48.49
871.031	38.69
871.465	32.39
871.899	30.69
872.333	21.99
872.766	22.89
873.2	15.59
873.634	28.89
874.067	26.99
874.501	27.79
874.935	31.19
875.368	33.79
875.802	22.69
876.235	27.79
876.669	30.99
877.102	21.89
877.535	24.49
877.969	24.09
878.402	27.79
878.836	15.89
879.269	28.59
879.702	24.29
880.135	21.09
880.569	26.99
881.002	25.49
881.435	19.99
881.868	13.69
882.301	19.69
882.734	13.49
883.167	24.69
883.601	23.09
884.034	20.89
884.467	16.59
884.899	19.89
885.332	18.29
885.765	13.89
886.198	17.99
886.631	22.69
887.064	19.19
887.497	18.89
887.929	23.39
888.362	14.09
888.795	10.49
889.228	17.19
889.66	19.69
890.093	22.19
890.526	19.19
890.958	17.79
891.391	19.09
891.823	21.99
892.256	9.09
892.688	6.09
893.121	16.09
893.553	11.09
893.985	19.39
894.418	20.09
894.85	13.49
895.282	15.79
895.715	16.89
896.147	19.59
896.579	14.29
897.011	14.09
897.444	22.69
897.876	11.09
898.308	15.29
898.74	13.49
899.172	13.49
899.604	24.39
900.036	23.09
900.468	16.39
900.9	12.59
901.332	19.29
901.764	13.29
902.196	20.99
902.628	16.99
903.06	16.89
903.491	28.39
903.923	21.39
904.355	24.49
904.787	23.49
905.218	21.19
905.65	26.29
906.082	9.89
906.513	13.69
906.945	17.79
907.376	9.89
907.808	14.69
908.239	24.99
908.671	22.59
909.102	20.19
909.534	22.29
909.965	47.59
910.397	90.09
910.828	303.19
911.259	468.19
911.691	213.59
912.122	108.79
912.553	50.39
912.984	30.99
913.415	21.59
913.847	24.99
914.278	18.09
914.709	14.39
915.14	18.09
915.571	21.79
916.002	17.79
916.433	17.99
916.864	17.29
917.295	14.79
917.726	21.79
918.157	16.79
918.587	25.69
919.018	17.39
919.449	23.59
919.88	23.89
920.311	24.69
920.741	51.99
921.172	159.79
921.603	147.49
922.033	74.29
922.464	44.99
922.895	25.99
923.325	17.99
923.756	20.49
924.186	14.69
924.617	23.89
925.047	40.39
925.478	49.19
925.908	47.09
926.338	20.49
926.769	22.39
927.199	22.19
927.629	9.19
928.06	16.69
928.49	10.79
928.92	13.69
929.35	9.99
929.78	14.89
930.21	8.09
930.641	7.89
931.071	9.39
931.501	4.09
931.931	7.69
932.361	5.79
932.791	1.89
933.221	7.39
933.651	3.89
934.08	13.29
934.51	31.69
934.94	4.39
935.37	8.89
935.8	7.29
936.229	2.39
936.659	12.29
937.089	5.09
937.519	12.79
937.948	27.49
938.378	12.99
938.807	-0.01
939.237	5.49
939.666	6.99
940.096	1.39
940.525	1.79
940.955	2.59
941.384	2.69
941.814	-7.61
942.243	-3.21
942.672	3.09
943.102	-4.41
943.531	3.39
943.96	4.19
944.39	3.49
944.819	-0.51
945.248	-3.41
945.677	1.09
946.106	8.59
946.535	6.39
946.964	4.29
947.393	10.39
947.822	2.69
948.251	-4.21
948.68	1.69
949.109	7.29
949.538	8.99
949.967	2.09
950.396	1.49
950.825	-4.21
951.254	0.09
951.682	-1.91
952.111	3.79
952.54	1.79
952.969	-0.41
953.397	-0.61
953.826	-1.01
954.254	-9.21
954.683	0.79
955.112	-0.31
955.54	2.79
955.969	1.99
956.397	1.29
956.826	-2.31
957.254	3.19
957.682	2.79
958.111	9.19
958.539	0.59
958.967	0.59
959.396	-1.51
959.824	5.59
960.252	3.39
960.68	-4.21
961.109	-2.91
961.537	3.89
961.965	3.59
962.393	2.69
962.821	-7.81
963.249	-1.71
963.677	5.29
964.105	3.19
964.533	42.49
964.961	36.79
965.389	19.29
965.817	5.69
966.245	6.69
966.672	-3.31
967.1	-6.01
967.528	-1.71
967.956	-3.41
968.383	-2.51
968.811	1.09
969.239	-3.31
969.666	-6.61
970.094	-0.21
970.522	0.09
970.949	-2.71
971.377	-2.81
971.804	-3.81
972.232	1.29
972.659	-0.01
973.087	-3.31
973.514	-9.81
973.941	-5.31
974.369	0.09
974.796	-3.11
975.223	-0.31
975.651	1.09
976.078	-0.81
976.505	-1.01
976.932	7.69
977.359	10.89
977.786	16.39
978.214	1.89
978.641	1.59
979.068	-6.61
979.495	-10.51
979.922	0.49
980.349	-8.71
980.776	-0.81
981.202	1.19
981.629	4.29
982.056	0.49
982.483	-8.71
982.91	0.49
983.337	-7.21
983.763	3.19
984.19	-4.21
984.617	-3.61
985.043	-12.51
985.47	-9.61
985.897	-6.91
986.323	-11.81
986.75	-1.21
987.176	0.89
987.603	-0.41
988.029	-5.91
988.456	-3.31
988.882	1.19
989.308	-5.31
989.735	-4.31
990.161	-1.01
990.587	-7.61
991.014	4.09
991.44	7.59
991.866	-1.01
992.292	-6.21
992.719	-3.31
993.145	3.39
993.571	-9.01
993.997	-4.11
994.423	-7.21
994.849	-6.91
995.275	4.19
995.701	-2.61
996.127	1.49
996.553	-5.41
996.979	0.79
997.405	-0.81
997.83	-2.31
998.256	-1.81
998.682	-5.21
999.108	-7.71
999.534	-6.31
999.959	2.89
1000.385	-2.51
1000.811	3.69
1001.236	-9.61
1001.662	-8.41
1002.087	-11.01
1002.513	-6.81
1002.938	-1.21
1003.364	-5.81
1003.789	-3.71
1004.215	-1.41
1004.64	-8.41
1005.066	4.09
1005.491	-0.51
1005.916	4.99
1006.342	-2.01
1006.767	-7.01
1007.192	4.59
1007.617	-4.61
1008.042	-6.31
1008.468	-1.11
1008.893	-6.01
1009.318	-6.31
1009.743	-8.41
1010.168	4.09
1010.593	1.09
1011.018	-3.61
1011.443	-4.41
1011.868	0.89
1012.293	-4.11
1012.718	-5.01
1013.143	-4.51
1013.567	-0.11
1013.992	-1.41
1014.417	-14.71
1014.842	-1.31
1015.267	-3.01
1015.691	-5.21
1016.116	4.69
1016.541	-4.71
1016.965	-0.81
1017.39	-3.61
1017.814	0.89
1018.239	2.39
1018.663	-7.71
1019.088	-7.61
1019.512	-7.41
1019.937	-0.21
1020.361	-4.71
1020.785	-8.61
1021.21	-1.71
1021.634	-3.21
1022.058	-4.01
1022.483	-1.31
1022.907	-6.21
1023.331	-3.41
1023.755	-2.61
1024.179	-0.81
1024.604	-6.61
1025.028	-6.31
1025.452	0.39
1025.876	-6.51
1026.3	-0.51
1026.724	-11.61
1027.148	-4.71
1027.572	-14.41
1027.996	-3.11
1028.42	-1.31
1028.843	-10.21
1029.267	-8.21
1029.691	-3.61
1030.115	-5.41
1030.539	-7.21
1030.962	-7.41
1031.386	-12.41
1031.81	-0.31
1032.233	-1.01
1032.657	0.59
1033.08	1.29
1033.504	-6.61
1033.927	-5.31
1034.351	2.09
1034.774	-1.11
1035.198	-5.51
1035.621	-7.51
1036.045	-9.01
1036.468	1.59
1036.891	-14.11
1037.315	-8.51
1037.738	-12.71
1038.161	-4.31
1038.584	-7.71
1039.008	-7.21
1039.431	-4.31
1039.854	-2.21
1040.277	-13.51
1040.7	-14.71
1041.123	4.69
1041.546	-6.51
1041.969	-7.71
1042.392	-6.71
1042.815	-6.71
1043.238	-3.41
1043.661	0.09
1044.084	-6.11
1044.507	-1.91
1044.93	-11.11
1045.352	-7.71
1045.775	-2.61
1046.198	-0.41
1046.621	1.29
1047.043	2.29
1047.466	3.29
1047.889	-3.61
1048.311	-0.31
1048.734	-1.51
1049.156	-2.71
1049.579	-5.21
1050.001	-9.81
1050.424	-1.61
1050.846	-2.91
1051.269	-7.61
1051.691	-4.21
1052.113	-4.81
1052.536	-3.41
1052.958	-0.41
1053.38	-0.71
1053.802	-6.01
1054.225	1.59
1054.647	-9.21
1055.069	-5.51
1055.491	-1.91
1055.913	-5.31
1056.335	-1.61
1056.757	-1.41
1057.179	-1.71
1057.601	-7.11
1058.023	-7.41
1058.445	-3.91
1058.867	-2.11
1059.289	-4.21
1059.711	-10.01
1060.133	-3.71
1060.555	-8.81
1060.976	-6.31
1061.398	-12.61
1061.82	-3.91
1062.241	-4.21
1062.663	-5.31
1063.085	-8.31
1063.506	-2.31
1063.928	-8.81
1064.35	-4.01
1064.771	-16.61
1065.193	-5.21
1065.614	-5.61
1066.035	-5.01
1066.457	-13.31
1066.878	2.89
1067.3	-3.51
1067.721	-7.01
1068.142	-7.71
1068.564	-2.01
1068.985	-3.21
1069.406	-4.71
1069.827	0.39
1070.248	-1.91
1070.67	-4.81
1071.091	-8.81
1071.512	-1.81
1071.933	-5.91
1072.354	-3.21
1072.775	-3.61
1073.196	-7.41
1073.617	-0.61
1074.038	-8.91
1074.459	-3.81
1074.88	-13.11
1075.3	-4.31
1075.721	-7.11
1076.142	-3.61
1076.563	-1.61
1076.983	-8.41
1077.404	-9.91
1077.825	-18.11
1078.246	-6.21
1078.666	-13.81
1079.087	-2.81
1079.507	-5.51
1079.928	-1.01
1080.348	-3.21
1080.769	-10.41
1081.189	-2.31
1081.61	-2.31
1082.03	-4.51
1082.451	-8.71
1082.871	-2.21
1083.291	-1.31
1083.711	-7.41
1084.132	-2.31
1084.552	-6.11
1084.972	-3.81
1085.392	-15.41
1085.813	-9.21
1086.233	-2.41
1086.653	-5.21
1087.073	-4.41
1087.493	-7.91
1087.913	-3.01
1088.333	-11.91
1088.753	-5.71
1089.173	-2.91
1089.593	-1.71
1090.013	0.99
1090.433	-2.61
1090.852	-6.91
1091.272	-2.01
1091.692	-4.91
1092.112	-9.81
1092.531	-5.91
1092.951	-9.71
1093.371	-3.71
1093.79	-5.71
1094.21	-8.31
1094.63	-3.31
1095.049	-9.31
1095.469	-2.61
1095.888	-6.61
1096.308	-5.81
1096.727	4.09
1097.146	-7.71
1097.566	0.89
1097.985	-5.41
1098.405	1.69
1098.824	-6.71
1099.243	-5.71
1099.662	-14.21
1100.082	-4.01
1100.501	-2.91
1100.92	-8.31
1101.339	-3.71
1101.758	-3.31
