Data from 20171114-ORNL-Ar_H_NY_Subt18_08-08-15-384.txt Node
Date: Tue Nov 14 08:08:15 EST 2017
User: Ender
Spectrometer: HR+D1039
Trigger mode: 0
Integration Time (sec): 2.730000E-2
Scans to average: 10
Electric dark correction enabled: true
Nonlinearity correction enabled: false
Boxcar width: 0
XAxis mode: Wavelengths
Number of Pixels in Spectrum: 2048
>>>>>Begin Spectral Data<<<<<
187.836	-2.64
188.309	-2.64
188.782	-2.64
189.255	-3.54
189.728	-5.44
190.201	7.56
190.674	2.26
191.147	0.66
191.619	-5.94
192.092	4.16
192.565	8.46
193.038	4.56
193.511	-0.54
193.984	1.16
194.456	-5.84
194.929	2.16
195.402	-3.44
195.874	-3.64
196.347	-0.64
196.82	-5.24
197.292	0.56
197.765	-1.04
198.237	-3.04
198.71	7.16
199.182	0.56
199.655	2.86
200.127	5.06
200.6	-1.14
201.072	-6.04
201.544	-5.24
202.017	-5.34
202.489	6.56
202.961	3.06
203.433	-1.74
203.906	-6.64
204.378	-5.04
204.85	-3.24
205.322	-7.84
205.794	0.96
206.266	-8.94
206.739	-11.14
207.211	2.46
207.683	-7.34
208.155	-4.24
208.627	-2.94
209.099	-4.24
209.57	-7.24
210.042	-2.14
210.514	-6.24
210.986	0.66
211.458	-7.24
211.93	-3.94
212.402	4.26
212.873	-1.74
213.345	-13.44
213.817	-12.64
214.288	-2.54
214.76	-5.54
215.232	-0.24
215.703	-7.94
216.175	-5.24
216.646	-5.34
217.118	-8.14
217.589	-2.84
218.061	0.26
218.532	-6.44
219.004	-3.84
219.475	0.96
219.946	-1.94
220.418	0.56
220.889	6.56
221.36	-7.34
221.832	-9.04
222.303	-4.64
222.774	-1.54
223.245	-14.54
223.717	-2.14
224.188	-2.94
224.659	-6.94
225.13	-8.74
225.601	-0.94
226.072	5.16
226.543	1.26
227.014	1.16
227.485	-0.24
227.956	-6.34
228.427	-8.54
228.898	-0.54
229.369	3.66
229.839	-1.64
230.31	-11.24
230.781	3.46
231.252	-4.54
231.722	-1.24
232.193	-5.84
232.664	-3.34
233.135	7.36
233.605	-3.24
234.076	-7.44
234.546	5.66
235.017	5.56
235.487	0.06
235.958	-8.04
236.428	-6.24
236.899	3.26
237.369	-0.54
237.84	-0.44
238.31	7.66
238.78	2.46
239.251	-1.94
239.721	2.26
240.191	-1.04
240.662	-2.04
241.132	-2.04
241.602	-1.84
242.072	0.06
242.542	3.36
243.013	-5.84
243.483	-2.24
243.953	-0.84
244.423	-0.14
244.893	1.76
245.363	3.46
245.833	2.36
246.303	-4.14
246.773	7.16
247.243	-0.74
247.712	0.16
248.182	2.96
248.652	13.66
249.122	-3.34
249.592	7.76
250.061	19.56
250.531	24.06
251.001	13.56
251.471	18.06
251.94	11.36
252.41	7.66
252.879	0.36
253.349	14.56
253.818	4.76
254.288	9.56
254.757	7.06
255.227	-1.04
255.696	3.06
256.166	2.86
256.635	2.06
257.105	10.96
257.574	4.56
258.043	7.46
258.513	6.16
258.982	16.76
259.451	3.96
259.92	7.86
260.389	11.06
260.859	10.86
261.328	6.16
261.797	10.56
262.266	4.16
262.735	14.86
263.204	7.96
263.673	0.86
264.142	5.66
264.611	-6.44
265.08	-2.74
265.549	-2.74
266.018	6.16
266.487	1.16
266.955	2.66
267.424	1.16
267.893	7.16
268.362	4.36
268.83	0.26
269.299	10.86
269.768	6.96
270.236	4.16
270.705	4.66
271.174	3.66
271.642	10.56
272.111	5.76
272.579	9.46
273.048	22.96
273.516	16.66
273.985	23.66
274.453	24.46
274.922	21.16
275.39	13.26
275.858	1.36
276.327	9.46
276.795	13.06
277.263	10.96
277.731	24.36
278.2	44.66
278.668	50.16
279.136	40.66
279.604	16.06
280.072	17.26
280.54	9.86
281.008	4.76
281.477	13.16
281.945	13.16
282.413	8.76
282.881	6.46
283.348	3.86
283.816	11.46
284.284	10.96
284.752	18.36
285.22	7.66
285.688	6.96
286.156	21.66
286.623	35.16
287.091	45.66
287.559	33.86
288.026	12.96
288.494	14.96
288.962	5.66
289.429	12.26
289.897	13.26
290.364	14.56
290.832	12.76
291.3	11.86
291.767	15.66
292.234	13.86
292.702	14.56
293.169	19.66
293.637	21.96
294.104	19.56
294.571	12.86
295.039	15.66
295.506	14.56
295.973	14.66
296.44	18.96
296.908	17.36
297.375	17.26
297.842	21.86
298.309	18.86
298.776	13.26
299.243	17.26
299.71	13.56
300.177	12.16
300.644	18.96
301.111	20.36
301.578	20.76
302.045	11.56
302.512	19.76
302.979	23.96
303.446	20.86
303.913	20.86
304.379	15.16
304.846	23.46
305.313	24.96
305.78	19.16
306.246	21.36
306.713	26.26
307.18	23.86
307.646	30.06
308.113	24.86
308.579	23.46
309.046	22.16
309.512	26.76
309.979	13.56
310.445	24.06
310.912	27.06
311.378	25.46
311.845	30.26
312.311	25.86
312.777	25.46
313.244	30.66
313.71	30.86
314.176	29.06
314.642	33.56
315.109	34.06
315.575	35.16
316.041	34.66
316.507	30.36
316.973	37.36
317.439	31.06
317.905	31.46
318.371	33.16
318.837	32.86
319.303	32.76
319.769	29.06
320.235	29.86
320.701	38.06
321.167	31.96
321.633	36.56
322.099	34.76
322.564	36.26
323.03	32.26
323.496	37.36
323.962	37.66
324.427	37.56
324.893	39.76
325.359	34.16
325.824	34.26
326.29	30.66
326.755	39.26
327.221	34.86
327.686	41.66
328.152	45.06
328.617	38.66
329.083	47.46
329.548	47.86
330.014	45.76
330.479	41.46
330.944	43.36
331.41	39.16
331.875	41.06
332.34	44.16
332.805	43.96
333.271	47.16
333.736	39.86
334.201	51.56
334.666	46.16
335.131	53.76
335.596	47.36
336.061	45.06
336.526	38.36
336.991	46.36
337.456	52.96
337.921	41.36
338.386	42.26
338.851	48.56
339.316	43.36
339.781	40.16
340.246	49.66
340.711	47.36
341.175	46.16
341.64	37.26
342.105	45.46
342.569	54.06
343.034	52.76
343.499	52.46
343.963	46.76
344.428	55.36
344.893	55.56
345.357	58.86
345.822	61.96
346.286	64.26
346.751	71.46
347.215	65.56
347.679	69.16
348.144	92.66
348.608	80.56
349.073	64.76
349.537	75.06
350.001	72.26
350.465	87.86
350.93	79.06
351.394	77.46
351.858	64.46
352.322	86.56
352.786	85.96
353.25	97.16
353.715	112.26
354.179	93.16
354.643	113.76
355.107	122.06
355.571	102.06
356.035	106.46
356.498	113.66
356.962	122.86
357.426	129.56
357.89	115.56
358.354	80.56
358.818	81.06
359.281	81.96
359.745	75.56
360.209	75.86
360.673	74.56
361.136	81.26
361.6	79.46
362.064	81.86
362.527	83.96
362.991	90.06
363.454	76.26
363.918	73.96
364.381	77.46
364.845	78.26
365.308	83.76
365.772	81.46
366.235	82.76
366.698	80.26
367.162	83.06
367.625	84.16
368.088	85.66
368.552	82.66
369.015	85.66
369.478	94.06
369.941	98.56
370.404	92.46
370.867	101.76
371.331	112.06
371.794	110.46
372.257	104.16
372.72	112.76
373.183	110.36
373.646	100.46
374.109	102.26
374.572	108.76
375.035	107.46
375.497	103.96
375.96	107.76
376.423	106.96
376.886	110.36
377.349	110.56
377.811	102.36
378.274	107.86
378.737	106.66
379.199	104.06
379.662	109.76
380.125	113.26
380.587	111.86
381.05	119.46
381.512	128.96
381.975	127.86
382.437	128.46
382.9	123.96
383.362	126.16
383.825	139.36
384.287	147.06
384.75	141.56
385.212	135.86
385.674	141.76
386.136	134.66
386.599	119.16
387.061	125.06
387.523	129.56
387.985	133.76
388.447	139.66
388.91	140.56
389.372	161.06
389.834	151.46
390.296	150.06
390.758	155.66
391.22	163.86
391.682	206.36
392.144	302.06
392.606	234.16
393.068	167.66
393.529	172.86
393.991	154.66
394.453	144.56
394.915	150.16
395.377	195.36
395.838	216.26
396.3	158.06
396.762	135.36
397.224	131.86
397.685	132.56
398.147	135.66
398.608	133.86
399.07	130.46
399.531	137.86
399.993	146.26
400.454	152.66
400.916	143.36
401.377	143.16
401.839	149.06
402.3	147.36
402.762	171.66
403.223	180.56
403.684	170.76
404.145	158.36
404.607	150.66
405.068	160.66
405.529	168.36
405.99	181.46
406.451	176.86
406.913	171.66
407.374	165.66
407.835	159.56
408.296	167.66
408.757	180.76
409.218	189.66
409.679	173.26
410.14	176.96
410.601	181.66
411.062	177.56
411.522	187.26
411.983	193.26
412.444	180.26
412.905	184.26
413.366	177.76
413.826	191.06
414.287	215.16
414.748	257.86
415.208	239.56
415.669	201.06
416.13	210.46
416.59	201.06
417.051	217.26
417.511	218.66
417.972	230.36
418.432	240.66
418.893	286.56
419.353	239.86
419.814	195.56
420.274	179.96
420.734	185.66
421.195	199.86
421.655	193.36
422.115	193.56
422.576	189.36
423.036	197.86
423.496	208.26
423.956	216.16
424.416	234.96
424.876	260.26
425.336	258.66
425.797	267.46
426.257	253.96
426.717	244.16
427.177	234.16
427.637	224.16
428.097	234.16
428.556	247.56
429.016	268.56
429.476	261.46
429.936	273.16
430.396	279.26
430.856	291.36
431.315	317.26
431.775	353.16
432.235	378.06
432.694	352.36
433.154	363.16
433.614	401.86
434.073	346.96
434.533	280.46
434.993	270.36
435.452	285.06
435.912	297.96
436.371	289.16
436.83	286.36
437.29	273.66
437.749	246.66
438.209	244.46
438.668	275.86
439.127	281.06
439.587	269.16
440.046	248.36
440.505	256.46
440.964	269.26
441.424	314.76
441.883	311.16
442.342	262.76
442.801	227.96
443.26	221.46
443.719	216.86
444.178	215.36
444.637	211.46
445.096	219.16
445.555	221.16
446.014	229.66
446.473	229.66
446.932	241.76
447.391	224.16
447.849	228.06
448.308	217.26
448.767	224.66
449.226	234.06
449.685	234.56
450.143	246.86
450.602	228.66
451.061	226.06
451.519	225.46
451.978	229.46
452.436	242.06
452.895	242.16
453.353	244.76
453.812	242.66
454.27	237.96
454.729	233.66
455.187	238.06
455.646	249.46
456.104	245.86
456.562	256.96
457.021	264.06
457.479	264.16
457.937	268.96
458.395	259.26
458.854	249.66
459.312	257.86
459.77	270.96
460.228	255.26
460.686	248.96
461.144	248.36
461.602	244.76
462.06	243.76
462.518	256.56
462.976	253.16
463.434	251.06
463.892	265.66
464.35	270.56
464.808	288.46
465.266	264.36
465.724	270.46
466.181	265.76
466.639	272.16
467.097	281.66
467.555	295.76
468.012	294.96
468.47	312.66
468.928	331.56
469.385	332.26
469.843	339.06
470.3	350.86
470.758	355.36
471.215	373.96
471.673	404.76
472.13	409.96
472.588	418.56
473.045	367.96
473.503	366.96
473.96	384.16
474.417	399.06
474.875	434.56
475.332	468.06
475.789	461.66
476.246	464.66
476.704	486.46
477.161	504.86
477.618	512.36
478.075	561.56
478.532	605.36
478.989	690.46
479.446	804.86
479.903	755.96
480.36	794.06
480.817	856.26
481.274	957.26
481.731	1050.86
482.188	1147.66
482.645	1272.66
483.102	1377.36
483.558	1515.36
484.015	1562.46
484.472	1529.16
484.929	1484.26
485.385	1448.56
485.842	1389.86
486.299	1343.26
486.755	1280.16
487.212	1087.66
487.668	918.56
488.125	838.96
488.582	769.76
489.038	736.36
489.494	693.16
489.951	677.96
490.407	660.66
490.864	631.36
491.32	631.06
491.776	638.66
492.233	623.66
492.689	601.86
493.145	595.96
493.602	586.16
494.058	605.76
494.514	611.96
494.97	627.46
495.426	639.96
495.882	610.86
496.338	596.76
496.794	615.06
497.251	609.16
497.707	622.96
498.163	617.66
498.618	626.76
499.074	632.36
499.53	662.26
499.986	663.46
500.442	637.76
500.898	609.26
501.354	622.26
501.809	623.46
502.265	628.26
502.721	650.36
503.177	659.36
503.632	660.06
504.088	662.26
504.543	698.36
504.999	711.56
505.455	644.96
505.91	619.86
506.366	629.96
506.821	612.56
507.277	610.26
507.732	610.06
508.187	612.36
508.643	617.26
509.098	618.16
509.553	638.86
510.009	655.96
510.464	659.86
510.919	682.56
511.375	689.16
511.83	694.86
512.285	706.26
512.74	739.96
513.195	769.96
513.65	755.06
514.105	752.56
514.56	753.66
515.015	778.96
515.47	793.76
515.925	770.66
516.38	771.96
516.835	776.66
517.29	760.16
517.745	754.66
518.2	756.16
518.655	738.46
519.109	728.76
519.564	731.06
520.019	715.06
520.474	711.96
520.928	710.16
521.383	708.56
521.838	696.66
522.292	696.96
522.747	694.76
523.201	691.06
523.656	685.66
524.11	682.56
524.565	684.16
525.019	676.96
525.474	689.76
525.928	688.86
526.382	684.96
526.837	677.76
527.291	681.86
527.745	684.36
528.2	683.16
528.654	669.96
529.108	664.56
529.562	675.86
530.016	674.06
530.47	680.26
530.925	680.96
531.379	679.66
531.833	692.46
532.287	683.76
532.741	683.36
533.195	691.66
533.649	700.26
534.103	704.46
534.556	694.16
535.01	700.26
535.464	693.36
535.918	705.96
536.372	693.16
536.826	703.46
537.279	696.86
537.733	691.46
538.187	692.26
538.64	699.66
539.094	713.06
539.548	710.56
540.001	716.56
540.455	707.26
540.908	708.26
541.362	739.46
541.815	737.26
542.269	746.76
542.722	744.86
543.175	757.66
543.629	763.76
544.082	779.66
544.536	770.26
544.989	769.06
545.442	781.06
545.895	774.26
546.349	794.76
546.802	771.26
547.255	777.96
547.708	783.86
548.161	799.26
548.614	797.86
549.067	823.16
549.52	811.86
549.973	797.76
550.426	789.16
550.879	783.96
551.332	780.46
551.785	792.66
552.238	791.76
552.691	805.36
553.144	822.36
553.596	832.26
554.049	837.26
554.502	876.26
554.955	896.46
555.407	896.06
555.86	878.36
556.313	879.66
556.765	873.96
557.218	862.16
557.67	866.56
558.123	855.06
558.576	854.96
559.028	860.76
559.48	878.76
559.933	855.36
560.385	824.56
560.838	799.56
561.29	771.66
561.742	769.56
562.195	756.16
562.647	757.56
563.099	758.76
563.551	759.66
564.004	776.26
564.456	764.56
564.908	746.96
565.36	737.96
565.812	730.06
566.264	720.26
566.716	718.26
567.168	712.66
567.62	719.56
568.072	696.46
568.524	689.76
568.976	682.86
569.428	666.76
569.88	679.26
570.332	673.56
570.784	664.96
571.235	671.76
571.687	674.46
572.139	699.46
572.59	699.96
573.042	696.56
573.494	704.76
573.945	695.86
574.397	674.06
574.849	674.06
575.3	675.26
575.752	679.66
576.203	667.06
576.655	683.06
577.106	661.46
577.557	656.36
578.009	656.86
578.46	648.26
578.912	654.66
579.363	655.36
579.814	669.46
580.265	654.26
580.717	657.16
581.168	666.56
581.619	668.06
582.07	667.06
582.521	672.16
582.972	653.96
583.423	671.86
583.875	677.46
584.326	687.46
584.777	740.46
585.227	813.96
585.678	907.76
586.129	999.86
586.58	1051.06
587.031	1127.96
587.482	1283.76
587.933	1460.36
588.384	1275.56
588.834	966.76
589.285	791.46
589.736	779.16
590.186	767.26
590.637	753.66
591.088	741.16
591.538	735.96
591.989	729.76
592.439	712.06
592.89	706.36
593.34	703.46
593.791	702.26
594.241	698.86
594.692	697.16
595.142	695.96
595.593	691.26
596.043	699.76
596.493	711.66
596.943	718.66
597.394	707.96
597.844	710.36
598.294	717.36
598.744	743.86
599.195	763.26
599.645	802.66
600.095	855.96
600.545	906.86
600.995	954.46
601.445	1008.86
601.895	1073.16
602.345	1124.06
602.795	1096.26
603.245	1056.86
603.695	1001.16
604.145	940.86
604.594	898.86
605.044	851.56
605.494	777.86
605.944	747.96
606.393	736.86
606.843	720.36
607.293	715.96
607.743	726.86
608.192	745.76
608.642	759.36
609.091	753.86
609.541	758.86
609.99	760.16
610.44	760.86
610.889	715.76
611.339	703.86
611.788	686.56
612.238	698.26
612.687	716.16
613.136	723.16
613.586	727.46
614.035	730.86
614.484	742.06
614.933	757.46
615.383	745.76
615.832	729.16
616.281	716.06
616.73	679.26
617.179	660.86
617.628	641.06
618.077	627.86
618.526	622.16
618.975	619.66
619.424	604.96
619.873	605.26
620.322	612.96
620.771	603.06
621.22	594.86
621.669	584.36
622.118	585.46
622.567	574.36
623.015	572.56
623.464	571.06
623.913	555.26
624.361	545.46
624.81	545.36
625.259	549.86
625.707	554.56
626.156	552.06
626.604	568.36
627.053	561.36
627.501	557.86
627.95	565.76
628.398	577.16
628.847	574.26
629.295	568.96
629.744	573.36
630.192	560.46
630.64	563.96
631.089	573.36
631.537	581.96
631.985	587.06
632.433	594.56
632.881	611.66
633.33	653.26
633.778	636.66
634.226	565.26
634.674	577.76
635.122	580.56
635.57	600.36
636.018	623.46
636.466	570.06
636.914	554.66
637.362	567.06
637.81	568.86
638.258	569.46
638.705	583.36
639.153	604.56
639.601	612.16
640.049	637.36
640.497	665.36
640.944	693.46
641.392	638.46
641.84	601.46
642.287	579.26
642.735	561.56
643.182	560.96
643.63	570.56
644.078	580.16
644.525	587.76
644.973	595.56
645.42	601.76
645.867	620.76
646.315	636.66
646.762	654.36
647.21	694.66
647.657	712.26
648.104	747.56
648.551	764.56
648.999	835.06
649.446	920.66
649.893	1007.16
650.34	1173.16
650.787	1376.26
651.234	1731.16
651.682	2253.06
652.129	3127.36
652.576	4485.96
653.023	6643.96
653.47	9055.66
653.917	11206.76
654.363	12881.46
654.81	14127.36
655.257	13407.46
655.704	8803.36
656.151	5198.06
656.598	3393.96
657.044	2398.66
657.491	1851.76
657.938	1472.96
658.385	1228.46
658.831	1058.86
659.278	966.46
659.724	850.76
660.171	786.56
660.618	719.16
661.064	688.26
661.511	671.86
661.957	657.96
662.404	644.96
662.85	647.66
663.296	625.76
663.743	562.06
664.189	536.86
664.635	539.36
665.082	524.96
665.528	522.46
665.974	521.06
666.42	503.66
666.867	503.16
667.313	492.46
667.759	476.56
668.205	482.76
668.651	480.66
669.097	477.36
669.543	497.76
669.989	469.96
670.435	456.56
670.881	439.46
671.327	447.26
671.773	463.06
672.219	478.06
672.665	550.16
673.11	585.76
673.556	630.56
674.002	666.96
674.448	661.66
674.893	541.66
675.339	467.76
675.785	430.46
676.23	414.76
676.676	391.56
677.122	381.96
677.567	368.26
678.013	372.76
678.458	359.36
678.904	361.86
679.349	344.66
679.794	349.46
680.24	351.66
680.685	343.36
681.131	343.46
681.576	354.26
682.021	355.76
682.466	350.96
682.912	351.26
683.357	351.26
683.802	383.16
684.247	403.96
684.692	453.26
685.137	494.66
685.583	531.26
686.028	553.36
686.473	513.36
686.918	441.16
687.363	420.26
687.807	398.86
688.252	368.86
688.697	347.86
689.142	339.16
689.587	339.86
690.032	326.66
690.477	344.66
690.921	343.96
691.366	382.66
691.811	403.56
692.255	428.46
692.7	450.56
693.145	511.36
693.589	715.56
694.034	1151.86
694.478	1539.26
694.923	1710.86
695.367	2216.26
695.812	1179.66
696.256	493.96
696.701	367.66
697.145	349.76
697.59	334.46
698.034	321.26
698.478	320.26
698.922	327.86
699.367	326.36
699.811	329.86
700.255	360.86
700.699	386.36
701.143	421.36
701.588	478.26
702.032	511.16
702.476	501.66
702.92	494.06
703.364	500.06
703.808	651.96
704.252	1051.86
704.696	1461.76
705.14	1651.06
705.584	2089.66
706.027	1048.36
706.471	518.66
706.915	389.76
707.359	346.56
707.803	317.06
708.246	311.56
708.69	307.06
709.134	316.86
709.577	307.36
710.021	323.76
710.465	310.56
710.908	302.26
711.352	300.06
711.795	310.76
712.239	350.36
712.682	392.16
713.126	416.06
713.569	459.06
714.012	360.56
714.456	316.76
714.899	292.56
715.342	270.06
715.786	264.16
716.229	264.76
716.672	258.26
717.115	250.86
717.558	247.16
718.002	254.66
718.445	263.66
718.888	289.86
719.331	292.26
719.774	302.46
720.217	303.86
720.66	281.96
721.103	264.66
721.546	258.66
721.989	240.06
722.432	229.76
722.874	242.26
723.317	229.96
723.76	235.66
724.203	258.96
724.645	315.86
725.088	452.56
725.531	569.36
725.974	634.56
726.416	533.46
726.859	304.76
727.301	245.86
727.744	239.86
728.187	235.26
728.629	236.96
729.071	251.06
729.514	259.96
729.956	270.06
730.399	281.36
730.841	288.06
731.283	271.96
731.726	260.66
732.168	265.26
732.61	270.36
733.053	286.16
733.495	309.46
733.937	352.96
734.379	395.16
734.821	432.46
735.263	546.76
735.705	849.86
736.148	1603.96
736.59	2565.16
737.032	2973.16
737.474	2415.66
737.916	807.16
738.357	420.56
738.799	335.66
739.241	297.26
739.683	284.66
740.125	293.36
740.567	297.26
741.008	314.36
741.45	316.06
741.892	317.66
742.334	349.36
742.775	350.36
743.217	332.86
743.658	271.06
744.1	255.36
744.542	256.26
744.983	304.16
745.425	336.66
745.866	349.96
746.307	283.86
746.749	283.96
747.19	326.46
747.632	469.06
748.073	906.66
748.514	1888.46
748.956	2829.86
749.397	3547.66
749.838	2924.46
750.279	2876.66
750.72	1477.06
751.162	548.06
751.603	321.16
752.044	244.96
752.485	215.16
752.926	210.66
753.367	197.26
753.808	194.96
754.249	195.66
754.69	189.86
755.131	180.66
755.572	177.16
756.013	180.86
756.453	180.26
756.894	190.36
757.335	189.06
757.776	189.86
758.216	192.56
758.657	194.46
759.098	200.86
759.538	223.56
759.979	273.06
760.42	377.76
760.86	723.06
761.301	1886.56
761.741	4462.56
762.182	6266.56
762.622	4390.96
763.063	1288.56
763.503	532.96
763.943	342.86
764.384	337.16
764.824	399.36
765.264	422.86
765.705	296.86
766.145	205.16
766.585	182.86
767.025	177.26
767.465	190.96
767.906	236.96
768.346	308.46
768.786	328.86
769.226	257.96
769.666	328.56
770.106	642.06
770.546	1601.66
770.986	2594.06
771.426	2306.26
771.866	789.76
772.306	330.36
772.745	213.26
773.185	176.86
773.625	170.76
774.065	164.76
774.505	195.96
774.944	315.76
775.384	686.76
775.824	1191.36
776.263	1160.06
776.703	496.76
777.142	223.76
777.582	158.66
778.021	137.56
778.461	140.36
778.9	141.36
779.34	137.66
779.779	120.36
780.219	111.26
780.658	115.16
781.097	110.36
781.537	106.76
781.976	104.96
782.415	110.56
782.855	105.66
783.294	106.86
783.733	107.86
784.172	107.86
784.611	107.66
785.05	109.66
785.489	113.46
785.928	122.26
786.367	122.36
786.806	121.06
787.245	130.66
787.684	142.76
788.123	144.76
788.562	133.96
789.001	123.96
789.44	125.36
789.879	110.96
790.317	116.66
790.756	124.36
791.195	126.76
791.634	149.66
792.072	207.36
792.511	375.06
792.95	1038.86
793.388	2107.06
793.827	1877.86
794.265	675.96
794.704	278.96
795.142	177.46
795.581	150.56
796.019	129.66
796.458	122.56
796.896	121.46
797.334	133.36
797.773	155.06
798.211	223.46
798.649	451.06
799.087	1023.46
799.526	1594.86
799.964	2000.56
800.402	1941.26
800.84	743.26
801.278	303.76
801.716	185.66
802.154	154.16
802.592	144.16
803.03	143.76
803.468	132.86
803.906	142.36
804.344	149.06
804.782	138.36
805.22	134.46
805.658	124.86
806.096	147.36
806.533	157.66
806.971	171.76
807.409	219.66
807.847	321.16
808.284	676.06
808.722	1893.16
809.16	3243.46
809.597	3166.86
810.035	5390.46
810.472	5577.76
810.91	2046.16
811.347	788.96
811.785	399.06
812.222	254.76
812.66	192.26
813.097	165.56
813.535	142.16
813.972	129.06
814.409	123.36
814.846	106.16
815.284	102.26
815.721	102.16
816.158	105.76
816.595	122.06
817.032	180.26
817.47	195.96
817.907	162.06
818.344	143.66
818.781	116.76
819.218	100.86
819.655	125.06
820.092	187.46
820.529	210.86
820.966	172.76
821.403	129.16
821.839	106.56
822.276	103.26
822.713	122.56
823.15	126.56
823.587	111.76
824.023	146.96
824.46	310.36
824.897	913.66
825.333	1332.66
825.77	573.56
826.206	230.56
826.643	131.66
827.08	100.56
827.516	77.06
827.953	78.76
828.389	79.86
828.825	65.96
829.262	67.86
829.698	63.06
830.135	63.06
830.571	67.86
831.007	62.96
831.443	65.26
831.88	58.66
832.316	59.16
832.752	63.76
833.188	61.66
833.624	60.36
834.06	62.26
834.497	69.76
834.933	70.96
835.369	71.86
835.805	65.66
836.241	74.26
836.677	76.46
837.112	94.16
837.548	106.36
837.984	130.26
838.42	202.16
838.856	506.66
839.292	1524.16
839.727	2242.26
840.163	1047.86
840.599	942.36
841.034	2026.56
841.47	2062.76
841.906	756.96
842.341	330.76
842.777	232.86
843.212	316.96
843.648	306.66
844.083	151.66
844.519	92.06
844.954	78.76
845.39	64.26
845.825	57.96
846.261	58.46
846.696	51.46
847.131	53.86
847.566	56.76
848.002	48.86
848.437	51.76
848.872	56.76
849.307	59.16
849.742	77.36
850.177	181.16
850.613	565.56
851.048	871.16
851.483	366.86
851.918	155.96
852.353	86.86
852.788	57.26
853.223	62.06
853.657	54.06
854.092	47.36
854.527	42.56
854.962	37.46
855.397	46.16
855.832	45.16
856.266	42.76
856.701	41.96
857.136	38.26
857.57	38.76
858.005	54.06
858.44	66.26
858.874	46.76
859.309	56.16
859.743	42.06
860.178	48.56
860.612	41.96
861.047	48.16
861.481	68.66
861.915	67.86
862.35	50.26
862.784	39.56
863.218	38.96
863.653	31.16
864.087	46.96
864.521	51.56
864.955	73.76
865.39	153.06
865.824	175.16
866.258	108.06
866.692	161.26
867.126	170.76
867.56	99.86
867.994	58.66
868.428	36.86
868.862	47.96
869.296	55.06
869.73	57.16
870.164	48.56
870.598	45.96
871.031	39.36
871.465	32.96
871.899	35.36
872.333	25.06
872.766	28.66
873.2	19.86
873.634	31.46
874.067	30.06
874.501	26.96
874.935	34.16
875.368	27.36
875.802	28.36
876.235	22.96
876.669	25.96
877.102	21.36
877.535	23.26
877.969	22.96
878.402	19.96
878.836	18.76
879.269	28.76
879.702	18.96
880.135	26.16
880.569	25.16
881.002	27.66
881.435	22.06
881.868	15.06
882.301	23.26
882.734	15.96
883.167	24.46
883.601	19.06
884.034	19.86
884.467	14.76
884.899	20.36
885.332	17.76
885.765	16.86
886.198	15.86
886.631	19.56
887.064	18.46
887.497	25.36
887.929	30.36
888.362	15.06
888.795	14.96
889.228	21.56
889.66	19.36
890.093	20.16
890.526	17.66
890.958	18.36
891.391	11.56
891.823	25.06
892.256	14.86
892.688	12.26
893.121	15.66
893.553	15.16
893.985	21.56
894.418	20.66
894.85	18.66
895.282	17.96
895.715	21.96
896.147	17.16
896.579	21.96
897.011	14.86
897.444	19.86
897.876	12.86
898.308	17.76
898.74	15.36
899.172	14.36
899.604	25.86
900.036	19.46
900.468	13.36
900.9	14.26
901.332	22.46
901.764	11.96
902.196	15.86
902.628	17.96
903.06	12.86
903.491	20.16
903.923	27.06
904.355	15.86
904.787	26.86
905.218	23.96
905.65	17.96
906.082	10.56
906.513	14.86
906.945	14.96
907.376	12.26
907.808	19.56
908.239	23.26
908.671	14.06
909.102	20.56
909.534	25.96
909.965	52.16
910.397	101.46
910.828	318.06
911.259	465.06
911.691	215.26
912.122	105.16
912.553	47.56
912.984	30.36
913.415	26.66
913.847	19.96
914.278	7.66
914.709	11.86
915.14	18.36
915.571	17.66
916.002	16.06
916.433	23.96
916.864	18.56
917.295	15.66
917.726	18.16
918.157	19.96
918.587	28.06
919.018	23.66
919.449	20.36
919.88	27.16
920.311	27.46
920.741	46.06
921.172	178.96
921.603	147.16
922.033	72.66
922.464	48.46
922.895	22.36
923.325	19.76
923.756	15.36
924.186	16.96
924.617	18.96
925.047	39.86
925.478	56.86
925.908	47.56
926.338	23.26
926.769	20.26
927.199	18.56
927.629	7.66
928.06	16.36
928.49	14.56
928.92	14.46
929.35	11.66
929.78	6.46
930.21	7.56
930.641	7.36
931.071	5.76
931.501	-1.54
931.931	9.26
932.361	10.86
932.791	3.16
933.221	3.86
933.651	4.76
934.08	17.66
934.51	34.56
934.94	9.86
935.37	6.86
935.8	15.16
936.229	3.66
936.659	8.66
937.089	2.86
937.519	18.36
937.948	23.56
938.378	14.76
938.807	4.46
939.237	7.86
939.666	9.06
940.096	0.36
940.525	1.76
940.955	2.56
941.384	9.26
941.814	-12.74
942.243	-2.94
942.672	1.46
943.102	1.86
943.531	-1.24
943.96	3.26
944.39	2.06
944.819	1.46
945.248	4.26
945.677	2.76
946.106	8.56
946.535	3.66
946.964	2.16
947.393	5.46
947.822	3.16
948.251	0.16
948.68	5.26
949.109	7.76
949.538	2.66
949.967	1.46
950.396	-2.24
950.825	1.76
951.254	-1.24
951.682	-6.34
952.111	0.36
952.54	4.56
952.969	-4.14
953.397	-8.84
953.826	0.66
954.254	-0.54
954.683	-0.64
955.112	2.16
955.54	-1.04
955.969	0.06
956.397	-1.04
956.826	-0.54
957.254	3.66
957.682	0.76
958.111	1.36
958.539	-1.24
958.967	0.56
959.396	-4.84
959.824	3.26
960.252	-0.24
960.68	-7.24
961.109	-5.94
961.537	-5.54
961.965	-6.44
962.393	-2.14
962.821	-2.84
963.249	-2.94
963.677	5.66
964.105	1.66
964.533	48.76
964.961	37.76
965.389	18.86
965.817	3.26
966.245	7.36
966.672	-6.24
967.1	-8.54
967.528	7.16
967.956	-4.44
968.383	0.16
968.811	-5.04
969.239	0.06
969.666	-6.74
970.094	2.56
970.522	3.66
970.949	-6.84
971.377	-9.34
971.804	-6.54
972.232	-0.44
972.659	-7.34
973.087	-3.54
973.514	-7.64
973.941	-2.74
974.369	4.76
974.796	-2.44
975.223	-0.24
975.651	-5.24
976.078	4.16
976.505	-2.34
976.932	5.56
977.359	8.46
977.786	9.86
978.214	-4.24
978.641	-8.34
979.068	-3.44
979.495	-8.64
979.922	5.96
980.349	-7.34
980.776	5.26
981.202	4.26
981.629	5.26
982.056	5.76
982.483	-1.34
982.91	2.86
983.337	-3.84
983.763	-1.34
984.19	-5.64
984.617	-1.94
985.043	-8.44
985.47	-6.54
985.897	-7.84
986.323	-11.34
986.75	4.56
987.176	-0.74
987.603	4.56
988.029	0.36
988.456	-1.84
988.882	9.16
989.308	-6.34
989.735	-2.44
990.161	-1.04
990.587	-8.54
991.014	-0.74
991.44	4.36
991.866	-1.44
992.292	-4.84
992.719	1.26
993.145	4.26
993.571	-7.74
993.997	-6.34
994.423	-1.14
994.849	-7.04
995.275	5.56
995.701	-5.34
996.127	-7.04
996.553	-4.14
996.979	-3.74
997.405	-0.54
997.83	-5.54
998.256	-7.74
998.682	-7.74
999.108	-7.44
999.534	2.66
999.959	-3.94
1000.385	-1.94
1000.811	1.16
1001.236	-10.04
1001.662	-12.14
1002.087	-11.04
1002.513	1.26
1002.938	6.56
1003.364	-2.64
1003.789	-1.04
1004.215	-1.94
1004.64	-2.54
1005.066	2.96
1005.491	-2.94
1005.916	1.56
1006.342	-0.64
1006.767	-11.84
1007.192	1.96
1007.617	-7.14
1008.042	-5.54
1008.468	-3.14
1008.893	-5.74
1009.318	-8.64
1009.743	-5.24
1010.168	7.06
1010.593	1.96
1011.018	-14.04
1011.443	-1.54
1011.868	-1.04
1012.293	-0.04
1012.718	-2.44
1013.143	1.66
1013.567	-1.54
1013.992	-2.64
1014.417	-9.84
1014.842	0.36
1015.267	-6.74
1015.691	-6.64
1016.116	9.36
1016.541	-9.14
1016.965	3.76
1017.39	4.86
1017.814	2.36
1018.239	4.16
1018.663	-7.34
1019.088	-8.54
1019.512	-4.04
1019.937	1.36
1020.361	-8.24
1020.785	-10.24
1021.21	-6.04
1021.634	-3.94
1022.058	2.26
1022.483	2.26
1022.907	-3.54
1023.331	-2.24
1023.755	-1.94
1024.179	-1.44
1024.604	-3.74
1025.028	-6.34
1025.452	-2.04
1025.876	-5.94
1026.3	1.66
1026.724	-8.04
1027.148	-3.04
1027.572	-2.24
1027.996	-9.24
1028.42	-11.64
1028.843	1.26
1029.267	-6.04
1029.691	-5.84
1030.115	-6.54
1030.539	-5.14
1030.962	-6.74
1031.386	-8.94
1031.81	4.76
1032.233	-2.14
1032.657	-2.54
1033.08	3.96
1033.504	1.56
1033.927	-4.74
1034.351	0.66
1034.774	-9.84
1035.198	-5.14
1035.621	-11.14
1036.045	-4.44
1036.468	-0.14
1036.891	-8.24
1037.315	-3.44
1037.738	-9.04
1038.161	0.16
1038.584	-3.64
1039.008	-5.54
1039.431	-7.64
1039.854	-4.04
1040.277	-5.74
1040.7	-8.34
1041.123	-2.84
1041.546	-6.24
1041.969	-1.94
1042.392	-9.84
1042.815	-4.84
1043.238	-0.64
1043.661	4.56
1044.084	-10.54
1044.507	-3.54
1044.93	-7.04
1045.352	-6.94
1045.775	-0.24
1046.198	-1.24
1046.621	0.66
1047.043	2.86
1047.466	6.86
1047.889	-11.04
1048.311	-3.74
1048.734	-3.24
1049.156	-2.74
1049.579	-0.84
1050.001	-4.14
1050.424	-7.74
1050.846	-9.24
1051.269	-5.44
1051.691	-8.14
1052.113	-1.14
1052.536	-2.54
1052.958	-3.64
1053.38	-7.94
1053.802	-9.74
1054.225	0.06
1054.647	-5.04
1055.069	-6.24
1055.491	1.36
1055.913	-8.44
1056.335	-0.44
1056.757	-4.64
1057.179	-6.84
1057.601	-6.24
1058.023	-3.14
1058.445	-3.44
1058.867	-1.94
1059.289	-2.04
1059.711	-11.44
1060.133	-2.94
1060.555	-3.74
1060.976	-3.84
1061.398	-5.14
1061.82	-2.74
1062.241	-7.74
1062.663	-7.74
1063.085	-1.94
1063.506	3.56
1063.928	-3.94
1064.35	-0.54
1064.771	-10.34
1065.193	-7.54
1065.614	-12.14
1066.035	-8.84
1066.457	-3.44
1066.878	3.76
1067.3	-5.44
1067.721	-8.24
1068.142	-8.34
1068.564	-9.04
1068.985	-3.34
1069.406	-6.04
1069.827	-11.04
1070.248	-2.74
1070.67	-10.34
1071.091	-8.04
1071.512	-4.54
1071.933	-2.74
1072.354	-4.14
1072.775	-10.34
1073.196	-12.64
1073.617	-5.44
1074.038	-6.34
1074.459	-1.24
1074.88	-2.14
1075.3	-0.94
1075.721	-7.24
1076.142	-0.84
1076.563	-7.44
1076.983	-7.64
1077.404	-9.24
1077.825	-5.04
1078.246	-7.44
1078.666	-9.84
1079.087	-7.14
1079.507	-5.74
1079.928	1.66
1080.348	-6.04
1080.769	-0.74
1081.189	-4.24
1081.61	-2.84
1082.03	-9.84
1082.451	-9.64
1082.871	-11.44
1083.291	-4.74
1083.711	-12.24
1084.132	-4.54
1084.552	-7.04
1084.972	-2.84
1085.392	-7.24
1085.813	-12.94
1086.233	-3.54
1086.653	-9.34
1087.073	-0.54
1087.493	-11.64
1087.913	-8.14
1088.333	-2.74
1088.753	-2.54
1089.173	2.96
1089.593	-6.74
1090.013	0.56
1090.433	-1.54
1090.852	-1.04
1091.272	-4.94
1091.692	0.06
1092.112	2.36
1092.531	-7.84
1092.951	-10.54
1093.371	-5.34
1093.79	5.96
1094.21	-11.74
1094.63	-5.94
1095.049	-3.04
1095.469	-3.14
1095.888	-6.14
1096.308	3.06
1096.727	3.96
1097.146	-5.94
1097.566	-2.34
1097.985	-4.84
1098.405	-2.54
1098.824	-5.94
1099.243	-5.64
1099.662	-10.04
1100.082	-9.34
1100.501	-1.44
1100.92	-7.84
1101.339	-4.54
1101.758	-9.24
