Data from 20171114-ORNL-Ar_H_NY_Subt18_08-06-08-177.txt Node
Date: Tue Nov 14 08:06:08 EST 2017
User: Ender
Spectrometer: HR+D1039
Trigger mode: 0
Integration Time (sec): 2.730000E-2
Scans to average: 10
Electric dark correction enabled: true
Nonlinearity correction enabled: false
Boxcar width: 0
XAxis mode: Wavelengths
Number of Pixels in Spectrum: 2048
>>>>>Begin Spectral Data<<<<<
187.836	-5.78
188.309	-5.78
188.782	-5.78
189.255	2.82
189.728	-2.68
190.201	5.82
190.674	0.52
191.147	0.32
191.619	-10.98
192.092	0.62
192.565	4.22
193.038	2.22
193.511	2.12
193.984	3.82
194.456	0.22
194.929	-3.08
195.402	0.32
195.874	-0.48
196.347	1.02
196.82	-10.68
197.292	2.22
197.765	-3.78
198.237	-9.18
198.71	-0.48
199.182	-2.08
199.655	-0.28
200.127	-4.68
200.6	-2.38
201.072	-0.18
201.544	-11.28
202.017	-6.98
202.489	1.62
202.961	-6.78
203.433	-1.88
203.906	-6.18
204.378	-11.68
204.85	1.02
205.322	-9.28
205.794	-3.58
206.266	-1.18
206.739	-8.38
207.211	-0.28
207.683	-9.18
208.155	-2.88
208.627	-12.58
209.099	-3.38
209.57	-8.28
210.042	-7.98
210.514	-3.78
210.986	-6.68
211.458	-12.28
211.93	-1.28
212.402	-1.08
212.873	-9.48
213.345	-11.08
213.817	-11.08
214.288	-4.98
214.76	-12.68
215.232	-2.38
215.703	-5.28
216.175	-3.78
216.646	-7.38
217.118	-7.68
217.589	-9.98
218.061	-2.98
218.532	-0.88
219.004	-1.68
219.475	-11.38
219.946	-6.28
220.418	-5.08
220.889	2.42
221.36	-5.38
221.832	-5.88
222.303	-9.68
222.774	-3.58
223.245	-15.08
223.717	-7.48
224.188	-4.38
224.659	-7.88
225.13	-7.78
225.601	-7.38
226.072	0.72
226.543	-1.38
227.014	-4.38
227.485	-4.38
227.956	-7.58
228.427	-1.58
228.898	3.72
229.369	4.62
229.839	-3.68
230.31	-14.18
230.781	0.42
231.252	-2.28
231.722	-5.68
232.193	-1.08
232.664	0.02
233.135	-1.08
233.605	5.22
234.076	-5.48
234.546	1.52
235.017	1.82
235.487	-3.58
235.958	-0.78
236.428	-4.08
236.899	2.92
237.369	3.82
237.84	-5.48
238.31	-1.28
238.78	6.42
239.251	0.42
239.721	8.22
240.191	3.22
240.662	1.12
241.132	1.52
241.602	-1.58
242.072	3.02
242.542	8.52
243.013	1.72
243.483	4.22
243.953	7.82
244.423	-0.68
244.893	2.92
245.363	7.02
245.833	1.92
246.303	2.22
246.773	5.62
247.243	-0.48
247.712	-2.08
248.182	2.22
248.652	7.02
249.122	-1.38
249.592	14.72
250.061	14.02
250.531	27.52
251.001	19.72
251.471	20.02
251.94	19.42
252.41	7.92
252.879	-2.28
253.349	11.62
253.818	8.12
254.288	7.12
254.757	1.32
255.227	0.32
255.696	6.92
256.166	9.62
256.635	3.22
257.105	9.72
257.574	2.82
258.043	7.92
258.513	8.62
258.982	21.62
259.451	11.92
259.92	16.92
260.389	13.12
260.859	15.32
261.328	9.32
261.797	18.02
262.266	12.62
262.735	9.92
263.204	5.92
263.673	-0.48
264.142	0.72
264.611	0.12
265.08	1.42
265.549	-0.58
266.018	3.52
266.487	-4.78
266.955	-4.78
267.424	-0.78
267.893	8.22
268.362	-0.18
268.83	6.32
269.299	10.42
269.768	4.62
270.236	13.82
270.705	4.62
271.174	11.22
271.642	1.82
272.111	5.82
272.579	16.52
273.048	28.02
273.516	29.82
273.985	26.82
274.453	24.52
274.922	16.72
275.39	12.42
275.858	1.92
276.327	11.62
276.795	21.42
277.263	14.72
277.731	28.72
278.2	56.92
278.668	57.12
279.136	48.52
279.604	20.02
280.072	15.52
280.54	18.42
281.008	13.82
281.477	12.32
281.945	16.62
282.413	12.32
282.881	16.42
283.348	7.92
283.816	14.82
284.284	18.62
284.752	24.52
285.22	5.32
285.688	12.82
286.156	20.12
286.623	44.82
287.091	50.72
287.559	26.12
288.026	20.82
288.494	18.02
288.962	7.92
289.429	6.82
289.897	21.02
290.364	12.12
290.832	19.72
291.3	13.92
291.767	22.52
292.234	21.52
292.702	16.32
293.169	22.62
293.637	24.02
294.104	18.02
294.571	11.52
295.039	11.22
295.506	17.72
295.973	12.82
296.44	13.82
296.908	15.12
297.375	20.52
297.842	19.22
298.309	19.62
298.776	9.32
299.243	23.52
299.71	14.02
300.177	18.42
300.644	20.02
301.111	24.52
301.578	24.52
302.045	15.32
302.512	16.32
302.979	19.92
303.446	19.62
303.913	17.02
304.379	24.02
304.846	31.02
305.313	22.72
305.78	21.82
306.246	27.22
306.713	28.62
307.18	27.22
307.646	26.72
308.113	26.52
308.579	24.82
309.046	29.42
309.512	28.82
309.979	20.52
310.445	26.62
310.912	20.62
311.378	31.62
311.845	33.92
312.311	26.22
312.777	32.12
313.244	28.32
313.71	31.42
314.176	35.92
314.642	35.92
315.109	29.72
315.575	33.22
316.041	36.32
316.507	34.32
316.973	41.62
317.439	38.92
317.905	34.62
318.371	36.52
318.837	37.62
319.303	33.32
319.769	36.42
320.235	30.52
320.701	35.42
321.167	42.52
321.633	35.32
322.099	37.22
322.564	47.42
323.03	46.72
323.496	36.72
323.962	43.92
324.427	35.82
324.893	43.52
325.359	34.92
325.824	38.62
326.29	34.22
326.755	36.52
327.221	40.52
327.686	45.02
328.152	45.32
328.617	48.42
329.083	51.92
329.548	49.42
330.014	50.42
330.479	34.42
330.944	50.72
331.41	43.22
331.875	41.72
332.34	41.12
332.805	43.42
333.271	48.12
333.736	47.12
334.201	51.92
334.666	49.32
335.131	55.22
335.596	53.22
336.061	46.92
336.526	44.82
336.991	48.12
337.456	54.32
337.921	49.12
338.386	49.12
338.851	45.12
339.316	46.62
339.781	46.62
340.246	49.72
340.711	47.02
341.175	53.12
341.64	45.62
342.105	52.02
342.569	56.32
343.034	56.52
343.499	53.12
343.963	55.22
344.428	65.52
344.893	59.62
345.357	57.32
345.822	61.92
346.286	73.32
346.751	72.12
347.215	66.52
347.679	75.12
348.144	95.02
348.608	85.72
349.073	71.72
349.537	74.12
350.001	80.32
350.465	90.42
350.93	81.72
351.394	85.52
351.858	80.02
352.322	90.52
352.786	83.52
353.25	105.92
353.715	112.72
354.179	95.52
354.643	129.42
355.107	121.92
355.571	108.02
356.035	101.22
356.498	120.32
356.962	121.72
357.426	137.52
357.89	120.62
358.354	97.22
358.818	87.02
359.281	81.42
359.745	76.02
360.209	77.32
360.673	76.72
361.136	79.42
361.6	87.12
362.064	83.92
362.527	87.62
362.991	86.22
363.454	77.12
363.918	73.22
364.381	82.42
364.845	85.92
365.308	87.12
365.772	88.42
366.235	84.82
366.698	88.12
367.162	89.92
367.625	88.32
368.088	85.22
368.552	92.12
369.015	93.72
369.478	109.02
369.941	103.22
370.404	97.82
370.867	103.82
371.331	109.62
371.794	120.02
372.257	108.92
372.72	119.52
373.183	109.72
373.646	110.32
374.109	108.12
374.572	114.12
375.035	112.82
375.497	110.52
375.96	108.92
376.423	104.22
376.886	113.22
377.349	115.52
377.811	100.82
378.274	109.52
378.737	104.12
379.199	112.52
379.662	114.92
380.125	114.42
380.587	122.82
381.05	120.92
381.512	133.62
381.975	136.52
382.437	128.82
382.9	125.82
383.362	136.92
383.825	146.12
384.287	146.42
384.75	139.02
385.212	142.12
385.674	142.92
386.136	140.72
386.599	125.72
387.061	127.82
387.523	130.92
387.985	137.12
388.447	137.92
388.91	154.22
389.372	162.92
389.834	152.62
390.296	148.32
390.758	154.02
391.22	171.32
391.682	211.92
392.144	296.22
392.606	225.52
393.068	165.62
393.529	177.42
393.991	154.92
394.453	150.52
394.915	159.62
395.377	188.62
395.838	217.52
396.3	152.82
396.762	143.52
397.224	134.22
397.685	129.62
398.147	133.12
398.608	136.32
399.07	136.02
399.531	140.12
399.993	143.32
400.454	150.52
400.916	147.92
401.377	152.72
401.839	148.22
402.3	156.92
402.762	164.42
403.223	186.32
403.684	174.72
404.145	167.62
404.607	166.72
405.068	170.32
405.529	168.72
405.99	191.02
406.451	177.12
406.913	182.42
407.374	171.22
407.835	167.12
408.296	169.62
408.757	172.52
409.218	192.92
409.679	184.92
410.14	182.52
410.601	182.42
411.062	186.72
411.522	193.12
411.983	193.62
412.444	176.42
412.905	190.72
413.366	177.72
413.826	193.02
414.287	213.82
414.748	263.22
415.208	244.72
415.669	211.22
416.13	205.92
416.59	204.52
417.051	214.32
417.511	223.22
417.972	238.52
418.432	242.62
418.893	293.32
419.353	256.32
419.814	201.62
420.274	186.42
420.734	177.22
421.195	201.62
421.655	194.32
422.115	192.42
422.576	192.92
423.036	198.62
423.496	207.42
423.956	220.22
424.416	235.02
424.876	263.32
425.336	261.52
425.797	264.12
426.257	258.22
426.717	251.62
427.177	239.02
427.637	227.72
428.097	232.22
428.556	248.92
429.016	274.52
429.476	271.82
429.936	281.22
430.396	284.12
430.856	302.52
431.315	324.22
431.775	353.92
432.235	388.12
432.694	356.12
433.154	358.62
433.614	404.82
434.073	341.72
434.533	282.92
434.993	272.72
435.452	285.52
435.912	305.52
436.371	295.92
436.83	289.92
437.29	278.02
437.749	258.42
438.209	254.12
438.668	278.62
439.127	294.92
439.587	264.32
440.046	257.52
440.505	266.32
440.964	277.92
441.424	332.92
441.883	318.52
442.342	257.92
442.801	224.12
443.26	228.02
443.719	218.62
444.178	217.72
444.637	211.42
445.096	225.02
445.555	228.02
446.014	234.12
446.473	231.42
446.932	232.22
447.391	226.22
447.849	237.72
448.308	218.72
448.767	222.22
449.226	236.12
449.685	235.02
450.143	252.12
450.602	236.32
451.061	224.72
451.519	233.52
451.978	233.72
452.436	237.72
452.895	240.52
453.353	257.12
453.812	247.32
454.27	245.12
454.729	241.42
455.187	246.22
455.646	247.42
456.104	256.82
456.562	264.72
457.021	279.12
457.479	269.32
457.937	276.92
458.395	267.72
458.854	251.32
459.312	262.52
459.77	275.72
460.228	261.32
460.686	241.92
461.144	253.32
461.602	245.62
462.06	245.52
462.518	259.72
462.976	260.42
463.434	261.92
463.892	265.82
464.35	274.82
464.808	297.22
465.266	270.42
465.724	270.32
466.181	275.32
466.639	272.22
467.097	288.62
467.555	299.82
468.012	304.72
468.47	306.52
468.928	334.82
469.385	345.42
469.843	347.82
470.3	357.82
470.758	372.62
471.215	385.22
471.673	411.52
472.13	411.42
472.588	430.42
473.045	382.22
473.503	382.72
473.96	405.22
474.417	411.02
474.875	434.22
475.332	487.32
475.789	470.92
476.246	473.42
476.704	490.92
477.161	520.42
477.618	528.42
478.075	570.62
478.532	628.82
478.989	699.52
479.446	812.42
479.903	784.52
480.36	833.32
480.817	881.52
481.274	981.02
481.731	1082.52
482.188	1177.92
482.645	1319.12
483.102	1427.62
483.558	1574.52
484.015	1631.32
484.472	1599.72
484.929	1559.12
485.385	1503.12
485.842	1459.82
486.299	1382.82
486.755	1317.02
487.212	1111.52
487.668	945.32
488.125	865.22
488.582	785.92
489.038	757.72
489.494	716.22
489.951	701.72
490.407	672.72
490.864	656.12
491.32	650.42
491.776	654.82
492.233	648.62
492.689	622.42
493.145	614.42
493.602	611.82
494.058	626.02
494.514	629.92
494.97	654.92
495.426	651.62
495.882	630.32
496.338	616.52
496.794	620.22
497.251	622.72
497.707	642.82
498.163	639.12
498.618	647.32
499.074	655.22
499.53	684.72
499.986	697.62
500.442	675.42
500.898	648.62
501.354	635.32
501.809	639.52
502.265	647.12
502.721	668.72
503.177	679.22
503.632	668.92
504.088	688.22
504.543	720.02
504.999	722.62
505.455	671.72
505.91	643.82
506.366	636.92
506.821	638.42
507.277	633.92
507.732	618.92
508.187	635.32
508.643	637.12
509.098	632.12
509.553	656.12
510.009	667.02
510.464	671.82
510.919	694.52
511.375	698.12
511.83	722.82
512.285	725.02
512.74	769.82
513.195	794.02
513.65	785.52
514.105	773.32
514.56	789.82
515.015	801.22
515.47	820.32
515.925	791.02
516.38	791.12
516.835	791.42
517.29	786.82
517.745	780.22
518.2	767.42
518.655	749.52
519.109	746.12
519.564	745.32
520.019	738.82
520.474	728.12
520.928	727.12
521.383	731.72
521.838	715.22
522.292	710.52
522.747	722.62
523.201	710.22
523.656	693.82
524.11	697.32
524.565	699.62
525.019	687.62
525.474	700.52
525.928	698.92
526.382	700.02
526.837	699.32
527.291	706.22
527.745	699.82
528.2	712.52
528.654	689.02
529.108	690.12
529.562	693.92
530.016	699.22
530.47	688.32
530.925	692.82
531.379	698.52
531.833	717.42
532.287	716.72
532.741	702.42
533.195	711.72
533.649	719.22
534.103	728.72
534.556	713.42
535.01	721.12
535.464	710.92
535.918	722.72
536.372	728.92
536.826	724.72
537.279	710.42
537.733	715.92
538.187	714.02
538.64	723.82
539.094	734.72
539.548	736.72
540.001	717.52
540.455	721.82
540.908	734.62
541.362	737.32
541.815	748.82
542.269	760.12
542.722	753.62
543.175	775.22
543.629	775.12
544.082	783.62
544.536	796.62
544.989	784.12
545.442	798.62
545.895	793.42
546.349	788.32
546.802	793.62
547.255	796.52
547.708	804.22
548.161	820.62
548.614	823.22
549.067	835.82
549.52	823.12
549.973	827.72
550.426	814.32
550.879	795.52
551.332	807.52
551.785	809.02
552.238	812.62
552.691	820.62
553.144	841.32
553.596	852.72
554.049	867.02
554.502	896.52
554.955	911.42
555.407	909.22
555.86	900.22
556.313	889.02
556.765	882.62
557.218	883.32
557.67	879.62
558.123	883.42
558.576	883.02
559.028	886.32
559.48	879.42
559.933	866.62
560.385	839.02
560.838	814.52
561.29	779.32
561.742	775.52
562.195	761.92
562.647	764.72
563.099	770.72
563.551	772.72
564.004	792.72
564.456	776.22
564.908	755.42
565.36	746.12
565.812	729.62
566.264	724.52
566.716	728.62
567.168	716.42
567.62	725.12
568.072	703.12
568.524	713.62
568.976	686.22
569.428	682.52
569.88	671.22
570.332	690.42
570.784	684.92
571.235	680.72
571.687	698.32
572.139	704.22
572.59	709.92
573.042	711.92
573.494	712.22
573.945	698.92
574.397	686.72
574.849	687.92
575.3	691.42
575.752	678.02
576.203	681.32
576.655	686.82
577.106	663.42
577.557	669.62
578.009	671.72
578.46	666.22
578.912	658.12
579.363	673.22
579.814	664.42
580.265	666.22
580.717	666.72
581.168	669.62
581.619	674.12
582.07	686.12
582.521	675.72
582.972	668.22
583.423	679.02
583.875	682.52
584.326	700.22
584.777	743.52
585.227	814.32
585.678	914.12
586.129	1006.02
586.58	1060.92
587.031	1148.22
587.482	1308.32
587.933	1483.42
588.384	1292.82
588.834	964.42
589.285	793.92
589.736	788.92
590.186	768.02
590.637	769.62
591.088	728.42
591.538	725.22
591.989	729.72
592.439	721.22
592.89	712.52
593.34	714.22
593.791	704.32
594.241	696.42
594.692	702.52
595.142	703.62
595.593	693.72
596.043	708.22
596.493	713.02
596.943	718.32
597.394	719.02
597.844	706.62
598.294	722.82
598.744	749.22
599.195	769.12
599.645	811.22
600.095	850.42
600.545	917.62
600.995	963.42
601.445	1019.82
601.895	1071.52
602.345	1127.02
602.795	1115.52
603.245	1063.22
603.695	1003.22
604.145	951.22
604.594	901.42
605.044	848.52
605.494	796.82
605.944	751.32
606.393	730.42
606.843	728.52
607.293	725.42
607.743	726.22
608.192	734.12
608.642	754.02
609.091	757.72
609.541	764.22
609.99	756.72
610.44	760.92
610.889	715.22
611.339	694.42
611.788	686.02
612.238	701.62
612.687	713.32
613.136	714.32
613.586	728.72
614.035	736.92
614.484	753.22
614.933	749.82
615.383	748.42
615.832	736.02
616.281	729.82
616.73	685.12
617.179	660.32
617.628	647.22
618.077	630.22
618.526	614.52
618.975	618.22
619.424	603.02
619.873	607.42
620.322	617.62
620.771	603.92
621.22	602.22
621.669	583.22
622.118	579.42
622.567	578.22
623.015	567.72
623.464	577.02
623.913	550.62
624.361	543.82
624.81	543.02
625.259	549.92
625.707	551.52
626.156	552.52
626.604	560.62
627.053	556.02
627.501	560.02
627.95	561.12
628.398	570.52
628.847	555.12
629.295	555.92
629.744	571.72
630.192	553.92
630.64	557.32
631.089	564.52
631.537	576.82
631.985	579.82
632.433	591.02
632.881	606.62
633.33	650.82
633.778	632.92
634.226	557.12
634.674	568.32
635.122	568.92
635.57	592.52
636.018	618.92
636.466	575.62
636.914	549.52
637.362	569.62
637.81	570.12
638.258	572.82
638.705	569.62
639.153	601.82
639.601	611.92
640.049	637.52
640.497	661.62
640.944	679.82
641.392	626.82
641.84	604.12
642.287	579.22
642.735	565.42
643.182	565.72
643.63	575.92
644.078	569.32
644.525	586.52
644.973	590.42
645.42	595.42
645.867	619.42
646.315	629.72
646.762	659.52
647.21	688.62
647.657	705.52
648.104	742.22
648.551	762.12
648.999	825.82
649.446	915.32
649.893	998.72
650.34	1134.92
650.787	1384.12
651.234	1717.02
651.682	2244.92
652.129	3074.62
652.576	4414.92
653.023	6542.42
653.47	8977.82
653.917	11221.12
654.363	12962.92
654.81	14370.42
655.257	13665.62
655.704	8929.92
656.151	5301.32
656.598	3410.72
657.044	2420.72
657.491	1861.92
657.938	1482.12
658.385	1239.82
658.831	1066.92
659.278	944.52
659.724	853.22
660.171	784.82
660.618	719.62
661.064	680.82
661.511	655.92
661.957	643.92
662.404	633.52
662.85	653.52
663.296	612.92
663.743	554.42
664.189	526.12
664.635	524.22
665.082	524.52
665.528	529.32
665.974	502.22
666.42	505.22
666.867	499.22
667.313	488.92
667.759	476.22
668.205	470.62
668.651	478.62
669.097	473.72
669.543	496.02
669.989	461.62
670.435	441.22
670.881	444.02
671.327	438.92
671.773	462.12
672.219	477.92
672.665	532.22
673.11	570.22
673.556	615.32
674.002	666.02
674.448	650.02
674.893	530.42
675.339	466.42
675.785	426.32
676.23	405.92
676.676	377.92
677.122	366.82
677.567	362.72
678.013	364.82
678.458	347.12
678.904	340.22
679.349	336.72
679.794	351.12
680.24	345.92
680.685	349.32
681.131	347.82
681.576	333.52
682.021	347.12
682.466	344.52
682.912	332.32
683.357	344.82
683.802	372.62
684.247	402.72
684.692	447.12
685.137	491.32
685.583	519.32
686.028	553.82
686.473	501.72
686.918	427.92
687.363	403.72
687.807	383.62
688.252	364.92
688.697	354.32
689.142	329.52
689.587	321.62
690.032	313.72
690.477	335.22
690.921	342.32
691.366	370.82
691.811	398.82
692.255	424.62
692.7	453.72
693.145	485.32
693.589	676.62
694.034	1095.02
694.478	1498.42
694.923	1708.72
695.367	2212.32
695.812	1165.52
696.256	481.52
696.701	364.22
697.145	339.32
697.59	324.62
698.034	319.32
698.478	320.12
698.922	315.22
699.367	323.92
699.811	336.92
700.255	348.12
700.699	381.12
701.143	414.22
701.588	462.42
702.032	509.62
702.476	495.22
702.92	479.72
703.364	475.82
703.808	610.52
704.252	1001.62
704.696	1407.02
705.14	1636.72
705.584	2079.12
706.027	1040.92
706.471	504.12
706.915	390.92
707.359	344.72
707.803	315.22
708.246	294.82
708.69	299.72
709.134	306.92
709.577	303.82
710.021	315.72
710.465	301.82
710.908	286.82
711.352	292.02
711.795	304.72
712.239	341.42
712.682	374.32
713.126	397.52
713.569	454.52
714.012	360.82
714.456	320.42
714.899	293.92
715.342	268.02
715.786	257.92
716.229	254.32
716.672	252.02
717.115	239.62
717.558	243.62
718.002	247.02
718.445	260.42
718.888	272.62
719.331	285.62
719.774	303.52
720.217	301.32
720.66	277.22
721.103	264.92
721.546	250.32
721.989	242.52
722.432	224.82
722.874	235.02
723.317	224.32
723.76	232.22
724.203	253.82
724.645	308.82
725.088	435.32
725.531	554.82
725.974	633.12
726.416	538.12
726.859	302.02
727.301	238.62
727.744	234.32
728.187	223.52
728.629	233.62
729.071	241.32
729.514	255.82
729.956	261.02
730.399	276.62
730.841	283.42
731.283	268.32
731.726	256.42
732.168	248.52
732.61	258.82
733.053	274.72
733.495	307.42
733.937	335.12
734.379	386.92
734.821	423.92
735.263	528.72
735.705	804.22
736.148	1503.92
736.59	2496.42
737.032	2969.22
737.474	2415.92
737.916	777.52
738.357	417.12
738.799	320.02
739.241	288.32
739.683	273.72
740.125	284.22
740.567	290.92
741.008	304.22
741.45	310.62
741.892	311.72
742.334	336.52
742.775	348.12
743.217	335.52
743.658	257.22
744.1	249.42
744.542	251.62
744.983	299.02
745.425	332.32
745.866	332.92
746.307	271.32
746.749	274.42
747.19	314.02
747.632	442.32
748.073	837.52
748.514	1781.02
748.956	2760.62
749.397	3447.42
749.838	2861.72
750.279	2891.62
750.72	1447.22
751.162	525.52
751.603	312.42
752.044	249.42
752.485	212.02
752.926	208.52
753.367	195.12
753.808	188.52
754.249	183.32
754.69	184.22
755.131	170.72
755.572	177.22
756.013	167.82
756.453	175.02
756.894	181.92
757.335	186.32
757.776	188.62
758.216	195.72
758.657	199.22
759.098	203.82
759.538	219.62
759.979	257.82
760.42	359.22
760.86	674.52
761.301	1743.42
761.741	4257.82
762.182	6227.42
762.622	4412.02
763.063	1269.52
763.503	529.32
763.943	333.22
764.384	334.12
764.824	395.22
765.264	429.52
765.705	297.62
766.145	205.32
766.585	176.32
767.025	174.62
767.465	177.02
767.906	236.92
768.346	311.22
768.786	328.42
769.226	256.22
769.666	311.02
770.106	599.32
770.546	1503.42
770.986	2575.52
771.426	2312.82
771.866	771.62
772.306	314.22
772.745	198.82
773.185	173.42
773.625	166.12
774.065	161.02
774.505	195.72
774.944	297.12
775.384	665.02
775.824	1212.22
776.263	1187.92
776.703	504.22
777.142	217.42
777.582	152.12
778.021	129.42
778.461	129.12
778.9	136.32
779.34	127.32
779.779	112.22
780.219	107.42
780.658	110.02
781.097	106.12
781.537	105.92
781.976	106.42
782.415	101.92
782.855	103.72
783.294	98.12
783.733	97.42
784.172	106.12
784.611	104.12
785.05	103.92
785.489	112.12
785.928	116.42
786.367	121.22
786.806	115.52
787.245	128.92
787.684	129.22
788.123	146.02
788.562	134.72
789.001	121.22
789.44	114.12
789.879	116.62
790.317	115.82
790.756	127.92
791.195	129.62
791.634	143.12
792.072	199.22
792.511	348.62
792.95	965.02
793.388	2072.32
793.827	1898.82
794.265	656.62
794.704	263.92
795.142	179.12
795.581	151.72
796.019	135.32
796.458	122.82
796.896	114.92
797.334	129.12
797.773	146.02
798.211	210.52
798.649	423.42
799.087	979.52
799.526	1538.92
799.964	1937.92
800.402	1948.72
800.84	738.02
801.278	300.12
801.716	182.72
802.154	150.52
802.592	137.32
803.03	139.62
803.468	128.72
803.906	142.22
804.344	143.82
804.782	139.72
805.22	125.72
805.658	118.62
806.096	144.22
806.533	153.02
806.971	167.82
807.409	212.42
807.847	302.82
808.284	628.82
808.722	1785.02
809.16	3185.32
809.597	2989.72
810.035	5239.02
810.472	5638.52
810.91	2029.82
811.347	771.52
811.785	384.72
812.222	245.72
812.66	197.12
813.097	157.22
813.535	135.52
813.972	124.42
814.409	118.12
814.846	103.52
815.284	110.42
815.721	96.02
816.158	102.92
816.595	116.72
817.032	172.22
817.47	189.02
817.907	164.72
818.344	149.32
818.781	115.62
819.218	101.42
819.655	115.02
820.092	177.92
820.529	208.42
820.966	175.62
821.403	130.72
821.839	105.92
822.276	95.82
822.713	115.02
823.15	135.02
823.587	116.72
824.023	140.22
824.46	286.22
824.897	864.92
825.333	1324.02
825.77	567.52
826.206	224.72
826.643	132.82
827.08	99.02
827.516	76.42
827.953	75.12
828.389	74.82
828.825	62.52
829.262	62.32
829.698	66.22
830.135	68.12
830.571	54.12
831.007	62.62
831.443	69.22
831.88	61.12
832.316	54.12
832.752	62.92
833.188	63.62
833.624	63.52
834.06	64.32
834.497	62.62
834.933	67.12
835.369	72.02
835.805	64.32
836.241	72.62
836.677	82.72
837.112	87.32
837.548	101.92
837.984	126.82
838.42	197.32
838.856	465.12
839.292	1455.52
839.727	2224.42
840.163	1035.42
840.599	887.62
841.034	1952.52
841.47	2064.72
841.906	748.42
842.341	320.42
842.777	223.72
843.212	307.12
843.648	302.72
844.083	144.72
844.519	93.62
844.954	71.12
845.39	56.32
845.825	57.52
846.261	52.82
846.696	57.82
847.131	52.92
847.566	56.52
848.002	55.22
848.437	48.62
848.872	62.92
849.307	55.02
849.742	75.12
850.177	167.92
850.613	517.52
851.048	848.92
851.483	364.92
851.918	147.52
852.353	88.52
852.788	55.42
853.223	55.92
853.657	55.22
854.092	49.42
854.527	39.82
854.962	45.02
855.397	44.52
855.832	45.82
856.266	42.72
856.701	41.82
857.136	38.92
857.57	39.82
858.005	52.52
858.44	57.22
858.874	43.52
859.309	48.92
859.743	33.72
860.178	44.22
860.612	40.32
861.047	47.12
861.481	67.52
861.915	65.52
862.35	49.62
862.784	31.62
863.218	34.82
863.653	32.12
864.087	43.72
864.521	49.52
864.955	64.72
865.39	146.12
865.824	169.42
866.258	109.82
866.692	159.02
867.126	170.42
867.56	95.02
867.994	49.62
868.428	33.72
868.862	52.22
869.296	48.32
869.73	49.12
870.164	47.82
870.598	45.72
871.031	38.62
871.465	31.82
871.899	28.62
872.333	20.42
872.766	26.72
873.2	23.02
873.634	28.32
874.067	22.42
874.501	23.52
874.935	33.12
875.368	35.12
875.802	28.82
876.235	20.32
876.669	21.62
877.102	23.42
877.535	24.12
877.969	23.02
878.402	27.72
878.836	13.12
879.269	24.62
879.702	26.62
880.135	23.12
880.569	18.22
881.002	26.52
881.435	20.62
881.868	16.42
882.301	17.32
882.734	17.32
883.167	21.32
883.601	21.92
884.034	18.52
884.467	15.22
884.899	18.62
885.332	17.72
885.765	17.42
886.198	16.42
886.631	19.12
887.064	17.42
887.497	23.62
887.929	24.42
888.362	16.02
888.795	7.42
889.228	16.12
889.66	17.92
890.093	18.72
890.526	14.82
890.958	10.72
891.391	14.42
891.823	22.62
892.256	17.12
892.688	10.12
893.121	16.62
893.553	15.52
893.985	17.22
894.418	13.92
894.85	13.32
895.282	14.82
895.715	12.62
896.147	9.32
896.579	19.82
897.011	12.52
897.444	15.32
897.876	13.52
898.308	14.32
898.74	14.62
899.172	14.52
899.604	18.82
900.036	24.12
900.468	16.32
900.9	16.12
901.332	15.92
901.764	10.52
902.196	18.62
902.628	14.72
903.06	12.92
903.491	22.62
903.923	19.42
904.355	16.52
904.787	27.22
905.218	20.82
905.65	17.52
906.082	13.42
906.513	11.22
906.945	13.72
907.376	15.42
907.808	15.12
908.239	20.72
908.671	14.52
909.102	22.32
909.534	25.32
909.965	43.62
910.397	83.92
910.828	307.12
911.259	458.42
911.691	204.92
912.122	101.02
912.553	49.02
912.984	32.52
913.415	22.62
913.847	21.82
914.278	13.12
914.709	14.02
915.14	13.52
915.571	16.02
916.002	5.52
916.433	15.82
916.864	14.62
917.295	14.72
917.726	19.32
918.157	14.22
918.587	29.22
919.018	16.12
919.449	15.82
919.88	22.42
920.311	33.82
920.741	40.32
921.172	162.02
921.603	146.62
922.033	68.52
922.464	44.02
922.895	18.72
923.325	20.52
923.756	14.72
924.186	10.82
924.617	25.92
925.047	37.72
925.478	48.02
925.908	39.92
926.338	25.42
926.769	14.62
927.199	12.12
927.629	3.22
928.06	16.32
928.49	12.72
928.92	11.22
929.35	9.52
929.78	9.32
930.21	6.02
930.641	4.32
931.071	7.32
931.501	9.52
931.931	7.72
932.361	-0.88
932.791	2.32
933.221	5.12
933.651	5.32
934.08	14.12
934.51	26.02
934.94	14.72
935.37	12.52
935.8	12.02
936.229	7.82
936.659	9.42
937.089	4.62
937.519	6.42
937.948	21.32
938.378	16.62
938.807	4.82
939.237	1.62
939.666	9.02
940.096	-6.28
940.525	-0.58
940.955	-1.48
941.384	3.32
941.814	-7.68
942.243	-0.28
942.672	0.02
943.102	-4.98
943.531	-1.58
943.96	1.42
944.39	6.02
944.819	0.12
945.248	2.42
945.677	3.72
946.106	3.62
946.535	4.12
946.964	-5.28
947.393	6.62
947.822	3.02
948.251	-9.38
948.68	5.12
949.109	2.72
949.538	4.72
949.967	1.02
950.396	3.12
950.825	-1.28
951.254	2.62
951.682	-7.98
952.111	-0.78
952.54	2.12
952.969	-0.78
953.397	-6.58
953.826	-0.48
954.254	-3.88
954.683	0.32
955.112	-3.58
955.54	5.82
955.969	-0.68
956.397	1.22
956.826	-3.28
957.254	6.92
957.682	2.72
958.111	3.32
958.539	-6.38
958.967	-0.98
959.396	-5.88
959.824	-4.88
960.252	3.32
960.68	-5.88
961.109	-4.48
961.537	-6.38
961.965	-1.98
962.393	1.12
962.821	0.02
963.249	0.62
963.677	1.02
964.105	2.62
964.533	43.62
964.961	38.72
965.389	22.52
965.817	11.32
966.245	2.02
966.672	-2.18
967.1	-10.48
967.528	1.72
967.956	-5.68
968.383	1.92
968.811	-5.08
969.239	-3.98
969.666	-7.68
970.094	-2.98
970.522	-0.38
970.949	-1.48
971.377	-1.68
971.804	-0.18
972.232	-2.28
972.659	0.72
973.087	-7.38
973.514	-8.68
973.941	-4.58
974.369	0.92
974.796	7.22
975.223	-0.18
975.651	0.42
976.078	-0.18
976.505	-4.28
976.932	1.02
977.359	15.72
977.786	12.42
978.214	2.62
978.641	-4.68
979.068	-1.18
979.495	-3.38
979.922	-1.48
980.349	-5.58
980.776	7.02
981.202	-3.28
981.629	5.02
982.056	6.82
982.483	-2.48
982.91	3.22
983.337	-4.68
983.763	0.62
984.19	-2.38
984.617	-1.18
985.043	-6.78
985.47	2.52
985.897	-1.48
986.323	-17.78
986.75	0.62
987.176	-1.68
987.603	1.12
988.029	-1.78
988.456	0.42
988.882	-2.78
989.308	-4.88
989.735	-4.68
990.161	-0.48
990.587	-3.98
991.014	-1.58
991.44	-1.78
991.866	-2.68
992.292	-2.18
992.719	-2.78
993.145	0.12
993.571	-11.08
993.997	-6.58
994.423	-6.28
994.849	-5.98
995.275	4.52
995.701	0.32
996.127	-2.08
996.553	2.72
996.979	-2.68
997.405	-0.18
997.83	-5.98
998.256	-6.18
998.682	-11.78
999.108	-4.48
999.534	-4.78
999.959	-2.18
1000.385	-6.38
1000.811	5.12
1001.236	-9.38
1001.662	-11.48
1002.087	-14.58
1002.513	-2.68
1002.938	-4.38
1003.364	-5.78
1003.789	-1.38
1004.215	-2.98
1004.64	-1.18
1005.066	-1.68
1005.491	-5.58
1005.916	-3.78
1006.342	-0.58
1006.767	-3.98
1007.192	6.22
1007.617	-11.38
1008.042	-4.28
1008.468	-7.58
1008.893	-0.78
1009.318	-2.78
1009.743	-4.88
1010.168	2.12
1010.593	-1.48
1011.018	-9.18
1011.443	-2.98
1011.868	-4.08
1012.293	-4.58
1012.718	-7.68
1013.143	0.02
1013.567	-0.08
1013.992	-3.88
1014.417	-8.28
1014.842	1.02
1015.267	-4.38
1015.691	-3.28
1016.116	6.42
1016.541	-3.48
1016.965	-0.18
1017.39	5.02
1017.814	0.92
1018.239	-1.78
1018.663	-8.58
1019.088	-11.68
1019.512	-8.48
1019.937	-3.78
1020.361	-8.58
1020.785	-7.68
1021.21	-3.18
1021.634	-5.68
1022.058	0.02
1022.483	0.02
1022.907	-7.88
1023.331	-5.88
1023.755	-2.88
1024.179	-5.68
1024.604	-9.28
1025.028	-8.88
1025.452	-0.58
1025.876	-2.18
1026.3	-2.28
1026.724	-13.48
1027.148	-10.18
1027.572	-10.88
1027.996	-4.78
1028.42	-3.88
1028.843	-4.48
1029.267	-5.78
1029.691	1.92
1030.115	-6.78
1030.539	-7.38
1030.962	-6.38
1031.386	-15.78
1031.81	-2.68
1032.233	-6.78
1032.657	-5.38
1033.08	-7.18
1033.504	-9.28
1033.927	-8.58
1034.351	-0.08
1034.774	-1.68
1035.198	3.52
1035.621	-8.28
1036.045	-6.68
1036.468	0.52
1036.891	-12.18
1037.315	-6.78
1037.738	-9.28
1038.161	0.32
1038.584	-4.88
1039.008	-6.68
1039.431	-0.68
1039.854	-9.08
1040.277	-14.98
1040.7	-7.08
1041.123	0.62
1041.546	-7.68
1041.969	-10.98
1042.392	-9.48
1042.815	-4.88
1043.238	-7.08
1043.661	-0.18
1044.084	-10.58
1044.507	-0.98
1044.93	-5.58
1045.352	-4.68
1045.775	-2.28
1046.198	-3.08
1046.621	-0.08
1047.043	-5.28
1047.466	4.42
1047.889	-7.68
1048.311	-5.48
1048.734	-4.08
1049.156	-3.18
1049.579	-6.38
1050.001	-0.58
1050.424	-2.18
1050.846	-4.08
1051.269	-5.78
1051.691	-7.68
1052.113	-9.18
1052.536	-3.28
1052.958	-7.08
1053.38	-9.68
1053.802	-10.58
1054.225	2.22
1054.647	-8.78
1055.069	-7.98
1055.491	1.22
1055.913	-7.68
1056.335	-1.88
1056.757	-2.38
1057.179	-12.18
1057.601	-10.68
1058.023	-6.98
1058.445	-2.08
1058.867	-4.28
1059.289	-3.28
1059.711	-9.88
1060.133	-3.28
1060.555	-5.48
1060.976	-9.38
1061.398	1.72
1061.82	-7.68
1062.241	-7.88
1062.663	-6.68
1063.085	-12.78
1063.506	-0.58
1063.928	0.72
1064.35	-0.28
1064.771	-9.88
1065.193	-7.68
1065.614	-14.78
1066.035	-0.48
1066.457	-6.28
1066.878	-2.38
1067.3	-6.48
1067.721	-4.58
1068.142	-1.48
1068.564	-8.48
1068.985	-8.38
1069.406	-10.68
1069.827	-7.68
1070.248	-0.18
1070.67	-4.78
1071.091	-1.48
1071.512	-3.88
1071.933	-5.68
1072.354	-11.68
1072.775	-8.68
1073.196	-10.18
1073.617	-8.88
1074.038	-4.58
1074.459	-4.88
1074.88	-6.18
1075.3	-3.58
1075.721	-4.28
1076.142	-1.88
1076.563	-3.58
1076.983	-12.58
1077.404	-10.78
1077.825	-15.38
1078.246	-6.18
1078.666	-6.98
1079.087	-8.68
1079.507	-4.98
1079.928	-6.28
1080.348	0.12
1080.769	-6.08
1081.189	-4.68
1081.61	-4.88
1082.03	-10.08
1082.451	-11.38
1082.871	-7.68
1083.291	-4.58
1083.711	-11.38
1084.132	-2.38
1084.552	-3.18
1084.972	0.22
1085.392	-9.18
1085.813	-7.78
1086.233	-6.98
1086.653	-5.48
1087.073	-0.98
1087.493	-6.88
1087.913	-7.78
1088.333	-9.68
1088.753	-2.88
1089.173	3.02
1089.593	-1.78
1090.013	-0.48
1090.433	-0.08
1090.852	-5.38
1091.272	-0.88
1091.692	-3.18
1092.112	-4.18
1092.531	-14.98
1092.951	-9.78
1093.371	-4.78
1093.79	4.52
1094.21	-1.78
1094.63	-6.68
1095.049	-9.28
1095.469	-1.28
1095.888	-1.98
1096.308	1.02
1096.727	-2.48
1097.146	-11.68
1097.566	-2.68
1097.985	-7.08
1098.405	-1.88
1098.824	-8.28
1099.243	-5.98
1099.662	-15.28
1100.082	-6.88
1100.501	-1.78
1100.92	-8.48
1101.339	-7.58
1101.758	-3.58
