Data from 20171114-ORNL-Ar_H_NY_Subt18_08-05-06-485.txt Node
Date: Tue Nov 14 08:05:06 EST 2017
User: Ender
Spectrometer: HR+D1039
Trigger mode: 0
Integration Time (sec): 2.730000E-2
Scans to average: 10
Electric dark correction enabled: true
Nonlinearity correction enabled: false
Boxcar width: 0
XAxis mode: Wavelengths
Number of Pixels in Spectrum: 2048
>>>>>Begin Spectral Data<<<<<
187.836	2.89
188.309	2.89
188.782	2.89
189.255	-0.71
189.728	1.29
190.201	9.89
190.674	4.59
191.147	5.79
191.619	-11.91
192.092	-1.61
192.565	-0.41
193.038	-0.31
193.511	-3.01
193.984	0.99
194.456	0.89
194.929	-2.41
195.402	-5.21
195.874	-0.81
196.347	0.19
196.82	-6.51
197.292	4.89
197.765	-6.41
198.237	-5.51
198.71	-3.21
199.182	-4.41
199.655	-3.31
200.127	5.29
200.6	-3.41
201.072	-3.91
201.544	-6.01
202.017	-4.41
202.489	6.89
202.961	-5.31
203.433	-1.71
203.906	-4.21
204.378	-9.31
204.85	-0.61
205.322	-9.81
205.794	-3.71
206.266	-1.01
206.739	-10.21
207.211	-2.21
207.683	-12.21
208.155	-10.51
208.627	-11.31
209.099	-4.21
209.57	-10.91
210.042	-1.41
210.514	-7.11
210.986	-9.71
211.458	-7.31
211.93	-3.31
212.402	1.39
212.873	-7.01
213.345	-12.61
213.817	-11.31
214.288	-10.51
214.76	-10.91
215.232	-4.61
215.703	2.29
216.175	-0.81
216.646	0.09
217.118	-8.91
217.589	-4.21
218.061	-7.11
218.532	-2.21
219.004	-9.31
219.475	-2.01
219.946	-5.61
220.418	-4.21
220.889	3.99
221.36	6.19
221.832	-8.51
222.303	-16.91
222.774	0.09
223.245	-12.51
223.717	-10.61
224.188	-2.91
224.659	-5.31
225.13	-4.61
225.601	-1.81
226.072	4.49
226.543	-1.11
227.014	2.29
227.485	0.89
227.956	-8.21
228.427	-1.91
228.898	-1.61
229.369	6.39
229.839	-6.01
230.31	-2.51
230.781	1.99
231.252	-4.11
231.722	-2.81
232.193	-3.41
232.664	-6.21
233.135	4.29
233.605	-3.41
234.076	-4.81
234.546	-1.91
235.017	2.59
235.487	0.89
235.958	2.89
236.428	0.49
236.899	4.09
237.369	5.59
237.84	-0.81
238.31	6.69
238.78	3.99
239.251	3.09
239.721	9.79
240.191	3.09
240.662	-3.61
241.132	1.39
241.602	-0.11
242.072	1.39
242.542	4.69
243.013	4.79
243.483	-0.51
243.953	-1.61
244.423	-6.61
244.893	0.09
245.363	-3.81
245.833	-1.61
246.303	2.99
246.773	7.09
247.243	2.29
247.712	5.89
248.182	4.09
248.652	13.49
249.122	-2.21
249.592	10.09
250.061	26.49
250.531	36.29
251.001	15.69
251.471	21.69
251.94	24.29
252.41	12.29
252.879	-0.71
253.349	12.79
253.818	8.39
254.288	4.79
254.757	2.79
255.227	9.09
255.696	8.99
256.166	7.19
256.635	6.59
257.105	1.69
257.574	8.29
258.043	5.19
258.513	16.69
258.982	16.29
259.451	11.99
259.92	12.59
260.389	14.79
260.859	13.59
261.328	9.39
261.797	16.39
262.266	9.19
262.735	7.59
263.204	9.39
263.673	-0.21
264.142	1.59
264.611	-2.61
265.08	3.09
265.549	5.79
266.018	6.39
266.487	-5.31
266.955	-0.91
267.424	1.99
267.893	13.29
268.362	4.79
268.83	3.79
269.299	14.79
269.768	3.59
270.236	8.09
270.705	10.39
271.174	8.49
271.642	8.09
272.111	13.59
272.579	21.49
273.048	23.69
273.516	23.09
273.985	26.99
274.453	28.39
274.922	16.69
275.39	11.59
275.858	2.79
276.327	11.09
276.795	13.79
277.263	13.69
277.731	34.89
278.2	55.39
278.668	65.89
279.136	53.19
279.604	25.29
280.072	17.79
280.54	17.29
281.008	13.49
281.477	20.19
281.945	13.29
282.413	19.79
282.881	14.79
283.348	4.59
283.816	18.39
284.284	12.99
284.752	19.99
285.22	13.39
285.688	17.19
286.156	22.89
286.623	48.89
287.091	52.09
287.559	32.49
288.026	20.99
288.494	21.19
288.962	11.99
289.429	10.89
289.897	21.09
290.364	15.79
290.832	19.79
291.3	18.29
291.767	24.79
292.234	24.29
292.702	17.19
293.169	18.19
293.637	20.69
294.104	21.19
294.571	8.09
295.039	15.09
295.506	17.99
295.973	18.19
296.44	14.49
296.908	19.59
297.375	23.59
297.842	18.59
298.309	19.39
298.776	14.59
299.243	22.49
299.71	10.99
300.177	29.49
300.644	29.59
301.111	22.99
301.578	25.89
302.045	17.99
302.512	22.89
302.979	25.39
303.446	17.69
303.913	20.99
304.379	22.99
304.846	29.99
305.313	26.59
305.78	28.39
306.246	27.19
306.713	25.89
307.18	24.99
307.646	24.79
308.113	30.89
308.579	27.79
309.046	30.99
309.512	31.59
309.979	22.49
310.445	31.39
310.912	25.89
311.378	31.99
311.845	32.19
312.311	36.09
312.777	31.99
313.244	33.79
313.71	43.89
314.176	31.09
314.642	33.99
315.109	36.69
315.575	32.59
316.041	38.09
316.507	32.19
316.973	45.19
317.439	39.39
317.905	35.09
318.371	35.59
318.837	34.39
319.303	35.59
319.769	30.29
320.235	35.89
320.701	34.19
321.167	38.49
321.633	36.59
322.099	38.19
322.564	54.89
323.03	43.09
323.496	39.79
323.962	43.19
324.427	40.89
324.893	43.89
325.359	42.39
325.824	41.39
326.29	41.69
326.755	43.79
327.221	39.69
327.686	40.09
328.152	48.19
328.617	42.79
329.083	43.69
329.548	53.99
330.014	46.99
330.479	43.29
330.944	46.39
331.41	43.09
331.875	51.29
332.34	46.09
332.805	44.39
333.271	48.79
333.736	49.39
334.201	60.09
334.666	59.19
335.131	55.49
335.596	57.59
336.061	58.59
336.526	46.99
336.991	55.69
337.456	63.29
337.921	51.39
338.386	49.99
338.851	50.59
339.316	49.19
339.781	49.49
340.246	50.89
340.711	42.39
341.175	49.79
341.64	45.79
342.105	50.89
342.569	57.09
343.034	62.89
343.499	63.29
343.963	48.59
344.428	64.39
344.893	63.59
345.357	70.19
345.822	66.39
346.286	67.29
346.751	77.99
347.215	76.09
347.679	79.09
348.144	104.09
348.608	88.29
349.073	69.79
349.537	80.69
350.001	75.59
350.465	86.99
350.93	82.59
351.394	85.89
351.858	82.79
352.322	85.89
352.786	88.69
353.25	106.09
353.715	110.09
354.179	98.99
354.643	130.89
355.107	117.39
355.571	112.89
356.035	101.59
356.498	118.89
356.962	127.29
357.426	130.49
357.89	119.29
358.354	91.19
358.818	88.89
359.281	81.79
359.745	85.19
360.209	79.89
360.673	76.79
361.136	83.09
361.6	90.19
362.064	87.19
362.527	88.99
362.991	91.39
363.454	84.99
363.918	83.39
364.381	84.19
364.845	83.79
365.308	88.99
365.772	89.49
366.235	90.39
366.698	87.09
367.162	87.69
367.625	90.79
368.088	87.79
368.552	80.69
369.015	89.39
369.478	97.29
369.941	101.49
370.404	98.89
370.867	113.19
371.331	105.89
371.794	115.09
372.257	120.29
372.72	117.39
373.183	111.09
373.646	107.59
374.109	109.49
374.572	109.19
375.035	117.29
375.497	115.39
375.96	106.99
376.423	107.29
376.886	112.19
377.349	110.29
377.811	103.59
378.274	106.19
378.737	106.79
379.199	112.39
379.662	112.49
380.125	116.49
380.587	119.69
381.05	125.29
381.512	130.59
381.975	138.19
382.437	122.99
382.9	126.89
383.362	130.99
383.825	141.99
384.287	151.29
384.75	141.39
385.212	133.99
385.674	145.09
386.136	136.89
386.599	128.69
387.061	123.49
387.523	130.49
387.985	135.29
388.447	140.59
388.91	148.29
389.372	153.39
389.834	152.19
390.296	141.59
390.758	153.39
391.22	165.59
391.682	202.59
392.144	290.99
392.606	221.19
393.068	168.59
393.529	171.29
393.991	152.39
394.453	158.89
394.915	156.39
395.377	193.19
395.838	212.69
396.3	158.59
396.762	135.99
397.224	133.89
397.685	135.69
398.147	140.79
398.608	128.89
399.07	124.59
399.531	132.89
399.993	147.99
400.454	155.29
400.916	138.99
401.377	140.39
401.839	149.59
402.3	156.49
402.762	164.19
403.223	186.09
403.684	174.69
404.145	160.99
404.607	164.69
405.068	169.19
405.529	176.29
405.99	188.39
406.451	175.99
406.913	168.09
407.374	168.39
407.835	163.39
408.296	171.09
408.757	166.19
409.218	186.79
409.679	180.29
410.14	176.19
410.601	176.49
411.062	186.89
411.522	189.69
411.983	180.79
412.444	170.69
412.905	183.09
413.366	181.99
413.826	194.79
414.287	216.29
414.748	270.19
415.208	246.89
415.669	215.29
416.13	201.29
416.59	201.79
417.051	212.69
417.511	219.69
417.972	227.99
418.432	241.89
418.893	287.79
419.353	250.39
419.814	200.49
420.274	191.39
420.734	179.29
421.195	200.89
421.655	196.39
422.115	199.99
422.576	186.99
423.036	199.69
423.496	205.49
423.956	218.19
424.416	228.09
424.876	269.99
425.336	265.49
425.797	255.09
426.257	256.19
426.717	237.99
427.177	237.89
427.637	227.39
428.097	245.19
428.556	246.69
429.016	267.89
429.476	257.69
429.936	268.79
430.396	274.79
430.856	289.89
431.315	312.79
431.775	353.99
432.235	376.49
432.694	351.09
433.154	364.49
433.614	384.89
434.073	336.39
434.533	283.29
434.993	271.79
435.452	278.19
435.912	298.99
436.371	289.69
436.83	282.39
437.29	276.69
437.749	245.89
438.209	247.59
438.668	278.89
439.127	287.69
439.587	265.89
440.046	244.99
440.505	260.19
440.964	282.99
441.424	321.89
441.883	307.29
442.342	260.09
442.801	223.19
443.26	214.59
443.719	223.59
444.178	215.49
444.637	211.79
445.096	216.19
445.555	218.09
446.014	222.39
446.473	224.79
446.932	224.89
447.391	218.79
447.849	221.79
448.308	208.09
448.767	220.39
449.226	235.89
449.685	239.59
450.143	250.39
450.602	239.79
451.061	224.79
451.519	231.09
451.978	224.99
452.436	230.89
452.895	243.39
453.353	242.59
453.812	242.59
454.27	234.19
454.729	243.39
455.187	237.29
455.646	239.19
456.104	241.69
456.562	263.69
457.021	273.29
457.479	254.39
457.937	275.99
458.395	262.59
458.854	247.49
459.312	246.79
459.77	266.69
460.228	249.89
460.686	242.09
461.144	247.19
461.602	238.59
462.06	242.59
462.518	254.89
462.976	251.29
463.434	252.79
463.892	256.79
464.35	278.59
464.808	290.79
465.266	270.69
465.724	260.09
466.181	272.29
466.639	271.39
467.097	291.19
467.555	301.59
468.012	304.19
468.47	308.69
468.928	321.59
469.385	343.59
469.843	341.59
470.3	355.69
470.758	367.99
471.215	386.49
471.673	408.09
472.13	405.49
472.588	419.29
473.045	367.59
473.503	379.59
473.96	387.69
474.417	402.09
474.875	422.09
475.332	473.99
475.789	465.69
476.246	463.89
476.704	485.79
477.161	505.59
477.618	522.09
478.075	571.89
478.532	623.59
478.989	687.19
479.446	796.99
479.903	774.19
480.36	796.69
480.817	859.89
481.274	962.29
481.731	1082.79
482.188	1166.39
482.645	1316.29
483.102	1423.19
483.558	1549.09
484.015	1592.99
484.472	1586.49
484.929	1526.19
485.385	1485.89
485.842	1441.39
486.299	1384.19
486.755	1305.49
487.212	1081.89
487.668	929.69
488.125	849.39
488.582	778.39
489.038	738.79
489.494	715.59
489.951	685.29
490.407	674.79
490.864	646.09
491.32	643.69
491.776	636.29
492.233	642.89
492.689	613.09
493.145	592.19
493.602	597.99
494.058	612.69
494.514	612.49
494.97	633.89
495.426	651.29
495.882	617.89
496.338	610.99
496.794	630.49
497.251	621.69
497.707	640.69
498.163	634.69
498.618	643.29
499.074	651.09
499.53	671.79
499.986	680.29
500.442	650.29
500.898	631.19
501.354	618.69
501.809	638.79
502.265	638.39
502.721	656.39
503.177	666.69
503.632	663.79
504.088	675.49
504.543	713.99
504.999	712.09
505.455	645.99
505.91	626.99
506.366	627.89
506.821	620.09
507.277	620.49
507.732	615.39
508.187	613.59
508.643	629.59
509.098	629.69
509.553	649.19
510.009	666.79
510.464	667.89
510.919	679.19
511.375	687.29
511.83	699.39
512.285	713.59
512.74	757.19
513.195	789.79
513.65	775.59
514.105	759.59
514.56	764.59
515.015	786.99
515.47	798.09
515.925	790.49
516.38	791.89
516.835	791.89
517.29	778.59
517.745	770.39
518.2	757.29
518.655	749.39
519.109	738.39
519.564	735.99
520.019	722.59
520.474	721.19
520.928	720.29
521.383	715.39
521.838	704.49
522.292	699.99
522.747	704.69
523.201	697.29
523.656	683.89
524.11	681.09
524.565	685.99
525.019	683.89
525.474	687.29
525.928	690.69
526.382	702.39
526.837	688.39
527.291	703.89
527.745	694.59
528.2	690.89
528.654	683.79
529.108	684.79
529.562	685.49
530.016	686.89
530.47	682.19
530.925	680.69
531.379	687.79
531.833	700.69
532.287	698.99
532.741	691.29
533.195	692.79
533.649	700.79
534.103	709.79
534.556	700.39
535.01	700.79
535.464	704.59
535.918	721.49
536.372	708.09
536.826	710.19
537.279	696.19
537.733	713.99
538.187	706.89
538.64	703.39
539.094	717.19
539.548	710.79
540.001	718.59
540.455	719.09
540.908	724.59
541.362	729.19
541.815	739.59
542.269	745.29
542.722	745.79
543.175	759.69
543.629	763.99
544.082	771.49
544.536	777.59
544.989	768.79
545.442	783.09
545.895	771.49
546.349	776.59
546.802	775.49
547.255	780.09
547.708	793.79
548.161	800.59
548.614	813.59
549.067	808.49
549.52	806.89
549.973	800.09
550.426	789.59
550.879	792.49
551.332	780.19
551.785	783.69
552.238	781.69
552.691	798.89
553.144	815.39
553.596	832.79
554.049	842.19
554.502	871.89
554.955	895.29
555.407	889.29
555.86	891.19
556.313	883.89
556.765	864.59
557.218	866.69
557.67	870.29
558.123	854.99
558.576	859.89
559.028	863.19
559.48	877.79
559.933	852.39
560.385	827.59
560.838	787.19
561.29	763.69
561.742	757.69
562.195	737.79
562.647	738.79
563.099	750.29
563.551	751.59
564.004	761.89
564.456	754.79
564.908	752.09
565.36	726.19
565.812	711.79
566.264	704.19
566.716	700.89
567.168	700.39
567.62	686.99
568.072	692.99
568.524	675.99
568.976	669.89
569.428	650.59
569.88	646.39
570.332	678.19
570.784	664.39
571.235	657.79
571.687	678.99
572.139	682.39
572.59	693.19
573.042	691.79
573.494	685.79
573.945	683.89
574.397	664.79
574.849	669.59
575.3	680.09
575.752	662.39
576.203	659.99
576.655	652.69
577.106	659.29
577.557	637.99
578.009	648.79
578.46	644.29
578.912	642.59
579.363	641.59
579.814	658.69
580.265	643.09
580.717	650.69
581.168	650.29
581.619	653.69
582.07	660.09
582.521	652.39
582.972	653.89
583.423	656.29
583.875	655.69
584.326	663.09
584.777	715.69
585.227	790.69
585.678	869.09
586.129	973.49
586.58	1034.79
587.031	1113.79
587.482	1270.59
587.933	1452.59
588.384	1268.09
588.834	938.49
589.285	773.19
589.736	745.89
590.186	750.99
590.637	729.89
591.088	716.29
591.538	713.89
591.989	699.59
592.439	701.49
592.89	689.59
593.34	680.89
593.791	691.09
594.241	680.29
594.692	675.19
595.142	673.79
595.593	673.69
596.043	685.19
596.493	686.69
596.943	682.69
597.394	693.69
597.844	686.79
598.294	695.99
598.744	724.09
599.195	745.69
599.645	788.79
600.095	809.99
600.545	877.59
600.995	922.89
601.445	996.09
601.895	1039.09
602.345	1087.29
602.795	1074.39
603.245	1024.69
603.695	974.49
604.145	923.69
604.594	883.99
605.044	821.19
605.494	764.39
605.944	723.79
606.393	712.89
606.843	696.09
607.293	694.59
607.743	692.19
608.192	710.29
608.642	723.39
609.091	725.99
609.541	742.09
609.99	728.59
610.44	736.29
610.889	682.59
611.339	669.19
611.788	646.69
612.238	662.89
612.687	680.09
613.136	680.29
613.586	697.89
614.035	701.09
614.484	719.19
614.933	712.49
615.383	718.39
615.832	711.19
616.281	689.39
616.73	659.89
617.179	638.49
617.628	622.29
618.077	603.19
618.526	588.59
618.975	589.89
619.424	585.59
619.873	582.49
620.322	585.89
620.771	563.49
621.22	574.29
621.669	565.09
622.118	553.29
622.567	551.29
623.015	544.79
623.464	535.49
623.913	526.99
624.361	520.89
624.81	524.79
625.259	526.79
625.707	521.69
626.156	519.89
626.604	531.69
627.053	531.09
627.501	528.29
627.95	532.09
628.398	547.09
628.847	540.99
629.295	534.29
629.744	546.79
630.192	534.49
630.64	534.09
631.089	529.09
631.537	541.69
631.985	540.19
632.433	565.99
632.881	570.89
633.33	619.09
633.778	604.29
634.226	536.79
634.674	545.89
635.122	546.69
635.57	563.29
636.018	592.89
636.466	552.79
636.914	517.29
637.362	533.69
637.81	539.69
638.258	539.29
638.705	549.29
639.153	569.89
639.601	580.19
640.049	591.79
640.497	632.19
640.944	653.39
641.392	603.19
641.84	577.79
642.287	544.09
642.735	530.79
643.182	539.59
643.63	546.29
644.078	539.19
644.525	552.29
644.973	558.39
645.42	569.59
645.867	582.39
646.315	594.49
646.762	621.29
647.21	650.59
647.657	669.39
648.104	705.19
648.551	729.89
648.999	777.49
649.446	864.89
649.893	942.09
650.34	1082.89
650.787	1293.39
651.234	1598.29
651.682	2100.19
652.129	2880.49
652.576	4115.79
653.023	6077.79
653.47	8391.49
653.917	10554.09
654.363	12283.39
654.81	13694.99
655.257	13063.49
655.704	8509.29
656.151	5024.59
656.598	3251.89
657.044	2297.69
657.491	1756.89
657.938	1403.39
658.385	1176.29
658.831	1013.29
659.278	902.69
659.724	801.69
660.171	736.89
660.618	677.39
661.064	642.79
661.511	617.69
661.957	616.49
662.404	599.19
662.85	607.59
663.296	585.49
663.743	526.79
664.189	505.89
664.635	499.69
665.082	485.79
665.528	492.39
665.974	482.19
666.42	472.59
666.867	475.69
667.313	455.09
667.759	448.59
668.205	441.99
668.651	452.69
669.097	446.29
669.543	468.49
669.989	441.09
670.435	421.59
670.881	409.79
671.327	416.19
671.773	432.49
672.219	453.49
672.665	496.19
673.11	541.69
673.556	582.49
674.002	619.89
674.448	607.59
674.893	513.29
675.339	443.69
675.785	398.49
676.23	390.39
676.676	369.99
677.122	357.19
677.567	344.49
678.013	342.59
678.458	326.09
678.904	337.09
679.349	319.39
679.794	329.79
680.24	317.99
680.685	327.69
681.131	320.69
681.576	318.59
682.021	325.29
682.466	322.59
682.912	321.79
683.357	330.99
683.802	353.99
684.247	374.09
684.692	417.99
685.137	454.29
685.583	498.19
686.028	514.89
686.473	476.39
686.918	415.89
687.363	389.19
687.807	367.29
688.252	332.79
688.697	319.69
689.142	310.59
689.587	306.59
690.032	293.69
690.477	316.99
690.921	326.39
691.366	346.79
691.811	365.59
692.255	396.19
692.7	419.99
693.145	453.49
693.589	617.09
694.034	1015.39
694.478	1390.59
694.923	1613.59
695.367	2108.89
695.812	1109.49
696.256	462.29
696.701	353.29
697.145	306.29
697.59	296.59
698.034	288.19
698.478	308.59
698.922	300.39
699.367	309.59
699.811	311.99
700.255	320.99
700.699	353.99
701.143	390.09
701.588	438.69
702.032	468.89
702.476	473.19
702.92	448.29
703.364	444.49
703.808	569.29
704.252	931.59
704.696	1315.09
705.14	1545.29
705.584	1987.49
706.027	978.99
706.471	486.09
706.915	358.99
707.359	316.19
707.803	291.49
708.246	287.49
708.69	287.19
709.134	284.09
709.577	285.09
710.021	288.19
710.465	285.39
710.908	276.19
711.352	276.79
711.795	279.99
712.239	319.59
712.682	356.69
713.126	370.79
713.569	433.09
714.012	339.99
714.456	292.59
714.899	276.49
715.342	255.59
715.786	232.69
716.229	231.89
716.672	237.89
717.115	228.39
717.558	237.29
718.002	229.39
718.445	237.79
718.888	264.09
719.331	261.09
719.774	273.19
720.217	279.09
720.66	262.89
721.103	241.69
721.546	233.09
721.989	227.29
722.432	211.29
722.874	218.79
723.317	216.19
723.76	225.49
724.203	232.09
724.645	287.69
725.088	393.39
725.531	521.69
725.974	599.39
726.416	502.49
726.859	274.19
727.301	229.19
727.744	221.19
728.187	209.59
728.629	220.19
729.071	226.49
729.514	239.99
729.956	243.39
730.399	254.39
730.841	257.49
731.283	252.79
731.726	242.19
732.168	240.39
732.61	237.19
733.053	259.19
733.495	284.79
733.937	312.29
734.379	359.39
734.821	395.19
735.263	485.59
735.705	743.49
736.148	1401.19
736.59	2333.29
737.032	2842.59
737.474	2311.99
737.916	745.09
738.357	389.79
738.799	302.09
739.241	270.69
739.683	258.29
740.125	263.59
740.567	278.79
741.008	285.59
741.45	282.39
741.892	285.59
742.334	314.89
742.775	334.09
743.217	312.49
743.658	249.29
744.1	238.29
744.542	235.69
744.983	281.69
745.425	314.89
745.866	307.59
746.307	264.09
746.749	262.39
747.19	300.39
747.632	402.29
748.073	774.39
748.514	1648.79
748.956	2614.59
749.397	3236.99
749.838	2709.89
750.279	2753.99
750.72	1378.69
751.162	497.79
751.603	286.99
752.044	228.29
752.485	192.99
752.926	190.99
753.367	187.59
753.808	177.49
754.249	171.29
754.69	167.69
755.131	170.39
755.572	166.09
756.013	168.69
756.453	161.89
756.894	174.29
757.335	173.19
757.776	176.39
758.216	177.09
758.657	179.29
759.098	189.59
759.538	196.29
759.979	239.49
760.42	326.39
760.86	627.99
761.301	1586.99
761.741	3949.39
762.182	6009.69
762.622	4234.29
763.063	1203.59
763.503	487.69
763.943	304.39
764.384	309.09
764.824	364.69
765.264	408.79
765.705	276.39
766.145	190.29
766.585	167.49
767.025	166.99
767.465	170.19
767.906	218.69
768.346	285.99
768.786	313.69
769.226	243.99
769.666	278.69
770.106	540.39
770.546	1384.49
770.986	2441.29
771.426	2208.69
771.866	733.29
772.306	292.99
772.745	189.09
773.185	153.59
773.625	162.69
774.065	148.29
774.505	180.99
774.944	278.39
775.384	608.39
775.824	1138.29
776.263	1118.29
776.703	472.99
777.142	203.09
777.582	139.39
778.021	121.79
778.461	128.89
778.9	124.99
779.34	120.79
779.779	109.29
780.219	103.89
780.658	100.99
781.097	99.99
781.537	102.49
781.976	101.59
782.415	95.39
782.855	92.39
783.294	91.99
783.733	92.59
784.172	101.69
784.611	95.99
785.05	98.59
785.489	95.39
785.928	104.99
786.367	105.59
786.806	105.09
787.245	121.79
787.684	117.99
788.123	122.79
788.562	119.39
789.001	119.09
789.44	111.49
789.879	102.99
790.317	105.19
790.756	116.49
791.195	110.29
791.634	131.59
792.072	181.89
792.511	313.49
792.95	892.29
793.388	1941.89
793.827	1808.49
794.265	620.29
794.704	256.89
795.142	163.79
795.581	141.09
796.019	124.69
796.458	116.49
796.896	113.99
797.334	120.89
797.773	143.79
798.211	198.19
798.649	379.29
799.087	922.29
799.526	1441.09
799.964	1821.09
800.402	1872.79
800.84	694.19
801.278	276.59
801.716	170.39
802.154	138.79
802.592	137.09
803.03	127.99
803.468	125.49
803.906	135.39
804.344	135.49
804.782	128.59
805.22	117.89
805.658	116.19
806.096	129.99
806.533	137.59
806.971	163.09
807.409	196.49
807.847	281.39
808.284	578.89
808.722	1658.69
809.16	3017.19
809.597	2794.59
810.035	4904.59
810.472	5437.49
810.91	1932.19
811.347	733.69
811.785	371.79
812.222	230.99
812.66	173.49
813.097	150.29
813.535	129.79
813.972	118.89
814.409	100.49
814.846	99.39
815.284	106.79
815.721	91.09
816.158	100.29
816.595	105.69
817.032	164.09
817.47	180.59
817.907	145.29
818.344	139.29
818.781	107.19
819.218	93.99
819.655	109.89
820.092	165.39
820.529	198.69
820.966	162.69
821.403	125.59
821.839	102.69
822.276	96.19
822.713	109.69
823.15	130.89
823.587	103.59
824.023	128.79
824.46	261.09
824.897	803.69
825.333	1258.99
825.77	544.89
826.206	212.29
826.643	122.39
827.08	91.79
827.516	78.79
827.953	76.09
828.389	72.79
828.825	64.79
829.262	67.29
829.698	65.69
830.135	54.59
830.571	49.29
831.007	55.69
831.443	59.09
831.88	52.39
832.316	53.29
832.752	57.29
833.188	60.09
833.624	54.39
834.06	59.79
834.497	64.39
834.933	61.49
835.369	73.09
835.805	63.69
836.241	72.99
836.677	66.49
837.112	82.29
837.548	95.59
837.984	116.69
838.42	180.09
838.856	430.19
839.292	1365.09
839.727	2141.59
840.163	989.19
840.599	818.59
841.034	1832.19
841.47	1977.49
841.906	713.99
842.341	299.39
842.777	207.99
843.212	289.39
843.648	294.59
844.083	137.29
844.519	96.39
844.954	68.89
845.39	58.49
845.825	49.49
846.261	52.99
846.696	46.19
847.131	50.39
847.566	53.09
848.002	49.59
848.437	47.19
848.872	51.89
849.307	57.29
849.742	87.29
850.177	158.19
850.613	497.99
851.048	817.99
851.483	350.89
851.918	128.49
852.353	84.69
852.788	46.39
853.223	49.39
853.657	47.79
854.092	44.49
854.527	41.49
854.962	42.69
855.397	42.89
855.832	40.79
856.266	31.49
856.701	35.59
857.136	31.09
857.57	35.89
858.005	37.79
858.44	50.39
858.874	38.29
859.309	46.99
859.743	35.59
860.178	46.89
860.612	39.29
861.047	50.09
861.481	62.39
861.915	62.59
862.35	47.69
862.784	30.29
863.218	33.69
863.653	32.79
864.087	44.39
864.521	47.69
864.955	69.89
865.39	134.39
865.824	157.39
866.258	99.79
866.692	147.79
867.126	163.99
867.56	101.89
867.994	50.49
868.428	31.19
868.862	41.49
869.296	48.69
869.73	56.19
870.164	52.19
870.598	43.89
871.031	32.59
871.465	34.59
871.899	27.19
872.333	20.69
872.766	21.39
873.2	17.99
873.634	24.09
874.067	14.89
874.501	21.19
874.935	24.99
875.368	26.89
875.802	24.59
876.235	18.09
876.669	14.99
877.102	20.79
877.535	25.09
877.969	23.29
878.402	21.19
878.836	18.99
879.269	22.79
879.702	18.39
880.135	13.29
880.569	15.59
881.002	22.49
881.435	23.29
881.868	13.29
882.301	22.39
882.734	12.79
883.167	17.69
883.601	18.79
884.034	23.09
884.467	10.59
884.899	16.19
885.332	13.69
885.765	12.19
886.198	10.19
886.631	14.29
887.064	22.69
887.497	15.29
887.929	20.99
888.362	14.19
888.795	6.79
889.228	13.59
889.66	16.89
890.093	16.99
890.526	12.79
890.958	9.69
891.391	14.09
891.823	22.19
892.256	15.19
892.688	11.69
893.121	16.19
893.553	7.79
893.985	18.09
894.418	19.79
894.85	7.19
895.282	15.69
895.715	14.29
896.147	12.29
896.579	8.09
897.011	10.19
897.444	17.49
897.876	12.89
898.308	10.09
898.74	10.09
899.172	11.89
899.604	23.69
900.036	15.39
900.468	8.09
900.9	8.89
901.332	12.69
901.764	7.49
902.196	11.29
902.628	18.29
903.06	12.19
903.491	32.49
903.923	21.69
904.355	16.49
904.787	22.69
905.218	22.09
905.65	20.69
906.082	8.99
906.513	9.09
906.945	10.99
907.376	15.59
907.808	12.19
908.239	21.59
908.671	16.29
909.102	19.69
909.534	20.29
909.965	44.99
910.397	81.59
910.828	277.09
911.259	445.39
911.691	200.39
912.122	96.99
912.553	48.49
912.984	27.89
913.415	25.19
913.847	19.99
914.278	15.69
914.709	15.39
915.14	17.29
915.571	12.89
916.002	11.99
916.433	18.49
916.864	16.49
917.295	7.49
917.726	19.09
918.157	15.99
918.587	24.19
919.018	17.49
919.449	20.69
919.88	19.09
920.311	28.19
920.741	47.19
921.172	154.69
921.603	136.49
922.033	63.69
922.464	39.49
922.895	20.09
923.325	14.09
923.756	10.39
924.186	13.29
924.617	26.19
925.047	39.79
925.478	46.99
925.908	44.89
926.338	22.49
926.769	15.99
927.199	22.49
927.629	7.89
928.06	12.69
928.49	10.29
928.92	19.19
929.35	12.99
929.78	9.39
930.21	3.69
930.641	7.19
931.071	8.89
931.501	-0.31
931.931	7.59
932.361	9.19
932.791	-1.51
933.221	0.59
933.651	0.99
934.08	12.49
934.51	31.09
934.94	12.69
935.37	5.99
935.8	8.89
936.229	5.39
936.659	8.29
937.089	1.99
937.519	9.99
937.948	19.99
938.378	16.39
938.807	0.69
939.237	2.39
939.666	3.59
940.096	0.69
940.525	-1.71
940.955	4.19
941.384	6.69
941.814	-3.31
942.243	2.39
942.672	3.69
943.102	-4.01
943.531	2.59
943.96	4.59
944.39	3.79
944.819	3.39
945.248	6.29
945.677	4.29
946.106	2.59
946.535	7.79
946.964	2.69
947.393	0.59
947.822	-1.91
948.251	-6.41
948.68	6.49
949.109	3.59
949.538	2.39
949.967	2.09
950.396	-0.51
950.825	-1.11
951.254	-1.11
951.682	-6.51
952.111	0.79
952.54	8.09
952.969	-3.61
953.397	-2.61
953.826	2.79
954.254	-8.11
954.683	1.59
955.112	-5.51
955.54	3.49
955.969	0.79
956.397	0.49
956.826	-1.31
957.254	1.19
957.682	2.79
958.111	-2.41
958.539	-2.11
958.967	-0.21
959.396	-0.81
959.824	0.59
960.252	-2.21
960.68	-0.31
961.109	-6.71
961.537	-1.21
961.965	0.99
962.393	1.29
962.821	-8.61
963.249	1.09
963.677	3.09
964.105	4.59
964.533	38.19
964.961	34.99
965.389	15.49
965.817	4.89
966.245	3.39
966.672	1.59
967.1	-4.51
967.528	-0.01
967.956	-0.91
968.383	0.59
968.811	-1.71
969.239	4.39
969.666	-1.31
970.094	-2.31
970.522	-0.61
970.949	-0.01
971.377	-7.61
971.804	-1.11
972.232	-1.91
972.659	-8.41
973.087	-7.21
973.514	-7.71
973.941	-7.71
974.369	-0.01
974.796	-0.41
975.223	-2.21
975.651	-0.31
976.078	-0.41
976.505	-2.41
976.932	2.99
977.359	16.59
977.786	16.09
978.214	0.39
978.641	-0.71
979.068	-3.91
979.495	-4.31
979.922	-3.11
980.349	-2.81
980.776	1.29
981.202	-2.91
981.629	2.19
982.056	2.99
982.483	-3.41
982.91	2.99
983.337	-5.31
983.763	-0.51
984.19	-6.11
984.617	-3.31
985.043	-6.81
985.47	-5.21
985.897	-5.41
986.323	-8.81
986.75	3.59
987.176	-5.21
987.603	-2.11
988.029	3.49
988.456	0.39
988.882	1.49
989.308	-7.71
989.735	-3.21
990.161	-0.61
990.587	-4.61
991.014	-3.61
991.44	3.39
991.866	-1.51
992.292	-1.71
992.719	-6.51
993.145	-0.71
993.571	-9.91
993.997	-0.91
994.423	-1.81
994.849	-5.31
995.275	-2.41
995.701	-0.31
996.127	-6.41
996.553	-4.31
996.979	-5.71
997.405	-4.71
997.83	-9.11
998.256	-8.91
998.682	-9.81
999.108	-14.01
999.534	2.99
999.959	-0.61
1000.385	-5.11
1000.811	1.29
1001.236	-9.51
1001.662	-2.91
1002.087	-12.31
1002.513	2.79
1002.938	2.89
1003.364	-3.21
1003.789	-3.01
1004.215	1.49
1004.64	-4.61
1005.066	-6.41
1005.491	2.49
1005.916	-2.31
1006.342	-4.91
1006.767	-6.71
1007.192	2.29
1007.617	-13.31
1008.042	-9.31
1008.468	-10.01
1008.893	-3.81
1009.318	0.29
1009.743	-4.11
1010.168	-0.81
1010.593	2.79
1011.018	-7.51
1011.443	-1.11
1011.868	-3.81
1012.293	-1.11
1012.718	-2.31
1013.143	2.99
1013.567	-0.21
1013.992	-3.41
1014.417	-10.91
1014.842	4.99
1015.267	-6.01
1015.691	-6.41
1016.116	7.19
1016.541	-1.51
1016.965	1.19
1017.39	-1.01
1017.814	-0.51
1018.239	-3.41
1018.663	-9.71
1019.088	-12.31
1019.512	-10.01
1019.937	-6.01
1020.361	-6.71
1020.785	-7.11
1021.21	-6.71
1021.634	-3.01
1022.058	-3.41
1022.483	2.29
1022.907	-7.81
1023.331	-6.11
1023.755	-8.11
1024.179	-2.91
1024.604	-6.21
1025.028	-10.11
1025.452	-1.21
1025.876	2.09
1026.3	3.29
1026.724	-12.71
1027.148	-2.11
1027.572	-3.61
1027.996	-7.51
1028.42	-4.01
1028.843	-4.61
1029.267	-5.91
1029.691	1.79
1030.115	-7.31
1030.539	-13.51
1030.962	-9.11
1031.386	-11.11
1031.81	-3.11
1032.233	0.89
1032.657	-5.41
1033.08	-2.71
1033.504	-4.51
1033.927	-6.01
1034.351	-4.51
1034.774	-10.01
1035.198	0.89
1035.621	-7.71
1036.045	-8.91
1036.468	-4.61
1036.891	-7.11
1037.315	-12.21
1037.738	-9.71
1038.161	2.99
1038.584	-5.61
1039.008	-8.91
1039.431	-6.11
1039.854	-6.31
1040.277	-11.21
1040.7	-11.71
1041.123	0.79
1041.546	-8.81
1041.969	-9.01
1042.392	-7.91
1042.815	-2.01
1043.238	2.59
1043.661	3.19
1044.084	-7.61
1044.507	-5.41
1044.93	-11.61
1045.352	-2.91
1045.775	-7.81
1046.198	0.89
1046.621	-7.11
1047.043	-2.71
1047.466	6.59
1047.889	-0.71
1048.311	-3.61
1048.734	-1.51
1049.156	-3.81
1049.579	-1.21
1050.001	-3.51
1050.424	-4.11
1050.846	-2.61
1051.269	-7.51
1051.691	-7.11
1052.113	-3.11
1052.536	-5.31
1052.958	-3.01
1053.38	-5.41
1053.802	-6.11
1054.225	3.29
1054.647	-11.01
1055.069	-8.81
1055.491	-2.21
1055.913	-8.21
1056.335	-2.51
1056.757	-5.91
1057.179	-6.81
1057.601	-7.41
1058.023	-2.41
1058.445	-6.31
1058.867	-11.01
1059.289	-2.91
1059.711	-7.01
1060.133	-2.51
1060.555	-2.71
1060.976	-7.31
1061.398	-4.51
1061.82	-6.31
1062.241	-7.71
1062.663	-14.61
1063.085	-3.61
1063.506	-3.71
1063.928	-2.41
1064.35	0.19
1064.771	-8.31
1065.193	-0.01
1065.614	-8.41
1066.035	-6.61
1066.457	-4.91
1066.878	3.19
1067.3	-12.21
1067.721	-8.01
1068.142	-6.21
1068.564	-6.01
1068.985	-6.61
1069.406	-7.11
1069.827	-3.91
1070.248	-6.31
1070.67	-12.31
1071.091	-6.11
1071.512	-4.51
1071.933	-7.41
1072.354	-6.41
1072.775	-3.81
1073.196	-8.61
1073.617	-6.01
1074.038	-9.81
1074.459	-8.31
1074.88	-7.91
1075.3	-2.21
1075.721	-4.51
1076.142	-2.41
1076.563	-2.71
1076.983	-9.91
1077.404	-8.41
1077.825	-6.11
1078.246	3.09
1078.666	-8.81
1079.087	-7.11
1079.507	-7.51
1079.928	-4.11
1080.348	3.39
1080.769	-9.21
1081.189	-2.71
1081.61	-4.71
1082.03	-5.21
1082.451	-9.01
1082.871	-1.61
1083.291	-5.71
1083.711	-12.61
1084.132	-1.81
1084.552	-1.41
1084.972	1.69
1085.392	-5.31
1085.813	-9.61
1086.233	-8.71
1086.653	-4.81
1087.073	-8.31
1087.493	-6.31
1087.913	-5.81
1088.333	-10.71
1088.753	0.59
1089.173	7.19
1089.593	-5.01
1090.013	-0.81
1090.433	3.39
1090.852	-1.91
1091.272	-5.41
1091.692	1.09
1092.112	1.39
1092.531	-12.01
1092.951	-18.31
1093.371	-3.61
1093.79	1.49
1094.21	-9.81
1094.63	-7.31
1095.049	-0.61
1095.469	-6.21
1095.888	-6.11
1096.308	1.89
1096.727	-0.31
1097.146	-3.71
1097.566	-6.61
1097.985	-4.01
1098.405	-3.81
1098.824	-5.61
1099.243	-8.61
1099.662	-8.01
1100.082	-6.21
1100.501	-4.81
1100.92	-4.31
1101.339	-11.01
1101.758	-3.41
