Data from 20171114-ORNL-Ar_H_NY_Subt18_08-08-49-534.txt Node
Date: Tue Nov 14 08:08:49 EST 2017
User: Ender
Spectrometer: HR+D1039
Trigger mode: 0
Integration Time (sec): 2.730000E-2
Scans to average: 10
Electric dark correction enabled: true
Nonlinearity correction enabled: false
Boxcar width: 0
XAxis mode: Wavelengths
Number of Pixels in Spectrum: 2048
>>>>>Begin Spectral Data<<<<<
187.836	-8.41
188.309	-8.41
188.782	-8.41
189.255	-3.31
189.728	-7.21
190.201	6.29
190.674	3.59
191.147	6.19
191.619	-6.31
192.092	2.59
192.565	2.19
193.038	-0.31
193.511	1.59
193.984	3.09
194.456	0.99
194.929	4.89
195.402	-0.51
195.874	-5.41
196.347	-1.41
196.82	-11.81
197.292	-0.31
197.765	-5.81
198.237	-5.61
198.71	0.79
199.182	-8.21
199.655	0.79
200.127	-1.21
200.6	-3.21
201.072	-3.21
201.544	-4.01
202.017	-1.31
202.489	7.99
202.961	-5.71
203.433	-0.81
203.906	-2.11
204.378	-11.01
204.85	-4.61
205.322	-13.21
205.794	1.79
206.266	-7.01
206.739	-4.01
207.211	0.39
207.683	-12.51
208.155	-10.31
208.627	-10.91
209.099	-7.51
209.57	-8.31
210.042	-10.91
210.514	-0.11
210.986	-0.81
211.458	-12.41
211.93	-2.31
212.402	-1.51
212.873	-7.01
213.345	-9.21
213.817	-14.21
214.288	-6.81
214.76	-11.31
215.232	-8.81
215.703	-6.51
216.175	-10.01
216.646	-12.01
217.118	-8.81
217.589	-2.51
218.061	-4.41
218.532	-6.91
219.004	-2.41
219.475	-8.51
219.946	-3.11
220.418	-7.71
220.889	-0.11
221.36	-4.01
221.832	0.19
222.303	-5.61
222.774	-0.41
223.245	-10.01
223.717	-8.41
224.188	-11.61
224.659	-12.91
225.13	-7.71
225.601	-1.01
226.072	-3.21
226.543	-2.71
227.014	-7.31
227.485	-7.91
227.956	-9.11
228.427	-4.11
228.898	3.19
229.369	0.69
229.839	-9.81
230.31	-12.11
230.781	-0.21
231.252	-3.01
231.722	-4.41
232.193	-8.01
232.664	-3.11
233.135	3.99
233.605	-4.41
234.076	-15.11
234.546	-1.31
235.017	0.69
235.487	-3.51
235.958	-14.41
236.428	-9.91
236.899	-1.01
237.369	-4.81
237.84	-7.01
238.31	0.49
238.78	2.99
239.251	-8.61
239.721	-4.71
240.191	-0.41
240.662	-5.01
241.132	-1.11
241.602	-10.61
242.072	4.79
242.542	0.59
243.013	-5.91
243.483	3.29
243.953	4.99
244.423	-5.01
244.893	-4.31
245.363	2.49
245.833	-1.71
246.303	-9.91
246.773	-1.31
247.243	3.49
247.712	-4.11
248.182	1.09
248.652	-1.21
249.122	-5.41
249.592	-2.21
250.061	2.49
250.531	10.59
251.001	-3.21
251.471	10.29
251.94	5.99
252.41	-3.71
252.879	-3.11
253.349	5.59
253.818	2.29
254.288	0.89
254.757	-2.51
255.227	-3.21
255.696	-0.71
256.166	7.09
256.635	1.09
257.105	-0.31
257.574	-4.71
258.043	0.99
258.513	-7.41
258.982	0.69
259.451	-1.41
259.92	3.69
260.389	-0.41
260.859	8.29
261.328	2.09
261.797	4.99
262.266	-0.11
262.735	4.59
263.204	2.59
263.673	-1.91
264.142	2.59
264.611	-8.11
265.08	-6.51
265.549	-11.01
266.018	3.99
266.487	-3.81
266.955	-6.61
267.424	-5.31
267.893	4.19
268.362	2.39
268.83	4.29
269.299	6.69
269.768	4.49
270.236	2.29
270.705	-1.41
271.174	-0.21
271.642	2.09
272.111	-0.91
272.579	0.39
273.048	1.59
273.516	-0.71
273.985	6.59
274.453	7.49
274.922	8.19
275.39	3.79
275.858	0.39
276.327	-0.61
276.795	4.29
277.263	-1.51
277.731	12.99
278.2	11.89
278.668	12.99
279.136	8.09
279.604	1.99
280.072	2.59
280.54	8.49
281.008	7.49
281.477	6.59
281.945	6.09
282.413	10.99
282.881	10.79
283.348	1.99
283.816	7.89
284.284	5.39
284.752	9.09
285.22	7.89
285.688	11.29
286.156	9.39
286.623	12.49
287.091	17.19
287.559	11.09
288.026	6.29
288.494	3.89
288.962	-3.01
289.429	-1.81
289.897	11.69
290.364	10.59
290.832	6.99
291.3	8.79
291.767	5.79
292.234	12.69
292.702	8.79
293.169	7.99
293.637	10.69
294.104	7.79
294.571	-3.71
295.039	6.29
295.506	9.79
295.973	11.89
296.44	5.99
296.908	9.09
297.375	9.59
297.842	8.49
298.309	10.69
298.776	5.29
299.243	11.89
299.71	10.69
300.177	15.89
300.644	11.49
301.111	13.49
301.578	11.89
302.045	4.59
302.512	15.29
302.979	19.89
303.446	9.09
303.913	8.69
304.379	5.39
304.846	18.59
305.313	12.49
305.78	15.79
306.246	13.79
306.713	17.09
307.18	14.49
307.646	19.49
308.113	17.69
308.579	10.59
309.046	12.99
309.512	19.99
309.979	10.89
310.445	22.19
310.912	15.79
311.378	23.99
311.845	25.59
312.311	19.89
312.777	16.09
313.244	20.69
313.71	39.49
314.176	24.39
314.642	23.39
315.109	19.99
315.575	28.89
316.041	28.59
316.507	24.89
316.973	23.99
317.439	24.89
317.905	23.99
318.371	24.69
318.837	21.29
319.303	16.99
319.769	25.29
320.235	25.09
320.701	36.29
321.167	32.99
321.633	24.29
322.099	26.69
322.564	33.59
323.03	32.99
323.496	31.99
323.962	30.69
324.427	28.29
324.893	35.89
325.359	29.19
325.824	28.29
326.29	24.99
326.755	26.69
327.221	29.29
327.686	31.79
328.152	37.99
328.617	24.29
329.083	33.39
329.548	41.59
330.014	37.39
330.479	31.49
330.944	31.89
331.41	34.39
331.875	38.19
332.34	36.59
332.805	33.09
333.271	34.79
333.736	27.59
334.201	37.29
334.666	31.99
335.131	39.99
335.596	39.59
336.061	38.69
336.526	33.99
336.991	42.29
337.456	50.49
337.921	38.69
338.386	37.29
338.851	39.59
339.316	40.79
339.781	39.59
340.246	41.69
340.711	38.19
341.175	42.39
341.64	35.59
342.105	40.39
342.569	48.39
343.034	48.09
343.499	39.89
343.963	49.89
344.428	56.39
344.893	54.39
345.357	52.89
345.822	56.89
346.286	55.09
346.751	64.79
347.215	58.89
347.679	51.39
348.144	81.89
348.608	62.99
349.073	60.59
349.537	58.29
350.001	65.59
350.465	72.19
350.93	73.59
351.394	67.39
351.858	63.39
352.322	67.79
352.786	72.09
353.25	88.29
353.715	92.59
354.179	85.19
354.643	96.79
355.107	104.69
355.571	84.79
356.035	82.39
356.498	89.59
356.962	94.49
357.426	101.19
357.89	95.29
358.354	69.99
358.818	69.79
359.281	69.59
359.745	68.79
360.209	66.49
360.673	60.89
361.136	67.49
361.6	71.89
362.064	73.89
362.527	74.79
362.991	80.19
363.454	71.29
363.918	70.19
364.381	69.99
364.845	73.59
365.308	75.49
365.772	80.69
366.235	73.49
366.698	75.99
367.162	83.99
367.625	73.09
368.088	71.59
368.552	81.59
369.015	87.69
369.478	88.69
369.941	86.79
370.404	85.59
370.867	93.09
371.331	91.09
371.794	98.89
372.257	93.39
372.72	99.29
373.183	95.29
373.646	87.09
374.109	93.09
374.572	88.99
375.035	91.49
375.497	98.19
375.96	97.89
376.423	96.09
376.886	100.59
377.349	104.49
377.811	88.89
378.274	92.49
378.737	93.49
379.199	99.69
379.662	98.39
380.125	103.99
380.587	96.19
381.05	91.39
381.512	106.29
381.975	114.09
382.437	107.29
382.9	112.49
383.362	122.59
383.825	116.69
384.287	113.89
384.75	112.89
385.212	113.49
385.674	127.19
386.136	120.69
386.599	118.29
387.061	112.79
387.523	117.69
387.985	121.09
388.447	123.49
388.91	122.39
389.372	119.39
389.834	119.39
390.296	119.99
390.758	127.19
391.22	131.09
391.682	147.99
392.144	167.19
392.606	154.39
393.068	136.99
393.529	147.09
393.991	125.69
394.453	124.49
394.915	125.49
395.377	133.69
395.838	140.39
396.3	128.09
396.762	134.69
397.224	134.09
397.685	123.59
398.147	132.59
398.608	120.89
399.07	125.39
399.531	127.09
399.993	145.89
400.454	144.29
400.916	135.69
401.377	139.49
401.839	151.89
402.3	140.29
402.762	159.59
403.223	170.99
403.684	160.59
404.145	152.59
404.607	153.79
405.068	160.79
405.529	156.89
405.99	178.19
406.451	165.19
406.913	164.99
407.374	159.79
407.835	160.99
408.296	160.69
408.757	166.39
409.218	183.89
409.679	174.09
410.14	174.09
410.601	169.79
411.062	176.19
411.522	175.49
411.983	170.19
412.444	175.89
412.905	177.69
413.366	182.89
413.826	183.59
414.287	217.49
414.748	262.99
415.208	244.69
415.669	213.29
416.13	206.79
416.59	196.69
417.051	212.89
417.511	216.19
417.972	241.69
418.432	247.59
418.893	294.39
419.353	258.69
419.814	201.19
420.274	185.49
420.734	181.39
421.195	196.19
421.655	199.39
422.115	193.39
422.576	193.99
423.036	201.59
423.496	211.99
423.956	218.49
424.416	229.79
424.876	268.29
425.336	260.09
425.797	250.49
426.257	246.89
426.717	241.79
427.177	230.39
427.637	219.79
428.097	236.49
428.556	240.79
429.016	259.59
429.476	257.49
429.936	263.29
430.396	282.39
430.856	285.29
431.315	306.59
431.775	336.69
432.235	370.49
432.694	337.99
433.154	356.49
433.614	379.59
434.073	334.69
434.533	280.49
434.993	260.89
435.452	277.29
435.912	288.19
436.371	284.29
436.83	275.39
437.29	253.39
437.749	248.69
438.209	245.39
438.668	271.39
439.127	291.19
439.587	258.59
440.046	248.79
440.505	259.39
440.964	265.29
441.424	313.59
441.883	304.19
442.342	270.89
442.801	225.59
443.26	229.19
443.719	218.79
444.178	216.99
444.637	216.99
445.096	223.89
445.555	227.19
446.014	230.89
446.473	242.39
446.932	238.69
447.391	237.19
447.849	239.09
448.308	224.59
448.767	226.99
449.226	239.09
449.685	249.79
450.143	253.09
450.602	243.19
451.061	231.29
451.519	238.69
451.978	236.19
452.436	241.09
452.895	250.39
453.353	259.59
453.812	244.09
454.27	241.29
454.729	241.39
455.187	244.79
455.646	252.29
456.104	256.09
456.562	270.09
457.021	272.99
457.479	260.49
457.937	281.99
458.395	270.99
458.854	250.19
459.312	257.39
459.77	285.79
460.228	269.19
460.686	248.29
461.144	260.59
461.602	251.99
462.06	254.59
462.518	262.29
462.976	268.29
463.434	263.89
463.892	262.79
464.35	281.99
464.808	294.59
465.266	268.49
465.724	279.09
466.181	282.39
466.639	281.59
467.097	298.49
467.555	313.39
468.012	316.09
468.47	314.79
468.928	331.79
469.385	358.29
469.843	357.69
470.3	357.89
470.758	370.29
471.215	385.89
471.673	414.69
472.13	421.09
472.588	428.39
473.045	388.29
473.503	386.89
473.96	403.89
474.417	406.29
474.875	439.59
475.332	483.19
475.789	471.49
476.246	469.89
476.704	500.29
477.161	512.59
477.618	532.29
478.075	569.69
478.532	616.79
478.989	687.19
479.446	798.99
479.903	759.19
480.36	801.29
480.817	840.59
481.274	936.69
481.731	1023.69
482.188	1102.09
482.645	1222.29
483.102	1309.39
483.558	1442.29
484.015	1468.99
484.472	1452.09
484.929	1399.79
485.385	1367.99
485.842	1337.19
486.299	1288.39
486.755	1248.19
487.212	1056.69
487.668	916.09
488.125	835.89
488.582	766.29
489.038	745.79
489.494	712.49
489.951	683.09
490.407	675.99
490.864	650.99
491.32	646.99
491.776	648.39
492.233	652.99
492.689	621.29
493.145	611.79
493.602	611.89
494.058	631.99
494.514	623.29
494.97	632.69
495.426	655.29
495.882	632.79
496.338	625.29
496.794	625.19
497.251	621.39
497.707	634.29
498.163	636.19
498.618	650.49
499.074	655.49
499.53	681.99
499.986	674.59
500.442	658.79
500.898	628.99
501.354	629.49
501.809	642.09
502.265	639.69
502.721	653.29
503.177	660.19
503.632	662.19
504.088	681.69
504.543	694.49
504.999	717.99
505.455	670.09
505.91	648.59
506.366	648.69
506.821	650.79
507.277	645.49
507.732	648.99
508.187	650.19
508.643	658.49
509.098	658.69
509.553	678.89
510.009	688.99
510.464	693.99
510.919	717.69
511.375	724.39
511.83	728.39
512.285	744.89
512.74	777.09
513.195	802.39
513.65	779.49
514.105	787.99
514.56	787.99
515.015	809.79
515.47	821.99
515.925	805.29
516.38	802.89
516.835	806.79
517.29	799.79
517.745	794.99
518.2	778.29
518.655	776.49
519.109	771.39
519.564	763.29
520.019	749.49
520.474	744.89
520.928	750.89
521.383	744.79
521.838	729.19
522.292	719.19
522.747	730.09
523.201	729.99
523.656	723.29
524.11	719.49
524.565	722.09
525.019	713.39
525.474	724.09
525.928	717.89
526.382	721.19
526.837	723.29
527.291	728.09
527.745	713.49
528.2	721.59
528.654	701.59
529.108	713.19
529.562	708.19
530.016	705.49
530.47	708.19
530.925	704.39
531.379	720.49
531.833	719.79
532.287	717.99
532.741	718.19
533.195	720.79
533.649	736.29
534.103	733.39
534.556	728.89
535.01	723.69
535.464	722.09
535.918	748.69
536.372	740.59
536.826	742.39
537.279	723.29
537.733	740.79
538.187	730.59
538.64	736.29
539.094	738.09
539.548	752.59
540.001	751.29
540.455	750.79
540.908	750.39
541.362	767.89
541.815	766.29
542.269	789.09
542.722	780.79
543.175	799.89
543.629	799.19
544.082	803.49
544.536	816.79
544.989	812.99
545.442	813.69
545.895	818.59
546.349	821.39
546.802	828.09
547.255	819.29
547.708	823.99
548.161	837.49
548.614	852.79
549.067	854.89
549.52	841.69
549.973	832.79
550.426	839.89
550.879	813.39
551.332	831.39
551.785	829.79
552.238	835.79
552.691	855.39
553.144	871.39
553.596	879.39
554.049	903.39
554.502	925.49
554.955	939.89
555.407	933.59
555.86	928.79
556.313	933.29
556.765	915.89
557.218	907.69
557.67	914.49
558.123	902.09
558.576	895.59
559.028	909.69
559.48	908.19
559.933	899.89
560.385	870.09
560.838	839.59
561.29	825.79
561.742	816.89
562.195	805.29
562.647	794.89
563.099	801.89
563.551	799.59
564.004	820.89
564.456	808.29
564.908	783.59
565.36	772.99
565.812	757.99
566.264	742.59
566.716	742.69
567.168	728.79
567.62	744.79
568.072	724.79
568.524	724.49
568.976	718.29
569.428	709.79
569.88	700.39
570.332	712.39
570.784	720.69
571.235	710.59
571.687	729.89
572.139	736.09
572.59	737.69
573.042	739.19
573.494	737.79
573.945	729.29
574.397	711.49
574.849	723.19
575.3	734.19
575.752	701.79
576.203	711.29
576.655	711.59
577.106	695.99
577.557	690.69
578.009	697.09
578.46	689.59
578.912	690.49
579.363	698.69
579.814	701.09
580.265	692.49
580.717	692.69
581.168	694.49
581.619	698.49
582.07	707.29
582.521	703.49
582.972	697.99
583.423	698.79
583.875	695.09
584.326	707.89
584.777	726.79
585.227	760.69
585.678	779.39
586.129	807.79
586.58	847.69
587.031	872.59
587.482	922.29
587.933	973.89
588.384	931.39
588.834	853.39
589.285	815.79
589.736	808.79
590.186	797.59
590.637	798.79
591.088	775.69
591.538	767.09
591.989	762.69
592.439	756.99
592.89	747.99
593.34	744.59
593.791	740.19
594.241	724.29
594.692	725.49
595.142	730.19
595.593	727.49
596.043	734.09
596.493	730.19
596.943	730.59
597.394	758.39
597.844	746.69
598.294	765.79
598.744	793.59
599.195	809.99
599.645	863.49
600.095	899.09
600.545	959.49
600.995	1004.79
601.445	1080.79
601.895	1141.99
602.345	1177.19
602.795	1160.69
603.245	1112.59
603.695	1052.59
604.145	1001.99
604.594	949.39
605.044	904.19
605.494	827.29
605.944	781.99
606.393	778.89
606.843	756.69
607.293	761.39
607.743	752.59
608.192	758.49
608.642	787.19
609.091	790.99
609.541	791.29
609.99	790.69
610.44	790.09
610.889	741.89
611.339	726.59
611.788	711.79
612.238	717.99
612.687	732.39
613.136	727.79
613.586	739.49
614.035	734.89
614.484	750.59
614.933	737.79
615.383	743.99
615.832	734.19
616.281	733.59
616.73	693.69
617.179	680.69
617.628	674.69
618.077	657.79
618.526	644.79
618.975	637.89
619.424	639.49
619.873	646.79
620.322	641.09
620.771	626.29
621.22	637.59
621.669	618.59
622.118	609.69
622.567	602.69
623.015	587.69
623.464	592.59
623.913	579.09
624.361	569.19
624.81	577.09
625.259	572.59
625.707	575.19
626.156	580.79
626.604	593.09
627.053	586.99
627.501	589.09
627.95	596.89
628.398	611.29
628.847	610.39
629.295	595.29
629.744	605.49
630.192	581.09
630.64	583.49
631.089	580.79
631.537	569.99
631.985	556.69
632.433	563.09
632.881	554.89
633.33	576.69
633.778	567.69
634.226	551.99
634.674	565.29
635.122	568.39
635.57	583.29
636.018	596.79
636.466	594.49
636.914	574.59
637.362	597.49
637.81	594.79
638.258	610.89
638.705	601.99
639.153	637.39
639.601	648.89
640.049	664.59
640.497	710.39
640.944	715.89
641.392	678.19
641.84	648.89
642.287	603.89
642.735	588.39
643.182	586.99
643.63	586.69
644.078	588.09
644.525	606.69
644.973	604.79
645.42	614.29
645.867	636.19
646.315	668.49
646.762	690.29
647.21	709.89
647.657	726.79
648.104	776.09
648.551	784.49
648.999	854.39
649.446	922.79
649.893	1015.89
650.34	1160.09
650.787	1378.29
651.234	1694.99
651.682	2187.09
652.129	2988.59
652.576	4257.39
653.023	6209.59
653.47	8381.59
653.917	10312.79
654.363	11795.09
654.81	12968.69
655.257	12284.49
655.704	8157.79
656.151	4915.69
656.598	3226.19
657.044	2324.09
657.491	1787.19
657.938	1455.89
658.385	1222.29
658.831	1070.19
659.278	961.29
659.724	856.69
660.171	798.89
660.618	740.69
661.064	702.49
661.511	674.49
661.957	667.19
662.404	664.89
662.85	671.99
663.296	636.09
663.743	580.19
664.189	561.29
664.635	561.79
665.082	545.39
665.528	552.99
665.974	539.79
666.42	526.29
666.867	530.39
667.313	508.19
667.759	492.89
668.205	468.39
668.651	481.19
669.097	478.49
669.543	457.49
669.989	465.39
670.435	461.89
670.881	463.09
671.327	478.19
671.773	497.19
672.219	524.99
672.665	575.69
673.11	617.99
673.556	664.19
674.002	702.49
674.448	685.99
674.893	579.19
675.339	502.49
675.785	465.79
676.23	443.19
676.676	422.69
677.122	400.59
677.567	397.99
678.013	393.89
678.458	383.99
678.904	380.59
679.349	364.29
679.794	369.09
680.24	371.49
680.685	372.99
681.131	362.09
681.576	367.09
682.021	379.39
682.466	368.69
682.912	365.19
683.357	369.09
683.802	406.79
684.247	443.69
684.692	482.99
685.137	532.79
685.583	575.59
686.028	592.49
686.473	556.89
686.918	478.89
687.363	445.29
687.807	414.89
688.252	387.99
688.697	375.49
689.142	356.89
689.587	350.69
690.032	344.09
690.477	369.59
690.921	376.39
691.366	413.49
691.811	423.19
692.255	449.79
692.7	488.69
693.145	545.19
693.589	768.99
694.034	1234.69
694.478	1654.69
694.923	1833.19
695.367	2365.19
695.812	1269.99
696.256	528.09
696.701	390.39
697.145	364.59
697.59	351.19
698.034	337.79
698.478	346.09
698.922	339.29
699.367	336.59
699.811	351.29
700.255	365.69
700.699	403.09
701.143	444.99
701.588	498.79
702.032	542.79
702.476	541.79
702.92	523.89
703.364	531.79
703.808	699.29
704.252	1142.89
704.696	1572.59
705.14	1768.89
705.584	2243.59
706.027	1127.89
706.471	552.49
706.915	418.49
707.359	372.59
707.803	340.79
708.246	329.59
708.69	332.89
709.134	329.89
709.577	329.19
710.021	332.39
710.465	322.59
710.908	319.19
711.352	312.39
711.795	331.09
712.239	376.59
712.682	403.29
713.126	432.79
713.569	472.29
714.012	380.39
714.456	327.09
714.899	307.69
715.342	289.89
715.786	273.79
716.229	271.99
716.672	272.49
717.115	263.89
717.558	263.49
718.002	268.99
718.445	277.89
718.888	299.79
719.331	304.29
719.774	330.89
720.217	329.69
720.66	298.49
721.103	292.19
721.546	274.39
721.989	261.79
722.432	246.39
722.874	250.19
723.317	249.19
723.76	247.99
724.203	270.69
724.645	346.49
725.088	490.99
725.531	605.39
725.974	677.99
726.416	576.49
726.859	321.59
727.301	252.79
727.744	247.09
728.187	244.19
728.629	254.29
729.071	248.19
729.514	275.09
729.956	286.29
730.399	299.79
730.841	309.69
731.283	294.19
731.726	284.49
732.168	278.79
732.61	283.99
733.053	304.59
733.495	339.59
733.937	372.49
734.379	429.69
734.821	469.69
735.263	596.09
735.705	929.09
736.148	1739.29
736.59	2795.99
737.032	3211.99
737.474	2631.79
737.916	878.89
738.357	460.29
738.799	344.19
739.241	315.29
739.683	304.59
740.125	315.79
740.567	323.39
741.008	339.19
741.45	333.69
741.892	334.59
742.334	374.39
742.775	386.59
743.217	361.59
743.658	296.49
744.1	269.19
744.542	287.69
744.983	338.99
745.425	362.19
745.866	367.29
746.307	299.29
746.749	294.69
747.19	357.59
747.632	504.19
748.073	1001.69
748.514	2081.59
748.956	3078.29
749.397	3874.89
749.838	3206.49
750.279	3115.39
750.72	1589.29
751.162	584.69
751.603	345.79
752.044	267.69
752.485	231.99
752.926	221.39
753.367	217.89
753.808	203.69
754.249	199.29
754.69	199.09
755.131	194.29
755.572	191.69
756.013	193.79
756.453	183.79
756.894	198.99
757.335	209.09
757.776	211.59
758.216	209.79
758.657	209.49
759.098	213.39
759.538	243.19
759.979	291.49
760.42	419.69
760.86	801.99
761.301	2082.59
761.741	4870.39
762.182	6745.89
762.622	4772.39
763.063	1407.79
763.503	577.69
763.943	353.29
764.384	311.69
764.824	294.09
765.264	284.09
765.705	234.99
766.145	199.19
766.585	190.39
767.025	180.89
767.465	171.99
767.906	201.49
768.346	225.09
768.786	237.59
769.226	246.49
769.666	335.19
770.106	697.49
770.546	1733.99
770.986	2803.69
771.426	2486.39
771.866	843.19
772.306	349.19
772.745	213.79
773.185	180.19
773.625	162.69
774.065	155.89
774.505	176.59
774.944	238.49
775.384	428.19
775.824	687.59
776.263	660.99
776.703	315.49
777.142	172.39
777.582	140.19
778.021	129.29
778.461	133.69
778.9	139.29
779.34	132.39
779.779	120.89
780.219	109.29
780.658	110.89
781.097	108.89
781.537	112.19
781.976	107.49
782.415	114.09
782.855	113.79
783.294	110.79
783.733	106.69
784.172	114.29
784.611	106.59
785.05	115.49
785.489	119.09
785.928	124.29
786.367	128.99
786.806	121.59
787.245	132.59
787.684	142.49
788.123	155.29
788.562	139.79
789.001	138.09
789.44	126.19
789.879	121.59
790.317	128.89
790.756	136.79
791.195	135.89
791.634	155.19
792.072	218.29
792.511	407.69
792.95	1119.99
793.388	2258.89
793.827	1989.89
794.265	717.49
794.704	298.29
795.142	194.89
795.581	160.39
796.019	144.19
796.458	138.79
796.896	125.49
797.334	137.29
797.773	167.09
798.211	240.59
798.649	491.19
799.087	1123.99
799.526	1741.29
799.964	2187.39
800.402	2094.59
800.84	822.49
801.278	330.59
801.716	199.49
802.154	161.79
802.592	163.19
803.03	150.79
803.468	141.89
803.906	149.59
804.344	153.59
804.782	149.19
805.22	143.59
805.658	145.39
806.096	155.59
806.533	165.69
806.971	187.79
807.409	232.19
807.847	353.89
808.284	763.39
808.722	2065.99
809.16	3490.19
809.597	3456.89
810.035	5876.09
810.472	6007.59
810.91	2239.09
811.347	864.89
811.785	429.79
812.222	277.39
812.66	204.89
813.097	169.69
813.535	147.89
813.972	141.29
814.409	120.79
814.846	112.99
815.284	114.59
815.721	102.59
816.158	107.89
816.595	127.19
817.032	165.99
817.47	193.09
817.907	138.09
818.344	114.29
818.781	103.59
819.218	103.59
819.655	130.49
820.092	198.49
820.529	234.09
820.966	173.79
821.403	133.69
821.839	106.09
822.276	101.69
822.713	127.79
823.15	141.69
823.587	121.59
824.023	157.59
824.46	349.09
824.897	984.99
825.333	1426.59
825.77	611.09
826.206	251.09
826.643	144.69
827.08	108.39
827.516	90.49
827.953	74.59
828.389	85.09
828.825	76.19
829.262	79.09
829.698	69.09
830.135	64.99
830.571	61.49
831.007	67.19
831.443	71.69
831.88	66.39
832.316	65.39
832.752	70.49
833.188	67.69
833.624	65.19
834.06	67.29
834.497	72.89
834.933	76.39
835.369	80.69
835.805	74.89
836.241	79.79
836.677	87.29
837.112	100.09
837.548	112.89
837.984	143.29
838.42	221.79
838.856	563.19
839.292	1666.79
839.727	2428.89
840.163	1154.89
840.599	1030.09
841.034	2220.79
841.47	2214.09
841.906	821.19
842.341	354.49
842.777	219.69
843.212	224.29
843.648	207.69
844.083	121.59
844.519	88.59
844.954	80.69
845.39	62.99
845.825	58.59
846.261	59.19
846.696	58.19
847.131	53.79
847.566	63.89
848.002	53.69
848.437	56.39
848.872	65.69
849.307	66.79
849.742	95.99
850.177	208.39
850.613	612.99
851.048	916.99
851.483	403.09
851.918	164.59
852.353	87.49
852.788	64.99
853.223	54.59
853.657	54.59
854.092	46.49
854.527	50.39
854.962	41.49
855.397	35.49
855.832	49.89
856.266	42.49
856.701	40.49
857.136	39.29
857.57	44.59
858.005	50.19
858.44	58.89
858.874	47.19
859.309	56.09
859.743	42.79
860.178	47.29
860.612	47.69
861.047	52.79
861.481	73.29
861.915	70.89
862.35	49.79
862.784	34.89
863.218	38.79
863.653	37.19
864.087	51.99
864.521	55.19
864.955	72.59
865.39	165.29
865.824	179.19
866.258	129.29
866.692	179.79
867.126	188.49
867.56	112.09
867.994	58.29
868.428	37.49
868.862	48.89
869.296	51.09
869.73	64.39
870.164	60.49
870.598	50.49
871.031	35.59
871.465	33.99
871.899	36.19
872.333	23.39
872.766	22.29
873.2	20.49
873.634	28.19
874.067	24.99
874.501	24.89
874.935	36.99
875.368	35.09
875.802	23.09
876.235	21.29
876.669	17.89
877.102	27.09
877.535	22.19
877.969	27.09
878.402	26.39
878.836	21.29
879.269	26.59
879.702	19.39
880.135	19.39
880.569	16.49
881.002	23.59
881.435	20.39
881.868	20.39
882.301	26.39
882.734	19.29
883.167	25.69
883.601	24.89
884.034	24.49
884.467	17.39
884.899	20.99
885.332	18.09
885.765	15.49
886.198	13.49
886.631	14.39
887.064	17.19
887.497	21.69
887.929	23.59
888.362	17.19
888.795	15.89
889.228	18.79
889.66	28.09
890.093	11.29
890.526	15.29
890.958	14.09
891.391	18.09
891.823	27.29
892.256	11.79
892.688	16.79
893.121	17.49
893.553	14.99
893.985	21.59
894.418	24.69
894.85	12.19
895.282	18.59
895.715	18.39
896.147	15.29
896.579	16.89
897.011	16.99
897.444	21.29
897.876	15.59
898.308	13.19
898.74	15.39
899.172	11.69
899.604	19.59
900.036	14.89
900.468	11.99
900.9	14.59
901.332	19.99
901.764	12.49
902.196	18.09
902.628	21.89
903.06	19.49
903.491	30.79
903.923	16.49
904.355	22.99
904.787	23.09
905.218	27.09
905.65	20.99
906.082	10.49
906.513	11.79
906.945	17.49
907.376	14.59
907.808	18.99
908.239	22.69
908.671	21.29
909.102	21.69
909.534	27.29
909.965	54.19
910.397	98.59
910.828	341.79
911.259	489.29
911.691	224.49
912.122	111.29
912.553	49.29
912.984	37.59
913.415	22.79
913.847	26.29
914.278	15.29
914.709	12.59
915.14	17.99
915.571	12.69
916.002	10.09
916.433	17.79
916.864	18.59
917.295	8.29
917.726	24.89
918.157	14.99
918.587	26.69
919.018	19.69
919.449	23.89
919.88	24.79
920.311	35.19
920.741	56.29
921.172	177.29
921.603	155.69
922.033	76.09
922.464	43.39
922.895	25.99
923.325	23.19
923.756	12.89
924.186	11.09
924.617	22.89
925.047	24.99
925.478	25.59
925.908	27.69
926.338	16.79
926.769	11.79
927.199	17.29
927.629	10.09
928.06	21.09
928.49	14.29
928.92	13.59
929.35	9.29
929.78	15.79
930.21	5.99
930.641	6.89
931.071	4.89
931.501	0.89
931.931	9.69
932.361	5.29
932.791	-2.81
933.221	0.09
933.651	5.19
934.08	18.89
934.51	28.79
934.94	10.89
935.37	10.59
935.8	8.69
936.229	3.69
936.659	11.19
937.089	1.99
937.519	13.79
937.948	27.39
938.378	19.49
938.807	8.69
939.237	-2.41
939.666	8.99
940.096	-2.61
940.525	1.09
940.955	0.79
941.384	3.79
941.814	-5.81
942.243	-0.21
942.672	0.39
943.102	-2.31
943.531	-0.81
943.96	3.59
944.39	3.19
944.819	8.19
945.248	2.59
945.677	-2.71
946.106	2.99
946.535	4.39
946.964	-0.21
947.393	3.49
947.822	2.19
948.251	-3.51
948.68	5.49
949.109	1.99
949.538	3.29
949.967	1.39
950.396	3.19
950.825	-3.61
951.254	1.59
951.682	-6.61
952.111	-0.21
952.54	8.09
952.969	-5.21
953.397	-6.01
953.826	5.69
954.254	-8.41
954.683	1.29
955.112	-1.11
955.54	4.49
955.969	-1.41
956.397	0.69
956.826	-4.01
957.254	1.29
957.682	4.89
958.111	5.69
958.539	-2.41
958.967	-0.51
959.396	0.29
959.824	-2.81
960.252	1.79
960.68	-10.41
961.109	4.69
961.537	-1.11
961.965	-0.01
962.393	-0.51
962.821	-1.51
963.249	-0.61
963.677	1.89
964.105	1.59
964.533	43.79
964.961	44.79
965.389	23.69
965.817	12.89
966.245	-2.11
966.672	-4.11
967.1	-9.81
967.528	-5.91
967.956	-2.81
968.383	-0.11
968.811	-0.91
969.239	-2.01
969.666	-9.91
970.094	-5.01
970.522	1.19
970.949	-2.91
971.377	-9.01
971.804	3.99
972.232	-6.11
972.659	-2.91
973.087	-0.91
973.514	-1.81
973.941	-7.11
974.369	0.19
974.796	0.69
975.223	4.69
975.651	-1.01
976.078	-0.41
976.505	0.99
976.932	-3.01
977.359	13.29
977.786	16.99
978.214	-2.91
978.641	-3.91
979.068	-6.51
979.495	-7.41
979.922	-3.41
980.349	-5.11
980.776	2.29
981.202	-4.61
981.629	3.39
982.056	3.89
982.483	-0.11
982.91	5.29
983.337	-8.71
983.763	2.89
984.19	-9.61
984.617	-7.41
985.043	-1.91
985.47	-5.21
985.897	-5.51
986.323	-6.51
986.75	2.79
987.176	0.69
987.603	0.69
988.029	-5.61
988.456	-5.51
988.882	-4.01
989.308	-7.71
989.735	-1.41
990.161	1.59
990.587	-4.31
991.014	-0.71
991.44	6.59
991.866	3.19
992.292	-6.41
992.719	-5.11
993.145	5.79
993.571	-10.61
993.997	-3.31
994.423	-6.21
994.849	-6.71
995.275	-0.81
995.701	2.59
996.127	-3.91
996.553	2.99
996.979	-3.91
997.405	-3.21
997.83	-2.71
998.256	-2.71
998.682	-11.71
999.108	-10.01
999.534	-0.91
999.959	-3.61
1000.385	-9.01
1000.811	3.39
1001.236	-7.51
1001.662	-9.61
1002.087	-14.81
1002.513	-2.81
1002.938	1.79
1003.364	1.59
1003.789	-2.51
1004.215	-2.51
1004.64	-1.61
1005.066	-4.31
1005.491	-2.61
1005.916	-1.91
1006.342	-3.41
1006.767	-3.51
1007.192	-2.91
1007.617	-5.81
1008.042	-3.31
1008.468	-5.31
1008.893	-5.41
1009.318	-6.91
1009.743	-3.91
1010.168	-2.61
1010.593	-1.71
1011.018	-9.41
1011.443	-3.91
1011.868	0.39
1012.293	-4.51
1012.718	-7.51
1013.143	1.79
1013.567	-1.01
1013.992	-1.21
1014.417	-16.51
1014.842	-2.91
1015.267	-10.61
1015.691	-5.71
1016.116	3.79
1016.541	4.19
1016.965	1.19
1017.39	0.59
1017.814	3.09
1018.239	0.99
1018.663	-3.61
1019.088	-5.21
1019.512	-2.21
1019.937	0.09
1020.361	-8.01
1020.785	-8.91
1021.21	-6.11
1021.634	-5.91
1022.058	-1.61
1022.483	0.79
1022.907	1.09
1023.331	-5.71
1023.755	-6.01
1024.179	-8.31
1024.604	-6.41
1025.028	-7.61
1025.452	-4.71
1025.876	-2.31
1026.3	2.29
1026.724	-11.61
1027.148	-3.31
1027.572	-10.51
1027.996	-2.41
1028.42	1.39
1028.843	-9.11
1029.267	-5.51
1029.691	-8.91
1030.115	-5.91
1030.539	-9.11
1030.962	1.39
1031.386	-11.51
1031.81	0.59
1032.233	-4.21
1032.657	-9.91
1033.08	-5.11
1033.504	-5.21
1033.927	-7.91
1034.351	1.09
1034.774	-8.51
1035.198	-11.21
1035.621	-6.71
1036.045	-7.81
1036.468	0.39
1036.891	-8.71
1037.315	-11.31
1037.738	-11.81
1038.161	-3.01
1038.584	-5.01
1039.008	-7.71
1039.431	-5.01
1039.854	-4.11
1040.277	-8.11
1040.7	-11.11
1041.123	-8.31
1041.546	-9.21
1041.969	-5.21
1042.392	-6.61
1042.815	-2.11
1043.238	-2.81
1043.661	1.29
1044.084	-7.51
1044.507	-7.11
1044.93	-7.51
1045.352	-5.91
1045.775	-6.11
1046.198	-3.71
1046.621	-2.71
1047.043	1.59
1047.466	4.99
1047.889	-1.81
1048.311	-6.61
1048.734	-1.61
1049.156	-4.01
1049.579	-8.31
1050.001	-4.61
1050.424	-3.71
1050.846	-2.51
1051.269	-4.71
1051.691	-4.71
1052.113	-4.81
1052.536	-4.21
1052.958	-0.21
1053.38	-8.41
1053.802	-7.61
1054.225	-1.51
1054.647	-9.41
1055.069	-7.31
1055.491	-1.81
1055.913	-9.71
1056.335	-3.51
1056.757	-7.61
1057.179	-9.21
1057.601	-7.91
1058.023	-2.91
1058.445	-6.51
1058.867	-5.21
1059.289	-6.91
1059.711	-6.41
1060.133	-3.71
1060.555	-1.71
1060.976	-14.01
1061.398	-8.91
1061.82	-13.91
1062.241	-9.21
1062.663	-4.21
1063.085	-6.21
1063.506	-10.11
1063.928	-8.01
1064.35	-2.91
1064.771	-13.61
1065.193	-2.21
1065.614	-13.41
1066.035	-1.61
1066.457	-2.11
1066.878	-4.51
1067.3	-5.51
1067.721	-6.41
1068.142	-4.41
1068.564	1.29
1068.985	-2.01
1069.406	-6.91
1069.827	-9.61
1070.248	-4.81
1070.67	-11.81
1071.091	-4.21
1071.512	-3.81
1071.933	-10.21
1072.354	-10.31
1072.775	-6.51
1073.196	-6.31
1073.617	-6.71
1074.038	-9.01
1074.459	-4.31
1074.88	-11.01
1075.3	-1.51
1075.721	-7.71
1076.142	-1.01
1076.563	-1.81
1076.983	-9.51
1077.404	-8.61
1077.825	-7.61
1078.246	-3.21
1078.666	-11.71
1079.087	-8.81
1079.507	-7.01
1079.928	-0.61
1080.348	-5.01
1080.769	-14.11
1081.189	-5.21
1081.61	-4.91
1082.03	-11.11
1082.451	-9.91
1082.871	-6.61
1083.291	-0.21
1083.711	-10.71
1084.132	-7.51
1084.552	-4.51
1084.972	-0.21
1085.392	-8.71
1085.813	-16.31
1086.233	-8.51
1086.653	-5.91
1087.073	-3.31
1087.493	-4.21
1087.913	-4.91
1088.333	-13.41
1088.753	-3.41
1089.173	-0.81
1089.593	-5.41
1090.013	-1.01
1090.433	2.59
1090.852	-4.21
1091.272	0.39
1091.692	-2.41
1092.112	-3.61
1092.531	-12.41
1092.951	-15.11
1093.371	-3.51
1093.79	1.09
1094.21	-7.21
1094.63	-14.01
1095.049	-6.11
1095.469	0.39
1095.888	-2.51
1096.308	2.49
1096.727	4.49
1097.146	-10.51
1097.566	-4.81
1097.985	-8.81
1098.405	-2.31
1098.824	-8.41
1099.243	-8.81
1099.662	-6.91
1100.082	-6.71
1100.501	-8.71
1100.92	-7.41
1101.339	-6.51
1101.758	-7.51
