Data from 20171114-ORNL-Ar_H_NY_Subt18_08-04-31-271.txt Node
Date: Tue Nov 14 08:04:31 EST 2017
User: Ender
Spectrometer: HR+D1039
Trigger mode: 0
Integration Time (sec): 2.730000E-2
Scans to average: 10
Electric dark correction enabled: true
Nonlinearity correction enabled: false
Boxcar width: 0
XAxis mode: Wavelengths
Number of Pixels in Spectrum: 2048
>>>>>Begin Spectral Data<<<<<
187.836	-5.07
188.309	-5.07
188.782	-5.07
189.255	0.43
189.728	-3.77
190.201	5.43
190.674	3.33
191.147	4.43
191.619	-9.67
192.092	2.23
192.565	-0.77
193.038	-1.27
193.511	0.73
193.984	0.43
194.456	4.53
194.929	1.43
195.402	-1.97
195.874	-0.47
196.347	1.23
196.82	-1.77
197.292	6.93
197.765	-7.47
198.237	-7.47
198.71	-2.17
199.182	1.43
199.655	5.13
200.127	1.13
200.6	-1.47
201.072	-7.07
201.544	0.23
202.017	-4.87
202.489	8.73
202.961	-0.57
203.433	-3.07
203.906	-10.47
204.378	-6.07
204.85	-4.47
205.322	-6.17
205.794	2.23
206.266	-3.67
206.739	-4.07
207.211	1.33
207.683	0.23
208.155	0.33
208.627	-3.87
209.099	-4.37
209.57	-7.37
210.042	-1.57
210.514	-5.47
210.986	-5.47
211.458	-10.27
211.93	-5.27
212.402	4.23
212.873	-2.27
213.345	-2.77
213.817	-12.07
214.288	-7.77
214.76	-13.87
215.232	-4.27
215.703	-3.17
216.175	-0.37
216.646	-6.37
217.118	-7.97
217.589	-8.77
218.061	-1.77
218.532	-2.67
219.004	-6.17
219.475	-4.97
219.946	-2.87
220.418	-8.07
220.889	4.33
221.36	-2.87
221.832	-5.87
222.303	-7.87
222.774	-0.97
223.245	-7.87
223.717	-6.17
224.188	-3.57
224.659	-12.67
225.13	-11.17
225.601	-1.97
226.072	3.33
226.543	-0.37
227.014	-1.07
227.485	-2.07
227.956	-0.57
228.427	-2.07
228.898	-0.77
229.369	4.23
229.839	-6.67
230.31	-9.47
230.781	2.03
231.252	-2.97
231.722	-8.67
232.193	-4.17
232.664	-1.57
233.135	3.43
233.605	-0.27
234.076	-7.37
234.546	2.23
235.017	7.43
235.487	1.73
235.958	-3.67
236.428	-1.27
236.899	6.93
237.369	2.23
237.84	2.03
238.31	10.23
238.78	5.43
239.251	1.63
239.721	7.53
240.191	1.43
240.662	3.73
241.132	4.63
241.602	6.33
242.072	2.43
242.542	8.93
243.013	0.33
243.483	0.53
243.953	6.33
244.423	-3.27
244.893	-0.27
245.363	5.13
245.833	2.93
246.303	-2.87
246.773	7.83
247.243	4.23
247.712	5.83
248.182	13.43
248.652	9.23
249.122	0.33
249.592	13.73
250.061	23.23
250.531	31.63
251.001	23.53
251.471	22.53
251.94	23.63
252.41	5.03
252.879	0.73
253.349	14.73
253.818	9.63
254.288	8.83
254.757	3.53
255.227	5.13
255.696	3.33
256.166	4.93
256.635	9.33
257.105	13.23
257.574	10.53
258.043	7.13
258.513	9.83
258.982	17.83
259.451	10.13
259.92	13.13
260.389	12.03
260.859	18.63
261.328	13.63
261.797	25.03
262.266	15.43
262.735	11.43
263.204	4.33
263.673	1.43
264.142	9.13
264.611	-0.07
265.08	-2.97
265.549	2.23
266.018	4.13
266.487	2.83
266.955	3.93
267.424	6.53
267.893	9.03
268.362	-0.97
268.83	3.33
269.299	11.63
269.768	8.63
270.236	9.33
270.705	4.83
271.174	11.63
271.642	15.23
272.111	12.53
272.579	15.93
273.048	28.13
273.516	24.93
273.985	34.93
274.453	26.43
274.922	22.63
275.39	17.53
275.858	6.03
276.327	14.73
276.795	13.93
277.263	14.93
277.731	30.13
278.2	57.83
278.668	59.33
279.136	55.23
279.604	29.33
280.072	23.43
280.54	18.53
281.008	10.33
281.477	15.83
281.945	16.63
282.413	22.73
282.881	18.03
283.348	8.03
283.816	20.13
284.284	19.63
284.752	24.73
285.22	16.23
285.688	22.53
286.156	18.93
286.623	41.23
287.091	47.73
287.559	35.03
288.026	19.43
288.494	25.93
288.962	10.43
289.429	17.73
289.897	20.63
290.364	12.53
290.832	21.63
291.3	22.93
291.767	19.43
292.234	25.33
292.702	18.93
293.169	21.93
293.637	24.03
294.104	20.63
294.571	8.03
295.039	16.03
295.506	14.73
295.973	20.83
296.44	20.43
296.908	20.43
297.375	22.13
297.842	20.23
298.309	20.93
298.776	19.33
299.243	24.03
299.71	12.63
300.177	24.73
300.644	24.33
301.111	17.03
301.578	28.73
302.045	18.33
302.512	26.93
302.979	21.13
303.446	21.83
303.913	17.53
304.379	18.73
304.846	23.73
305.313	25.73
305.78	24.23
306.246	19.83
306.713	31.53
307.18	19.73
307.646	29.73
308.113	27.13
308.579	23.83
309.046	22.43
309.512	28.73
309.979	24.13
310.445	25.63
310.912	35.43
311.378	36.83
311.845	33.63
312.311	34.63
312.777	33.73
313.244	31.83
313.71	36.23
314.176	33.13
314.642	33.63
315.109	36.53
315.575	38.23
316.041	41.63
316.507	34.83
316.973	40.03
317.439	34.73
317.905	37.33
318.371	36.93
318.837	34.33
319.303	34.93
319.769	33.43
320.235	32.43
320.701	37.13
321.167	39.03
321.633	30.63
322.099	37.63
322.564	45.13
323.03	46.43
323.496	41.23
323.962	36.83
324.427	33.53
324.893	45.33
325.359	40.43
325.824	30.43
326.29	43.23
326.755	36.33
327.221	44.63
327.686	38.83
328.152	40.93
328.617	45.53
329.083	48.23
329.548	56.63
330.014	51.23
330.479	43.33
330.944	41.73
331.41	41.23
331.875	53.23
332.34	45.43
332.805	45.33
333.271	51.93
333.736	40.73
334.201	47.63
334.666	54.23
335.131	57.13
335.596	56.73
336.061	51.23
336.526	38.23
336.991	47.53
337.456	64.93
337.921	56.03
338.386	42.93
338.851	43.03
339.316	47.03
339.781	42.73
340.246	51.53
340.711	51.73
341.175	47.63
341.64	47.73
342.105	51.23
342.569	55.23
343.034	56.53
343.499	52.13
343.963	50.13
344.428	55.63
344.893	60.53
345.357	65.03
345.822	62.93
346.286	62.93
346.751	70.93
347.215	65.63
347.679	72.63
348.144	93.13
348.608	76.13
349.073	69.73
349.537	70.93
350.001	82.03
350.465	85.13
350.93	81.23
351.394	85.73
351.858	74.63
352.322	86.73
352.786	83.03
353.25	92.33
353.715	108.93
354.179	97.63
354.643	115.73
355.107	125.43
355.571	107.53
356.035	95.93
356.498	110.83
356.962	111.33
357.426	122.63
357.89	113.83
358.354	84.93
358.818	81.13
359.281	75.33
359.745	71.93
360.209	74.03
360.673	74.13
361.136	75.33
361.6	80.03
362.064	83.53
362.527	78.93
362.991	86.93
363.454	81.93
363.918	72.83
364.381	74.53
364.845	84.03
365.308	81.03
365.772	84.73
366.235	84.73
366.698	79.33
367.162	88.33
367.625	81.63
368.088	82.13
368.552	83.13
369.015	82.93
369.478	87.73
369.941	92.73
370.404	87.73
370.867	97.83
371.331	105.93
371.794	101.03
372.257	103.23
372.72	112.63
373.183	107.93
373.646	99.93
374.109	97.83
374.572	98.93
375.035	99.13
375.497	102.33
375.96	98.63
376.423	100.53
376.886	105.93
377.349	105.43
377.811	92.93
378.274	103.13
378.737	99.63
379.199	102.33
379.662	106.83
380.125	109.03
380.587	113.63
381.05	115.03
381.512	122.43
381.975	130.23
382.437	121.63
382.9	120.13
383.362	120.93
383.825	130.43
384.287	143.33
384.75	129.63
385.212	130.33
385.674	135.33
386.136	131.43
386.599	120.23
387.061	123.53
387.523	119.43
387.985	128.33
388.447	137.33
388.91	129.83
389.372	153.13
389.834	142.23
390.296	132.33
390.758	143.33
391.22	156.73
391.682	192.63
392.144	273.23
392.606	215.93
393.068	157.83
393.529	155.13
393.991	147.13
394.453	140.13
394.915	148.83
395.377	174.13
395.838	203.83
396.3	150.13
396.762	133.53
397.224	123.53
397.685	122.93
398.147	119.63
398.608	122.73
399.07	120.93
399.531	125.63
399.993	135.13
400.454	141.73
400.916	147.43
401.377	137.23
401.839	136.73
402.3	145.93
402.762	153.43
403.223	168.93
403.684	155.03
404.145	156.63
404.607	148.13
405.068	153.13
405.529	159.13
405.99	173.13
406.451	165.23
406.913	161.73
407.374	157.13
407.835	150.33
408.296	156.03
408.757	158.13
409.218	167.83
409.679	166.53
410.14	159.73
410.601	163.63
411.062	170.13
411.522	176.23
411.983	168.53
412.444	163.43
412.905	164.83
413.366	171.03
413.826	184.33
414.287	205.23
414.748	245.23
415.208	230.53
415.669	197.93
416.13	186.03
416.59	185.53
417.051	194.03
417.511	204.33
417.972	221.33
418.432	231.73
418.893	262.63
419.353	229.73
419.814	187.63
420.274	163.73
420.734	164.23
421.195	179.33
421.655	185.13
422.115	177.43
422.576	177.33
423.036	176.43
423.496	198.33
423.956	199.93
424.416	210.53
424.876	253.23
425.336	241.73
425.797	243.73
426.257	232.03
426.717	221.83
427.177	216.83
427.637	212.63
428.097	215.13
428.556	229.03
429.016	250.63
429.476	241.63
429.936	257.43
430.396	256.03
430.856	266.93
431.315	294.83
431.775	323.83
432.235	351.03
432.694	321.13
433.154	334.13
433.614	357.63
434.073	305.53
434.533	257.33
434.993	245.93
435.452	253.63
435.912	266.83
436.371	261.93
436.83	253.53
437.29	253.73
437.749	228.53
438.209	231.53
438.668	249.03
439.127	263.43
439.587	247.23
440.046	225.43
440.505	245.03
440.964	251.63
441.424	299.53
441.883	279.33
442.342	237.83
442.801	207.03
443.26	204.73
443.719	204.33
444.178	207.43
444.637	198.33
445.096	209.93
445.555	209.83
446.014	205.23
446.473	201.03
446.932	214.13
447.391	202.73
447.849	209.63
448.308	201.43
448.767	205.63
449.226	219.33
449.685	214.53
450.143	224.53
450.602	218.93
451.061	211.33
451.519	220.93
451.978	215.83
452.436	222.53
452.895	224.33
453.353	228.03
453.812	223.33
454.27	217.83
454.729	223.33
455.187	222.03
455.646	234.23
456.104	224.83
456.562	234.23
457.021	246.73
457.479	237.53
457.937	251.63
458.395	239.43
458.854	229.53
459.312	232.93
459.77	254.13
460.228	229.73
460.686	225.73
461.144	237.73
461.602	225.23
462.06	225.33
462.518	230.93
462.976	241.93
463.434	237.43
463.892	243.93
464.35	255.03
464.808	270.93
465.266	247.33
465.724	248.03
466.181	252.93
466.639	245.03
467.097	265.53
467.555	278.93
468.012	280.93
468.47	290.13
468.928	312.63
469.385	314.83
469.843	320.23
470.3	315.03
470.758	330.43
471.215	350.43
471.673	372.03
472.13	376.13
472.588	381.43
473.045	340.23
473.503	343.73
473.96	360.83
474.417	375.33
474.875	404.23
475.332	432.73
475.789	428.83
476.246	430.43
476.704	448.43
477.161	464.83
477.618	487.13
478.075	517.53
478.532	566.03
478.989	638.43
479.446	730.83
479.903	715.13
480.36	744.63
480.817	788.43
481.274	897.73
481.731	992.93
482.188	1077.93
482.645	1203.13
483.102	1299.53
483.558	1428.33
484.015	1494.73
484.472	1463.53
484.929	1406.63
485.385	1363.03
485.842	1328.93
486.299	1263.03
486.755	1196.13
487.212	1020.33
487.668	851.43
488.125	792.13
488.582	726.63
489.038	700.73
489.494	654.93
489.951	645.13
490.407	625.73
490.864	610.33
491.32	594.63
491.776	600.63
492.233	592.83
492.689	567.13
493.145	553.33
493.602	555.33
494.058	573.43
494.514	576.73
494.97	601.53
495.426	589.03
495.882	574.73
496.338	581.03
496.794	583.23
497.251	580.63
497.707	602.63
498.163	590.43
498.618	596.53
499.074	596.83
499.53	625.93
499.986	636.13
500.442	596.63
500.898	587.53
501.354	581.83
501.809	588.83
502.265	593.13
502.721	613.63
503.177	624.73
503.632	627.93
504.088	625.13
504.543	661.03
504.999	657.73
505.455	611.33
505.91	584.23
506.366	593.33
506.821	585.83
507.277	582.13
507.732	584.13
508.187	577.23
508.643	591.43
509.098	587.43
509.553	606.83
510.009	610.13
510.464	626.33
510.919	642.13
511.375	638.13
511.83	658.13
512.285	684.33
512.74	705.43
513.195	724.63
513.65	708.23
514.105	712.83
514.56	713.43
515.015	731.13
515.47	752.63
515.925	742.53
516.38	734.13
516.835	746.73
517.29	733.53
517.745	730.03
518.2	714.73
518.655	699.53
519.109	697.63
519.564	698.83
520.019	678.43
520.474	667.83
520.928	673.93
521.383	676.43
521.838	652.63
522.292	664.53
522.747	663.43
523.201	660.03
523.656	638.13
524.11	636.63
524.565	645.63
525.019	635.03
525.474	644.13
525.928	646.83
526.382	641.93
526.837	646.83
527.291	653.83
527.745	637.53
528.2	655.23
528.654	634.33
529.108	631.23
529.562	636.33
530.016	644.03
530.47	637.23
530.925	649.83
531.379	654.93
531.833	652.53
532.287	647.53
532.741	644.53
533.195	661.03
533.649	655.33
534.103	669.83
534.556	654.93
535.01	654.93
535.464	659.73
535.918	659.73
536.372	669.53
536.826	665.53
537.279	652.13
537.733	662.43
538.187	662.73
538.64	661.83
539.094	669.33
539.548	670.23
540.001	668.83
540.455	669.43
540.908	668.13
541.362	677.33
541.815	681.53
542.269	699.93
542.722	693.13
543.175	707.83
543.629	716.33
544.082	724.53
544.536	719.33
544.989	719.23
545.442	727.33
545.895	728.43
546.349	729.33
546.802	732.13
547.255	729.73
547.708	737.23
548.161	748.43
548.614	746.03
549.067	765.73
549.52	746.03
549.973	739.43
550.426	741.03
550.879	725.33
551.332	738.43
551.785	731.13
552.238	744.83
552.691	748.03
553.144	757.73
553.596	774.73
554.049	796.83
554.502	803.63
554.955	826.13
555.407	834.13
555.86	824.83
556.313	812.03
556.765	813.53
557.218	803.73
557.67	817.53
558.123	792.03
558.576	792.43
559.028	793.03
559.48	798.53
559.933	791.83
560.385	767.43
560.838	741.23
561.29	718.83
561.742	709.83
562.195	694.73
562.647	695.13
563.099	708.53
563.551	707.83
564.004	713.13
564.456	707.33
564.908	692.73
565.36	681.33
565.812	668.43
566.264	656.63
566.716	661.13
567.168	639.33
567.62	655.93
568.072	644.83
568.524	636.13
568.976	630.33
569.428	607.73
569.88	608.43
570.332	613.53
570.784	616.53
571.235	619.73
571.687	627.23
572.139	635.13
572.59	639.63
573.042	648.43
573.494	645.03
573.945	642.83
574.397	613.43
574.849	628.63
575.3	623.93
575.752	615.73
576.203	615.73
576.655	614.93
577.106	610.03
577.557	603.63
578.009	600.73
578.46	593.53
578.912	594.83
579.363	598.13
579.814	614.03
580.265	598.03
580.717	597.83
581.168	601.53
581.619	606.33
582.07	606.53
582.521	608.13
582.972	600.53
583.423	602.13
583.875	605.63
584.326	621.63
584.777	664.63
585.227	733.13
585.678	801.33
586.129	890.83
586.58	955.83
587.031	1019.63
587.482	1165.73
587.933	1323.63
588.384	1146.13
588.834	867.73
589.285	727.13
589.736	693.53
590.186	700.73
590.637	684.23
591.088	668.53
591.538	656.03
591.989	660.83
592.439	647.23
592.89	645.13
593.34	643.23
593.791	635.23
594.241	626.73
594.692	628.93
595.142	628.83
595.593	623.13
596.043	628.83
596.493	634.73
596.943	635.53
597.394	641.43
597.844	628.73
598.294	639.93
598.744	658.53
599.195	689.83
599.645	720.23
600.095	750.13
600.545	808.63
600.995	849.63
601.445	901.83
601.895	958.53
602.345	1008.53
602.795	993.83
603.245	945.03
603.695	898.33
604.145	852.13
604.594	803.73
605.044	754.53
605.494	708.63
605.944	679.33
606.393	654.83
606.843	646.93
607.293	659.23
607.743	648.63
608.192	655.23
608.642	660.03
609.091	673.13
609.541	675.63
609.99	680.53
610.44	675.23
610.889	628.73
611.339	608.13
611.788	597.63
612.238	609.93
612.687	636.23
613.136	634.43
613.586	649.83
614.035	645.83
614.484	660.83
614.933	656.83
615.383	654.83
615.832	642.93
616.281	636.63
616.73	594.13
617.179	591.93
617.628	568.43
618.077	545.73
618.526	546.33
618.975	536.33
619.424	537.03
619.873	542.43
620.322	542.93
620.771	520.23
621.22	523.33
621.669	512.63
622.118	505.73
622.567	501.53
623.015	489.33
623.464	499.53
623.913	491.13
624.361	487.33
624.81	480.63
625.259	481.83
625.707	479.83
626.156	484.93
626.604	495.53
627.053	492.13
627.501	493.23
627.95	495.53
628.398	502.43
628.847	489.63
629.295	495.93
629.744	495.43
630.192	500.63
630.64	492.63
631.089	488.43
631.537	498.83
631.985	509.83
632.433	511.03
632.881	515.13
633.33	558.03
633.778	539.63
634.226	482.23
634.674	492.33
635.122	492.63
635.57	510.83
636.018	535.13
636.466	499.63
636.914	485.83
637.362	493.73
637.81	498.33
638.258	495.73
638.705	497.03
639.153	518.23
639.601	528.33
640.049	551.53
640.497	580.13
640.944	601.63
641.392	556.83
641.84	531.53
642.287	504.83
642.735	483.53
643.182	493.73
643.63	494.63
644.078	490.13
644.525	509.73
644.973	509.93
645.42	518.63
645.867	533.93
646.315	547.13
646.762	574.03
647.21	589.43
647.657	614.03
648.104	653.23
648.551	659.33
648.999	718.23
649.446	781.33
649.893	854.63
650.34	969.33
650.787	1179.13
651.234	1445.33
651.682	1883.03
652.129	2568.93
652.576	3687.93
653.023	5460.23
653.47	7542.03
653.917	9551.63
654.363	11178.93
654.81	12538.63
655.257	11891.93
655.704	7696.43
656.151	4561.83
656.598	2933.53
657.044	2079.33
657.491	1610.73
657.938	1286.03
658.385	1075.13
658.831	932.83
659.278	827.53
659.724	728.63
660.171	673.63
660.618	622.83
661.064	584.83
661.511	570.53
661.957	554.83
662.404	540.23
662.85	550.13
663.296	528.33
663.743	470.13
664.189	458.73
664.635	451.33
665.082	444.33
665.528	448.23
665.974	431.93
666.42	437.63
666.867	434.93
667.313	420.43
667.759	412.83
668.205	395.73
668.651	402.83
669.097	413.43
669.543	425.63
669.989	397.93
670.435	375.93
670.881	375.23
671.327	385.73
671.773	396.73
672.219	413.53
672.665	454.93
673.11	495.73
673.556	533.83
674.002	565.13
674.448	555.83
674.893	465.03
675.339	399.33
675.785	377.43
676.23	350.83
676.676	328.43
677.122	320.63
677.567	311.53
678.013	310.33
678.458	302.23
678.904	309.03
679.349	290.43
679.794	290.53
680.24	290.43
680.685	286.43
681.131	292.13
681.576	295.93
682.021	306.13
682.466	290.83
682.912	287.83
683.357	301.53
683.802	322.13
684.247	341.23
684.692	381.93
685.137	416.23
685.583	460.83
686.028	478.73
686.473	440.33
686.918	376.13
687.363	364.23
687.807	330.93
688.252	313.33
688.697	299.83
689.142	282.63
689.587	280.93
690.032	280.23
690.477	284.93
690.921	299.03
691.366	317.23
691.811	336.33
692.255	369.23
692.7	397.93
693.145	423.53
693.589	571.03
694.034	938.23
694.478	1274.73
694.923	1491.53
695.367	1953.63
695.812	1014.73
696.256	420.93
696.701	319.03
697.145	286.33
697.59	276.73
698.034	265.63
698.478	270.83
698.922	271.73
699.367	270.03
699.811	284.23
700.255	299.33
700.699	322.73
701.143	360.33
701.588	407.93
702.032	437.63
702.476	436.23
702.92	410.33
703.364	417.93
703.808	517.73
704.252	840.93
704.696	1201.43
705.14	1425.33
705.584	1831.03
706.027	906.93
706.471	439.93
706.915	339.43
707.359	294.13
707.803	271.93
708.246	258.13
708.69	258.13
709.134	261.23
709.577	264.03
710.021	265.53
710.465	262.03
710.908	249.33
711.352	246.83
711.795	263.53
712.239	291.83
712.682	317.53
713.126	347.93
713.569	398.73
714.012	322.53
714.456	268.63
714.899	256.33
715.342	229.93
715.786	213.33
716.229	216.23
716.672	209.93
717.115	204.33
717.558	210.83
718.002	204.13
718.445	220.33
718.888	234.93
719.331	250.13
719.774	258.43
720.217	254.83
720.66	236.43
721.103	231.33
721.546	207.93
721.989	211.13
722.432	195.83
722.874	202.83
723.317	192.63
723.76	193.23
724.203	215.23
724.645	258.03
725.088	356.63
725.531	476.03
725.974	554.83
726.416	466.03
726.859	262.23
727.301	207.83
727.744	196.63
728.187	197.33
728.629	204.33
729.071	207.13
729.514	214.53
729.956	218.63
730.399	234.73
730.841	237.93
731.283	234.13
731.726	222.13
732.168	216.03
732.61	218.23
733.053	236.83
733.495	253.33
733.937	287.53
734.379	320.93
734.821	365.33
735.263	447.63
735.705	675.93
736.148	1272.63
736.59	2134.93
737.032	2638.13
737.474	2159.93
737.916	686.83
738.357	356.63
738.799	278.93
739.241	245.33
739.683	238.83
740.125	250.03
740.567	248.43
741.008	264.33
741.45	267.63
741.892	262.03
742.334	291.73
742.775	304.53
743.217	283.33
743.658	225.83
744.1	216.23
744.542	221.03
744.983	264.83
745.425	290.53
745.866	292.63
746.307	232.83
746.749	237.43
747.19	259.03
747.632	369.93
748.073	702.63
748.514	1503.23
748.956	2399.13
749.397	3001.23
749.838	2487.53
750.279	2552.13
750.72	1283.13
751.162	459.03
751.603	269.63
752.044	203.83
752.485	183.53
752.926	172.93
753.367	166.43
753.808	159.13
754.249	156.13
754.69	153.23
755.131	151.33
755.572	144.13
756.013	149.73
756.453	154.63
756.894	158.53
757.335	154.33
757.776	162.83
758.216	166.43
758.657	160.63
759.098	161.73
759.538	186.43
759.979	212.73
760.42	301.13
760.86	561.13
761.301	1456.63
761.741	3658.93
762.182	5649.23
762.622	3942.43
763.063	1118.23
763.503	448.53
763.943	281.93
764.384	276.83
764.824	333.83
765.264	357.93
765.705	254.03
766.145	179.03
766.585	156.93
767.025	149.63
767.465	151.83
767.906	193.03
768.346	269.33
768.786	279.63
769.226	213.63
769.666	256.93
770.106	490.63
770.546	1258.93
770.986	2243.53
771.426	2051.43
771.866	668.23
772.306	273.23
772.745	174.63
773.185	147.53
773.625	142.33
774.065	139.83
774.505	166.23
774.944	238.73
775.384	528.53
775.824	1003.13
776.263	1007.93
776.703	425.93
777.142	186.13
777.582	128.43
778.021	115.53
778.461	115.33
778.9	117.73
779.34	115.83
779.779	94.93
780.219	86.83
780.658	85.73
781.097	92.63
781.537	89.93
781.976	85.93
782.415	88.73
782.855	81.63
783.294	84.73
783.733	89.73
784.172	87.53
784.611	82.83
785.05	90.53
785.489	88.53
785.928	97.63
786.367	96.83
786.806	101.83
787.245	104.83
787.684	108.73
788.123	126.63
788.562	115.13
789.001	106.03
789.44	102.73
789.879	100.53
790.317	97.83
790.756	110.33
791.195	104.93
791.634	119.73
792.072	171.33
792.511	297.23
792.95	816.83
793.388	1821.03
793.827	1695.13
794.265	576.73
794.704	235.33
795.142	156.83
795.581	125.53
796.019	115.13
796.458	107.03
796.896	100.53
797.334	107.53
797.773	133.23
798.211	181.03
798.649	350.93
799.087	832.63
799.526	1330.43
799.964	1681.53
800.402	1754.13
800.84	648.83
801.278	249.23
801.716	151.33
802.154	130.53
802.592	122.83
803.03	115.33
803.468	105.13
803.906	119.83
804.344	122.53
804.782	112.93
805.22	111.73
805.658	104.43
806.096	125.03
806.533	117.33
806.971	141.43
807.409	183.03
807.847	255.23
808.284	530.73
808.722	1530.33
809.16	2801.23
809.597	2609.13
810.035	4606.43
810.472	5120.53
810.91	1817.03
811.347	678.33
811.785	348.33
812.222	213.93
812.66	159.53
813.097	141.23
813.535	115.83
813.972	106.13
814.409	100.13
814.846	91.33
815.284	92.73
815.721	83.63
816.158	88.23
816.595	102.23
817.032	148.03
817.47	169.53
817.907	144.23
818.344	118.23
818.781	98.93
819.218	88.53
819.655	102.33
820.092	156.43
820.529	193.13
820.966	152.13
821.403	113.53
821.839	94.83
822.276	83.03
822.713	100.13
823.15	111.13
823.587	99.33
824.023	121.03
824.46	234.63
824.897	737.53
825.333	1164.43
825.77	506.03
826.206	195.03
826.643	111.23
827.08	83.43
827.516	68.43
827.953	62.73
828.389	63.43
828.825	55.43
829.262	54.43
829.698	49.63
830.135	54.03
830.571	52.33
831.007	54.23
831.443	50.23
831.88	54.43
832.316	50.73
832.752	49.93
833.188	53.93
833.624	53.03
834.06	53.03
834.497	55.33
834.933	59.73
835.369	61.43
835.805	56.93
836.241	66.83
836.677	67.33
837.112	74.63
837.548	85.53
837.984	107.23
838.42	163.63
838.856	402.83
839.292	1260.83
839.727	2007.83
840.163	924.93
840.599	749.23
841.034	1715.03
841.47	1865.43
841.906	679.93
842.341	278.23
842.777	186.23
843.212	256.43
843.648	256.63
844.083	129.93
844.519	76.53
844.954	68.03
845.39	44.03
845.825	48.13
846.261	50.93
846.696	46.53
847.131	44.03
847.566	48.53
848.002	44.03
848.437	47.83
848.872	49.33
849.307	44.23
849.742	67.13
850.177	141.43
850.613	455.43
851.048	756.23
851.483	326.63
851.918	127.43
852.353	73.23
852.788	51.03
853.223	44.33
853.657	43.83
854.092	36.53
854.527	33.73
854.962	38.83
855.397	34.43
855.832	41.33
856.266	36.33
856.701	34.53
857.136	33.43
857.57	37.53
858.005	40.83
858.44	52.43
858.874	38.73
859.309	41.23
859.743	33.13
860.178	37.63
860.612	38.83
861.047	45.73
861.481	53.93
861.915	57.93
862.35	43.03
862.784	27.23
863.218	33.43
863.653	20.93
864.087	37.73
864.521	42.93
864.955	53.33
865.39	125.73
865.824	149.23
866.258	101.23
866.692	146.53
867.126	158.33
867.56	87.53
867.994	41.83
868.428	24.93
868.862	34.83
869.296	58.53
869.73	50.23
870.164	40.83
870.598	39.53
871.031	31.13
871.465	20.63
871.899	28.93
872.333	17.93
872.766	20.83
873.2	26.13
873.634	24.73
874.067	24.13
874.501	17.33
874.935	26.93
875.368	29.63
875.802	19.93
876.235	16.73
876.669	20.23
877.102	17.53
877.535	23.53
877.969	21.13
878.402	18.13
878.836	19.93
879.269	20.63
879.702	19.13
880.135	15.03
880.569	20.93
881.002	26.13
881.435	15.43
881.868	14.73
882.301	15.83
882.734	15.43
883.167	17.73
883.601	13.53
884.034	13.43
884.467	13.63
884.899	15.03
885.332	12.63
885.765	10.33
886.198	17.63
886.631	16.23
887.064	17.93
887.497	22.73
887.929	22.03
888.362	13.83
888.795	12.73
889.228	13.83
889.66	20.43
890.093	13.63
890.526	16.33
890.958	13.53
891.391	12.43
891.823	19.63
892.256	16.53
892.688	8.33
893.121	8.53
893.553	12.33
893.985	19.33
894.418	20.83
894.85	13.73
895.282	13.43
895.715	15.53
896.147	10.43
896.579	9.03
897.011	17.23
897.444	17.33
897.876	7.13
898.308	17.73
898.74	7.73
899.172	14.53
899.604	18.43
900.036	23.63
900.468	11.73
900.9	12.13
901.332	9.13
901.764	15.73
902.196	16.63
902.628	13.83
903.06	15.23
903.491	21.13
903.923	17.53
904.355	19.33
904.787	24.93
905.218	20.83
905.65	15.63
906.082	13.53
906.513	8.73
906.945	13.13
907.376	10.13
907.808	11.33
908.239	21.23
908.671	13.73
909.102	21.93
909.534	18.43
909.965	40.93
910.397	76.63
910.828	263.53
911.259	411.83
911.691	189.93
912.122	83.93
912.553	43.43
912.984	32.43
913.415	24.63
913.847	17.33
914.278	14.13
914.709	15.03
915.14	18.03
915.571	17.63
916.002	8.43
916.433	16.63
916.864	12.33
917.295	13.03
917.726	18.53
918.157	8.93
918.587	26.53
919.018	14.83
919.449	20.53
919.88	17.63
920.311	19.93
920.741	41.03
921.172	145.43
921.603	124.33
922.033	60.13
922.464	37.53
922.895	19.83
923.325	14.13
923.756	12.13
924.186	14.13
924.617	24.33
925.047	33.33
925.478	42.93
925.908	34.53
926.338	21.83
926.769	12.13
927.199	22.13
927.629	7.03
928.06	13.13
928.49	13.83
928.92	16.13
929.35	6.33
929.78	8.13
930.21	2.13
930.641	9.53
931.071	7.53
931.501	3.03
931.931	8.93
932.361	6.23
932.791	2.23
933.221	5.33
933.651	4.13
934.08	18.23
934.51	29.33
934.94	12.13
935.37	9.13
935.8	6.53
936.229	3.63
936.659	9.83
937.089	-1.17
937.519	12.23
937.948	25.23
938.378	19.33
938.807	7.43
939.237	3.13
939.666	9.43
940.096	-11.27
940.525	-0.17
940.955	4.13
941.384	7.03
941.814	-1.57
942.243	-6.17
942.672	5.13
943.102	-1.57
943.531	2.63
943.96	12.23
944.39	2.43
944.819	-6.37
945.248	5.23
945.677	0.53
946.106	-2.87
946.535	13.63
946.964	-2.47
947.393	5.13
947.822	-2.87
948.251	-2.57
948.68	2.13
949.109	9.63
949.538	5.43
949.967	2.23
950.396	5.53
950.825	-2.07
951.254	3.13
951.682	-2.77
952.111	3.03
952.54	5.63
952.969	0.43
953.397	-4.77
953.826	1.73
954.254	-6.97
954.683	-0.77
955.112	0.93
955.54	0.93
955.969	-2.07
956.397	1.23
956.826	-2.97
957.254	0.43
957.682	3.03
958.111	9.73
958.539	-1.07
958.967	0.33
959.396	-2.47
959.824	-2.07
960.252	-0.67
960.68	-9.47
961.109	-0.37
961.537	-6.07
961.965	2.03
962.393	5.13
962.821	-6.37
963.249	0.43
963.677	9.03
964.105	6.83
964.533	41.13
964.961	34.53
965.389	20.13
965.817	4.73
966.245	2.53
966.672	-2.27
967.1	-10.57
967.528	3.53
967.956	-5.27
968.383	2.13
968.811	-4.67
969.239	-1.77
969.666	-6.87
970.094	-3.47
970.522	0.03
970.949	-0.57
971.377	-5.97
971.804	-3.07
972.232	1.23
972.659	0.93
973.087	-6.27
973.514	1.43
973.941	-3.77
974.369	0.83
974.796	1.63
975.223	4.13
975.651	-3.87
976.078	0.33
976.505	0.73
976.932	2.03
977.359	13.93
977.786	17.93
978.214	2.33
978.641	-2.87
979.068	-5.17
979.495	-6.77
979.922	-1.97
980.349	-3.77
980.776	8.23
981.202	1.53
981.629	4.73
982.056	3.33
982.483	-3.77
982.91	3.83
983.337	-12.07
983.763	7.73
984.19	-6.37
984.617	-3.07
985.043	-8.07
985.47	-2.27
985.897	-2.67
986.323	-9.47
986.75	1.93
987.176	-2.77
987.603	-6.87
988.029	-2.97
988.456	-0.57
988.882	7.33
989.308	0.43
989.735	-4.97
990.161	1.33
990.587	-3.37
991.014	-1.57
991.44	5.93
991.866	0.93
992.292	-3.67
992.719	0.13
993.145	-1.97
993.571	-10.77
993.997	-4.17
994.423	-6.17
994.849	-8.87
995.275	4.43
995.701	-5.77
996.127	-4.17
996.553	1.03
996.979	-2.07
997.405	-2.37
997.83	-7.77
998.256	0.23
998.682	-1.67
999.108	-2.07
999.534	-0.87
999.959	0.13
1000.385	-6.27
1000.811	-2.67
1001.236	-6.67
1001.662	-10.57
1002.087	-11.57
1002.513	0.33
1002.938	1.63
1003.364	-0.17
1003.789	2.93
1004.215	3.33
1004.64	-0.17
1005.066	-1.27
1005.491	-0.67
1005.916	0.13
1006.342	-2.57
1006.767	-6.47
1007.192	0.13
1007.617	-0.17
1008.042	-6.27
1008.468	-5.07
1008.893	0.73
1009.318	-4.97
1009.743	-6.17
1010.168	5.23
1010.593	2.53
1011.018	-5.67
1011.443	0.33
1011.868	-4.37
1012.293	-9.17
1012.718	-8.37
1013.143	2.93
1013.567	0.13
1013.992	-1.07
1014.417	-11.97
1014.842	3.33
1015.267	-7.87
1015.691	-2.37
1016.116	3.63
1016.541	-1.07
1016.965	5.43
1017.39	2.73
1017.814	-0.07
1018.239	-2.27
1018.663	-7.87
1019.088	-5.07
1019.512	-2.57
1019.937	-1.67
1020.361	-10.27
1020.785	-9.67
1021.21	-2.87
1021.634	-1.67
1022.058	-4.07
1022.483	6.23
1022.907	-7.37
1023.331	-3.77
1023.755	-9.77
1024.179	-5.57
1024.604	-5.37
1025.028	-4.17
1025.452	-11.27
1025.876	-1.87
1026.3	2.23
1026.724	-11.37
1027.148	-11.57
1027.572	-12.37
1027.996	-5.17
1028.42	4.33
1028.843	-5.97
1029.267	-4.77
1029.691	1.53
1030.115	-7.87
1030.539	-3.67
1030.962	-4.27
1031.386	-11.27
1031.81	3.83
1032.233	-4.57
1032.657	-9.47
1033.08	0.63
1033.504	-1.67
1033.927	-5.67
1034.351	0.63
1034.774	-3.17
1035.198	3.33
1035.621	-1.97
1036.045	-4.67
1036.468	4.03
1036.891	-9.97
1037.315	-11.37
1037.738	-5.17
1038.161	0.63
1038.584	-3.87
1039.008	-4.57
1039.431	-1.07
1039.854	-5.17
1040.277	-14.77
1040.7	-12.67
1041.123	1.13
1041.546	-10.47
1041.969	-2.27
1042.392	-5.77
1042.815	-0.87
1043.238	-1.97
1043.661	-0.97
1044.084	-8.67
1044.507	-8.07
1044.93	-5.57
1045.352	-7.37
1045.775	-3.57
1046.198	-4.37
1046.621	-3.17
1047.043	-2.47
1047.466	5.73
1047.889	0.03
1048.311	-5.47
1048.734	-7.27
1049.156	-3.97
1049.579	2.33
1050.001	-7.77
1050.424	-0.47
1050.846	-0.77
1051.269	-1.77
1051.691	-5.87
1052.113	-6.27
1052.536	-5.27
1052.958	-3.27
1053.38	-5.87
1053.802	-4.27
1054.225	0.83
1054.647	-9.87
1055.069	-3.07
1055.491	2.03
1055.913	-5.47
1056.335	1.13
1056.757	-6.27
1057.179	-3.07
1057.601	-3.07
1058.023	-6.87
1058.445	1.03
1058.867	-2.27
1059.289	-3.87
1059.711	-7.57
1060.133	-4.07
1060.555	-8.07
1060.976	-5.17
1061.398	-6.47
1061.82	-4.27
1062.241	-9.07
1062.663	-7.97
1063.085	-9.87
1063.506	1.13
1063.928	-2.87
1064.35	-0.27
1064.771	-12.57
1065.193	1.53
1065.614	-9.97
1066.035	-0.87
1066.457	-4.57
1066.878	6.53
1067.3	-4.17
1067.721	1.53
1068.142	-4.77
1068.564	-3.57
1068.985	-3.07
1069.406	-7.87
1069.827	-12.27
1070.248	1.03
1070.67	-9.17
1071.091	-9.77
1071.512	1.13
1071.933	-2.47
1072.354	-8.97
1072.775	-3.57
1073.196	-4.47
1073.617	-7.17
1074.038	-6.17
1074.459	-1.87
1074.88	-7.97
1075.3	1.03
1075.721	-11.57
1076.142	-0.47
1076.563	-3.77
1076.983	-10.47
1077.404	-1.47
1077.825	-7.67
1078.246	-4.77
1078.666	-7.57
1079.087	-3.27
1079.507	-4.47
1079.928	-1.97
1080.348	3.23
1080.769	-4.07
1081.189	-1.17
1081.61	1.93
1082.03	-11.27
1082.451	-5.57
1082.871	-4.27
1083.291	-7.17
1083.711	-4.67
1084.132	-6.07
1084.552	-3.57
1084.972	-0.17
1085.392	-9.87
1085.813	-8.67
1086.233	-5.07
1086.653	-7.67
1087.073	-1.47
1087.493	-9.07
1087.913	-3.07
1088.333	-2.97
1088.753	-5.37
1089.173	-1.07
1089.593	-4.27
1090.013	4.13
1090.433	0.83
1090.852	3.03
1091.272	-1.87
1091.692	-2.27
1092.112	-7.37
1092.531	-6.37
1092.951	-11.17
1093.371	0.73
1093.79	0.83
1094.21	-7.27
1094.63	-3.57
1095.049	-6.77
1095.469	1.23
1095.888	-1.27
1096.308	-1.47
1096.727	7.53
1097.146	-5.37
1097.566	-3.47
1097.985	-1.17
1098.405	0.63
1098.824	-7.47
1099.243	-4.07
1099.662	-10.47
1100.082	0.93
1100.501	-4.37
1100.92	-5.17
1101.339	-7.27
1101.758	-8.57
