Data from 20171114-ORNL-Ar_H_NY_Subt18_08-06-46-667.txt Node
Date: Tue Nov 14 08:06:46 EST 2017
User: Ender
Spectrometer: HR+D1039
Trigger mode: 0
Integration Time (sec): 2.730000E-2
Scans to average: 10
Electric dark correction enabled: true
Nonlinearity correction enabled: false
Boxcar width: 0
XAxis mode: Wavelengths
Number of Pixels in Spectrum: 2048
>>>>>Begin Spectral Data<<<<<
187.836	-3.21
188.309	-3.21
188.782	-3.21
189.255	2.19
189.728	3.19
190.201	10.59
190.674	-0.11
191.147	3.79
191.619	-8.91
192.092	3.89
192.565	-0.01
193.038	3.09
193.511	-3.51
193.984	-1.51
194.456	-4.31
194.929	-0.81
195.402	-3.81
195.874	-0.61
196.347	-2.41
196.82	-1.81
197.292	4.39
197.765	1.99
198.237	-1.01
198.71	-0.41
199.182	-2.01
199.655	2.89
200.127	2.59
200.6	2.49
201.072	-1.61
201.544	-1.41
202.017	-7.71
202.489	5.29
202.961	1.69
203.433	1.19
203.906	-3.91
204.378	-3.81
204.85	-5.01
205.322	-6.31
205.794	1.39
206.266	-2.81
206.739	-4.51
207.211	5.99
207.683	-7.71
208.155	-13.31
208.627	-8.41
209.099	-2.01
209.57	-7.11
210.042	-3.31
210.514	-4.91
210.986	-7.61
211.458	-5.01
211.93	-2.51
212.402	-1.01
212.873	-0.51
213.345	-9.61
213.817	-9.91
214.288	-2.11
214.76	-7.41
215.232	-2.81
215.703	-3.61
216.175	-1.31
216.646	-2.91
217.118	-0.21
217.589	-1.91
218.061	-9.71
218.532	-5.21
219.004	0.89
219.475	-2.91
219.946	-1.61
220.418	-7.01
220.889	-0.41
221.36	3.59
221.832	-6.81
222.303	-4.31
222.774	-4.81
223.245	-7.81
223.717	-1.31
224.188	-4.21
224.659	-8.91
225.13	-6.51
225.601	-2.21
226.072	2.39
226.543	-6.61
227.014	-1.11
227.485	-2.91
227.956	-3.91
228.427	4.79
228.898	1.09
229.369	6.39
229.839	-9.11
230.31	0.89
230.781	3.59
231.252	-2.31
231.722	-5.01
232.193	-1.51
232.664	-5.21
233.135	-0.51
233.605	-4.01
234.076	-4.21
234.546	4.49
235.017	0.59
235.487	-3.41
235.958	-5.61
236.428	-2.91
236.899	4.59
237.369	4.59
237.84	-6.91
238.31	6.19
238.78	-2.31
239.251	-1.31
239.721	-0.81
240.191	1.29
240.662	-0.81
241.132	0.59
241.602	-0.31
242.072	0.69
242.542	1.39
243.013	-2.01
243.483	-0.11
243.953	1.49
244.423	0.79
244.893	0.49
245.363	5.79
245.833	-0.41
246.303	-5.31
246.773	0.49
247.243	-4.11
247.712	1.19
248.182	5.39
248.652	3.49
249.122	-11.61
249.592	3.79
250.061	7.09
250.531	14.09
251.001	2.79
251.471	5.39
251.94	0.39
252.41	-1.11
252.879	-9.21
253.349	5.79
253.818	6.09
254.288	1.99
254.757	4.49
255.227	0.19
255.696	2.29
256.166	0.19
256.635	5.99
257.105	-0.01
257.574	2.59
258.043	-0.81
258.513	-0.11
258.982	5.19
259.451	-2.71
259.92	-0.71
260.389	4.79
260.859	9.89
261.328	-0.11
261.797	10.59
262.266	2.29
262.735	10.19
263.204	3.19
263.673	2.29
264.142	6.89
264.611	-1.31
265.08	-2.81
265.549	0.49
266.018	3.59
266.487	1.49
266.955	-4.71
267.424	-1.01
267.893	4.49
268.362	7.09
268.83	3.99
269.299	6.59
269.768	2.39
270.236	7.09
270.705	2.99
271.174	4.69
271.642	3.89
272.111	4.19
272.579	7.69
273.048	6.19
273.516	6.69
273.985	6.29
274.453	11.89
274.922	8.69
275.39	9.79
275.858	7.79
276.327	13.19
276.795	7.39
277.263	6.39
277.731	19.19
278.2	4.29
278.668	10.19
279.136	14.09
279.604	3.09
280.072	11.59
280.54	6.59
281.008	6.49
281.477	14.29
281.945	5.49
282.413	11.49
282.881	12.69
283.348	5.99
283.816	13.99
284.284	11.49
284.752	17.39
285.22	7.59
285.688	14.59
286.156	15.49
286.623	17.39
287.091	11.79
287.559	14.79
288.026	15.09
288.494	12.09
288.962	9.29
289.429	8.39
289.897	18.49
290.364	13.49
290.832	13.39
291.3	18.89
291.767	18.39
292.234	14.99
292.702	10.39
293.169	11.59
293.637	23.39
294.104	19.49
294.571	9.09
295.039	14.19
295.506	9.69
295.973	23.99
296.44	19.09
296.908	17.19
297.375	18.49
297.842	22.49
298.309	15.39
298.776	7.19
299.243	21.59
299.71	12.79
300.177	27.39
300.644	23.39
301.111	21.39
301.578	22.99
302.045	20.09
302.512	22.89
302.979	23.29
303.446	21.49
303.913	17.99
304.379	15.69
304.846	27.79
305.313	22.99
305.78	20.89
306.246	28.19
306.713	21.09
307.18	29.19
307.646	23.99
308.113	26.69
308.579	23.89
309.046	28.49
309.512	27.39
309.979	20.69
310.445	26.69
310.912	27.79
311.378	28.29
311.845	28.89
312.311	28.59
312.777	30.09
313.244	32.69
313.71	39.19
314.176	30.79
314.642	29.89
315.109	28.59
315.575	39.79
316.041	39.19
316.507	29.09
316.973	30.89
317.439	27.29
317.905	29.69
318.371	39.29
318.837	41.19
319.303	27.99
319.769	36.09
320.235	33.89
320.701	31.29
321.167	39.19
321.633	30.79
322.099	40.19
322.564	34.69
323.03	38.19
323.496	36.39
323.962	33.59
324.427	33.99
324.893	41.89
325.359	38.09
325.824	38.29
326.29	38.79
326.755	40.39
327.221	35.79
327.686	37.49
328.152	46.39
328.617	39.89
329.083	46.89
329.548	45.79
330.014	46.39
330.479	32.69
330.944	42.09
331.41	41.99
331.875	48.69
332.34	43.19
332.805	43.49
333.271	40.69
333.736	39.39
334.201	47.89
334.666	45.29
335.131	47.79
335.596	46.89
336.061	56.99
336.526	43.59
336.991	51.79
337.456	53.49
337.921	51.29
338.386	44.29
338.851	46.79
339.316	49.79
339.781	48.19
340.246	51.49
340.711	54.19
341.175	54.39
341.64	44.49
342.105	53.39
342.569	59.89
343.034	57.59
343.499	52.39
343.963	53.99
344.428	68.59
344.893	60.99
345.357	64.99
345.822	58.59
346.286	72.89
346.751	64.19
347.215	66.09
347.679	67.59
348.144	90.99
348.608	81.79
349.073	64.89
349.537	75.49
350.001	77.19
350.465	88.69
350.93	81.79
351.394	79.49
351.858	72.99
352.322	84.29
352.786	83.89
353.25	99.79
353.715	110.99
354.179	100.29
354.643	115.89
355.107	120.59
355.571	101.29
356.035	96.09
356.498	110.59
356.962	113.19
357.426	116.99
357.89	118.09
358.354	91.79
358.818	86.79
359.281	71.89
359.745	76.09
360.209	77.19
360.673	77.49
361.136	83.49
361.6	86.29
362.064	83.99
362.527	87.59
362.991	96.69
363.454	80.39
363.918	79.59
364.381	84.29
364.845	87.89
365.308	96.29
365.772	88.99
366.235	87.69
366.698	84.29
367.162	81.69
367.625	80.79
368.088	84.69
368.552	93.09
369.015	94.09
369.478	96.79
369.941	99.69
370.404	95.09
370.867	95.99
371.331	100.39
371.794	108.99
372.257	103.49
372.72	107.09
373.183	102.69
373.646	99.19
374.109	101.59
374.572	104.79
375.035	102.49
375.497	107.49
375.96	108.69
376.423	112.69
376.886	111.79
377.349	115.39
377.811	100.19
378.274	104.39
378.737	111.89
379.199	111.99
379.662	106.99
380.125	114.19
380.587	103.49
381.05	107.79
381.512	116.69
381.975	126.69
382.437	123.59
382.9	123.49
383.362	127.89
383.825	131.89
384.287	122.39
384.75	121.39
385.212	126.69
385.674	134.09
386.136	139.59
386.599	119.19
387.061	122.39
387.523	125.39
387.985	129.79
388.447	132.99
388.91	121.09
389.372	126.49
389.834	127.49
390.296	133.19
390.758	134.09
391.22	134.79
391.682	145.69
392.144	155.09
392.606	141.09
393.068	146.39
393.529	150.69
393.991	145.19
394.453	137.29
394.915	137.69
395.377	138.49
395.838	137.19
396.3	141.09
396.762	144.29
397.224	137.19
397.685	138.09
398.147	133.69
398.608	137.39
399.07	136.89
399.531	144.59
399.993	147.69
400.454	160.69
400.916	155.99
401.377	160.19
401.839	153.69
402.3	156.79
402.762	170.19
403.223	179.49
403.684	180.19
404.145	167.79
404.607	177.09
405.068	168.99
405.529	172.39
405.99	189.59
406.451	175.99
406.913	171.89
407.374	171.29
407.835	174.09
408.296	172.49
408.757	176.49
409.218	184.19
409.679	185.69
410.14	179.89
410.601	184.79
411.062	187.79
411.522	179.59
411.983	174.79
412.444	177.99
412.905	186.19
413.366	191.89
413.826	207.29
414.287	232.99
414.748	284.99
415.208	267.79
415.669	232.69
416.13	223.09
416.59	220.49
417.051	227.39
417.511	240.19
417.972	249.49
418.432	260.79
418.893	306.19
419.353	263.39
419.814	214.99
420.274	198.49
420.734	191.29
421.195	204.09
421.655	196.39
422.115	208.09
422.576	201.79
423.036	211.79
423.496	223.59
423.956	233.19
424.416	250.49
424.876	282.29
425.336	275.99
425.797	278.69
426.257	269.29
426.717	248.59
427.177	245.29
427.637	231.49
428.097	243.89
428.556	251.69
429.016	282.89
429.476	269.99
429.936	281.39
430.396	282.29
430.856	298.99
431.315	321.59
431.775	359.59
432.235	387.99
432.694	366.89
433.154	369.29
433.614	398.49
434.073	343.99
434.533	290.99
434.993	280.19
435.452	297.99
435.912	307.49
436.371	296.59
436.83	292.69
437.29	273.89
437.749	260.69
438.209	266.29
438.668	280.29
439.127	296.09
439.587	281.89
440.046	260.09
440.505	276.99
440.964	294.69
441.424	335.79
441.883	331.19
442.342	275.29
442.801	243.19
443.26	233.59
443.719	238.79
444.178	228.69
444.637	224.79
445.096	242.19
445.555	237.99
446.014	244.29
446.473	241.69
446.932	250.59
447.391	241.79
447.849	248.19
448.308	236.49
448.767	245.19
449.226	264.49
449.685	253.19
450.143	268.09
450.602	259.39
451.061	248.59
451.519	248.19
451.978	246.89
452.436	252.39
452.895	256.89
453.353	265.79
453.812	265.69
454.27	255.29
454.729	264.79
455.187	259.09
455.646	265.29
456.104	266.99
456.562	283.29
457.021	292.39
457.479	276.29
457.937	292.79
458.395	283.99
458.854	267.49
459.312	275.09
459.77	293.89
460.228	277.99
460.686	255.79
461.144	265.69
461.602	259.29
462.06	265.89
462.518	271.89
462.976	290.49
463.434	280.09
463.892	279.29
464.35	296.89
464.808	301.89
465.266	284.79
465.724	290.99
466.181	294.69
466.639	297.09
467.097	311.39
467.555	323.79
468.012	332.89
468.47	332.39
468.928	356.99
469.385	371.99
469.843	373.09
470.3	369.59
470.758	387.19
471.215	414.89
471.673	427.19
472.13	432.29
472.588	447.79
473.045	400.69
473.503	411.99
473.96	417.69
474.417	431.99
474.875	458.79
475.332	508.19
475.789	488.89
476.246	506.49
476.704	513.69
477.161	537.79
477.618	555.49
478.075	599.49
478.532	651.29
478.989	721.99
479.446	831.69
479.903	806.89
480.36	827.89
480.817	875.99
481.274	966.49
481.731	1064.29
482.188	1152.89
482.645	1280.09
483.102	1366.39
483.558	1489.29
484.015	1526.89
484.472	1496.69
484.929	1463.29
485.385	1419.29
485.842	1388.99
486.299	1328.79
486.755	1306.49
487.212	1100.89
487.668	946.79
488.125	890.99
488.582	819.99
489.038	788.39
489.494	751.19
489.951	713.49
490.407	691.59
490.864	673.29
491.32	688.49
491.776	685.29
492.233	687.49
492.689	656.79
493.145	651.79
493.602	634.59
494.058	656.69
494.514	652.39
494.97	680.79
495.426	697.99
495.882	669.59
496.338	659.09
496.794	679.39
497.251	664.09
497.707	673.69
498.163	674.49
498.618	690.09
499.074	694.49
499.53	710.49
499.986	715.59
500.442	687.89
500.898	671.09
501.354	660.39
501.809	664.59
502.265	668.79
502.721	676.29
503.177	683.79
503.632	682.39
504.088	697.99
504.543	711.09
504.999	737.39
505.455	708.09
505.91	682.99
506.366	699.69
506.821	687.59
507.277	678.89
507.732	682.49
508.187	679.69
508.643	695.19
509.098	688.39
509.553	720.69
510.009	716.69
510.464	729.59
510.919	744.99
511.375	754.79
511.83	769.39
512.285	783.79
512.74	815.99
513.195	839.19
513.65	816.79
514.105	822.99
514.56	836.89
515.015	849.99
515.47	861.79
515.925	834.79
516.38	844.59
516.835	856.09
517.29	841.59
517.745	833.79
518.2	829.49
518.655	806.59
519.109	796.69
519.564	794.49
520.019	787.49
520.474	769.39
520.928	773.79
521.383	779.29
521.838	766.29
522.292	765.49
522.747	764.39
523.201	758.79
523.656	751.99
524.11	746.89
524.565	745.49
525.019	742.79
525.474	748.59
525.928	754.29
526.382	748.89
526.837	754.29
527.291	760.79
527.745	750.79
528.2	756.89
528.654	749.29
529.108	743.19
529.562	736.59
530.016	737.09
530.47	738.29
530.925	745.99
531.379	747.29
531.833	750.59
532.287	738.19
532.741	761.99
533.195	746.29
533.649	774.79
534.103	769.19
534.556	759.49
535.01	764.99
535.464	766.09
535.918	776.59
536.372	777.69
536.826	765.49
537.279	759.69
537.733	771.29
538.187	762.99
538.64	768.49
539.094	778.49
539.548	782.39
540.001	779.79
540.455	781.99
540.908	784.99
541.362	794.19
541.815	799.29
542.269	817.09
542.722	828.39
543.175	827.89
543.629	828.29
544.082	840.09
544.536	855.09
544.989	852.89
545.442	856.49
545.895	859.79
546.349	847.89
546.802	857.19
547.255	867.69
547.708	876.99
548.161	875.19
548.614	887.09
549.067	885.89
549.52	894.69
549.973	872.09
550.426	883.59
550.879	859.79
551.332	866.09
551.785	868.39
552.238	875.79
552.691	889.29
553.144	904.19
553.596	916.49
554.049	935.19
554.502	956.19
554.955	986.39
555.407	972.69
555.86	971.69
556.313	967.59
556.765	951.69
557.218	944.69
557.67	943.79
558.123	948.79
558.576	944.39
559.028	948.89
559.48	961.89
559.933	951.79
560.385	912.19
560.838	876.29
561.29	849.09
561.742	851.99
562.195	830.89
562.647	820.29
563.099	840.59
563.551	830.39
564.004	843.99
564.456	833.89
564.908	817.89
565.36	804.09
565.812	785.09
566.264	773.19
566.716	766.89
567.168	752.49
567.62	764.49
568.072	746.49
568.524	746.49
568.976	741.29
569.428	720.99
569.88	726.19
570.332	734.69
570.784	738.69
571.235	733.19
571.687	752.69
572.139	757.79
572.59	764.09
573.042	767.19
573.494	764.19
573.945	752.69
574.397	739.59
574.849	735.89
575.3	748.89
575.752	729.69
576.203	731.79
576.655	741.69
577.106	723.99
577.557	713.59
578.009	714.09
578.46	720.29
578.912	706.49
579.363	715.79
579.814	718.79
580.265	706.99
580.717	719.49
581.168	715.39
581.619	727.09
582.07	737.19
582.521	722.39
582.972	713.59
583.423	724.89
583.875	726.89
584.326	724.19
584.777	751.19
585.227	761.29
585.678	787.49
586.129	786.89
586.58	817.59
587.031	831.79
587.482	859.89
587.933	900.09
588.384	869.99
588.834	838.49
589.285	820.79
589.736	831.99
590.186	819.59
590.637	807.69
591.088	788.49
591.538	786.09
591.989	771.69
592.439	771.49
592.89	762.49
593.34	762.29
593.791	760.99
594.241	741.09
594.692	748.39
595.142	735.39
595.593	740.29
596.043	758.39
596.493	755.39
596.943	744.29
597.394	769.89
597.844	763.29
598.294	780.89
598.744	800.99
599.195	831.69
599.645	874.89
600.095	919.39
600.545	987.19
600.995	1035.09
601.445	1092.49
601.895	1147.49
602.345	1198.29
602.795	1187.39
603.245	1136.79
603.695	1079.69
604.145	1026.39
604.594	976.69
605.044	915.19
605.494	858.79
605.944	804.19
606.393	802.79
606.843	776.59
607.293	779.89
607.743	771.29
608.192	789.29
608.642	800.09
609.091	796.99
609.541	807.69
609.99	799.39
610.44	804.09
610.889	762.39
611.339	741.79
611.788	720.49
612.238	732.79
612.687	746.49
613.136	731.69
613.586	748.99
614.035	735.89
614.484	755.69
614.933	752.39
615.383	736.09
615.832	744.49
616.281	736.59
616.73	714.49
617.179	695.29
617.628	682.69
618.077	671.29
618.526	657.39
618.975	651.19
619.424	652.39
619.873	645.49
620.322	653.89
620.771	641.49
621.22	639.19
621.669	622.09
622.118	624.09
622.567	620.89
623.015	604.09
623.464	595.99
623.913	590.49
624.361	582.29
624.81	588.99
625.259	590.49
625.707	579.69
626.156	586.79
626.604	601.19
627.053	599.39
627.501	592.99
627.95	602.89
628.398	617.39
628.847	607.09
629.295	604.99
629.744	608.09
630.192	594.79
630.64	588.39
631.089	574.19
631.537	568.29
631.985	563.89
632.433	562.29
632.881	551.69
633.33	557.99
633.778	561.29
634.226	548.39
634.674	574.79
635.122	575.09
635.57	582.19
636.018	585.99
636.466	593.29
636.914	588.79
637.362	593.29
637.81	607.79
638.258	618.79
638.705	612.39
639.153	651.69
639.601	654.19
640.049	679.09
640.497	714.89
640.944	731.59
641.392	691.29
641.84	646.39
642.287	613.69
642.735	599.89
643.182	595.69
643.63	595.89
644.078	596.89
644.525	602.89
644.973	618.89
645.42	621.69
645.867	651.49
646.315	666.29
646.762	681.59
647.21	718.49
647.657	733.19
648.104	772.19
648.551	791.89
648.999	857.49
649.446	925.19
649.893	1003.79
650.34	1148.39
650.787	1370.09
651.234	1680.99
651.682	2167.09
652.129	2938.59
652.576	4165.79
653.023	6046.29
653.47	8184.39
653.917	10150.99
654.363	11762.39
654.81	12970.79
655.257	12300.99
655.704	8132.29
656.151	4923.59
656.598	3242.99
657.044	2332.49
657.491	1807.99
657.938	1458.59
658.385	1215.39
658.831	1077.89
659.278	973.39
659.724	865.49
660.171	804.89
660.618	736.39
661.064	705.39
661.511	689.39
661.957	676.49
662.404	664.59
662.85	675.09
663.296	644.69
663.743	593.09
664.189	562.19
664.635	566.89
665.082	540.79
665.528	546.49
665.974	543.79
666.42	548.29
666.867	534.39
667.313	509.29
667.759	491.19
668.205	474.99
668.651	471.99
669.097	470.59
669.543	469.79
669.989	468.59
670.435	474.09
670.881	468.29
671.327	470.39
671.773	507.29
672.219	517.39
672.665	571.79
673.11	619.79
673.556	672.09
674.002	706.09
674.448	689.49
674.893	592.89
675.339	509.29
675.785	463.99
676.23	447.59
676.676	420.69
677.122	412.99
677.567	397.19
678.013	391.59
678.458	372.89
678.904	383.39
679.349	365.89
679.794	373.79
680.24	377.99
680.685	370.89
681.131	365.49
681.576	364.09
682.021	373.19
682.466	370.59
682.912	369.99
683.357	374.89
683.802	401.99
684.247	435.09
684.692	480.69
685.137	523.99
685.583	562.49
686.028	594.39
686.473	555.89
686.918	475.49
687.363	441.29
687.807	411.49
688.252	374.39
688.697	370.89
689.142	357.79
689.587	349.29
690.032	346.79
690.477	363.19
690.921	375.09
691.366	407.09
691.811	424.89
692.255	449.49
692.7	488.69
693.145	536.59
693.589	742.69
694.034	1206.09
694.478	1649.99
694.923	1849.39
695.367	2406.69
695.812	1289.29
696.256	531.49
696.701	394.49
697.145	366.39
697.59	341.59
698.034	340.09
698.478	342.49
698.922	340.19
699.367	333.99
699.811	355.49
700.255	371.69
700.699	400.59
701.143	447.79
701.588	502.29
702.032	541.29
702.476	546.09
702.92	519.29
703.364	522.29
703.808	681.49
704.252	1093.99
704.696	1549.39
705.14	1790.59
705.584	2270.39
706.027	1132.89
706.471	558.89
706.915	419.09
707.359	373.89
707.803	349.19
708.246	335.09
708.69	330.59
709.134	330.39
709.577	328.99
710.021	332.29
710.465	325.89
710.908	314.89
711.352	317.59
711.795	330.79
712.239	372.99
712.682	410.89
713.126	429.39
713.569	486.39
714.012	378.89
714.456	313.99
714.899	307.79
715.342	287.39
715.786	273.59
716.229	268.89
716.672	269.19
717.115	265.59
717.558	258.29
718.002	263.69
718.445	275.99
718.888	291.99
719.331	308.99
719.774	328.49
720.217	316.79
720.66	296.39
721.103	283.09
721.546	270.29
721.989	266.39
722.432	239.69
722.874	240.69
723.317	239.69
723.76	245.99
724.203	267.89
724.645	332.09
725.088	469.19
725.531	593.39
725.974	670.19
726.416	577.79
726.859	319.09
727.301	256.69
727.744	250.09
728.187	243.49
728.629	251.09
729.071	253.39
729.514	272.79
729.956	283.39
730.399	297.59
730.841	301.99
731.283	290.89
731.726	282.59
732.168	276.19
732.61	287.79
733.053	300.99
733.495	342.99
733.937	374.39
734.379	423.49
734.821	464.09
735.263	572.89
735.705	880.69
736.148	1680.39
736.59	2757.49
737.032	3243.99
737.474	2646.19
737.916	860.29
738.357	456.59
738.799	354.79
739.241	321.09
739.683	305.29
740.125	303.29
740.567	317.29
741.008	335.99
741.45	333.59
741.892	338.59
742.334	369.59
742.775	382.39
743.217	370.69
743.658	292.19
744.1	274.19
744.542	283.89
744.983	336.59
745.425	372.49
745.866	364.19
746.307	293.69
746.749	299.29
747.19	346.79
747.632	481.59
748.073	929.89
748.514	1985.39
748.956	3027.29
749.397	3819.19
749.838	3182.19
750.279	3143.29
750.72	1594.79
751.162	579.59
751.603	346.19
752.044	267.59
752.485	227.79
752.926	222.89
753.367	216.59
753.808	204.49
754.249	202.69
754.69	198.69
755.131	195.69
755.572	193.29
756.013	191.99
756.453	196.09
756.894	198.79
757.335	206.29
757.776	206.09
758.216	206.49
758.657	208.69
759.098	207.99
759.538	248.79
759.979	281.99
760.42	396.39
760.86	751.59
761.301	1959.09
761.741	4724.29
762.182	6850.99
762.622	4824.29
763.063	1401.39
763.503	573.59
763.943	344.99
764.384	282.39
764.824	268.99
765.264	245.69
765.705	223.79
766.145	195.89
766.585	191.09
767.025	187.59
767.465	173.59
767.906	189.69
768.346	208.29
768.786	218.19
769.226	228.49
769.666	327.39
770.106	654.69
770.546	1647.39
770.986	2810.09
771.426	2515.89
771.866	838.29
772.306	354.49
772.745	226.99
773.185	174.99
773.625	175.89
774.065	163.39
774.505	169.99
774.944	218.89
775.384	363.09
775.824	612.69
776.263	592.19
776.703	290.79
777.142	164.39
777.582	139.39
778.021	131.69
778.461	127.29
778.9	135.09
779.34	134.49
779.779	116.69
780.219	111.49
780.658	112.79
781.097	119.49
781.537	116.29
781.976	115.29
782.415	111.89
782.855	113.89
783.294	112.39
783.733	113.79
784.172	116.79
784.611	110.79
785.05	114.69
785.489	115.59
785.928	121.19
786.367	127.89
786.806	121.59
787.245	134.69
787.684	142.99
788.123	163.39
788.562	146.89
789.001	140.69
789.44	130.59
789.879	123.39
790.317	128.59
790.756	132.69
791.195	144.59
791.634	160.99
792.072	219.79
792.511	378.79
792.95	1060.59
793.388	2241.09
793.827	2030.49
794.265	708.29
794.704	296.29
795.142	191.79
795.581	161.69
796.019	144.29
796.458	143.79
796.896	125.39
797.334	135.59
797.773	170.29
798.211	236.49
798.649	462.79
799.087	1079.59
799.526	1687.69
799.964	2135.29
800.402	2123.39
800.84	806.19
801.278	322.09
801.716	199.09
802.154	163.19
802.592	153.99
803.03	153.19
803.468	144.79
803.906	152.29
804.344	153.19
804.782	144.69
805.22	142.69
805.658	138.49
806.096	160.49
806.533	173.19
806.971	185.99
807.409	229.39
807.847	339.39
808.284	709.99
808.722	1989.09
809.16	3494.39
809.597	3341.39
810.035	5762.09
810.472	6142.09
810.91	2227.69
811.347	852.99
811.785	435.49
812.222	273.09
812.66	211.89
813.097	183.49
813.535	154.29
813.972	137.39
814.409	123.49
814.846	114.79
815.284	117.69
815.721	104.19
816.158	109.69
816.595	120.59
817.032	163.39
817.47	201.19
817.907	149.99
818.344	111.29
818.781	103.79
819.218	98.39
819.655	134.49
820.092	206.89
820.529	228.49
820.966	186.29
821.403	138.99
821.839	99.69
822.276	104.09
822.713	130.29
823.15	149.99
823.587	129.79
824.023	160.39
824.46	323.49
824.897	945.09
825.333	1440.99
825.77	628.29
826.206	242.69
826.643	152.09
827.08	110.19
827.516	82.29
827.953	85.39
828.389	83.29
828.825	77.19
829.262	79.29
829.698	72.69
830.135	67.99
830.571	66.49
831.007	70.89
831.443	65.39
831.88	65.79
832.316	65.29
832.752	68.79
833.188	69.69
833.624	65.99
834.06	73.09
834.497	73.79
834.933	82.19
835.369	82.99
835.805	74.19
836.241	78.49
836.677	84.49
837.112	98.99
837.548	111.89
837.984	140.09
838.42	210.19
838.856	532.79
839.292	1616.19
839.727	2440.49
840.163	1144.29
840.599	982.79
841.034	2152.59
841.47	2238.79
841.906	825.09
842.341	355.09
842.777	213.09
843.212	207.89
843.648	201.69
844.083	120.19
844.519	91.59
844.954	76.59
845.39	60.79
845.825	61.19
846.261	58.49
846.696	58.19
847.131	55.89
847.566	63.49
848.002	52.49
848.437	52.89
848.872	62.09
849.307	64.19
849.742	84.69
850.177	188.99
850.613	590.79
851.048	932.49
851.483	404.29
851.918	165.39
852.353	95.99
852.788	57.89
853.223	54.09
853.657	50.69
854.092	51.49
854.527	50.19
854.962	45.49
855.397	50.79
855.832	52.29
856.266	44.09
856.701	42.49
857.136	38.79
857.57	45.69
858.005	57.69
858.44	67.39
858.874	49.69
859.309	61.49
859.743	46.19
860.178	50.99
860.612	46.79
861.047	57.99
861.481	78.59
861.915	80.79
862.35	51.99
862.784	39.79
863.218	42.99
863.653	36.59
864.087	52.89
864.521	58.49
864.955	69.29
865.39	164.39
865.824	179.29
866.258	126.69
866.692	177.59
867.126	197.09
867.56	119.29
867.994	59.79
868.428	44.69
868.862	57.39
869.296	56.69
869.73	65.79
870.164	61.89
870.598	55.69
871.031	42.99
871.465	38.59
871.899	34.39
872.333	27.09
872.766	28.69
873.2	26.19
873.634	32.59
874.067	28.49
874.501	23.99
874.935	37.79
875.368	32.59
875.802	30.79
876.235	25.99
876.669	30.49
877.102	23.29
877.535	29.59
877.969	23.19
878.402	26.09
878.836	15.89
879.269	30.89
879.702	28.39
880.135	25.39
880.569	22.49
881.002	28.19
881.435	26.19
881.868	22.19
882.301	23.89
882.734	22.29
883.167	24.59
883.601	13.29
884.034	20.99
884.467	15.79
884.899	23.19
885.332	18.49
885.765	18.59
886.198	15.89
886.631	17.29
887.064	21.59
887.497	20.49
887.929	27.09
888.362	14.69
888.795	16.89
889.228	18.39
889.66	14.59
890.093	20.59
890.526	23.49
890.958	21.49
891.391	22.19
891.823	23.09
892.256	14.19
892.688	10.99
893.121	14.39
893.553	16.29
893.985	25.19
894.418	26.09
894.85	15.69
895.282	16.49
895.715	14.19
896.147	16.69
896.579	19.69
897.011	18.29
897.444	15.69
897.876	12.79
898.308	16.89
898.74	17.09
899.172	13.09
899.604	24.89
900.036	22.49
900.468	22.49
900.9	20.39
901.332	21.69
901.764	18.19
902.196	21.79
902.628	16.89
903.06	17.09
903.491	29.89
903.923	27.59
904.355	28.59
904.787	27.39
905.218	19.99
905.65	25.29
906.082	14.99
906.513	14.69
906.945	18.49
907.376	24.09
907.808	19.19
908.239	21.39
908.671	21.99
909.102	26.79
909.534	25.49
909.965	49.09
910.397	101.09
910.828	337.29
911.259	496.59
911.691	229.99
912.122	114.69
912.553	56.59
912.984	38.79
913.415	27.99
913.847	24.69
914.278	13.89
914.709	17.89
915.14	20.99
915.571	18.09
916.002	11.49
916.433	24.19
916.864	15.39
917.295	11.19
917.726	21.89
918.157	14.59
918.587	25.49
919.018	24.79
919.449	22.09
919.88	29.69
920.311	37.69
920.741	54.69
921.172	176.09
921.603	159.99
922.033	76.29
922.464	46.09
922.895	24.79
923.325	24.99
923.756	17.69
924.186	9.89
924.617	20.59
925.047	21.59
925.478	20.99
925.908	25.99
926.338	17.99
926.769	17.19
927.199	13.79
927.629	8.99
928.06	11.39
928.49	13.89
928.92	14.59
929.35	14.59
929.78	18.49
930.21	5.19
930.641	11.19
931.071	11.29
931.501	7.59
931.931	8.09
932.361	12.49
932.791	4.39
933.221	6.79
933.651	9.69
934.08	21.99
934.51	34.99
934.94	13.39
935.37	13.79
935.8	10.09
936.229	12.79
936.659	15.19
937.089	6.29
937.519	19.49
937.948	27.29
938.378	17.99
938.807	8.29
939.237	3.59
939.666	6.09
940.096	-4.51
940.525	8.29
940.955	5.69
941.384	5.29
941.814	-0.21
942.243	-2.21
942.672	6.99
943.102	-6.51
943.531	-1.91
943.96	10.09
944.39	-0.01
944.819	2.19
945.248	11.89
945.677	-0.51
946.106	2.29
946.535	8.59
946.964	6.19
947.393	5.09
947.822	-0.91
948.251	-6.31
948.68	5.49
949.109	10.39
949.538	12.39
949.967	4.79
950.396	0.09
950.825	-2.61
951.254	0.89
951.682	-4.01
952.111	8.69
952.54	3.39
952.969	-1.21
953.397	-3.31
953.826	-0.51
954.254	-6.41
954.683	7.09
955.112	-0.91
955.54	7.49
955.969	1.09
956.397	-0.31
956.826	-2.61
957.254	6.99
957.682	10.49
958.111	9.49
958.539	-0.11
958.967	0.59
959.396	-7.21
959.824	-0.61
960.252	1.19
960.68	-4.11
961.109	3.99
961.537	1.09
961.965	-2.21
962.393	-2.51
962.821	1.59
963.249	2.59
963.677	4.79
964.105	10.99
964.533	47.99
964.961	42.69
965.389	23.79
965.817	11.39
966.245	2.79
966.672	6.39
967.1	-4.11
967.528	2.79
967.956	-0.11
968.383	-2.11
968.811	-3.31
969.239	-0.71
969.666	-2.81
970.094	-0.01
970.522	0.99
970.949	-1.51
971.377	0.99
971.804	-1.51
972.232	1.49
972.659	-1.91
973.087	-2.51
973.514	0.39
973.941	1.59
974.369	2.79
974.796	-2.91
975.223	-0.61
975.651	-0.51
976.078	5.99
976.505	-2.31
976.932	7.49
977.359	18.69
977.786	15.79
978.214	2.89
978.641	-5.51
979.068	-2.01
979.495	-1.41
979.922	1.49
980.349	0.39
980.776	8.79
981.202	0.49
981.629	6.49
982.056	5.59
982.483	-3.41
982.91	4.49
983.337	-4.71
983.763	2.39
984.19	0.59
984.617	-4.71
985.043	-1.71
985.47	0.19
985.897	-2.11
986.323	-4.81
986.75	14.49
987.176	-2.01
987.603	0.29
988.029	3.59
988.456	-5.11
988.882	8.09
989.308	-0.21
989.735	1.59
990.161	2.19
990.587	-7.01
991.014	-4.61
991.44	9.79
991.866	-2.21
992.292	-8.31
992.719	-0.21
993.145	0.09
993.571	-1.41
993.997	-3.91
994.423	0.09
994.849	-0.31
995.275	-0.21
995.701	2.79
996.127	-4.01
996.553	3.79
996.979	-0.41
997.405	2.09
997.83	0.79
998.256	-4.21
998.682	-8.71
999.108	-1.91
999.534	1.19
999.959	1.39
1000.385	-2.71
1000.811	-0.51
1001.236	-9.31
1001.662	-3.11
1002.087	-10.21
1002.513	1.09
1002.938	6.69
1003.364	-1.81
1003.789	0.39
1004.215	3.79
1004.64	2.49
1005.066	7.59
1005.491	0.29
1005.916	-0.11
1006.342	-6.61
1006.767	-3.81
1007.192	1.19
1007.617	-4.81
1008.042	-4.21
1008.468	-4.61
1008.893	-6.31
1009.318	-0.11
1009.743	3.59
1010.168	2.19
1010.593	3.79
1011.018	-8.51
1011.443	-4.11
1011.868	9.09
1012.293	-0.81
1012.718	1.29
1013.143	5.69
1013.567	2.89
1013.992	-1.11
1014.417	-8.71
1014.842	0.89
1015.267	0.09
1015.691	-5.31
1016.116	4.69
1016.541	-4.21
1016.965	5.69
1017.39	4.99
1017.814	0.89
1018.239	0.49
1018.663	-1.41
1019.088	-9.01
1019.512	1.09
1019.937	9.89
1020.361	-0.81
1020.785	-5.21
1021.21	-8.71
1021.634	-0.81
1022.058	1.39
1022.483	-1.81
1022.907	-2.11
1023.331	-7.01
1023.755	-0.71
1024.179	-5.01
1024.604	-4.21
1025.028	-3.21
1025.452	1.69
1025.876	-3.21
1026.3	4.79
1026.724	-4.51
1027.148	-2.01
1027.572	-4.31
1027.996	-4.51
1028.42	1.79
1028.843	-2.51
1029.267	-7.11
1029.691	-7.21
1030.115	-7.01
1030.539	-6.81
1030.962	-4.01
1031.386	-7.01
1031.81	-2.61
1032.233	5.89
1032.657	2.49
1033.08	-0.31
1033.504	0.49
1033.927	-3.61
1034.351	0.19
1034.774	-3.71
1035.198	1.49
1035.621	-8.51
1036.045	-12.51
1036.468	-1.21
1036.891	-10.21
1037.315	-4.51
1037.738	-7.31
1038.161	-3.31
1038.584	-3.91
1039.008	-5.51
1039.431	-1.11
1039.854	-5.61
1040.277	-2.91
1040.7	-5.01
1041.123	1.79
1041.546	-10.91
1041.969	-1.21
1042.392	-2.51
1042.815	-2.41
1043.238	1.89
1043.661	3.19
1044.084	-7.01
1044.507	-4.41
1044.93	-3.01
1045.352	-3.91
1045.775	-7.61
1046.198	-1.41
1046.621	-5.01
1047.043	1.99
1047.466	15.19
1047.889	2.09
1048.311	-3.31
1048.734	-6.31
1049.156	-2.71
1049.579	-1.51
1050.001	0.09
1050.424	-0.21
1050.846	-0.51
1051.269	-1.41
1051.691	-7.51
1052.113	-1.01
1052.536	-1.71
1052.958	-6.41
1053.38	-5.51
1053.802	-6.11
1054.225	-1.51
1054.647	-6.41
1055.069	-6.71
1055.491	6.79
1055.913	-0.01
1056.335	-3.11
1056.757	0.69
1057.179	-8.41
1057.601	-6.81
1058.023	-5.41
1058.445	-2.61
1058.867	-6.01
1059.289	-6.31
1059.711	-9.01
1060.133	0.39
1060.555	-10.61
1060.976	-5.61
1061.398	-0.21
1061.82	-3.61
1062.241	-9.31
1062.663	0.19
1063.085	-5.91
1063.506	0.79
1063.928	-1.41
1064.35	-3.61
1064.771	-8.41
1065.193	-3.81
1065.614	-12.81
1066.035	-7.71
1066.457	-0.81
1066.878	1.49
1067.3	-0.21
1067.721	-7.41
1068.142	-4.81
1068.564	-4.71
1068.985	-5.81
1069.406	-3.21
1069.827	-4.31
1070.248	-3.01
1070.67	-1.11
1071.091	-4.01
1071.512	-0.21
1071.933	-2.91
1072.354	-2.11
1072.775	-2.41
1073.196	-7.01
1073.617	-2.61
1074.038	-7.61
1074.459	-2.01
1074.88	-8.91
1075.3	-5.31
1075.721	-6.21
1076.142	1.09
1076.563	-0.71
1076.983	-7.51
1077.404	-2.31
1077.825	-5.01
1078.246	-2.31
1078.666	-11.91
1079.087	-5.31
1079.507	-4.81
1079.928	3.59
1080.348	-3.21
1080.769	-7.11
1081.189	-1.31
1081.61	-5.11
1082.03	-8.91
1082.451	-8.71
1082.871	-4.61
1083.291	-9.71
1083.711	-2.91
1084.132	-0.01
1084.552	-1.41
1084.972	-3.31
1085.392	-2.11
1085.813	-2.61
1086.233	-6.11
1086.653	-4.21
1087.073	-4.11
1087.493	-9.51
1087.913	-3.41
1088.333	-6.61
1088.753	0.99
1089.173	1.09
1089.593	-5.41
1090.013	3.89
1090.433	-0.31
1090.852	-4.81
1091.272	-3.51
1091.692	-2.11
1092.112	-1.01
1092.531	-6.41
1092.951	-12.31
1093.371	-1.91
1093.79	-2.31
1094.21	-7.11
1094.63	-7.21
1095.049	-6.11
1095.469	0.59
1095.888	-1.01
1096.308	0.89
1096.727	7.29
1097.146	-1.71
1097.566	5.99
1097.985	-8.01
1098.405	3.29
1098.824	-2.41
1099.243	-5.21
1099.662	-8.61
1100.082	-1.21
1100.501	5.49
1100.92	-9.01
1101.339	-1.11
1101.758	-2.71
