Data from 20171114-ORNL-Ar_H_NY_Subt18_08-04-52-290.txt Node
Date: Tue Nov 14 08:04:52 EST 2017
User: Ender
Spectrometer: HR+D1039
Trigger mode: 0
Integration Time (sec): 2.730000E-2
Scans to average: 10
Electric dark correction enabled: true
Nonlinearity correction enabled: false
Boxcar width: 0
XAxis mode: Wavelengths
Number of Pixels in Spectrum: 2048
>>>>>Begin Spectral Data<<<<<
187.836	-1.81
188.309	-1.81
188.782	-1.81
189.255	-3.71
189.728	-6.01
190.201	5.09
190.674	0.89
191.147	4.49
191.619	-5.01
192.092	0.99
192.565	7.39
193.038	-0.11
193.511	5.49
193.984	0.49
194.456	-5.41
194.929	0.09
195.402	-0.01
195.874	-2.81
196.347	0.89
196.82	-7.11
197.292	3.29
197.765	-1.91
198.237	-6.61
198.71	0.89
199.182	-8.81
199.655	2.59
200.127	1.19
200.6	-2.71
201.072	4.39
201.544	-5.71
202.017	-3.51
202.489	3.99
202.961	-0.81
203.433	-2.61
203.906	-4.81
204.378	-4.11
204.85	-4.01
205.322	-9.31
205.794	1.49
206.266	-7.31
206.739	-9.11
207.211	1.09
207.683	-6.91
208.155	-7.61
208.627	-4.21
209.099	-4.61
209.57	-10.21
210.042	-4.11
210.514	-7.01
210.986	-2.91
211.458	-7.71
211.93	-1.11
212.402	3.89
212.873	-9.11
213.345	-5.11
213.817	-12.01
214.288	-7.11
214.76	-8.51
215.232	2.19
215.703	-0.71
216.175	-6.51
216.646	-4.01
217.118	-9.31
217.589	-2.21
218.061	-4.11
218.532	-0.61
219.004	-3.41
219.475	-3.61
219.946	1.29
220.418	-1.91
220.889	2.69
221.36	0.79
221.832	-5.51
222.303	-8.91
222.774	-0.51
223.245	-12.51
223.717	-8.51
224.188	-4.51
224.659	-3.91
225.13	-5.41
225.601	-3.41
226.072	-0.61
226.543	-0.51
227.014	3.19
227.485	-2.21
227.956	-4.21
228.427	1.49
228.898	0.29
229.369	2.69
229.839	-2.01
230.31	-2.91
230.781	4.09
231.252	-1.21
231.722	-2.01
232.193	-5.11
232.664	0.79
233.135	6.69
233.605	-2.71
234.076	-5.31
234.546	-0.51
235.017	3.79
235.487	2.39
235.958	-4.61
236.428	-2.01
236.899	9.09
237.369	9.39
237.84	-1.61
238.31	8.59
238.78	2.99
239.251	1.89
239.721	8.69
240.191	1.79
240.662	1.49
241.132	-1.41
241.602	1.99
242.072	-0.91
242.542	4.19
243.013	0.19
243.483	2.39
243.953	6.59
244.423	3.89
244.893	0.69
245.363	8.59
245.833	3.89
246.303	2.29
246.773	15.69
247.243	0.09
247.712	3.49
248.182	5.09
248.652	13.29
249.122	-0.21
249.592	13.49
250.061	24.79
250.531	30.79
251.001	13.99
251.471	18.49
251.94	19.99
252.41	12.79
252.879	3.69
253.349	18.69
253.818	7.09
254.288	5.09
254.757	4.49
255.227	3.39
255.696	7.59
256.166	7.99
256.635	4.39
257.105	11.79
257.574	9.69
258.043	14.59
258.513	17.29
258.982	18.49
259.451	9.39
259.92	16.89
260.389	11.59
260.859	16.29
261.328	15.89
261.797	23.19
262.266	11.39
262.735	13.69
263.204	5.39
263.673	3.79
264.142	6.09
264.611	0.09
265.08	3.29
265.549	-2.61
266.018	6.89
266.487	4.79
266.955	4.29
267.424	3.89
267.893	9.19
268.362	7.29
268.83	7.79
269.299	15.59
269.768	9.89
270.236	7.49
270.705	2.09
271.174	11.99
271.642	13.69
272.111	11.19
272.579	16.89
273.048	26.19
273.516	30.19
273.985	29.09
274.453	29.49
274.922	19.99
275.39	11.49
275.858	8.29
276.327	12.59
276.795	21.39
277.263	15.49
277.731	34.09
278.2	58.89
278.668	65.19
279.136	53.99
279.604	19.09
280.072	18.69
280.54	13.99
281.008	7.09
281.477	18.99
281.945	13.39
282.413	16.29
282.881	17.99
283.348	11.69
283.816	24.09
284.284	17.99
284.752	20.79
285.22	19.59
285.688	15.19
286.156	23.49
286.623	42.59
287.091	52.39
287.559	35.09
288.026	19.89
288.494	18.49
288.962	12.39
289.429	12.09
289.897	18.09
290.364	14.29
290.832	20.59
291.3	17.59
291.767	19.69
292.234	22.99
292.702	16.79
293.169	23.29
293.637	25.49
294.104	28.59
294.571	13.09
295.039	17.69
295.506	19.39
295.973	22.39
296.44	18.39
296.908	23.29
297.375	21.49
297.842	25.79
298.309	24.89
298.776	15.19
299.243	26.29
299.71	13.79
300.177	19.49
300.644	24.39
301.111	25.99
301.578	27.29
302.045	20.49
302.512	24.19
302.979	32.59
303.446	20.79
303.913	23.89
304.379	22.39
304.846	27.59
305.313	28.29
305.78	25.99
306.246	27.39
306.713	30.19
307.18	26.89
307.646	30.09
308.113	30.09
308.579	24.29
309.046	26.79
309.512	33.99
309.979	17.99
310.445	28.79
310.912	28.99
311.378	36.79
311.845	29.99
312.311	34.89
312.777	37.39
313.244	36.89
313.71	39.19
314.176	35.19
314.642	29.19
315.109	30.59
315.575	35.79
316.041	38.79
316.507	30.89
316.973	39.79
317.439	35.79
317.905	39.19
318.371	37.79
318.837	35.59
319.303	36.89
319.769	42.79
320.235	34.99
320.701	38.39
321.167	41.99
321.633	35.29
322.099	38.99
322.564	42.69
323.03	46.39
323.496	42.09
323.962	41.49
324.427	34.89
324.893	48.29
325.359	37.49
325.824	39.09
326.29	39.79
326.755	40.99
327.221	42.89
327.686	39.09
328.152	50.39
328.617	43.99
329.083	51.39
329.548	47.09
330.014	45.19
330.479	44.29
330.944	41.29
331.41	39.99
331.875	48.49
332.34	50.99
332.805	50.19
333.271	47.59
333.736	47.19
334.201	58.59
334.666	48.69
335.131	57.89
335.596	49.69
336.061	51.29
336.526	41.19
336.991	48.09
337.456	55.59
337.921	45.79
338.386	42.69
338.851	42.29
339.316	52.09
339.781	49.79
340.246	55.09
340.711	47.09
341.175	52.59
341.64	49.49
342.105	48.39
342.569	58.79
343.034	62.69
343.499	60.09
343.963	46.89
344.428	61.79
344.893	63.59
345.357	62.49
345.822	67.39
346.286	68.69
346.751	71.89
347.215	70.49
347.679	71.69
348.144	100.59
348.608	84.59
349.073	66.69
349.537	72.29
350.001	80.39
350.465	95.49
350.93	87.09
351.394	81.09
351.858	76.29
352.322	87.99
352.786	85.59
353.25	101.89
353.715	108.89
354.179	103.19
354.643	129.39
355.107	126.49
355.571	111.29
356.035	99.49
356.498	109.29
356.962	127.79
357.426	133.39
357.89	117.79
358.354	92.59
358.818	84.39
359.281	78.29
359.745	78.79
360.209	75.79
360.673	74.89
361.136	84.99
361.6	85.09
362.064	77.89
362.527	87.99
362.991	90.99
363.454	78.89
363.918	81.09
364.381	76.99
364.845	83.39
365.308	82.49
365.772	82.09
366.235	87.29
366.698	82.29
367.162	91.39
367.625	80.59
368.088	82.29
368.552	84.99
369.015	86.79
369.478	97.19
369.941	98.89
370.404	95.09
370.867	103.69
371.331	105.49
371.794	114.89
372.257	106.99
372.72	110.59
373.183	110.79
373.646	98.09
374.109	101.69
374.572	105.69
375.035	103.69
375.497	110.29
375.96	105.89
376.423	106.39
376.886	105.59
377.349	105.19
377.811	93.09
378.274	102.59
378.737	104.49
379.199	103.19
379.662	112.29
380.125	113.99
380.587	116.39
381.05	111.19
381.512	121.39
381.975	133.69
382.437	124.39
382.9	123.39
383.362	122.99
383.825	135.79
384.287	141.19
384.75	134.69
385.212	137.09
385.674	134.79
386.136	136.69
386.599	122.19
387.061	124.79
387.523	125.19
387.985	130.59
388.447	133.69
388.91	135.19
389.372	144.99
389.834	148.19
390.296	137.09
390.758	151.49
391.22	161.59
391.682	201.99
392.144	284.79
392.606	220.79
393.068	161.89
393.529	155.89
393.991	152.29
394.453	135.59
394.915	157.19
395.377	186.09
395.838	203.09
396.3	145.99
396.762	133.19
397.224	129.89
397.685	127.19
398.147	124.99
398.608	127.19
399.07	117.89
399.531	128.29
399.993	141.49
400.454	144.59
400.916	141.19
401.377	140.69
401.839	147.39
402.3	150.39
402.762	164.09
403.223	172.79
403.684	161.79
404.145	151.29
404.607	154.89
405.068	155.79
405.529	163.09
405.99	185.59
406.451	170.39
406.913	166.99
407.374	158.69
407.835	155.79
408.296	156.99
408.757	166.59
409.218	178.59
409.679	175.09
410.14	168.39
410.601	171.29
411.062	175.09
411.522	179.99
411.983	184.29
412.444	168.89
412.905	172.99
413.366	170.09
413.826	188.99
414.287	212.69
414.748	246.39
415.208	235.19
415.669	202.29
416.13	193.79
416.59	189.99
417.051	202.09
417.511	205.19
417.972	222.39
418.432	227.59
418.893	273.99
419.353	241.69
419.814	181.89
420.274	176.19
420.734	169.59
421.195	186.69
421.655	182.99
422.115	181.69
422.576	181.99
423.036	188.29
423.496	199.79
423.956	206.99
424.416	221.29
424.876	258.79
425.336	251.69
425.797	245.29
426.257	235.59
426.717	227.49
427.177	222.99
427.637	212.99
428.097	224.59
428.556	231.29
429.016	265.79
429.476	249.59
429.936	257.29
430.396	254.59
430.856	277.89
431.315	297.19
431.775	333.29
432.235	357.29
432.694	334.29
433.154	347.19
433.614	374.29
434.073	317.99
434.533	271.29
434.993	257.79
435.452	269.19
435.912	278.39
436.371	282.59
436.83	263.09
437.29	262.79
437.749	242.79
438.209	228.99
438.668	258.29
439.127	275.49
439.587	255.89
440.046	242.79
440.505	251.39
440.964	271.99
441.424	305.79
441.883	288.09
442.342	251.19
442.801	210.99
443.26	206.89
443.719	210.89
444.178	207.99
444.637	201.59
445.096	207.69
445.555	217.99
446.014	211.89
446.473	215.39
446.932	224.29
447.391	213.39
447.849	220.39
448.308	206.29
448.767	209.19
449.226	225.19
449.685	223.19
450.143	239.49
450.602	225.99
451.061	218.09
451.519	215.29
451.978	217.19
452.436	223.99
452.895	229.99
453.353	243.59
453.812	236.79
454.27	227.79
454.729	226.09
455.187	225.29
455.646	233.89
456.104	229.09
456.562	248.19
457.021	251.29
457.479	248.09
457.937	262.99
458.395	249.19
458.854	237.99
459.312	236.49
459.77	258.39
460.228	245.89
460.686	229.69
461.144	239.19
461.602	229.69
462.06	229.39
462.518	243.89
462.976	241.29
463.434	246.39
463.892	249.59
464.35	265.19
464.808	277.39
465.266	251.09
465.724	256.69
466.181	263.09
466.639	259.29
467.097	284.49
467.555	289.69
468.012	293.79
468.47	294.79
468.928	315.59
469.385	326.09
469.843	336.69
470.3	334.49
470.758	348.59
471.215	375.89
471.673	392.59
472.13	387.79
472.588	397.89
473.045	349.29
473.503	364.49
473.96	372.49
474.417	388.09
474.875	409.09
475.332	452.89
475.789	438.79
476.246	443.09
476.704	461.89
477.161	484.59
477.618	500.59
478.075	540.89
478.532	584.59
478.989	670.09
479.446	772.69
479.903	738.89
480.36	773.89
480.817	828.69
481.274	938.89
481.731	1027.39
482.188	1109.59
482.645	1237.59
483.102	1355.49
483.558	1489.29
484.015	1538.09
484.472	1503.39
484.929	1456.89
485.385	1415.29
485.842	1381.59
486.299	1307.89
486.755	1257.89
487.212	1049.39
487.668	887.59
488.125	804.89
488.582	747.29
489.038	714.79
489.494	683.39
489.951	651.89
490.407	646.39
490.864	632.39
491.32	617.29
491.776	618.79
492.233	624.19
492.689	582.69
493.145	580.89
493.602	568.59
494.058	589.29
494.514	595.89
494.97	609.39
495.426	618.19
495.882	592.19
496.338	595.29
496.794	596.29
497.251	598.79
497.707	607.29
498.163	622.89
498.618	623.99
499.074	627.09
499.53	648.79
499.986	652.59
500.442	633.09
500.898	607.49
501.354	590.79
501.809	605.79
502.265	619.39
502.721	638.29
503.177	640.29
503.632	636.09
504.088	642.69
504.543	683.59
504.999	683.59
505.455	627.29
505.91	602.49
506.366	600.39
506.821	608.69
507.277	599.49
507.732	602.49
508.187	607.99
508.643	599.09
509.098	605.69
509.553	633.09
510.009	640.99
510.464	643.99
510.919	657.59
511.375	659.59
511.83	680.19
512.285	694.19
512.74	732.69
513.195	759.09
513.65	738.99
514.105	742.09
514.56	737.59
515.015	767.09
515.47	781.29
515.925	766.29
516.38	761.99
516.835	771.09
517.29	751.89
517.745	753.89
518.2	743.09
518.655	727.89
519.109	717.19
519.564	716.49
520.019	716.09
520.474	702.09
520.928	703.99
521.383	695.09
521.838	686.29
522.292	675.49
522.747	671.09
523.201	665.59
523.656	671.99
524.11	667.69
524.565	668.79
525.019	662.39
525.474	674.09
525.928	671.99
526.382	667.29
526.837	662.29
527.291	676.09
527.745	668.39
528.2	666.39
528.654	654.39
529.108	659.29
529.562	667.69
530.016	655.49
530.47	663.29
530.925	665.39
531.379	664.49
531.833	671.79
532.287	675.19
532.741	679.29
533.195	670.89
533.649	683.39
534.103	689.49
534.556	681.49
535.01	685.09
535.464	689.29
535.918	694.99
536.372	689.49
536.826	686.09
537.279	676.79
537.733	676.89
538.187	682.09
538.64	682.29
539.094	690.39
539.548	700.79
540.001	692.79
540.455	687.49
540.908	689.09
541.362	690.59
541.815	708.39
542.269	714.49
542.722	721.29
543.175	726.39
543.629	733.19
544.082	739.49
544.536	748.99
544.989	749.39
545.442	753.49
545.895	741.99
546.349	753.39
546.802	750.89
547.255	747.29
547.708	758.29
548.161	777.29
548.614	776.89
549.067	788.39
549.52	775.79
549.973	769.79
550.426	765.39
550.879	746.49
551.332	752.69
551.785	759.69
552.238	766.69
552.691	762.39
553.144	797.89
553.596	808.39
554.049	811.09
554.502	854.09
554.955	875.99
555.407	865.19
555.86	864.99
556.313	852.39
556.765	843.29
557.218	839.89
557.67	825.39
558.123	825.39
558.576	827.59
559.028	830.29
559.48	846.39
559.933	824.39
560.385	797.59
560.838	765.49
561.29	738.49
561.742	720.39
562.195	714.49
562.647	725.79
563.099	728.99
563.551	724.29
564.004	734.09
564.456	724.69
564.908	725.19
565.36	705.89
565.812	692.59
566.264	683.49
566.716	677.59
567.168	666.09
567.62	678.79
568.072	654.49
568.524	655.49
568.976	648.19
569.428	645.49
569.88	631.89
570.332	643.49
570.784	639.49
571.235	637.19
571.687	651.49
572.139	654.69
572.59	658.89
573.042	670.89
573.494	665.09
573.945	649.39
574.397	651.49
574.849	648.79
575.3	648.99
575.752	642.59
576.203	637.59
576.655	646.29
577.106	626.29
577.557	627.49
578.009	630.49
578.46	629.89
578.912	628.69
579.363	618.49
579.814	622.09
580.265	617.09
580.717	632.59
581.168	628.49
581.619	634.79
582.07	636.79
582.521	636.29
582.972	626.39
583.423	635.59
583.875	634.79
584.326	653.39
584.777	688.39
585.227	763.49
585.678	841.39
586.129	931.79
586.58	1014.09
587.031	1090.39
587.482	1229.09
587.933	1406.49
588.384	1214.79
588.834	904.49
589.285	750.39
589.736	715.79
590.186	723.39
590.637	716.29
591.088	694.49
591.538	687.59
591.989	677.99
592.439	679.79
592.89	667.79
593.34	670.39
593.791	666.99
594.241	660.69
594.692	656.99
595.142	652.69
595.593	652.09
596.043	657.09
596.493	660.29
596.943	658.29
597.394	674.09
597.844	659.19
598.294	675.39
598.744	704.69
599.195	709.09
599.645	745.49
600.095	782.99
600.545	847.89
600.995	891.69
601.445	946.79
601.895	998.29
602.345	1052.19
602.795	1028.49
603.245	980.39
603.695	934.79
604.145	890.89
604.594	843.19
605.044	787.59
605.494	731.79
605.944	694.39
606.393	690.59
606.843	671.29
607.293	683.29
607.743	670.19
608.192	680.79
608.642	694.19
609.091	706.89
609.541	707.49
609.99	711.69
610.44	697.29
610.889	667.69
611.339	639.29
611.788	627.19
612.238	648.79
612.687	658.69
613.136	664.09
613.586	674.79
614.035	676.09
614.484	695.79
614.933	694.59
615.383	695.69
615.832	682.49
616.281	660.79
616.73	624.09
617.179	608.49
617.628	589.79
618.077	572.39
618.526	566.69
618.975	565.59
619.424	560.59
619.873	563.39
620.322	568.09
620.771	550.99
621.22	547.79
621.669	538.19
622.118	534.09
622.567	527.39
623.015	515.79
623.464	520.89
623.913	509.89
624.361	506.19
624.81	501.59
625.259	500.79
625.707	506.89
626.156	504.79
626.604	515.89
627.053	512.69
627.501	512.39
627.95	516.99
628.398	528.49
628.847	519.99
629.295	522.59
629.744	521.29
630.192	523.59
630.64	514.49
631.089	507.09
631.537	516.59
631.985	523.49
632.433	539.09
632.881	553.99
633.33	581.29
633.778	571.39
634.226	508.99
634.674	511.99
635.122	517.79
635.57	538.39
636.018	560.09
636.466	516.99
636.914	502.39
637.362	514.99
637.81	517.99
638.258	525.79
638.705	523.59
639.153	551.79
639.601	555.09
640.049	570.19
640.497	615.79
640.944	625.29
641.392	585.09
641.84	548.09
642.287	531.89
642.735	521.59
643.182	522.59
643.63	518.09
644.078	518.89
644.525	534.09
644.973	533.79
645.42	546.79
645.867	561.79
646.315	578.49
646.762	596.99
647.21	625.79
647.657	644.29
648.104	673.09
648.551	701.69
648.999	753.19
649.446	817.99
649.893	897.79
650.34	1026.39
650.787	1233.49
651.234	1530.99
651.682	2000.59
652.129	2714.39
652.576	3923.09
653.023	5784.19
653.47	7954.69
653.917	10070.99
654.363	11816.69
654.81	13152.59
655.257	12541.79
655.704	8105.49
656.151	4783.99
656.598	3083.89
657.044	2207.99
657.491	1685.99
657.938	1339.99
658.385	1122.29
658.831	978.69
659.278	865.69
659.724	767.69
660.171	718.69
660.618	656.39
661.064	612.39
661.511	595.29
661.957	586.49
662.404	576.29
662.85	577.39
663.296	562.29
663.743	506.49
664.189	484.39
664.635	483.49
665.082	472.19
665.528	471.39
665.974	458.69
666.42	459.49
666.867	455.29
667.313	440.09
667.759	426.19
668.205	430.59
668.651	439.39
669.097	423.39
669.543	451.99
669.989	420.29
670.435	404.99
670.881	400.69
671.327	407.09
671.773	422.69
672.219	430.59
672.665	486.29
673.11	505.69
673.556	562.99
674.002	594.29
674.448	585.79
674.893	481.29
675.339	421.99
675.785	394.99
676.23	374.39
676.676	345.89
677.122	337.79
677.567	336.09
678.013	319.99
678.458	322.89
678.904	315.39
679.349	310.49
679.794	315.89
680.24	314.29
680.685	306.39
681.131	309.69
681.576	313.19
682.021	313.79
682.466	312.39
682.912	307.69
683.357	306.09
683.802	332.69
684.247	355.49
684.692	405.49
685.137	429.09
685.583	479.69
686.028	501.79
686.473	455.59
686.918	387.19
687.363	369.39
687.807	344.59
688.252	321.39
688.697	311.79
689.142	292.19
689.587	292.19
690.032	292.49
690.477	300.09
690.921	303.59
691.366	334.19
691.811	350.49
692.255	380.29
692.7	406.49
693.145	444.59
693.589	594.39
694.034	978.89
694.478	1337.99
694.923	1556.69
695.367	2036.79
695.812	1063.29
696.256	445.09
696.701	329.69
697.145	306.09
697.59	293.39
698.034	282.39
698.478	296.49
698.922	288.49
699.367	284.79
699.811	303.29
700.255	311.49
700.699	338.49
701.143	378.49
701.588	417.09
702.032	459.99
702.476	453.29
702.92	427.19
703.364	431.69
703.808	547.69
704.252	891.79
704.696	1260.49
705.14	1483.99
705.584	1901.69
706.027	938.39
706.471	464.39
706.915	346.39
707.359	303.09
707.803	281.09
708.246	281.19
708.69	278.89
709.134	269.59
709.577	272.39
710.021	278.09
710.465	273.19
710.908	257.79
711.352	268.09
711.795	275.69
712.239	301.69
712.682	336.69
713.126	370.79
713.569	414.29
714.012	318.89
714.456	285.39
714.899	259.29
715.342	245.09
715.786	235.19
716.229	231.29
716.672	224.29
717.115	217.69
717.558	217.09
718.002	218.09
718.445	232.49
718.888	246.19
719.331	260.89
719.774	277.09
720.217	270.29
720.66	254.89
721.103	237.19
721.546	219.49
721.989	223.89
722.432	206.99
722.874	210.79
723.317	204.99
723.76	210.49
724.203	225.49
724.645	272.89
725.088	387.79
725.531	495.29
725.974	574.89
726.416	490.69
726.859	276.49
727.301	217.29
727.744	210.89
728.187	204.49
728.629	210.19
729.071	213.29
729.514	222.99
729.956	241.39
730.399	252.19
730.841	251.59
731.283	236.99
731.726	220.19
732.168	224.19
732.61	233.99
733.053	246.19
733.495	275.89
733.937	306.59
734.379	350.89
734.821	371.39
735.263	477.49
735.705	716.69
736.148	1352.09
736.59	2245.39
737.032	2748.59
737.474	2227.69
737.916	709.59
738.357	371.09
738.799	288.99
739.241	265.89
739.683	251.69
740.125	250.69
740.567	256.69
741.008	284.09
741.45	276.99
741.892	279.39
742.334	300.39
742.775	307.59
743.217	303.19
743.658	243.19
744.1	224.09
744.542	225.99
744.983	279.39
745.425	301.59
745.866	303.59
746.307	251.89
746.749	241.19
747.19	281.69
747.632	387.49
748.073	735.89
748.514	1584.39
748.956	2487.19
749.397	3111.69
749.838	2614.29
750.279	2647.09
750.72	1335.89
751.162	480.49
751.603	281.19
752.044	214.49
752.485	187.19
752.926	188.19
753.367	181.19
753.808	173.39
754.249	169.99
754.69	162.99
755.131	157.59
755.572	153.49
756.013	159.79
756.453	157.49
756.894	165.59
757.335	160.99
757.776	167.39
758.216	173.29
758.657	168.89
759.098	174.29
759.538	199.39
759.979	237.59
760.42	315.99
760.86	592.29
761.301	1528.59
761.741	3794.69
762.182	5794.29
762.622	4072.89
763.063	1155.29
763.503	475.39
763.943	304.09
764.384	301.89
764.824	364.09
765.264	400.39
765.705	277.99
766.145	185.19
766.585	160.49
767.025	156.09
767.465	161.69
767.906	213.49
768.346	287.29
768.786	311.39
769.226	231.69
769.666	272.79
770.106	518.69
770.546	1301.49
770.986	2325.69
771.426	2131.99
771.866	698.79
772.306	281.39
772.745	183.49
773.185	148.89
773.625	147.59
774.065	140.99
774.505	173.59
774.944	260.69
775.384	580.39
775.824	1087.79
776.263	1067.19
776.703	450.99
777.142	199.79
777.582	142.29
778.021	113.59
778.461	120.39
778.9	120.99
779.34	117.19
779.779	100.09
780.219	93.79
780.658	95.89
781.097	94.49
781.537	99.29
781.976	97.79
782.415	89.49
782.855	88.59
783.294	87.69
783.733	94.59
784.172	89.99
784.611	85.29
785.05	93.79
785.489	99.39
785.928	101.09
786.367	103.39
786.806	104.69
787.245	111.99
787.684	123.39
788.123	123.99
788.562	116.49
789.001	117.39
789.44	109.59
789.879	110.89
790.317	99.79
790.756	115.59
791.195	109.19
791.634	124.59
792.072	164.69
792.511	307.89
792.95	839.79
793.388	1884.19
793.827	1752.69
794.265	601.59
794.704	245.49
795.142	158.29
795.581	133.69
796.019	118.29
796.458	118.89
796.896	110.39
797.334	117.89
797.773	133.99
798.211	188.49
798.649	371.19
799.087	890.79
799.526	1381.19
799.964	1754.79
800.402	1788.39
800.84	670.19
801.278	260.49
801.716	161.19
802.154	133.69
802.592	129.89
803.03	125.29
803.468	118.59
803.906	121.39
804.344	128.39
804.782	122.99
805.22	112.49
805.658	103.29
806.096	126.29
806.533	136.59
806.971	146.99
807.409	183.89
807.847	272.59
808.284	553.29
808.722	1599.39
809.16	2913.69
809.597	2700.19
810.035	4732.99
810.472	5267.59
810.91	1870.79
811.347	704.99
811.785	352.39
812.222	227.09
812.66	164.69
813.097	145.59
813.535	124.89
813.972	114.79
814.409	99.09
814.846	93.09
815.284	91.29
815.721	86.29
816.158	88.49
816.595	101.69
817.032	155.79
817.47	174.09
817.907	138.69
818.344	131.39
818.781	108.99
819.218	82.69
819.655	105.09
820.092	164.29
820.529	193.19
820.966	160.99
821.403	118.29
821.839	94.39
822.276	89.39
822.713	111.79
823.15	119.59
823.587	101.39
824.023	128.59
824.46	245.89
824.897	768.39
825.333	1220.19
825.77	510.49
826.206	204.39
826.643	122.79
827.08	88.49
827.516	77.89
827.953	60.19
828.389	74.19
828.825	63.09
829.262	57.89
829.698	59.29
830.135	52.79
830.571	51.19
831.007	55.29
831.443	56.69
831.88	50.69
832.316	55.49
832.752	47.09
833.188	55.09
833.624	55.19
834.06	60.39
834.497	61.79
834.933	59.29
835.369	65.09
835.805	58.79
836.241	72.49
836.677	73.09
837.112	69.19
837.548	94.49
837.984	114.69
838.42	169.49
838.856	423.09
839.292	1311.39
839.727	2067.69
840.163	946.59
840.599	787.19
841.034	1774.29
841.47	1923.99
841.906	689.49
842.341	296.09
842.777	199.39
843.212	275.89
843.648	278.29
844.083	134.39
844.519	81.49
844.954	62.29
845.39	53.89
845.825	51.99
846.261	52.49
846.696	44.39
847.131	45.49
847.566	48.79
848.002	48.09
848.437	52.69
848.872	51.79
849.307	55.09
849.742	74.89
850.177	146.29
850.613	475.29
851.048	788.59
851.483	341.69
851.918	136.29
852.353	72.29
852.788	52.89
853.223	54.39
853.657	47.59
854.092	44.89
854.527	41.89
854.962	35.59
855.397	39.49
855.832	39.19
856.266	36.09
856.701	35.69
857.136	29.99
857.57	34.39
858.005	41.99
858.44	46.29
858.874	41.39
859.309	47.09
859.743	28.19
860.178	39.09
860.612	39.39
861.047	46.99
861.481	59.69
861.915	65.19
862.35	45.59
862.784	27.79
863.218	33.29
863.653	28.59
864.087	43.89
864.521	44.89
864.955	60.29
865.39	138.29
865.824	155.59
866.258	103.89
866.692	145.69
867.126	162.89
867.56	98.39
867.994	42.19
868.428	32.79
868.862	38.49
869.296	47.79
869.73	49.39
870.164	50.29
870.598	41.39
871.031	26.89
871.465	29.89
871.899	24.49
872.333	24.49
872.766	19.59
873.2	21.19
873.634	25.79
874.067	24.09
874.501	27.29
874.935	25.09
875.368	29.69
875.802	25.89
876.235	24.79
876.669	22.19
877.102	20.29
877.535	23.99
877.969	18.69
878.402	21.19
878.836	22.09
879.269	22.49
879.702	17.29
880.135	16.49
880.569	20.79
881.002	28.79
881.435	13.19
881.868	14.99
882.301	23.19
882.734	10.59
883.167	15.59
883.601	13.49
884.034	20.49
884.467	5.19
884.899	18.39
885.332	10.99
885.765	12.69
886.198	14.19
886.631	13.89
887.064	19.69
887.497	17.19
887.929	28.39
888.362	6.89
888.795	11.89
889.228	12.49
889.66	17.39
890.093	13.89
890.526	18.59
890.958	14.29
891.391	14.19
891.823	22.49
892.256	12.79
892.688	10.49
893.121	11.89
893.553	14.79
893.985	11.59
894.418	16.29
894.85	19.79
895.282	11.49
895.715	14.09
896.147	20.59
896.579	16.59
897.011	10.79
897.444	19.99
897.876	8.19
898.308	13.99
898.74	14.39
899.172	14.59
899.604	21.69
900.036	17.49
900.468	13.99
900.9	11.39
901.332	13.79
901.764	9.39
902.196	15.09
902.628	12.39
903.06	17.69
903.491	18.79
903.923	19.29
904.355	19.89
904.787	21.89
905.218	16.69
905.65	16.49
906.082	6.89
906.513	15.29
906.945	13.09
907.376	10.89
907.808	16.29
908.239	16.39
908.671	16.89
909.102	13.59
909.534	21.69
909.965	36.79
910.397	79.49
910.828	271.99
911.259	431.29
911.691	190.59
912.122	96.49
912.553	41.99
912.984	30.99
913.415	24.79
913.847	21.99
914.278	17.89
914.709	14.19
915.14	21.99
915.571	16.69
916.002	11.29
916.433	14.69
916.864	18.99
917.295	9.79
917.726	21.49
918.157	16.79
918.587	20.99
919.018	23.99
919.449	18.49
919.88	19.89
920.311	25.19
920.741	43.39
921.172	148.09
921.603	139.69
922.033	59.59
922.464	40.79
922.895	20.29
923.325	17.09
923.756	13.69
924.186	18.19
924.617	24.29
925.047	39.49
925.478	46.39
925.908	37.39
926.338	22.89
926.769	17.29
927.199	18.79
927.629	9.29
928.06	13.09
928.49	20.19
928.92	15.69
929.35	12.39
929.78	9.69
930.21	5.09
930.641	7.99
931.071	3.79
931.501	0.59
931.931	7.79
932.361	5.69
932.791	4.99
933.221	10.39
933.651	-0.01
934.08	11.39
934.51	25.99
934.94	10.59
935.37	6.39
935.8	10.69
936.229	5.59
936.659	7.19
937.089	3.29
937.519	16.99
937.948	21.89
938.378	17.49
938.807	4.69
939.237	5.49
939.666	6.59
940.096	-5.81
940.525	3.19
940.955	-0.01
941.384	5.19
941.814	-2.31
942.243	2.29
942.672	2.19
943.102	5.99
943.531	-0.51
943.96	2.69
944.39	5.89
944.819	3.29
945.248	3.69
945.677	1.19
946.106	1.19
946.535	5.29
946.964	-1.81
947.393	-0.21
947.822	5.89
948.251	-2.11
948.68	8.79
949.109	7.89
949.538	8.49
949.967	-1.71
950.396	-2.01
950.825	-3.41
951.254	-1.61
951.682	-0.51
952.111	5.29
952.54	9.49
952.969	-6.21
953.397	-9.31
953.826	-1.61
954.254	0.09
954.683	1.99
955.112	-3.51
955.54	-3.31
955.969	2.99
956.397	0.19
956.826	0.09
957.254	-1.61
957.682	-6.41
958.111	6.89
958.539	-4.91
958.967	1.99
959.396	-0.21
959.824	-0.21
960.252	7.39
960.68	1.89
961.109	0.49
961.537	-0.41
961.965	-6.11
962.393	1.09
962.821	-5.01
963.249	-2.21
963.677	-1.51
964.105	6.99
964.533	38.19
964.961	47.79
965.389	13.29
965.817	0.79
966.245	1.19
966.672	-3.01
967.1	-14.91
967.528	-2.11
967.956	-0.51
968.383	-0.91
968.811	-4.81
969.239	1.59
969.666	-0.81
970.094	2.59
970.522	2.29
970.949	0.49
971.377	-4.81
971.804	-5.51
972.232	3.29
972.659	1.09
973.087	0.49
973.514	2.89
973.941	-4.81
974.369	4.19
974.796	-0.41
975.223	3.69
975.651	-1.71
976.078	7.49
976.505	-5.01
976.932	0.19
977.359	12.69
977.786	16.09
978.214	5.99
978.641	-3.81
979.068	-1.81
979.495	-1.11
979.922	-0.11
980.349	0.69
980.776	6.59
981.202	-2.31
981.629	2.89
982.056	3.49
982.483	-3.71
982.91	5.69
983.337	-4.51
983.763	-1.61
984.19	-4.01
984.617	-0.31
985.043	-6.21
985.47	1.19
985.897	-2.01
986.323	-11.21
986.75	0.49
987.176	-1.81
987.603	0.89
988.029	0.69
988.456	-3.51
988.882	3.49
989.308	-7.01
989.735	-8.01
990.161	-0.41
990.587	-5.71
991.014	-5.31
991.44	8.19
991.866	1.39
992.292	-2.21
992.719	-4.51
993.145	-2.21
993.571	-9.41
993.997	-4.81
994.423	0.09
994.849	-3.31
995.275	4.19
995.701	-1.71
996.127	-6.11
996.553	3.49
996.979	-2.11
997.405	3.79
997.83	-7.21
998.256	-4.21
998.682	-2.21
999.108	-3.91
999.534	0.89
999.959	-2.51
1000.385	0.39
1000.811	5.29
1001.236	-7.71
1001.662	-6.71
1002.087	-6.71
1002.513	-1.51
1002.938	2.59
1003.364	-4.81
1003.789	0.89
1004.215	4.39
1004.64	-4.51
1005.066	7.89
1005.491	4.89
1005.916	-3.81
1006.342	-4.21
1006.767	-3.01
1007.192	6.59
1007.617	0.59
1008.042	-2.81
1008.468	-6.81
1008.893	-6.71
1009.318	-4.41
1009.743	-4.31
1010.168	-2.01
1010.593	2.29
1011.018	-1.91
1011.443	-3.11
1011.868	5.69
1012.293	-9.91
1012.718	-3.61
1013.143	1.79
1013.567	7.99
1013.992	-5.01
1014.417	-15.91
1014.842	4.99
1015.267	-8.81
1015.691	-6.01
1016.116	1.99
1016.541	1.89
1016.965	-3.31
1017.39	-1.81
1017.814	-0.61
1018.239	-4.11
1018.663	-2.71
1019.088	-7.51
1019.512	2.59
1019.937	-4.21
1020.361	-2.91
1020.785	-7.91
1021.21	-5.71
1021.634	-1.61
1022.058	-0.41
1022.483	1.99
1022.907	-4.61
1023.331	-5.31
1023.755	1.49
1024.179	-0.91
1024.604	-5.61
1025.028	-1.31
1025.452	-2.91
1025.876	-8.91
1026.3	-3.91
1026.724	-9.81
1027.148	-6.91
1027.572	-8.11
1027.996	-1.61
1028.42	2.89
1028.843	-3.81
1029.267	-7.21
1029.691	-3.41
1030.115	-6.91
1030.539	-4.01
1030.962	-6.51
1031.386	-7.11
1031.81	1.99
1032.233	-4.31
1032.657	-1.01
1033.08	-4.31
1033.504	-1.21
1033.927	-6.81
1034.351	-3.01
1034.774	-2.21
1035.198	-5.31
1035.621	-4.51
1036.045	-6.71
1036.468	1.89
1036.891	-10.51
1037.315	-6.71
1037.738	-7.21
1038.161	1.99
1038.584	-2.81
1039.008	-6.71
1039.431	-1.31
1039.854	-5.11
1040.277	-6.81
1040.7	-8.71
1041.123	-9.21
1041.546	-10.41
1041.969	-8.11
1042.392	-0.41
1042.815	-1.11
1043.238	0.39
1043.661	-2.91
1044.084	-5.71
1044.507	-6.41
1044.93	-2.31
1045.352	-2.41
1045.775	0.89
1046.198	-4.11
1046.621	-7.31
1047.043	-0.21
1047.466	-1.51
1047.889	-1.61
1048.311	-2.61
1048.734	-4.71
1049.156	-3.01
1049.579	5.19
1050.001	0.69
1050.424	-0.21
1050.846	-1.71
1051.269	-5.71
1051.691	-7.21
1052.113	-3.31
1052.536	-6.51
1052.958	-3.81
1053.38	-2.71
1053.802	-13.31
1054.225	0.49
1054.647	-3.81
1055.069	-10.11
1055.491	-1.01
1055.913	-5.41
1056.335	-6.81
1056.757	-2.41
1057.179	-6.41
1057.601	-6.51
1058.023	-1.21
1058.445	-5.11
1058.867	-5.51
1059.289	-5.41
1059.711	-0.31
1060.133	0.09
1060.555	-3.21
1060.976	-11.41
1061.398	-5.11
1061.82	-7.31
1062.241	-3.11
1062.663	-5.61
1063.085	-6.91
1063.506	-0.51
1063.928	-4.71
1064.35	-2.01
1064.771	-14.61
1065.193	-5.81
1065.614	-11.21
1066.035	-3.61
1066.457	-8.41
1066.878	1.69
1067.3	-5.81
1067.721	-4.01
1068.142	-3.01
1068.564	-2.91
1068.985	-1.71
1069.406	-7.41
1069.827	-1.61
1070.248	1.09
1070.67	-6.41
1071.091	-5.51
1071.512	-7.51
1071.933	-0.81
1072.354	-6.21
1072.775	-10.51
1073.196	-4.61
1073.617	-0.51
1074.038	-8.71
1074.459	-4.01
1074.88	-6.51
1075.3	-0.31
1075.721	-6.11
1076.142	-0.61
1076.563	1.39
1076.983	-11.01
1077.404	-9.41
1077.825	-11.31
1078.246	-4.11
1078.666	-10.01
1079.087	-3.41
1079.507	-8.31
1079.928	0.29
1080.348	1.19
1080.769	-7.71
1081.189	3.39
1081.61	1.19
1082.03	-6.41
1082.451	-8.61
1082.871	0.19
1083.291	-9.11
1083.711	-3.41
1084.132	-8.11
1084.552	-3.71
1084.972	-1.61
1085.392	-6.61
1085.813	-11.21
1086.233	-9.61
1086.653	-4.81
1087.073	-1.61
1087.493	-4.81
1087.913	-7.81
1088.333	-5.51
1088.753	-3.81
1089.173	-1.11
1089.593	-5.61
1090.013	-0.81
1090.433	1.59
1090.852	-2.71
1091.272	0.99
1091.692	-1.41
1092.112	-0.61
1092.531	-7.11
1092.951	-9.61
1093.371	0.79
1093.79	0.39
1094.21	-6.41
1094.63	-10.91
1095.049	-8.71
1095.469	-3.31
1095.888	4.59
1096.308	-2.71
1096.727	3.39
1097.146	-5.11
1097.566	0.59
1097.985	-4.11
1098.405	-0.81
1098.824	-6.21
1099.243	-8.81
1099.662	-8.01
1100.082	-3.41
1100.501	-6.71
1100.92	-3.01
1101.339	-6.61
1101.758	-2.91
