Data from 20171114-ORNL-Ar_H_NY_Subt18_08-08-42-983.txt Node
Date: Tue Nov 14 08:08:42 EST 2017
User: Ender
Spectrometer: HR+D1039
Trigger mode: 0
Integration Time (sec): 2.730000E-2
Scans to average: 10
Electric dark correction enabled: true
Nonlinearity correction enabled: false
Boxcar width: 0
XAxis mode: Wavelengths
Number of Pixels in Spectrum: 2048
>>>>>Begin Spectral Data<<<<<
187.836	-6.74
188.309	-6.74
188.782	-6.74
189.255	2.36
189.728	-3.84
190.201	7.26
190.674	2.96
191.147	1.26
191.619	-8.34
192.092	-0.94
192.565	2.36
193.038	-2.34
193.511	-1.34
193.984	1.06
194.456	-2.44
194.929	5.56
195.402	-1.14
195.874	4.36
196.347	-0.64
196.82	-5.94
197.292	4.16
197.765	-2.74
198.237	-9.04
198.71	-2.64
199.182	-2.24
199.655	-3.54
200.127	6.86
200.6	-0.84
201.072	-9.34
201.544	-5.04
202.017	-4.54
202.489	0.36
202.961	0.06
203.433	-3.44
203.906	0.76
204.378	-5.34
204.85	-1.44
205.322	-9.44
205.794	-4.54
206.266	-1.34
206.739	-9.94
207.211	-0.44
207.683	-6.54
208.155	-2.44
208.627	-8.84
209.099	3.96
209.57	-6.44
210.042	-3.74
210.514	-2.94
210.986	2.76
211.458	-12.54
211.93	0.46
212.402	1.86
212.873	-8.94
213.345	-13.44
213.817	-10.94
214.288	-3.74
214.76	-9.44
215.232	-4.94
215.703	-3.24
216.175	-0.34
216.646	-4.44
217.118	-10.94
217.589	-3.14
218.061	-3.94
218.532	-6.44
219.004	-1.64
219.475	-6.24
219.946	-1.94
220.418	-8.94
220.889	9.86
221.36	0.66
221.832	-7.04
222.303	-4.94
222.774	5.46
223.245	-9.14
223.717	-7.54
224.188	-5.44
224.659	-8.54
225.13	-4.74
225.601	-7.44
226.072	-1.24
226.543	-0.74
227.014	4.56
227.485	-0.14
227.956	-5.14
228.427	-4.04
228.898	2.86
229.369	4.66
229.839	-7.04
230.31	-7.74
230.781	-0.24
231.252	-4.04
231.722	-3.64
232.193	-1.54
232.664	-6.14
233.135	-6.04
233.605	-1.94
234.076	-0.94
234.546	-2.44
235.017	-3.94
235.487	1.36
235.958	-6.24
236.428	-4.44
236.899	2.06
237.369	1.16
237.84	-1.34
238.31	0.66
238.78	-6.04
239.251	-8.14
239.721	-5.14
240.191	-4.54
240.662	-4.24
241.132	1.66
241.602	-5.14
242.072	0.06
242.542	6.76
243.013	-4.14
243.483	-0.54
243.953	-1.44
244.423	-2.34
244.893	-6.64
245.363	2.86
245.833	1.06
246.303	-5.54
246.773	2.36
247.243	2.06
247.712	0.26
248.182	6.46
248.652	0.66
249.122	-11.84
249.592	1.76
250.061	5.76
250.531	7.06
251.001	-4.24
251.471	10.76
251.94	6.06
252.41	0.46
252.879	-3.14
253.349	7.76
253.818	4.36
254.288	1.46
254.757	-0.14
255.227	-6.24
255.696	-1.84
256.166	-2.14
256.635	3.66
257.105	7.26
257.574	3.36
258.043	-2.64
258.513	-2.44
258.982	4.16
259.451	-6.34
259.92	4.96
260.389	-2.74
260.859	7.16
261.328	4.76
261.797	4.56
262.266	1.16
262.735	0.76
263.204	-1.94
263.673	-2.34
264.142	0.96
264.611	-5.84
265.08	-1.84
265.549	-3.54
266.018	3.46
266.487	-4.14
266.955	-9.04
267.424	-2.64
267.893	4.96
268.362	-5.44
268.83	-2.74
269.299	9.06
269.768	-1.24
270.236	-0.94
270.705	1.66
271.174	8.76
271.642	-4.04
272.111	0.96
272.579	8.16
273.048	5.86
273.516	5.16
273.985	12.66
274.453	6.76
274.922	6.46
275.39	5.46
275.858	1.66
276.327	9.26
276.795	13.56
277.263	1.36
277.731	14.76
278.2	25.66
278.668	19.26
279.136	21.56
279.604	6.86
280.072	9.46
280.54	4.66
281.008	9.16
281.477	4.46
281.945	7.96
282.413	9.86
282.881	11.46
283.348	7.76
283.816	9.66
284.284	8.16
284.752	15.96
285.22	7.66
285.688	10.06
286.156	10.06
286.623	22.06
287.091	17.76
287.559	14.76
288.026	3.86
288.494	7.96
288.962	-2.74
289.429	6.66
289.897	11.96
290.364	10.96
290.832	10.66
291.3	12.06
291.767	14.86
292.234	16.66
292.702	9.96
293.169	9.46
293.637	19.96
294.104	11.06
294.571	0.06
295.039	4.26
295.506	11.66
295.973	16.16
296.44	14.16
296.908	11.66
297.375	13.26
297.842	12.06
298.309	9.96
298.776	8.36
299.243	12.96
299.71	12.36
300.177	15.56
300.644	15.06
301.111	15.06
301.578	18.26
302.045	15.66
302.512	18.46
302.979	16.16
303.446	15.96
303.913	19.66
304.379	15.06
304.846	23.66
305.313	19.46
305.78	11.76
306.246	17.36
306.713	25.86
307.18	20.06
307.646	22.06
308.113	19.56
308.579	16.46
309.046	17.66
309.512	22.06
309.979	13.46
310.445	27.46
310.912	20.66
311.378	21.66
311.845	20.36
312.311	24.16
312.777	20.46
313.244	23.56
313.71	33.76
314.176	25.86
314.642	25.96
315.109	17.66
315.575	25.86
316.041	27.66
316.507	20.96
316.973	25.86
317.439	24.36
317.905	33.36
318.371	24.96
318.837	28.16
319.303	24.36
319.769	22.36
320.235	28.36
320.701	31.26
321.167	26.26
321.633	29.06
322.099	30.36
322.564	35.26
323.03	37.06
323.496	29.66
323.962	28.66
324.427	25.86
324.893	35.76
325.359	33.76
325.824	32.06
326.29	31.66
326.755	35.06
327.221	33.16
327.686	33.46
328.152	42.16
328.617	38.36
329.083	36.46
329.548	45.56
330.014	37.96
330.479	33.66
330.944	27.06
331.41	40.56
331.875	32.96
332.34	30.96
332.805	29.76
333.271	37.56
333.736	33.16
334.201	41.96
334.666	39.46
335.131	44.06
335.596	41.76
336.061	42.86
336.526	35.06
336.991	41.76
337.456	47.46
337.921	41.06
338.386	36.06
338.851	40.56
339.316	40.16
339.781	36.26
340.246	47.26
340.711	40.36
341.175	46.96
341.64	36.26
342.105	49.86
342.569	54.06
343.034	52.86
343.499	52.56
343.963	47.26
344.428	56.16
344.893	51.26
345.357	51.26
345.822	57.36
346.286	59.26
346.751	62.26
347.215	66.16
347.679	61.06
348.144	83.26
348.608	73.16
349.073	59.96
349.537	65.46
350.001	71.06
350.465	76.46
350.93	79.86
351.394	75.66
351.858	59.66
352.322	76.66
352.786	77.26
353.25	95.06
353.715	99.46
354.179	94.16
354.643	99.66
355.107	106.56
355.571	89.46
356.035	89.86
356.498	98.06
356.962	104.96
357.426	115.36
357.89	98.66
358.354	79.16
358.818	72.16
359.281	73.66
359.745	66.76
360.209	69.96
360.673	71.26
361.136	70.76
361.6	79.26
362.064	73.46
362.527	76.36
362.991	84.56
363.454	73.16
363.918	68.86
364.381	74.46
364.845	78.56
365.308	83.46
365.772	85.26
366.235	74.56
366.698	73.96
367.162	74.36
367.625	79.06
368.088	81.06
368.552	80.16
369.015	82.16
369.478	88.96
369.941	88.66
370.404	82.96
370.867	94.56
371.331	87.26
371.794	101.56
372.257	92.76
372.72	99.36
373.183	98.36
373.646	89.56
374.109	92.56
374.572	97.56
375.035	99.06
375.497	98.46
375.96	99.46
376.423	95.76
376.886	102.96
377.349	102.06
377.811	94.66
378.274	95.76
378.737	96.46
379.199	105.36
379.662	104.16
380.125	107.56
380.587	108.76
381.05	104.66
381.512	107.56
381.975	121.96
382.437	117.76
382.9	111.36
383.362	125.46
383.825	123.16
384.287	116.56
384.75	118.26
385.212	122.16
385.674	131.46
386.136	120.16
386.599	115.66
387.061	112.26
387.523	114.56
387.985	117.26
388.447	129.66
388.91	129.96
389.372	123.46
389.834	130.06
390.296	125.66
390.758	132.36
391.22	145.46
391.682	155.26
392.144	189.66
392.606	161.46
393.068	137.56
393.529	146.56
393.991	141.76
394.453	134.66
394.915	132.46
395.377	149.76
395.838	148.66
396.3	135.76
396.762	137.26
397.224	136.46
397.685	133.06
398.147	137.96
398.608	131.26
399.07	127.36
399.531	135.66
399.993	143.96
400.454	156.26
400.916	146.76
401.377	143.96
401.839	151.06
402.3	149.66
402.762	162.66
403.223	179.46
403.684	170.76
404.145	160.86
404.607	153.46
405.068	160.16
405.529	170.56
405.99	178.76
406.451	173.76
406.913	169.26
407.374	166.36
407.835	157.26
408.296	164.76
408.757	169.06
409.218	189.46
409.679	178.96
410.14	177.06
410.601	178.66
411.062	183.06
411.522	184.86
411.983	177.86
412.444	171.76
412.905	180.86
413.366	188.86
413.826	205.96
414.287	219.66
414.748	270.16
415.208	245.56
415.669	207.36
416.13	212.76
416.59	203.46
417.051	219.86
417.511	222.86
417.972	242.96
418.432	256.96
418.893	308.46
419.353	252.36
419.814	204.46
420.274	187.16
420.734	189.06
421.195	196.06
421.655	198.56
422.115	198.46
422.576	194.06
423.036	206.56
423.496	207.16
423.956	225.96
424.416	238.46
424.876	264.46
425.336	259.06
425.797	259.66
426.257	259.56
426.717	248.16
427.177	237.26
427.637	226.96
428.097	242.96
428.556	251.06
429.016	266.96
429.476	261.16
429.936	282.76
430.396	277.76
430.856	290.26
431.315	309.56
431.775	343.46
432.235	373.16
432.694	348.26
433.154	359.46
433.614	384.26
434.073	329.96
434.533	287.66
434.993	273.76
435.452	281.96
435.912	293.56
436.371	286.46
436.83	279.86
437.29	269.26
437.749	246.36
438.209	249.76
438.668	282.16
439.127	281.46
439.587	267.76
440.046	246.46
440.505	257.06
440.964	279.56
441.424	319.66
441.883	309.96
442.342	260.26
442.801	229.16
443.26	228.06
443.719	231.56
444.178	228.76
444.637	213.96
445.096	233.46
445.555	236.66
446.014	234.36
446.473	237.76
446.932	247.16
447.391	233.26
447.849	232.86
448.308	227.76
448.767	232.36
449.226	244.06
449.685	240.96
450.143	264.56
450.602	248.76
451.061	227.06
451.519	241.66
451.978	247.96
452.436	241.06
452.895	241.16
453.353	261.56
453.812	252.66
454.27	245.36
454.729	250.66
455.187	252.26
455.646	252.56
456.104	256.66
456.562	264.86
457.021	276.56
457.479	263.26
457.937	278.96
458.395	280.36
458.854	255.36
459.312	259.66
459.77	282.96
460.228	259.76
460.686	253.66
461.144	265.76
461.602	260.56
462.06	259.36
462.518	258.96
462.976	267.26
463.434	268.76
463.892	270.56
464.35	288.56
464.808	292.86
465.266	270.66
465.724	275.46
466.181	282.06
466.639	288.76
467.097	302.36
467.555	309.06
468.012	314.76
468.47	319.96
468.928	335.26
469.385	348.86
469.843	355.06
470.3	358.36
470.758	373.66
471.215	397.16
471.673	424.46
472.13	416.26
472.588	435.96
473.045	387.36
473.503	396.26
473.96	400.36
474.417	424.06
474.875	442.76
475.332	488.06
475.789	475.26
476.246	480.96
476.704	501.86
477.161	519.36
477.618	546.66
478.075	582.86
478.532	625.36
478.989	697.36
479.446	793.96
479.903	774.66
480.36	807.16
480.817	854.16
481.274	948.36
481.731	1032.66
482.188	1113.06
482.645	1245.06
483.102	1335.96
483.558	1460.86
484.015	1503.06
484.472	1471.86
484.929	1430.16
485.385	1384.46
485.842	1353.76
486.299	1288.66
486.755	1265.96
487.212	1074.66
487.668	912.16
488.125	853.76
488.582	784.86
489.038	753.86
489.494	723.66
489.951	698.26
490.407	676.76
490.864	645.36
491.32	650.76
491.776	652.36
492.233	665.16
492.689	629.36
493.145	625.46
493.602	612.56
494.058	628.36
494.514	631.66
494.97	660.56
495.426	657.46
495.882	638.76
496.338	620.86
496.794	636.16
497.251	622.96
497.707	646.66
498.163	642.46
498.618	661.06
499.074	653.66
499.53	692.56
499.986	696.36
500.442	669.76
500.898	645.26
501.354	645.46
501.809	644.66
502.265	647.06
502.721	668.56
503.177	666.36
503.632	662.06
504.088	674.96
504.543	702.56
504.999	713.56
505.455	677.16
505.91	658.76
506.366	662.26
506.821	652.46
507.277	647.76
507.732	661.66
508.187	652.66
508.643	658.26
509.098	654.96
509.553	686.86
510.009	696.26
510.464	692.76
510.919	711.06
511.375	728.46
511.83	731.06
512.285	743.76
512.74	778.16
513.195	802.06
513.65	799.96
514.105	789.76
514.56	791.46
515.015	810.16
515.47	830.16
515.925	796.56
516.38	800.16
516.835	806.86
517.29	795.76
517.745	795.96
518.2	788.96
518.655	768.56
519.109	760.16
519.564	759.16
520.019	752.76
520.474	749.46
520.928	747.56
521.383	734.36
521.838	733.66
522.292	733.66
522.747	739.46
523.201	732.36
523.656	722.96
524.11	729.66
524.565	720.26
525.019	721.16
525.474	722.86
525.928	730.56
526.382	724.46
526.837	725.96
527.291	728.16
527.745	725.36
528.2	716.76
528.654	716.96
529.108	709.66
529.562	715.36
530.016	713.76
530.47	718.16
530.925	712.66
531.379	720.16
531.833	722.56
532.287	718.06
532.741	717.56
533.195	719.06
533.649	738.66
534.103	736.06
534.556	732.66
535.01	730.26
535.464	724.96
535.918	743.06
536.372	734.26
536.826	748.16
537.279	730.76
537.733	741.66
538.187	743.26
538.64	741.76
539.094	738.46
539.548	759.06
540.001	750.76
540.455	751.96
540.908	764.46
541.362	762.96
541.815	774.36
542.269	781.66
542.722	777.86
543.175	799.76
543.629	803.86
544.082	826.96
544.536	808.86
544.989	815.36
545.442	819.56
545.895	826.66
546.349	822.16
546.802	826.76
547.255	839.56
547.708	840.96
548.161	846.46
548.614	861.46
549.067	869.56
549.52	848.66
549.973	846.86
550.426	839.26
550.879	833.26
551.332	827.66
551.785	836.66
552.238	848.46
552.691	850.56
553.144	866.46
553.596	876.66
554.049	906.66
554.502	930.36
554.955	953.26
555.407	944.86
555.86	935.36
556.313	926.06
556.765	907.66
557.218	911.46
557.67	913.36
558.123	907.36
558.576	902.46
559.028	903.06
559.48	931.96
559.933	915.56
560.385	872.76
560.838	845.26
561.29	827.96
561.742	817.36
562.195	810.56
562.647	806.66
563.099	806.76
563.551	807.86
564.004	813.46
564.456	809.36
564.908	793.56
565.36	774.06
565.812	760.36
566.264	757.06
566.716	753.36
567.168	728.46
567.62	737.26
568.072	723.86
568.524	725.36
568.976	719.16
569.428	703.66
569.88	705.36
570.332	721.26
570.784	711.86
571.235	728.06
571.687	728.56
572.139	734.46
572.59	742.26
573.042	747.66
573.494	742.36
573.945	733.26
574.397	713.16
574.849	707.06
575.3	713.36
575.752	716.66
576.203	715.86
576.655	716.46
577.106	696.06
577.557	693.66
578.009	697.86
578.46	700.46
578.912	696.16
579.363	692.86
579.814	701.36
580.265	695.56
580.717	690.56
581.168	695.16
581.619	709.56
582.07	713.36
582.521	697.36
582.972	703.26
583.423	710.16
583.875	706.96
584.326	711.46
584.777	746.76
585.227	766.46
585.678	800.36
586.129	835.96
586.58	870.16
587.031	903.96
587.482	963.46
587.933	1030.26
588.384	968.26
588.834	865.86
589.285	811.86
589.736	803.36
590.186	797.16
590.637	798.36
591.088	772.86
591.538	768.86
591.989	764.76
592.439	757.56
592.89	745.96
593.34	750.26
593.791	727.46
594.241	728.16
594.692	733.66
595.142	730.06
595.593	723.86
596.043	727.16
596.493	748.56
596.943	734.96
597.394	760.66
597.844	745.46
598.294	758.96
598.744	788.66
599.195	822.96
599.645	864.26
600.095	907.76
600.545	957.86
600.995	1017.76
601.445	1066.76
601.895	1152.06
602.345	1182.16
602.795	1162.56
603.245	1107.16
603.695	1049.76
604.145	1005.96
604.594	954.36
605.044	892.76
605.494	846.06
605.944	793.26
606.393	780.26
606.843	758.96
607.293	765.46
607.743	753.96
608.192	775.16
608.642	786.66
609.091	792.76
609.541	791.76
609.99	797.06
610.44	798.16
610.889	751.66
611.339	736.96
611.788	715.06
612.238	721.56
612.687	741.66
613.136	729.76
613.586	742.76
614.035	743.56
614.484	753.26
614.933	745.96
615.383	744.56
615.832	741.36
616.281	730.16
616.73	693.96
617.179	677.86
617.628	671.06
618.077	658.86
618.526	653.16
618.975	652.26
619.424	643.16
619.873	649.06
620.322	649.76
620.771	636.56
621.22	631.36
621.669	616.86
622.118	609.36
622.567	609.66
623.015	588.76
623.464	590.76
623.913	580.56
624.361	573.96
624.81	587.06
625.259	581.26
625.707	575.76
626.156	583.86
626.604	587.36
627.053	590.36
627.501	595.36
627.95	598.66
628.398	604.46
628.847	605.16
629.295	595.86
629.744	599.76
630.192	592.16
630.64	593.66
631.089	574.06
631.537	576.56
631.985	562.06
632.433	575.86
632.881	565.96
633.33	594.86
633.778	576.96
634.226	554.16
634.674	570.56
635.122	575.16
635.57	589.56
636.018	595.66
636.466	599.86
636.914	588.86
637.362	604.06
637.81	605.26
638.258	602.56
638.705	612.56
639.153	639.66
639.601	650.16
640.049	673.76
640.497	704.16
640.944	719.76
641.392	666.86
641.84	638.26
642.287	605.86
642.735	595.36
643.182	595.56
643.63	595.26
644.078	596.26
644.525	613.56
644.973	614.26
645.42	620.16
645.867	648.16
646.315	672.66
646.762	691.36
647.21	700.26
647.657	735.86
648.104	776.36
648.551	789.76
648.999	859.46
649.446	930.46
649.893	1013.06
650.34	1156.16
650.787	1385.06
651.234	1721.06
651.682	2220.36
652.129	3025.66
652.576	4281.56
653.023	6278.56
653.47	8472.66
653.917	10476.66
654.363	11983.66
654.81	13128.56
655.257	12480.76
655.704	8229.86
656.151	4958.16
656.598	3271.96
657.044	2335.86
657.491	1816.76
657.938	1472.06
658.385	1226.06
658.831	1075.36
659.278	965.36
659.724	860.76
660.171	808.56
660.618	742.56
661.064	704.36
661.511	684.96
661.957	669.36
662.404	664.66
662.85	676.86
663.296	641.96
663.743	583.66
664.189	562.36
664.635	542.96
665.082	544.36
665.528	558.36
665.974	542.96
666.42	533.56
666.867	523.86
667.313	509.26
667.759	498.66
668.205	470.76
668.651	479.16
669.097	476.66
669.543	467.06
669.989	468.76
670.435	467.06
670.881	474.96
671.327	468.66
671.773	494.46
672.219	522.26
672.665	579.06
673.11	621.96
673.556	647.56
674.002	707.46
674.448	693.76
674.893	580.96
675.339	501.46
675.785	464.06
676.23	444.56
676.676	425.16
677.122	408.46
677.567	396.86
678.013	382.36
678.458	380.06
678.904	376.66
679.349	367.86
679.794	377.16
680.24	370.66
680.685	369.66
681.131	371.76
681.576	371.46
682.021	376.96
682.466	377.46
682.912	359.26
683.357	377.56
683.802	411.46
684.247	438.66
684.692	493.26
685.137	524.96
685.583	566.36
686.028	585.76
686.473	545.56
686.918	466.16
687.363	442.16
687.807	420.66
688.252	391.46
688.697	375.76
689.142	362.06
689.587	348.76
690.032	357.16
690.477	357.46
690.921	371.86
691.366	398.16
691.811	422.76
692.255	459.76
692.7	489.46
693.145	538.16
693.589	761.56
694.034	1229.86
694.478	1658.26
694.923	1830.96
695.367	2371.16
695.812	1277.46
696.256	537.86
696.701	397.46
697.145	360.26
697.59	345.26
698.034	337.36
698.478	338.76
698.922	341.66
699.367	345.56
699.811	357.26
700.255	375.76
700.699	413.66
701.143	441.66
701.588	509.96
702.032	542.56
702.476	539.16
702.92	522.36
703.364	534.96
703.808	699.96
704.252	1137.76
704.696	1552.86
705.14	1757.26
705.584	2231.56
706.027	1124.76
706.471	558.26
706.915	433.36
707.359	380.36
707.803	340.16
708.246	329.46
708.69	329.56
709.134	334.36
709.577	327.56
710.021	334.56
710.465	319.46
710.908	320.06
711.352	316.66
711.795	330.66
712.239	373.86
712.682	423.56
713.126	433.06
713.569	480.36
714.012	383.16
714.456	324.46
714.899	304.46
715.342	286.16
715.786	277.76
716.229	275.76
716.672	273.46
717.115	252.46
717.558	267.06
718.002	268.06
718.445	274.06
718.888	306.46
719.331	306.26
719.774	321.26
720.217	319.76
720.66	295.16
721.103	277.96
721.546	271.06
721.989	265.36
722.432	244.16
722.874	248.86
723.317	246.16
723.76	252.56
724.203	278.66
724.645	345.06
725.088	477.36
725.531	602.46
725.974	675.26
726.416	581.16
726.859	326.56
727.301	262.96
727.744	258.26
728.187	254.56
728.629	258.76
729.071	261.86
729.514	276.76
729.956	293.66
730.399	297.06
730.841	301.96
731.283	295.16
731.726	284.06
732.168	277.16
732.61	281.46
733.053	306.46
733.495	338.36
733.937	382.06
734.379	430.06
734.821	466.76
735.263	586.36
735.705	933.06
736.148	1759.16
736.59	2786.06
737.032	3212.96
737.474	2626.56
737.916	869.86
738.357	459.16
738.799	343.66
739.241	314.06
739.683	299.36
740.125	317.66
740.567	323.26
741.008	331.36
741.45	332.06
741.892	340.46
742.334	373.56
742.775	383.36
743.217	350.76
743.658	284.66
744.1	269.36
744.542	287.96
744.983	339.76
745.425	367.76
745.866	373.56
746.307	304.56
746.749	304.36
747.19	346.96
747.632	499.26
748.073	984.26
748.514	2059.86
748.956	3057.46
749.397	3865.66
749.838	3181.26
750.279	3101.46
750.72	1597.16
751.162	590.56
751.603	354.36
752.044	282.96
752.485	230.76
752.926	221.56
753.367	211.76
753.808	212.46
754.249	209.26
754.69	202.16
755.131	197.76
755.572	196.16
756.013	190.66
756.453	194.76
756.894	196.66
757.335	201.06
757.776	210.16
758.216	204.56
758.657	208.06
759.098	210.56
759.538	240.96
759.979	284.76
760.42	407.26
760.86	798.06
761.301	2063.36
761.741	4854.06
762.182	6722.36
762.622	4763.16
763.063	1403.16
763.503	577.76
763.943	350.26
764.384	307.46
764.824	300.66
765.264	302.46
765.705	247.66
766.145	201.96
766.585	196.96
767.025	182.66
767.465	190.26
767.906	210.26
768.346	237.96
768.786	254.06
769.226	241.56
769.666	342.36
770.106	691.66
770.546	1726.36
770.986	2798.46
771.426	2486.56
771.866	840.76
772.306	344.56
772.745	216.46
773.185	180.86
773.625	171.66
774.065	157.76
774.505	180.46
774.944	238.76
775.384	449.46
775.824	735.66
776.263	704.86
776.703	332.56
777.142	181.16
777.582	145.76
778.021	136.36
778.461	138.16
778.9	136.46
779.34	130.86
779.779	116.76
780.219	112.36
780.658	114.26
781.097	113.36
781.537	118.26
781.976	113.66
782.415	116.56
782.855	114.96
783.294	109.86
783.733	108.26
784.172	112.06
784.611	108.16
785.05	115.26
785.489	120.06
785.928	123.96
786.367	126.06
786.806	131.06
787.245	136.66
787.684	140.06
788.123	157.06
788.562	145.26
789.001	133.66
789.44	120.46
789.879	124.76
790.317	121.76
790.756	134.76
791.195	133.06
791.634	156.16
792.072	217.86
792.511	399.56
792.95	1119.96
793.388	2246.96
793.827	1996.56
794.265	710.86
794.704	304.16
795.142	195.66
795.581	153.26
796.019	140.46
796.458	134.96
796.896	129.96
797.334	138.26
797.773	165.96
798.211	244.06
798.649	486.66
799.087	1116.16
799.526	1735.26
799.964	2178.36
800.402	2097.86
800.84	803.06
801.278	324.26
801.716	203.46
802.154	161.76
802.592	154.86
803.03	147.26
803.468	143.06
803.906	155.06
804.344	154.86
804.782	149.16
805.22	143.56
805.658	139.76
806.096	160.16
806.533	170.06
806.971	190.46
807.409	230.36
807.847	351.16
808.284	740.76
808.722	2071.76
809.16	3512.86
809.597	3443.76
810.035	5840.66
810.472	6024.16
810.91	2209.86
811.347	859.46
811.785	438.96
812.222	279.96
812.66	204.26
813.097	173.46
813.535	151.96
813.972	135.06
814.409	128.96
814.846	115.56
815.284	117.56
815.721	107.06
816.158	110.76
816.595	120.76
817.032	170.36
817.47	190.16
817.907	139.26
818.344	117.16
818.781	111.56
819.218	101.36
819.655	132.86
820.092	197.16
820.529	221.86
820.966	185.36
821.403	132.46
821.839	111.96
822.276	102.66
822.713	128.76
823.15	146.16
823.587	124.76
824.023	160.06
824.46	341.16
824.897	970.46
825.333	1426.06
825.77	619.26
826.206	249.16
826.643	149.66
827.08	106.86
827.516	91.76
827.953	84.06
828.389	80.76
828.825	74.26
829.262	72.26
829.698	70.86
830.135	73.86
830.571	63.66
831.007	69.26
831.443	68.16
831.88	56.46
832.316	67.36
832.752	69.86
833.188	67.86
833.624	67.06
834.06	74.76
834.497	81.06
834.933	69.66
835.369	78.36
835.805	73.76
836.241	76.06
836.677	83.06
837.112	91.26
837.548	110.56
837.984	146.96
838.42	214.86
838.856	557.96
839.292	1651.16
839.727	2431.26
840.163	1147.96
840.599	1014.66
841.034	2192.46
841.47	2210.76
841.906	820.46
842.341	355.46
842.777	214.36
843.212	234.16
843.648	218.66
844.083	119.96
844.519	89.06
844.954	81.76
845.39	63.76
845.825	54.16
846.261	66.06
846.696	57.46
847.131	55.46
847.566	61.86
848.002	49.46
848.437	57.26
848.872	67.06
849.307	63.56
849.742	94.36
850.177	204.86
850.613	608.26
851.048	921.56
851.483	399.96
851.918	164.76
852.353	91.36
852.788	53.46
853.223	48.66
853.657	55.86
854.092	46.36
854.527	48.56
854.962	45.96
855.397	46.96
855.832	52.46
856.266	47.06
856.701	46.66
857.136	35.56
857.57	44.56
858.005	55.06
858.44	57.36
858.874	42.96
859.309	53.46
859.743	41.46
860.178	51.56
860.612	46.66
861.047	56.56
861.481	70.86
861.915	72.66
862.35	57.46
862.784	39.46
863.218	39.06
863.653	33.56
864.087	49.96
864.521	55.06
864.955	78.56
865.39	161.56
865.824	187.76
866.258	120.66
866.692	183.86
867.126	191.16
867.56	110.26
867.994	53.56
868.428	41.06
868.862	48.56
869.296	59.96
869.73	61.76
870.164	59.66
870.598	51.06
871.031	42.46
871.465	35.96
871.899	38.06
872.333	28.06
872.766	24.96
873.2	21.96
873.634	23.76
874.067	27.76
874.501	30.26
874.935	38.56
875.368	31.16
875.802	29.56
876.235	27.66
876.669	24.36
877.102	31.06
877.535	29.66
877.969	26.36
878.402	28.36
878.836	19.56
879.269	21.56
879.702	26.26
880.135	21.66
880.569	28.96
881.002	25.56
881.435	23.16
881.868	16.46
882.301	23.06
882.734	16.56
883.167	23.76
883.601	22.66
884.034	19.36
884.467	17.86
884.899	24.96
885.332	13.86
885.765	14.86
886.198	16.66
886.631	22.36
887.064	24.16
887.497	20.36
887.929	24.76
888.362	13.06
888.795	10.36
889.228	16.16
889.66	20.96
890.093	19.66
890.526	15.76
890.958	16.16
891.391	16.66
891.823	23.06
892.256	19.96
892.688	11.26
893.121	14.86
893.553	11.96
893.985	25.16
894.418	18.06
894.85	14.56
895.282	16.16
895.715	19.96
896.147	20.56
896.579	20.66
897.011	17.06
897.444	23.56
897.876	17.36
898.308	20.36
898.74	18.56
899.172	13.86
899.604	21.56
900.036	22.56
900.468	14.46
900.9	15.06
901.332	21.36
901.764	12.16
902.196	16.56
902.628	15.46
903.06	17.46
903.491	34.46
903.923	25.36
904.355	19.06
904.787	24.96
905.218	23.36
905.65	17.06
906.082	11.86
906.513	9.86
906.945	14.26
907.376	16.36
907.808	22.96
908.239	14.86
908.671	18.76
909.102	20.06
909.534	28.46
909.965	54.16
910.397	95.66
910.828	342.06
911.259	485.46
911.691	225.36
912.122	111.86
912.553	51.86
912.984	36.96
913.415	26.56
913.847	26.86
914.278	20.76
914.709	13.66
915.14	20.96
915.571	14.16
916.002	14.36
916.433	22.66
916.864	20.16
917.295	13.56
917.726	16.96
918.157	18.66
918.587	25.06
919.018	19.16
919.449	18.16
919.88	29.16
920.311	33.36
920.741	50.76
921.172	177.16
921.603	152.46
922.033	78.66
922.464	46.66
922.895	24.16
923.325	20.26
923.756	18.26
924.186	18.26
924.617	23.56
925.047	28.66
925.478	34.06
925.908	21.86
926.338	15.46
926.769	10.36
927.199	17.36
927.629	13.36
928.06	18.76
928.49	19.06
928.92	15.26
929.35	12.86
929.78	13.16
930.21	6.36
930.641	10.36
931.071	9.56
931.501	5.96
931.931	15.06
932.361	6.56
932.791	6.06
933.221	6.26
933.651	1.66
934.08	16.96
934.51	36.56
934.94	8.76
935.37	10.26
935.8	17.36
936.229	5.86
936.659	13.06
937.089	6.56
937.519	14.96
937.948	19.76
938.378	15.16
938.807	1.46
939.237	8.56
939.666	7.36
940.096	-8.74
940.525	4.46
940.955	1.46
941.384	2.96
941.814	-6.04
942.243	-0.94
942.672	6.56
943.102	-1.44
943.531	2.46
943.96	2.36
944.39	4.86
944.819	-0.14
945.248	3.26
945.677	4.46
946.106	-1.24
946.535	2.76
946.964	3.16
947.393	6.46
947.822	4.36
948.251	-8.24
948.68	2.36
949.109	2.66
949.538	11.96
949.967	-3.24
950.396	1.56
950.825	-1.14
951.254	-2.34
951.682	-7.04
952.111	1.96
952.54	8.26
952.969	2.56
953.397	-6.94
953.826	2.06
954.254	-10.34
954.683	1.76
955.112	-3.14
955.54	3.96
955.969	-1.94
956.397	6.46
956.826	0.36
957.254	6.16
957.682	2.56
958.111	5.56
958.539	-3.84
958.967	6.66
959.396	-3.14
959.824	6.26
960.252	0.56
960.68	-3.94
961.109	-0.24
961.537	-7.54
961.965	2.66
962.393	3.26
962.821	-2.34
963.249	6.06
963.677	6.56
964.105	7.16
964.533	47.56
964.961	39.16
965.389	23.66
965.817	6.66
966.245	3.16
966.672	0.36
967.1	-3.74
967.528	0.36
967.956	3.86
968.383	5.46
968.811	-5.24
969.239	-0.74
969.666	-9.94
970.094	0.26
970.522	-1.74
970.949	-4.44
971.377	-1.04
971.804	-2.94
972.232	-2.14
972.659	-3.24
973.087	-3.44
973.514	-4.24
973.941	-2.74
974.369	3.86
974.796	1.86
975.223	-1.34
975.651	1.16
976.078	4.26
976.505	-4.04
976.932	3.36
977.359	11.26
977.786	17.76
978.214	0.16
978.641	-2.54
979.068	-0.74
979.495	-7.14
979.922	-4.44
980.349	-1.64
980.776	2.26
981.202	-3.04
981.629	3.36
982.056	0.66
982.483	2.16
982.91	-0.64
983.337	-2.74
983.763	2.06
984.19	-3.64
984.617	-2.04
985.043	-2.44
985.47	-4.04
985.897	-1.94
986.323	-12.24
986.75	3.66
987.176	-2.24
987.603	-1.44
988.029	3.56
988.456	-4.84
988.882	-2.04
989.308	-2.04
989.735	-4.44
990.161	-2.44
990.587	-6.84
991.014	-0.14
991.44	6.76
991.866	-5.24
992.292	-9.94
992.719	-1.74
993.145	7.26
993.571	-4.24
993.997	-5.94
994.423	3.76
994.849	-9.94
995.275	2.86
995.701	-3.64
996.127	-0.84
996.553	-0.54
996.979	-4.54
997.405	-1.14
997.83	-2.44
998.256	-3.24
998.682	-4.54
999.108	-16.04
999.534	-2.84
999.959	-1.04
1000.385	-10.54
1000.811	-3.04
1001.236	-12.54
1001.662	-9.84
1002.087	-1.34
1002.513	-3.84
1002.938	1.76
1003.364	-1.54
1003.789	6.06
1004.215	0.66
1004.64	-1.94
1005.066	7.16
1005.491	0.56
1005.916	-1.04
1006.342	-4.84
1006.767	-10.04
1007.192	10.26
1007.617	-6.34
1008.042	-5.74
1008.468	-5.54
1008.893	-4.54
1009.318	-4.14
1009.743	-0.84
1010.168	0.86
1010.593	-1.44
1011.018	-8.04
1011.443	2.66
1011.868	-5.04
1012.293	-4.74
1012.718	-9.94
1013.143	-3.44
1013.567	3.46
1013.992	-1.64
1014.417	-18.74
1014.842	6.86
1015.267	-2.64
1015.691	-2.54
1016.116	3.06
1016.541	-5.14
1016.965	4.26
1017.39	0.36
1017.814	-3.74
1018.239	-2.04
1018.663	-6.64
1019.088	-6.24
1019.512	1.56
1019.937	1.76
1020.361	-7.84
1020.785	-10.74
1021.21	-7.14
1021.634	-0.14
1022.058	-0.84
1022.483	2.66
1022.907	4.26
1023.331	-3.74
1023.755	-1.34
1024.179	-9.24
1024.604	-11.94
1025.028	-4.44
1025.452	-2.54
1025.876	-0.44
1026.3	2.36
1026.724	-11.94
1027.148	-9.54
1027.572	-10.24
1027.996	-3.24
1028.42	-4.64
1028.843	0.16
1029.267	-11.14
1029.691	-3.64
1030.115	-7.54
1030.539	-6.64
1030.962	-9.54
1031.386	-9.64
1031.81	-1.24
1032.233	0.26
1032.657	0.16
1033.08	-1.04
1033.504	-3.44
1033.927	-6.04
1034.351	-4.14
1034.774	-8.54
1035.198	1.06
1035.621	-8.64
1036.045	-10.14
1036.468	-0.94
1036.891	-12.24
1037.315	-10.64
1037.738	-8.44
1038.161	2.06
1038.584	-8.24
1039.008	-6.64
1039.431	-7.74
1039.854	-0.44
1040.277	-5.84
1040.7	-7.74
1041.123	-4.34
1041.546	-6.94
1041.969	-2.64
1042.392	-3.94
1042.815	0.46
1043.238	-1.74
1043.661	-2.74
1044.084	-3.64
1044.507	-11.64
1044.93	-5.74
1045.352	-6.34
1045.775	-6.54
1046.198	-2.64
1046.621	-1.24
1047.043	1.06
1047.466	10.86
1047.889	1.16
1048.311	-4.54
1048.734	-9.74
1049.156	-8.34
1049.579	-0.74
1050.001	-1.14
1050.424	1.36
1050.846	-11.24
1051.269	-3.94
1051.691	-7.24
1052.113	-8.44
1052.536	-1.34
1052.958	-6.74
1053.38	-2.54
1053.802	-14.04
1054.225	2.76
1054.647	-12.14
1055.069	-2.94
1055.491	5.56
1055.913	-9.54
1056.335	0.86
1056.757	-0.64
1057.179	-11.64
1057.601	-0.44
1058.023	-1.14
1058.445	-4.44
1058.867	-1.54
1059.289	-5.54
1059.711	-4.44
1060.133	-0.24
1060.555	-6.94
1060.976	-8.04
1061.398	-4.64
1061.82	-8.34
1062.241	-3.24
1062.663	-6.94
1063.085	1.06
1063.506	-0.14
1063.928	-9.04
1064.35	0.56
1064.771	-11.74
1065.193	-5.44
1065.614	-7.94
1066.035	-4.74
1066.457	-5.24
1066.878	-1.34
1067.3	-0.64
1067.721	0.86
1068.142	-6.84
1068.564	-2.84
1068.985	-4.24
1069.406	-7.14
1069.827	-4.44
1070.248	1.86
1070.67	-10.34
1071.091	-3.44
1071.512	-9.64
1071.933	-6.44
1072.354	-9.64
1072.775	-3.04
1073.196	-3.14
1073.617	-9.24
1074.038	-8.44
1074.459	-3.04
1074.88	-8.74
1075.3	-1.34
1075.721	-7.54
1076.142	-0.94
1076.563	2.36
1076.983	-8.14
1077.404	-6.74
1077.825	-9.24
1078.246	-12.34
1078.666	-8.24
1079.087	-6.84
1079.507	-12.14
1079.928	-1.24
1080.348	-2.94
1080.769	-8.84
1081.189	-1.14
1081.61	-5.14
1082.03	-3.54
1082.451	-5.44
1082.871	-6.94
1083.291	-7.64
1083.711	-10.44
1084.132	-6.04
1084.552	-10.14
1084.972	-8.14
1085.392	-14.94
1085.813	-10.24
1086.233	-5.74
1086.653	-7.54
1087.073	-1.54
1087.493	-3.74
1087.913	-6.74
1088.333	-5.34
1088.753	-1.94
1089.173	-2.34
1089.593	-7.34
1090.013	5.46
1090.433	0.56
1090.852	-1.44
1091.272	-0.54
1091.692	-4.74
1092.112	-7.44
1092.531	-13.74
1092.951	-10.74
1093.371	1.86
1093.79	0.76
1094.21	-9.34
1094.63	-6.24
1095.049	-9.64
1095.469	-3.84
1095.888	-2.34
1096.308	3.26
1096.727	-3.14
1097.146	-7.94
1097.566	-0.84
1097.985	-9.14
1098.405	-5.54
1098.824	-9.04
1099.243	-5.34
1099.662	-4.74
1100.082	-4.44
1100.501	-0.74
1100.92	-10.24
1101.339	-5.14
1101.758	-7.24
