Data from 20171114-ORNL-Ar_H_NY_Subt18_08-05-29-414.txt Node
Date: Tue Nov 14 08:05:29 EST 2017
User: Ender
Spectrometer: HR+D1039
Trigger mode: 0
Integration Time (sec): 2.730000E-2
Scans to average: 10
Electric dark correction enabled: true
Nonlinearity correction enabled: false
Boxcar width: 0
XAxis mode: Wavelengths
Number of Pixels in Spectrum: 2048
>>>>>Begin Spectral Data<<<<<
187.836	-2.71
188.309	-2.71
188.782	-2.71
189.255	2.79
189.728	-1.21
190.201	4.49
190.674	1.09
191.147	4.09
191.619	-4.81
192.092	-2.01
192.565	-1.31
193.038	8.09
193.511	1.59
193.984	-1.91
194.456	-2.61
194.929	-0.41
195.402	-7.21
195.874	2.09
196.347	-0.11
196.82	-8.51
197.292	3.29
197.765	-2.21
198.237	-7.51
198.71	0.39
199.182	-7.01
199.655	-1.11
200.127	-3.61
200.6	-5.41
201.072	-2.11
201.544	-2.31
202.017	0.59
202.489	3.39
202.961	-5.71
203.433	-8.71
203.906	-10.61
204.378	-8.51
204.85	-9.41
205.322	-10.71
205.794	-5.21
206.266	-0.61
206.739	-7.21
207.211	3.49
207.683	-9.01
208.155	-12.91
208.627	-7.81
209.099	0.89
209.57	-8.81
210.042	-9.11
210.514	-4.31
210.986	-3.21
211.458	-4.71
211.93	-5.71
212.402	1.79
212.873	-4.81
213.345	-14.01
213.817	-15.01
214.288	-2.71
214.76	-11.71
215.232	-1.01
215.703	1.09
216.175	-3.51
216.646	-11.51
217.118	-8.01
217.589	0.09
218.061	-7.11
218.532	-1.81
219.004	-3.31
219.475	-4.61
219.946	-7.91
220.418	-1.51
220.889	-0.11
221.36	0.79
221.832	-10.91
222.303	-13.81
222.774	4.79
223.245	-6.01
223.717	-7.21
224.188	-8.31
224.659	-14.71
225.13	-8.11
225.601	-6.11
226.072	-4.31
226.543	1.29
227.014	-2.61
227.485	-7.41
227.956	-5.91
228.427	-8.11
228.898	-0.71
229.369	4.19
229.839	-2.41
230.31	-10.81
230.781	-0.01
231.252	-1.71
231.722	-6.91
232.193	-5.41
232.664	-0.51
233.135	-0.81
233.605	-1.51
234.076	-3.21
234.546	-2.21
235.017	1.59
235.487	-1.11
235.958	-3.21
236.428	-2.41
236.899	-0.31
237.369	1.49
237.84	-4.61
238.31	3.99
238.78	0.09
239.251	-3.81
239.721	1.69
240.191	-3.91
240.662	-2.11
241.132	1.69
241.602	3.29
242.072	-1.31
242.542	6.69
243.013	1.89
243.483	0.99
243.953	-0.41
244.423	-4.41
244.893	0.59
245.363	7.39
245.833	-2.51
246.303	-1.21
246.773	11.99
247.243	0.29
247.712	4.99
248.182	5.09
248.652	5.59
249.122	-3.01
249.592	10.79
250.061	15.79
250.531	38.19
251.001	18.19
251.471	22.69
251.94	18.39
252.41	3.89
252.879	6.39
253.349	8.99
253.818	11.19
254.288	3.79
254.757	2.49
255.227	-0.41
255.696	4.69
256.166	5.29
256.635	4.29
257.105	4.29
257.574	-0.11
258.043	7.49
258.513	9.49
258.982	10.69
259.451	10.59
259.92	8.69
260.389	9.29
260.859	14.29
261.328	9.29
261.797	15.79
262.266	3.79
262.735	13.19
263.204	0.49
263.673	6.09
264.142	2.69
264.611	-5.01
265.08	1.19
265.549	-2.01
266.018	11.59
266.487	-2.31
266.955	-1.51
267.424	-3.81
267.893	9.19
268.362	4.49
268.83	4.89
269.299	9.79
269.768	3.19
270.236	2.89
270.705	8.09
271.174	8.39
271.642	-0.31
272.111	6.49
272.579	17.09
273.048	21.79
273.516	27.59
273.985	26.19
274.453	25.79
274.922	18.29
275.39	13.09
275.858	5.29
276.327	15.89
276.795	19.19
277.263	18.09
277.731	29.79
278.2	52.29
278.668	57.79
279.136	47.39
279.604	19.29
280.072	12.49
280.54	10.59
281.008	11.39
281.477	14.69
281.945	14.89
282.413	17.89
282.881	16.69
283.348	12.79
283.816	14.49
284.284	19.79
284.752	17.79
285.22	15.99
285.688	21.59
286.156	17.39
286.623	43.89
287.091	55.49
287.559	29.49
288.026	16.89
288.494	18.29
288.962	3.79
289.429	4.49
289.897	23.59
290.364	19.89
290.832	21.69
291.3	13.39
291.767	16.19
292.234	20.29
292.702	15.89
293.169	19.79
293.637	23.79
294.104	15.89
294.571	6.99
295.039	15.59
295.506	14.29
295.973	15.39
296.44	19.59
296.908	25.19
297.375	20.39
297.842	21.89
298.309	13.79
298.776	19.89
299.243	25.79
299.71	12.59
300.177	17.09
300.644	21.49
301.111	22.49
301.578	30.59
302.045	16.69
302.512	28.89
302.979	26.99
303.446	24.49
303.913	17.69
304.379	21.29
304.846	30.49
305.313	20.19
305.78	23.59
306.246	28.09
306.713	27.39
307.18	28.99
307.646	27.19
308.113	24.29
308.579	22.69
309.046	28.39
309.512	27.09
309.979	21.89
310.445	25.79
310.912	26.99
311.378	31.39
311.845	31.59
312.311	33.69
312.777	35.29
313.244	32.29
313.71	35.09
314.176	38.39
314.642	33.39
315.109	35.69
315.575	34.19
316.041	36.79
316.507	33.19
316.973	42.39
317.439	33.69
317.905	34.29
318.371	38.49
318.837	30.59
319.303	41.09
319.769	33.49
320.235	33.79
320.701	38.09
321.167	36.59
321.633	37.99
322.099	37.59
322.564	45.79
323.03	45.29
323.496	38.89
323.962	44.99
324.427	39.99
324.893	39.09
325.359	34.89
325.824	37.49
326.29	33.39
326.755	40.09
327.221	41.09
327.686	43.99
328.152	42.59
328.617	43.19
329.083	46.79
329.548	54.59
330.014	45.09
330.479	46.59
330.944	47.29
331.41	44.79
331.875	43.29
332.34	44.59
332.805	42.19
333.271	48.99
333.736	52.19
334.201	57.29
334.666	51.19
335.131	49.69
335.596	50.09
336.061	44.79
336.526	47.19
336.991	50.69
337.456	61.99
337.921	48.59
338.386	46.29
338.851	49.09
339.316	47.49
339.781	46.89
340.246	50.09
340.711	41.19
341.175	51.89
341.64	42.79
342.105	50.69
342.569	56.79
343.034	58.49
343.499	61.79
343.963	56.39
344.428	68.99
344.893	64.29
345.357	61.09
345.822	62.99
346.286	71.79
346.751	77.29
347.215	72.99
347.679	79.59
348.144	99.49
348.608	82.19
349.073	69.79
349.537	80.49
350.001	79.49
350.465	92.69
350.93	88.39
351.394	80.19
351.858	72.29
352.322	88.29
352.786	82.69
353.25	99.99
353.715	115.99
354.179	100.79
354.643	131.79
355.107	127.59
355.571	111.89
356.035	97.79
356.498	115.99
356.962	127.59
357.426	130.89
357.89	115.89
358.354	93.49
358.818	92.59
359.281	82.59
359.745	81.99
360.209	78.59
360.673	70.79
361.136	87.29
361.6	85.99
362.064	87.09
362.527	86.69
362.991	90.99
363.454	76.49
363.918	73.49
364.381	84.39
364.845	80.99
365.308	81.29
365.772	92.89
366.235	90.49
366.698	85.09
367.162	90.39
367.625	86.99
368.088	89.29
368.552	87.69
369.015	82.59
369.478	97.69
369.941	104.79
370.404	90.79
370.867	100.09
371.331	103.19
371.794	115.19
372.257	107.29
372.72	116.19
373.183	110.19
373.646	98.89
374.109	107.69
374.572	108.29
375.035	108.89
375.497	118.19
375.96	101.69
376.423	109.09
376.886	108.59
377.349	106.99
377.811	107.79
378.274	103.49
378.737	108.19
379.199	106.99
379.662	119.29
380.125	119.49
380.587	116.49
381.05	125.59
381.512	132.29
381.975	132.19
382.437	123.99
382.9	127.19
383.362	124.09
383.825	140.49
384.287	154.09
384.75	140.99
385.212	138.19
385.674	140.69
386.136	134.19
386.599	128.49
387.061	129.39
387.523	127.59
387.985	135.59
388.447	138.69
388.91	142.59
389.372	153.29
389.834	156.19
390.296	142.39
390.758	160.29
391.22	168.29
391.682	205.39
392.144	288.39
392.606	225.69
393.068	170.29
393.529	173.69
393.991	151.19
394.453	139.29
394.915	155.79
395.377	189.59
395.838	217.49
396.3	165.99
396.762	137.59
397.224	132.89
397.685	131.59
398.147	130.69
398.608	124.59
399.07	126.79
399.531	134.89
399.993	142.99
400.454	152.49
400.916	144.69
401.377	145.79
401.839	148.99
402.3	150.79
402.762	163.59
403.223	180.79
403.684	169.99
404.145	158.29
404.607	163.59
405.068	166.49
405.529	166.99
405.99	183.59
406.451	175.79
406.913	173.29
407.374	164.39
407.835	161.89
408.296	162.29
408.757	175.99
409.218	182.39
409.679	174.09
410.14	173.99
410.601	178.09
411.062	180.89
411.522	192.59
411.983	190.29
412.444	167.89
412.905	176.09
413.366	183.59
413.826	198.69
414.287	219.09
414.748	265.59
415.208	253.19
415.669	212.09
416.13	211.39
416.59	197.99
417.051	209.69
417.511	217.09
417.972	241.69
418.432	244.69
418.893	284.99
419.353	252.59
419.814	200.89
420.274	181.19
420.734	180.19
421.195	195.79
421.655	193.49
422.115	193.39
422.576	190.59
423.036	195.69
423.496	205.79
423.956	214.29
424.416	225.69
424.876	264.89
425.336	269.19
425.797	263.29
426.257	266.49
426.717	238.29
427.177	229.09
427.637	221.99
428.097	236.09
428.556	242.19
429.016	271.49
429.476	266.99
429.936	274.99
430.396	279.89
430.856	290.99
431.315	321.59
431.775	346.89
432.235	385.09
432.694	349.39
433.154	359.29
433.614	384.59
434.073	340.69
434.533	284.69
434.993	268.09
435.452	282.39
435.912	289.39
436.371	292.19
436.83	289.39
437.29	271.99
437.749	251.69
438.209	248.89
438.668	271.59
439.127	281.59
439.587	263.79
440.046	245.29
440.505	266.79
440.964	285.59
441.424	325.99
441.883	311.09
442.342	263.99
442.801	221.59
443.26	217.39
443.719	220.19
444.178	212.39
444.637	205.49
445.096	217.49
445.555	224.39
446.014	226.69
446.473	221.89
446.932	230.09
447.391	227.09
447.849	228.39
448.308	214.69
448.767	220.09
449.226	232.09
449.685	237.39
450.143	250.49
450.602	243.99
451.061	229.89
451.519	230.79
451.978	221.29
452.436	231.49
452.895	244.39
453.353	248.49
453.812	245.09
454.27	244.19
454.729	239.49
455.187	236.99
455.646	244.39
456.104	249.79
456.562	258.79
457.021	274.29
457.479	259.49
457.937	277.29
458.395	264.49
458.854	243.59
459.312	259.09
459.77	272.79
460.228	262.89
460.686	240.79
461.144	249.49
461.602	236.29
462.06	240.39
462.518	251.79
462.976	252.59
463.434	257.59
463.892	268.49
464.35	271.99
464.808	287.19
465.266	269.79
465.724	261.69
466.181	273.79
466.639	267.99
467.097	288.29
467.555	297.89
468.012	301.29
468.47	308.99
468.928	333.89
469.385	342.29
469.843	354.69
470.3	351.19
470.758	367.89
471.215	388.69
471.673	406.59
472.13	402.69
472.588	417.89
473.045	372.99
473.503	376.59
473.96	396.99
474.417	394.59
474.875	438.19
475.332	474.79
475.789	461.09
476.246	473.89
476.704	493.19
477.161	508.69
477.618	524.79
478.075	564.09
478.532	623.49
478.989	694.49
479.446	814.09
479.903	777.79
480.36	819.19
480.817	874.99
481.274	961.19
481.731	1074.89
482.188	1169.99
482.645	1317.39
483.102	1410.49
483.558	1546.29
484.015	1607.89
484.472	1578.29
484.929	1534.09
485.385	1496.39
485.842	1452.59
486.299	1375.99
486.755	1305.19
487.212	1107.89
487.668	928.09
488.125	859.29
488.582	783.69
489.038	750.49
489.494	720.29
489.951	705.29
490.407	674.59
490.864	656.29
491.32	653.09
491.776	649.69
492.233	654.69
492.689	617.79
493.145	596.29
493.602	602.09
494.058	627.49
494.514	620.39
494.97	645.59
495.426	649.69
495.882	627.19
496.338	620.29
496.794	633.09
497.251	622.99
497.707	641.19
498.163	639.89
498.618	643.39
499.074	647.99
499.53	684.99
499.986	685.89
500.442	657.29
500.898	640.39
501.354	627.59
501.809	635.19
502.265	649.79
502.721	658.69
503.177	669.99
503.632	663.59
504.088	681.49
504.543	708.39
504.999	712.29
505.455	657.19
505.91	633.39
506.366	647.89
506.821	628.79
507.277	628.39
507.732	627.39
508.187	623.99
508.643	642.19
509.098	631.29
509.553	661.19
510.009	668.59
510.464	679.09
510.919	687.39
511.375	698.29
511.83	711.19
512.285	728.69
512.74	764.29
513.195	792.49
513.65	777.09
514.105	765.19
514.56	772.59
515.015	792.39
515.47	812.89
515.925	798.79
516.38	797.39
516.835	806.79
517.29	781.79
517.745	779.19
518.2	769.99
518.655	755.59
519.109	753.69
519.564	746.39
520.019	736.79
520.474	740.69
520.928	727.19
521.383	721.99
521.838	720.19
522.292	706.29
522.747	714.59
523.201	697.69
523.656	697.69
524.11	689.69
524.565	695.79
525.019	697.89
525.474	711.09
525.928	698.29
526.382	694.79
526.837	700.39
527.291	698.79
527.745	695.09
528.2	704.79
528.654	687.39
529.108	685.19
529.562	688.99
530.016	691.19
530.47	688.79
530.925	694.49
531.379	695.49
531.833	699.79
532.287	694.79
532.741	705.09
533.195	706.59
533.649	723.89
534.103	721.99
534.556	718.79
535.01	719.29
535.464	709.89
535.918	716.79
536.372	722.89
536.826	714.69
537.279	709.19
537.733	711.69
538.187	711.89
538.64	714.19
539.094	724.89
539.548	726.49
540.001	723.19
540.455	725.89
540.908	730.89
541.362	733.69
541.815	748.69
542.269	758.39
542.722	759.09
543.175	776.59
543.629	760.79
544.082	787.69
544.536	790.39
544.989	789.99
545.442	793.89
545.895	785.89
546.349	783.79
546.802	792.79
547.255	803.19
547.708	804.19
548.161	810.69
548.614	814.89
549.067	825.59
549.52	813.69
549.973	813.19
550.426	806.99
550.879	792.49
551.332	794.59
551.785	809.79
552.238	792.09
552.691	819.49
553.144	834.89
553.596	855.49
554.049	852.79
554.502	889.39
554.955	905.69
555.407	910.39
555.86	906.99
556.313	901.99
556.765	880.19
557.218	880.89
557.67	882.49
558.123	877.29
558.576	874.99
559.028	873.29
559.48	876.99
559.933	866.69
560.385	827.39
560.838	804.59
561.29	780.49
561.742	779.89
562.195	756.89
562.647	756.19
563.099	765.99
563.551	766.59
564.004	780.79
564.456	765.39
564.908	770.29
565.36	749.39
565.812	733.09
566.264	725.09
566.716	717.69
567.168	713.19
567.62	722.89
568.072	699.69
568.524	697.29
568.976	682.59
569.428	672.59
569.88	659.89
570.332	666.79
570.784	674.29
571.235	682.29
571.687	693.49
572.139	704.09
572.59	705.69
573.042	718.09
573.494	704.69
573.945	705.39
574.397	685.09
574.849	683.89
575.3	687.29
575.752	681.59
576.203	684.79
576.655	683.29
577.106	669.49
577.557	658.49
578.009	666.19
578.46	650.09
578.912	656.39
579.363	652.49
579.814	656.79
580.265	667.79
580.717	664.09
581.168	656.29
581.619	662.99
582.07	674.39
582.521	668.09
582.972	660.99
583.423	677.19
583.875	669.49
584.326	685.49
584.777	728.69
585.227	802.19
585.678	897.39
586.129	980.89
586.58	1046.29
587.031	1131.09
587.482	1292.29
587.933	1449.69
588.384	1271.99
588.834	957.89
589.285	787.29
589.736	769.39
590.186	760.79
590.637	753.49
591.088	735.59
591.538	727.09
591.989	719.59
592.439	729.49
592.89	711.59
593.34	702.09
593.791	701.49
594.241	690.39
594.692	690.09
595.142	692.49
595.593	696.79
596.043	695.09
596.493	705.39
596.943	698.79
597.394	701.29
597.844	697.79
598.294	718.59
598.744	730.39
599.195	757.49
599.645	807.59
600.095	841.99
600.545	896.79
600.995	949.29
601.445	1006.89
601.895	1064.99
602.345	1117.89
602.795	1092.49
603.245	1042.19
603.695	998.29
604.145	937.79
604.594	904.09
605.044	837.59
605.494	783.49
605.944	746.39
606.393	735.19
606.843	720.49
607.293	715.79
607.743	716.69
608.192	728.99
608.642	750.09
609.091	753.69
609.541	759.59
609.99	756.29
610.44	741.79
610.889	704.59
611.339	697.99
611.788	667.89
612.238	685.89
612.687	704.49
613.136	703.49
613.586	716.89
614.035	722.09
614.484	742.89
614.933	737.89
615.383	734.39
615.832	713.39
616.281	705.89
616.73	675.49
617.179	646.59
617.628	643.99
618.077	616.89
618.526	600.19
618.975	600.59
619.424	601.09
619.873	588.59
620.322	602.89
620.771	593.29
621.22	588.59
621.669	571.59
622.118	571.49
622.567	566.39
623.015	553.59
623.464	556.79
623.913	536.69
624.361	533.59
624.81	535.19
625.259	535.39
625.707	535.99
626.156	540.59
626.604	557.19
627.053	541.99
627.501	538.99
627.95	553.99
628.398	566.29
628.847	545.19
629.295	554.59
629.744	568.29
630.192	548.39
630.64	549.99
631.089	554.29
631.537	555.09
631.985	556.79
632.433	572.09
632.881	585.39
633.33	625.09
633.778	613.79
634.226	541.89
634.674	555.19
635.122	561.79
635.57	570.99
636.018	604.69
636.466	561.59
636.914	542.69
637.362	554.59
637.81	553.99
638.258	560.19
638.705	560.99
639.153	580.79
639.601	594.09
640.049	616.89
640.497	648.29
640.944	676.09
641.392	617.29
641.84	589.89
642.287	564.59
642.735	556.49
643.182	561.29
643.63	560.29
644.078	553.09
644.525	562.79
644.973	578.79
645.42	572.89
645.867	603.19
646.315	623.79
646.762	636.29
647.21	668.59
647.657	682.99
648.104	721.49
648.551	743.69
648.999	814.09
649.446	888.49
649.893	970.59
650.34	1110.19
650.787	1342.09
651.234	1670.89
651.682	2163.59
652.129	2949.09
652.576	4242.29
653.023	6303.79
653.47	8612.39
653.917	10801.89
654.363	12550.69
654.81	13993.49
655.257	13306.19
655.704	8709.39
656.151	5158.19
656.598	3319.89
657.044	2341.49
657.491	1799.99
657.938	1444.49
658.385	1203.79
658.831	1051.09
659.278	940.09
659.724	820.79
660.171	764.89
660.618	693.79
661.064	663.09
661.511	645.89
661.957	628.69
662.404	618.19
662.85	626.29
663.296	602.09
663.743	550.19
664.189	519.59
664.635	515.39
665.082	498.59
665.528	513.99
665.974	500.49
666.42	482.69
666.867	480.19
667.313	468.79
667.759	458.29
668.205	451.69
668.651	461.79
669.097	466.19
669.543	472.09
669.989	453.19
670.435	431.69
670.881	428.59
671.327	433.99
671.773	448.59
672.219	465.69
672.665	525.29
673.11	554.69
673.556	604.49
674.002	640.79
674.448	616.89
674.893	528.99
675.339	463.39
675.785	419.99
676.23	396.29
676.676	373.29
677.122	367.29
677.567	357.79
678.013	354.39
678.458	343.59
678.904	345.19
679.349	328.99
679.794	339.39
680.24	332.29
680.685	327.79
681.131	330.09
681.576	331.79
682.021	337.09
682.466	337.69
682.912	330.79
683.357	324.09
683.802	367.09
684.247	390.29
684.692	433.69
685.137	469.79
685.583	520.29
686.028	532.89
686.473	489.29
686.918	424.79
687.363	389.59
687.807	365.29
688.252	344.49
688.697	339.99
689.142	318.89
689.587	310.39
690.032	309.19
690.477	322.19
690.921	343.59
691.366	364.79
691.811	383.99
692.255	411.09
692.7	438.49
693.145	475.19
693.589	654.79
694.034	1049.49
694.478	1447.99
694.923	1663.49
695.367	2180.59
695.812	1145.99
696.256	480.89
696.701	349.99
697.145	324.59
697.59	307.79
698.034	304.29
698.478	307.59
698.922	312.99
699.367	305.39
699.811	318.49
700.255	333.69
700.699	366.39
701.143	395.19
701.588	455.39
702.032	486.79
702.476	485.89
702.92	465.19
703.364	462.69
703.808	597.79
704.252	958.09
704.696	1363.89
705.14	1595.59
705.584	2042.19
706.027	1004.49
706.471	494.89
706.915	376.29
707.359	332.19
707.803	293.49
708.246	290.49
708.69	301.29
709.134	297.59
709.577	297.99
710.021	303.59
710.465	295.39
710.908	284.49
711.352	288.89
711.795	294.29
712.239	333.69
712.682	370.19
713.126	396.49
713.569	435.79
714.012	347.69
714.456	307.39
714.899	278.29
715.342	258.49
715.786	251.19
716.229	235.99
716.672	240.89
717.115	234.69
717.558	240.19
718.002	240.89
718.445	250.39
718.888	272.09
719.331	273.89
719.774	289.49
720.217	285.89
720.66	266.99
721.103	249.29
721.546	243.99
721.989	231.49
722.432	215.59
722.874	223.79
723.317	213.89
723.76	225.29
724.203	237.49
724.645	298.59
725.088	415.19
725.531	531.69
725.974	614.79
726.416	529.39
726.859	296.89
727.301	236.89
727.744	225.39
728.187	219.49
728.629	225.99
729.071	231.09
729.514	247.59
729.956	248.69
730.399	265.69
730.841	268.39
731.283	253.89
731.726	249.99
732.168	254.69
732.61	248.79
733.053	269.79
733.495	297.89
733.937	330.69
734.379	372.09
734.821	405.09
735.263	501.69
735.705	768.39
736.148	1460.89
736.59	2425.39
737.032	2934.49
737.474	2377.99
737.916	771.09
738.357	401.09
738.799	306.39
739.241	279.49
739.683	277.19
740.125	279.59
740.567	279.49
741.008	289.79
741.45	304.59
741.892	302.89
742.334	323.79
742.775	332.69
743.217	323.99
743.658	254.99
744.1	237.79
744.542	244.59
744.983	296.19
745.425	325.99
745.866	327.49
746.307	268.49
746.749	264.99
747.19	300.59
747.632	413.89
748.073	802.69
748.514	1710.99
748.956	2695.09
749.397	3355.19
749.838	2782.09
750.279	2828.49
750.72	1422.29
751.162	521.19
751.603	303.99
752.044	234.69
752.485	198.29
752.926	195.49
753.367	186.89
753.808	181.99
754.249	174.89
754.69	175.29
755.131	170.99
755.572	169.99
756.013	169.39
756.453	176.59
756.894	176.69
757.335	180.99
757.776	183.49
758.216	182.79
758.657	181.49
759.098	191.89
759.538	213.09
759.979	254.79
760.42	348.59
760.86	647.89
761.301	1649.09
761.741	4110.89
762.182	6155.29
762.622	4344.99
763.063	1243.59
763.503	514.09
763.943	323.09
764.384	315.29
764.824	378.49
765.264	410.09
765.705	286.19
766.145	191.29
766.585	176.49
767.025	172.29
767.465	172.49
767.906	223.89
768.346	291.39
768.786	317.79
769.226	246.19
769.666	297.59
770.106	565.49
770.546	1435.79
770.986	2504.29
771.426	2275.79
771.866	751.69
772.306	305.89
772.745	194.69
773.185	158.59
773.625	164.59
774.065	158.99
774.505	177.69
774.944	277.99
775.384	604.79
775.824	1140.39
776.263	1135.39
776.703	475.69
777.142	207.69
777.582	143.19
778.021	127.69
778.461	127.49
778.9	141.09
779.34	125.19
779.779	114.29
780.219	105.79
780.658	105.59
781.097	102.29
781.537	109.19
781.976	100.09
782.415	105.09
782.855	98.19
783.294	88.69
783.733	95.59
784.172	97.99
784.611	97.89
785.05	100.19
785.489	101.99
785.928	108.69
786.367	115.99
786.806	117.09
787.245	117.09
787.684	122.19
788.123	140.99
788.562	130.49
789.001	115.69
789.44	110.99
789.879	116.39
790.317	113.09
790.756	119.59
791.195	116.09
791.634	142.39
792.072	193.89
792.511	331.99
792.95	917.09
793.388	2016.49
793.827	1863.19
794.265	639.79
794.704	264.89
795.142	168.89
795.581	144.39
796.019	125.29
796.458	122.89
796.896	110.79
797.334	121.19
797.773	146.49
798.211	202.09
798.649	400.79
799.087	946.69
799.526	1489.49
799.964	1877.49
800.402	1928.49
800.84	717.99
801.278	281.89
801.716	174.19
802.154	141.49
802.592	141.09
803.03	135.99
803.468	123.59
803.906	136.39
804.344	136.59
804.782	133.99
805.22	123.19
805.658	125.29
806.096	130.79
806.533	143.79
806.971	167.09
807.409	209.79
807.847	289.49
808.284	609.59
808.722	1713.89
809.16	3127.29
809.597	2878.59
810.035	5054.69
810.472	5561.29
810.91	1990.29
811.347	750.59
811.785	376.59
812.222	237.19
812.66	183.89
813.097	155.69
813.535	135.29
813.972	116.19
814.409	114.89
814.846	104.49
815.284	103.29
815.721	89.89
816.158	103.19
816.595	112.39
817.032	159.79
817.47	186.19
817.907	161.79
818.344	142.59
818.781	109.39
819.218	94.19
819.655	117.39
820.092	181.79
820.529	206.39
820.966	175.19
821.403	122.79
821.839	106.49
822.276	96.39
822.713	117.49
823.15	120.79
823.587	104.59
824.023	141.19
824.46	279.09
824.897	828.09
825.333	1290.19
825.77	548.89
826.206	214.39
826.643	132.59
827.08	93.69
827.516	76.39
827.953	67.79
828.389	78.39
828.825	67.29
829.262	62.99
829.698	64.49
830.135	66.29
830.571	59.79
831.007	56.89
831.443	59.59
831.88	62.59
832.316	63.49
832.752	58.49
833.188	60.49
833.624	61.69
834.06	59.59
834.497	66.29
834.933	65.49
835.369	70.89
835.805	66.69
836.241	67.99
836.677	76.19
837.112	87.89
837.548	99.39
837.984	122.89
838.42	185.09
838.856	447.89
839.292	1394.09
839.727	2197.19
840.163	1011.09
840.599	849.69
841.034	1889.39
841.47	2032.89
841.906	742.89
842.341	317.99
842.777	218.89
843.212	295.99
843.648	302.99
844.083	139.79
844.519	93.49
844.954	66.49
845.39	55.49
845.825	47.99
846.261	56.79
846.696	54.49
847.131	49.49
847.566	57.09
848.002	44.39
848.437	54.39
848.872	52.69
849.307	57.99
849.742	82.69
850.177	158.09
850.613	509.69
851.048	837.09
851.483	363.79
851.918	140.39
852.353	80.59
852.788	49.19
853.223	52.19
853.657	45.89
854.092	40.49
854.527	39.29
854.962	35.59
855.397	39.39
855.832	47.19
856.266	35.79
856.701	32.69
857.136	32.19
857.57	37.19
858.005	46.09
858.44	56.09
858.874	42.79
859.309	50.49
859.743	35.19
860.178	40.59
860.612	43.79
861.047	50.09
861.481	62.19
861.915	65.29
862.35	48.89
862.784	28.69
863.218	32.49
863.653	27.89
864.087	40.19
864.521	49.59
864.955	62.59
865.39	142.69
865.824	167.09
866.258	105.79
866.692	153.49
867.126	166.79
867.56	103.09
867.994	50.09
868.428	35.39
868.862	41.29
869.296	52.79
869.73	60.29
870.164	48.19
870.598	47.09
871.031	32.39
871.465	24.79
871.899	33.29
872.333	20.29
872.766	25.79
873.2	21.79
873.634	27.09
874.067	22.39
874.501	19.49
874.935	32.09
875.368	28.69
875.802	25.49
876.235	16.39
876.669	18.49
877.102	18.09
877.535	23.39
877.969	20.69
878.402	28.79
878.836	17.29
879.269	24.69
879.702	18.69
880.135	13.69
880.569	17.09
881.002	23.29
881.435	20.99
881.868	16.59
882.301	30.19
882.734	20.19
883.167	17.49
883.601	18.29
884.034	19.19
884.467	17.89
884.899	19.89
885.332	18.99
885.765	10.99
886.198	13.39
886.631	12.59
887.064	15.19
887.497	20.09
887.929	21.69
888.362	16.29
888.795	6.79
889.228	11.99
889.66	18.59
890.093	11.99
890.526	12.39
890.958	14.99
891.391	12.89
891.823	18.59
892.256	18.39
892.688	10.29
893.121	16.59
893.553	10.69
893.985	22.59
894.418	17.79
894.85	11.49
895.282	14.69
895.715	11.39
896.147	17.09
896.579	12.89
897.011	14.19
897.444	13.89
897.876	15.79
898.308	17.09
898.74	16.09
899.172	8.49
899.604	25.79
900.036	15.79
900.468	12.09
900.9	10.69
901.332	17.29
901.764	15.49
902.196	20.49
902.628	12.39
903.06	15.29
903.491	24.09
903.923	25.29
904.355	15.29
904.787	19.09
905.218	18.89
905.65	23.49
906.082	3.69
906.513	8.69
906.945	7.89
907.376	9.89
907.808	26.39
908.239	19.79
908.671	19.59
909.102	16.29
909.534	24.49
909.965	44.39
910.397	86.59
910.828	288.39
911.259	455.59
911.691	202.59
912.122	103.39
912.553	47.59
912.984	35.09
913.415	23.29
913.847	23.69
914.278	18.29
914.709	13.69
915.14	12.99
915.571	15.19
916.002	13.19
916.433	18.49
916.864	9.89
917.295	15.09
917.726	24.19
918.157	13.39
918.587	30.09
919.018	21.29
919.449	24.29
919.88	18.29
920.311	29.19
920.741	39.09
921.172	163.29
921.603	142.39
922.033	72.19
922.464	43.89
922.895	17.99
923.325	16.69
923.756	16.19
924.186	12.39
924.617	24.69
925.047	36.49
925.478	47.89
925.908	40.49
926.338	26.69
926.769	18.19
927.199	20.99
927.629	11.69
928.06	8.89
928.49	9.49
928.92	12.99
929.35	11.19
929.78	9.69
930.21	5.99
930.641	8.09
931.071	7.29
931.501	2.39
931.931	5.49
932.361	5.09
932.791	5.59
933.221	3.99
933.651	4.39
934.08	15.29
934.51	24.09
934.94	7.79
935.37	11.09
935.8	10.59
936.229	1.89
936.659	6.79
937.089	4.69
937.519	9.29
937.948	17.89
938.378	12.59
938.807	-0.01
939.237	0.69
939.666	7.99
940.096	-6.41
940.525	5.59
940.955	0.79
941.384	-1.81
941.814	-7.01
942.243	2.39
942.672	-2.41
943.102	1.29
943.531	-0.51
943.96	5.79
944.39	0.09
944.819	-3.41
945.248	1.09
945.677	2.09
946.106	5.09
946.535	-0.41
946.964	2.49
947.393	2.49
947.822	-1.41
948.251	-9.11
948.68	-0.11
949.109	7.59
949.538	5.29
949.967	0.49
950.396	-1.91
950.825	-4.41
951.254	3.09
951.682	-9.21
952.111	1.79
952.54	-0.31
952.969	-0.51
953.397	-9.61
953.826	2.89
954.254	-6.41
954.683	3.89
955.112	-0.11
955.54	-1.21
955.969	3.99
956.397	3.09
956.826	-6.81
957.254	2.69
957.682	2.39
958.111	8.89
958.539	2.99
958.967	-0.61
959.396	-1.71
959.824	4.49
960.252	6.29
960.68	-6.51
961.109	-2.01
961.537	-6.51
961.965	-3.31
962.393	5.09
962.821	-7.01
963.249	-1.01
963.677	-1.41
964.105	3.79
964.533	37.69
964.961	40.19
965.389	19.89
965.817	8.19
966.245	2.49
966.672	-0.51
967.1	-7.11
967.528	-1.61
967.956	-2.61
968.383	4.19
968.811	-2.61
969.239	2.89
969.666	-3.21
970.094	-4.01
970.522	0.99
970.949	-0.91
971.377	-8.51
971.804	-4.31
972.232	-5.81
972.659	-6.01
973.087	0.59
973.514	-2.71
973.941	-5.61
974.369	-0.21
974.796	-1.01
975.223	-8.21
975.651	-1.51
976.078	7.69
976.505	-4.71
976.932	2.19
977.359	7.09
977.786	14.79
978.214	-6.81
978.641	-1.61
979.068	-6.91
979.495	-5.41
979.922	-2.41
980.349	-3.51
980.776	5.79
981.202	-1.91
981.629	2.69
982.056	2.09
982.483	3.79
982.91	3.89
983.337	-9.31
983.763	3.09
984.19	-5.91
984.617	-4.71
985.043	-11.51
985.47	-2.51
985.897	-8.91
986.323	-8.01
986.75	-0.11
987.176	-2.71
987.603	-0.21
988.029	-7.91
988.456	-4.91
988.882	1.69
989.308	-0.41
989.735	-4.61
990.161	0.49
990.587	-8.01
991.014	-0.81
991.44	8.79
991.866	-5.21
992.292	-1.81
992.719	-3.81
993.145	4.49
993.571	-9.81
993.997	1.69
994.423	-0.91
994.849	-3.01
995.275	-1.41
995.701	-0.51
996.127	-6.01
996.553	1.49
996.979	1.19
997.405	-4.81
997.83	-5.91
998.256	-5.51
998.682	-5.71
999.108	-10.71
999.534	1.99
999.959	-6.21
1000.385	-3.01
1000.811	1.29
1001.236	-5.01
1001.662	-7.91
1002.087	-3.61
1002.513	4.29
1002.938	4.39
1003.364	-8.31
1003.789	-0.21
1004.215	1.99
1004.64	-2.71
1005.066	2.29
1005.491	-2.01
1005.916	-4.31
1006.342	-1.91
1006.767	-5.61
1007.192	4.59
1007.617	-5.91
1008.042	-5.81
1008.468	-13.01
1008.893	-9.61
1009.318	-5.11
1009.743	-1.61
1010.168	5.19
1010.593	-3.61
1011.018	-11.21
1011.443	-1.61
1011.868	1.39
1012.293	-1.51
1012.718	-9.51
1013.143	-1.61
1013.567	-1.91
1013.992	-2.81
1014.417	-11.41
1014.842	-5.11
1015.267	-7.41
1015.691	-6.21
1016.116	1.79
1016.541	-3.51
1016.965	7.79
1017.39	-2.51
1017.814	3.39
1018.239	-3.41
1018.663	-9.11
1019.088	-7.71
1019.512	-5.01
1019.937	-2.31
1020.361	-5.51
1020.785	-4.01
1021.21	-2.31
1021.634	-2.71
1022.058	-7.01
1022.483	5.29
1022.907	-6.71
1023.331	-9.21
1023.755	-0.41
1024.179	-1.81
1024.604	-7.51
1025.028	-7.71
1025.452	-9.21
1025.876	-5.61
1026.3	-3.31
1026.724	-3.51
1027.148	-9.51
1027.572	-10.51
1027.996	-5.41
1028.42	-7.41
1028.843	-5.11
1029.267	-4.41
1029.691	-4.51
1030.115	-7.81
1030.539	-13.81
1030.962	-6.31
1031.386	-8.11
1031.81	-0.81
1032.233	0.39
1032.657	-0.81
1033.08	-1.91
1033.504	-3.91
1033.927	-7.21
1034.351	-1.81
1034.774	-3.11
1035.198	-5.31
1035.621	-7.41
1036.045	-3.81
1036.468	-1.71
1036.891	-8.71
1037.315	-10.11
1037.738	-11.11
1038.161	-4.01
1038.584	-4.31
1039.008	-9.91
1039.431	-8.91
1039.854	-3.61
1040.277	-6.71
1040.7	-6.61
1041.123	1.49
1041.546	-7.01
1041.969	-7.01
1042.392	-9.01
1042.815	1.29
1043.238	-4.31
1043.661	-0.31
1044.084	-8.71
1044.507	-4.61
1044.93	-8.11
1045.352	-11.61
1045.775	-4.11
1046.198	-1.31
1046.621	-5.11
1047.043	-5.51
1047.466	3.79
1047.889	0.39
1048.311	-0.11
1048.734	-2.61
1049.156	-2.21
1049.579	-6.01
1050.001	-3.91
1050.424	-1.01
1050.846	-8.31
1051.269	3.79
1051.691	-7.91
1052.113	-5.21
1052.536	-3.71
1052.958	-1.91
1053.38	-1.91
1053.802	-9.71
1054.225	0.99
1054.647	-12.71
1055.069	-3.11
1055.491	-0.41
1055.913	-7.61
1056.335	-1.71
1056.757	-4.61
1057.179	-7.51
1057.601	-5.21
1058.023	-6.61
1058.445	-1.11
1058.867	-2.81
1059.289	-0.61
1059.711	-2.41
1060.133	-4.11
1060.555	-8.91
1060.976	-9.01
1061.398	-4.11
1061.82	-10.71
1062.241	-3.81
1062.663	-10.51
1063.085	-12.91
1063.506	-3.41
1063.928	-10.31
1064.35	-7.81
1064.771	-11.81
1065.193	-6.21
1065.614	-6.91
1066.035	-3.71
1066.457	-2.41
1066.878	1.29
1067.3	-6.51
1067.721	-6.61
1068.142	-4.81
1068.564	-8.71
1068.985	-6.21
1069.406	-7.61
1069.827	-9.01
1070.248	0.59
1070.67	-11.51
1071.091	-5.51
1071.512	-5.61
1071.933	-0.31
1072.354	-5.71
1072.775	-9.51
1073.196	-13.21
1073.617	-2.91
1074.038	-9.81
1074.459	-5.61
1074.88	-3.61
1075.3	5.19
1075.721	-12.11
1076.142	-5.71
1076.563	-3.81
1076.983	-15.01
1077.404	-7.91
1077.825	-11.21
1078.246	-4.41
1078.666	-13.71
1079.087	-7.31
1079.507	-6.81
1079.928	-1.71
1080.348	-2.51
1080.769	-8.21
1081.189	-2.01
1081.61	-8.51
1082.03	-6.91
1082.451	-8.91
1082.871	-6.81
1083.291	-8.71
1083.711	-12.51
1084.132	-12.51
1084.552	-10.71
1084.972	-3.71
1085.392	-12.11
1085.813	-12.01
1086.233	-5.41
1086.653	-10.81
1087.073	-2.91
1087.493	-4.91
1087.913	-1.71
1088.333	-9.81
1088.753	-3.41
1089.173	-0.21
1089.593	-9.11
1090.013	0.69
1090.433	-3.71
1090.852	-6.81
1091.272	-2.81
1091.692	-3.41
1092.112	0.39
1092.531	-4.01
1092.951	-9.81
1093.371	-11.51
1093.79	-1.71
1094.21	-0.61
1094.63	-9.71
1095.049	-7.41
1095.469	-3.81
1095.888	-6.51
1096.308	-0.41
1096.727	2.19
1097.146	-7.71
1097.566	-3.31
1097.985	-4.81
1098.405	-3.51
1098.824	-5.41
1099.243	-3.31
1099.662	-4.01
1100.082	-5.21
1100.501	-9.91
1100.92	-10.11
1101.339	-4.11
1101.758	-5.01
