Data from DH-3PlusCalLight-Deuterium_HRD10391_13-35-13-822.txt Node
Date: Thu Feb 15 13:35:13 EST 2018
User: Ender
Spectrometer: HR+D1039
Trigger mode: 0
Integration Time (sec): 2.730000E-2
Scans to average: 10
Electric dark correction enabled: true
Nonlinearity correction enabled: false
Boxcar width: 0
XAxis mode: Wavelengths
Number of Pixels in Spectrum: 2048
>>>>>Begin Spectral Data<<<<<
187.836	0.85
188.309	0.85
188.782	0.85
189.255	-5.25
189.728	-6.65
190.201	-7.65
190.674	-5.45
191.147	-8.75
191.619	-6.75
192.092	-5.05
192.565	-5.55
193.038	-4.15
193.511	-0.45
193.984	6.55
194.456	5.75
194.929	10.45
195.402	18.55
195.874	13.55
196.347	24.85
196.82	26.25
197.292	32.25
197.765	33.85
198.237	36.05
198.71	42.65
199.182	44.25
199.655	51.55
200.127	53.65
200.6	58.75
201.072	59.15
201.544	59.15
202.017	65.15
202.489	62.65
202.961	70.85
203.433	66.65
203.906	75.35
204.378	77.15
204.85	72.75
205.322	78.25
205.794	80.05
206.266	86.05
206.739	79.65
207.211	84.65
207.683	89.25
208.155	87.35
208.627	87.75
209.099	90.15
209.57	87.75
210.042	88.65
210.514	83.05
210.986	89.65
211.458	89.35
211.93	82.15
212.402	84.55
212.873	87.45
213.345	87.95
213.817	91.65
214.288	84.85
214.76	85.05
215.232	85.15
215.703	82.05
216.175	77.15
216.646	81.15
217.118	79.85
217.589	79.15
218.061	82.05
218.532	79.95
219.004	79.75
219.475	79.35
219.946	80.95
220.418	78.85
220.889	80.25
221.36	86.95
221.832	82.25
222.303	86.65
222.774	85.25
223.245	81.35
223.717	84.65
224.188	85.45
224.659	82.95
225.13	89.85
225.601	89.45
226.072	90.65
226.543	91.95
227.014	89.85
227.485	98.25
227.956	90.85
228.427	90.15
228.898	96.15
229.369	92.85
229.839	100.15
230.31	93.95
230.781	100.75
231.252	100.15
231.722	101.65
232.193	102.15
232.664	100.85
233.135	100.85
233.605	98.25
234.076	99.45
234.546	99.45
235.017	96.05
235.487	95.85
235.958	96.65
236.428	93.05
236.899	91.45
237.369	91.95
237.84	85.35
238.31	92.05
238.78	86.65
239.251	91.65
239.721	86.55
240.191	84.85
240.662	87.65
241.132	83.55
241.602	85.35
242.072	84.95
242.542	81.05
243.013	87.65
243.483	85.15
243.953	81.45
244.423	83.95
244.893	82.55
245.363	85.35
245.833	77.45
246.303	86.05
246.773	84.05
247.243	84.55
247.712	83.55
248.182	81.85
248.652	88.25
249.122	84.25
249.592	81.85
250.061	77.55
250.531	85.25
251.001	87.05
251.471	88.55
251.94	88.25
252.41	85.65
252.879	93.45
253.349	88.75
253.818	89.35
254.288	86.95
254.757	92.15
255.227	94.45
255.696	93.45
256.166	93.95
256.635	94.55
257.105	105.45
257.574	103.95
258.043	108.75
258.513	114.05
258.982	121.05
259.451	126.25
259.92	127.35
260.389	133.35
260.859	136.75
261.328	144.05
261.797	153.45
262.266	156.65
262.735	165.25
263.204	169.45
263.673	168.65
264.142	174.45
264.611	185.55
265.08	191.35
265.549	195.35
266.018	198.35
266.487	203.65
266.955	209.85
267.424	213.15
267.893	217.45
268.362	214.85
268.83	221.15
269.299	224.65
269.768	226.25
270.236	230.35
270.705	231.45
271.174	233.55
271.642	233.95
272.111	241.45
272.579	243.35
273.048	250.95
273.516	244.85
273.985	244.55
274.453	250.25
274.922	248.45
275.39	248.95
275.858	248.35
276.327	239.45
276.795	250.25
277.263	247.55
277.731	248.35
278.2	242.65
278.668	239.15
279.136	243.65
279.604	246.75
280.072	240.55
280.54	241.75
281.008	239.05
281.477	242.05
281.945	243.65
282.413	238.35
282.881	241.25
283.348	232.65
283.816	230.85
284.284	235.45
284.752	234.15
285.22	233.15
285.688	227.45
286.156	227.15
286.623	230.25
287.091	227.65
287.559	229.45
288.026	232.15
288.494	235.05
288.962	233.15
289.429	232.65
289.897	235.15
290.364	243.25
290.832	246.55
291.3	240.95
291.767	246.55
292.234	246.45
292.702	250.45
293.169	251.85
293.637	260.95
294.104	257.75
294.571	263.75
295.039	262.35
295.506	255.85
295.973	266.25
296.44	265.45
296.908	266.25
297.375	272.55
297.842	270.75
298.309	270.35
298.776	271.65
299.243	275.45
299.71	272.45
300.177	273.75
300.644	273.45
301.111	271.85
301.578	263.75
302.045	275.45
302.512	268.05
302.979	271.65
303.446	271.55
303.913	269.75
304.379	269.75
304.846	268.95
305.313	267.75
305.78	268.15
306.246	262.65
306.713	260.75
307.18	265.35
307.646	258.15
308.113	254.95
308.579	256.05
309.046	256.65
309.512	256.15
309.979	260.25
310.445	258.45
310.912	257.25
311.378	260.85
311.845	251.25
312.311	255.05
312.777	251.75
313.244	247.75
313.71	256.85
314.176	257.75
314.642	262.85
315.109	262.35
315.575	252.55
316.041	257.25
316.507	263.05
316.973	270.35
317.439	265.35
317.905	268.05
318.371	264.05
318.837	265.65
319.303	261.15
319.769	266.95
320.235	273.55
320.701	275.95
321.167	277.95
321.633	274.35
322.099	279.35
322.564	283.65
323.03	274.55
323.496	280.95
323.962	283.25
324.427	280.05
324.893	279.35
325.359	282.45
325.824	275.85
326.29	278.45
326.755	273.35
327.221	276.85
327.686	268.85
328.152	270.75
328.617	264.25
329.083	270.45
329.548	275.95
330.014	273.35
330.479	268.45
330.944	265.45
331.41	263.75
331.875	267.55
332.34	262.75
332.805	257.55
333.271	253.25
333.736	255.15
334.201	253.65
334.666	253.95
335.131	252.85
335.596	253.45
336.061	247.55
336.526	250.45
336.991	246.75
337.456	261.15
337.921	250.15
338.386	255.25
338.851	250.45
339.316	246.65
339.781	260.45
340.246	259.75
340.711	256.55
341.175	262.75
341.64	272.05
342.105	271.15
342.569	266.45
343.034	269.45
343.499	273.05
343.963	279.05
344.428	271.35
344.893	273.15
345.357	281.55
345.822	280.85
346.286	285.25
346.751	285.45
347.215	290.45
347.679	295.45
348.144	300.75
348.608	300.65
349.073	297.15
349.537	293.45
350.001	296.05
350.465	297.55
350.93	299.65
351.394	294.65
351.858	294.95
352.322	294.55
352.786	301.35
353.25	299.75
353.715	297.85
354.179	296.85
354.643	295.15
355.107	297.65
355.571	299.05
356.035	300.25
356.498	296.85
356.962	295.85
357.426	300.15
357.89	295.75
358.354	303.45
358.818	297.25
359.281	300.55
359.745	305.65
360.209	299.05
360.673	305.45
361.136	299.85
361.6	300.45
362.064	297.15
362.527	298.35
362.991	301.65
363.454	292.15
363.918	302.65
364.381	298.15
364.845	299.45
365.308	302.15
365.772	299.95
366.235	297.25
366.698	302.65
367.162	295.45
367.625	297.25
368.088	300.75
368.552	291.95
369.015	293.65
369.478	299.85
369.941	299.05
370.404	304.65
370.867	299.95
371.331	302.35
371.794	298.55
372.257	302.05
372.72	305.25
373.183	306.05
373.646	302.75
374.109	299.45
374.572	306.45
375.035	304.55
375.497	313.35
375.96	311.25
376.423	312.95
376.886	305.75
377.349	320.05
377.811	320.65
378.274	315.95
378.737	318.95
379.199	318.65
379.662	317.85
380.125	318.65
380.587	316.45
381.05	317.25
381.512	315.25
381.975	322.95
382.437	317.65
382.9	318.65
383.362	328.15
383.825	321.55
384.287	327.05
384.75	321.65
385.212	329.25
385.674	323.05
386.136	336.05
386.599	332.35
387.061	327.55
387.523	333.45
387.985	333.85
388.447	329.75
388.91	325.45
389.372	326.55
389.834	322.45
390.296	324.45
390.758	329.35
391.22	339.55
391.682	336.05
392.144	335.15
392.606	330.15
393.068	324.85
393.529	326.05
393.991	322.35
394.453	323.85
394.915	331.35
395.377	337.55
395.838	333.25
396.3	338.25
396.762	350.85
397.224	347.45
397.685	344.55
398.147	338.55
398.608	341.15
399.07	339.55
399.531	330.75
399.993	337.75
400.454	341.05
400.916	332.35
401.377	327.45
401.839	329.75
402.3	323.65
402.762	335.85
403.223	337.95
403.684	335.85
404.145	340.45
404.607	336.25
405.068	328.15
405.529	317.05
405.99	319.85
406.451	312.95
406.913	313.15
407.374	312.35
407.835	322.25
408.296	310.45
408.757	307.65
409.218	306.35
409.679	297.85
410.14	301.25
410.601	298.45
411.062	295.25
411.522	296.05
411.983	300.45
412.444	301.75
412.905	300.85
413.366	289.65
413.826	291.05
414.287	286.35
414.748	279.55
415.208	287.25
415.669	290.05
416.13	282.15
416.59	280.55
417.051	282.05
417.511	286.85
417.972	286.25
418.432	287.75
418.893	287.85
419.353	288.15
419.814	296.35
420.274	301.55
420.734	307.35
421.195	294.15
421.655	288.25
422.115	288.15
422.576	282.35
423.036	282.95
423.496	272.55
423.956	277.85
424.416	269.05
424.876	268.25
425.336	267.05
425.797	263.85
426.257	268.65
426.717	268.45
427.177	255.85
427.637	258.15
428.097	255.25
428.556	258.45
429.016	257.55
429.476	256.25
429.936	250.75
430.396	242.65
430.856	227.95
431.315	227.65
431.775	223.55
432.235	222.65
432.694	228.15
433.154	226.85
433.614	212.35
434.073	219.85
434.533	209.25
434.993	198.05
435.452	207.05
435.912	203.35
436.371	189.15
436.83	190.15
437.29	184.55
437.749	183.25
438.209	179.15
438.668	178.65
439.127	176.55
439.587	170.35
440.046	170.05
440.505	175.65
440.964	167.05
441.424	162.85
441.883	161.35
442.342	154.25
442.801	150.05
443.26	149.05
443.719	146.15
444.178	140.25
444.637	144.05
445.096	136.95
445.555	136.45
446.014	131.05
446.473	129.65
446.932	125.45
447.391	118.25
447.849	124.75
448.308	119.05
448.767	112.65
449.226	112.35
449.685	109.05
450.143	110.05
450.602	110.35
451.061	107.95
451.519	111.15
451.978	104.45
452.436	104.65
452.895	97.15
453.353	100.55
453.812	97.85
454.27	100.15
454.729	96.85
455.187	98.95
455.646	94.05
456.104	96.95
456.562	96.25
457.021	96.05
457.479	94.95
457.937	91.95
458.395	96.55
458.854	90.45
459.312	88.65
459.77	87.95
460.228	88.45
460.686	91.05
461.144	94.25
461.602	86.05
462.06	87.45
462.518	88.05
462.976	87.95
463.434	85.95
463.892	86.05
464.35	89.25
464.808	88.85
465.266	90.55
465.724	87.25
466.181	88.55
466.639	83.95
467.097	90.25
467.555	86.15
468.012	85.65
468.47	93.95
468.928	85.85
469.385	89.45
469.843	87.85
470.3	87.55
470.758	88.85
471.215	82.15
471.673	87.25
472.13	86.05
472.588	88.65
473.045	88.65
473.503	83.75
473.96	87.95
474.417	84.55
474.875	88.15
475.332	81.35
475.789	88.15
476.246	86.25
476.704	89.45
477.161	90.25
477.618	87.55
478.075	92.65
478.532	85.45
478.989	88.35
479.446	87.05
479.903	92.35
480.36	82.15
480.817	86.05
481.274	89.95
481.731	87.25
482.188	82.45
482.645	93.35
483.102	81.25
483.558	85.05
484.015	89.55
484.472	86.95
484.929	89.25
485.385	86.85
485.842	84.65
486.299	89.75
486.755	89.85
487.212	88.15
487.668	87.95
488.125	84.25
488.582	87.35
489.038	87.95
489.494	88.75
489.951	88.85
490.407	84.25
490.864	90.75
491.32	84.15
491.776	86.85
492.233	91.85
492.689	90.65
493.145	87.05
493.602	85.05
494.058	85.05
494.514	85.95
494.97	85.55
495.426	85.75
495.882	84.75
496.338	90.35
496.794	87.75
497.251	91.25
497.707	87.15
498.163	90.55
498.618	90.85
499.074	90.05
499.53	83.55
499.986	87.95
500.442	89.05
500.898	87.05
501.354	86.25
501.809	87.75
502.265	85.25
502.721	79.65
503.177	89.25
503.632	88.95
504.088	90.25
504.543	89.25
504.999	90.05
505.455	88.65
505.91	83.95
506.366	87.35
506.821	86.45
507.277	83.15
507.732	86.75
508.187	87.25
508.643	84.95
509.098	87.35
509.553	86.65
510.009	89.25
510.464	83.85
510.919	87.45
511.375	90.45
511.83	85.05
512.285	90.25
512.74	91.15
513.195	89.35
513.65	89.55
514.105	84.75
514.56	86.55
515.015	85.35
515.47	84.85
515.925	81.65
516.38	86.65
516.835	86.15
517.29	85.85
517.745	84.05
518.2	84.05
518.655	84.15
519.109	87.45
519.564	89.85
520.019	84.45
520.474	82.15
520.928	88.15
521.383	84.45
521.838	87.55
522.292	82.45
522.747	90.15
523.201	89.45
523.656	80.15
524.11	89.75
524.565	89.65
525.019	89.95
525.474	87.75
525.928	91.15
526.382	87.85
526.837	87.95
527.291	85.55
527.745	83.45
528.2	88.65
528.654	87.95
529.108	85.35
529.562	84.35
530.016	89.15
530.47	81.65
530.925	89.85
531.379	85.45
531.833	86.75
532.287	87.55
532.741	90.65
533.195	88.15
533.649	86.75
534.103	87.55
534.556	90.55
535.01	90.85
535.464	87.45
535.918	88.55
536.372	86.05
536.826	83.55
537.279	86.75
537.733	84.75
538.187	88.65
538.64	90.05
539.094	83.35
539.548	88.95
540.001	85.85
540.455	91.05
540.908	90.25
541.362	83.95
541.815	87.25
542.269	93.75
542.722	88.35
543.175	87.45
543.629	86.55
544.082	90.35
544.536	84.85
544.989	84.95
545.442	85.45
545.895	86.35
546.349	87.85
546.802	86.55
547.255	87.05
547.708	85.35
548.161	84.75
548.614	90.55
549.067	85.75
549.52	86.85
549.973	81.55
550.426	84.25
550.879	83.65
551.332	81.85
551.785	87.35
552.238	88.95
552.691	86.15
553.144	86.75
553.596	82.35
554.049	83.75
554.502	86.05
554.955	87.65
555.407	85.85
555.86	84.65
556.313	84.55
556.765	86.55
557.218	87.45
557.67	86.15
558.123	84.95
558.576	82.85
559.028	91.55
559.48	89.05
559.933	89.75
560.385	82.35
560.838	84.55
561.29	89.65
561.742	91.05
562.195	83.95
562.647	87.45
563.099	84.55
563.551	87.25
564.004	89.95
564.456	82.15
564.908	83.75
565.36	87.85
565.812	86.55
566.264	82.95
566.716	85.65
567.168	90.05
567.62	86.55
568.072	89.55
568.524	81.75
568.976	85.35
569.428	86.65
569.88	84.55
570.332	92.55
570.784	84.05
571.235	83.85
571.687	85.95
572.139	90.15
572.59	85.65
573.042	86.95
573.494	91.65
573.945	85.15
574.397	87.15
574.849	84.45
575.3	89.55
575.752	87.15
576.203	88.65
576.655	86.05
577.106	89.55
577.557	88.05
578.009	90.85
578.46	90.25
578.912	91.35
579.363	91.55
579.814	90.45
580.265	85.35
580.717	86.85
581.168	85.05
581.619	90.25
582.07	89.75
582.521	87.65
582.972	84.95
583.423	88.65
583.875	86.85
584.326	88.45
584.777	88.45
585.227	83.85
585.678	86.85
586.129	86.65
586.58	90.05
587.031	88.15
587.482	84.65
587.933	85.95
588.384	81.05
588.834	90.55
589.285	88.65
589.736	85.55
590.186	88.45
590.637	87.85
591.088	87.05
591.538	91.55
591.989	83.35
592.439	89.05
592.89	89.85
593.34	91.85
593.791	86.65
594.241	86.85
594.692	91.35
595.142	90.55
595.593	91.65
596.043	88.95
596.493	86.85
596.943	85.55
597.394	88.75
597.844	88.25
598.294	86.75
598.744	86.15
599.195	88.75
599.645	87.95
600.095	89.75
600.545	87.15
600.995	89.25
601.445	89.25
601.895	88.25
602.345	88.05
602.795	89.05
603.245	89.95
603.695	95.15
604.145	88.15
604.594	85.85
605.044	85.05
605.494	81.35
605.944	87.55
606.393	80.65
606.843	89.05
607.293	88.35
607.743	90.25
608.192	83.45
608.642	86.15
609.091	83.15
609.541	84.35
609.99	81.55
610.44	81.55
610.889	84.75
611.339	88.45
611.788	91.55
612.238	89.75
612.687	80.75
613.136	85.75
613.586	89.65
614.035	90.35
614.484	85.75
614.933	88.45
615.383	88.05
615.832	80.85
616.281	86.25
616.73	88.65
617.179	88.45
617.628	84.25
618.077	85.45
618.526	86.85
618.975	89.85
619.424	89.05
619.873	82.05
620.322	87.35
620.771	88.15
621.22	88.45
621.669	87.55
622.118	90.55
622.567	83.05
623.015	87.35
623.464	78.85
623.913	85.35
624.361	88.65
624.81	87.95
625.259	84.25
625.707	88.25
626.156	83.35
626.604	82.25
627.053	84.85
627.501	84.35
627.95	82.65
628.398	87.15
628.847	82.35
629.295	84.75
629.744	87.45
630.192	88.55
630.64	85.45
631.089	86.55
631.537	87.45
631.985	83.15
632.433	81.95
632.881	82.05
633.33	89.25
633.778	91.05
634.226	87.55
634.674	85.35
635.122	85.75
635.57	84.45
636.018	86.75
636.466	84.85
636.914	85.65
637.362	89.15
637.81	87.65
638.258	89.85
638.705	84.25
639.153	89.15
639.601	87.55
640.049	80.25
640.497	83.45
640.944	82.15
641.392	91.35
641.84	84.15
642.287	86.75
642.735	80.15
643.182	85.85
643.63	88.35
644.078	84.05
644.525	79.75
644.973	84.15
645.42	88.55
645.867	87.95
646.315	88.25
646.762	91.25
647.21	85.75
647.657	82.45
648.104	80.05
648.551	84.05
648.999	86.95
649.446	79.95
649.893	82.15
650.34	82.25
650.787	85.55
651.234	86.05
651.682	85.15
652.129	84.05
652.576	85.15
653.023	85.55
653.47	94.05
653.917	97.45
654.363	106.15
654.81	101.85
655.257	96.35
655.704	89.75
656.151	85.25
656.598	85.75
657.044	84.85
657.491	86.25
657.938	84.05
658.385	81.35
658.831	88.55
659.278	87.45
659.724	94.15
660.171	85.95
660.618	83.95
661.064	84.55
661.511	83.85
661.957	88.35
662.404	83.55
662.85	88.75
663.296	86.15
663.743	91.85
664.189	91.05
664.635	86.35
665.082	86.85
665.528	81.35
665.974	90.65
666.42	83.55
666.867	85.15
667.313	91.45
667.759	85.65
668.205	82.45
668.651	90.45
669.097	85.75
669.543	88.35
669.989	84.85
670.435	90.05
670.881	88.15
671.327	88.35
671.773	86.45
672.219	91.65
672.665	88.75
673.11	89.05
673.556	81.85
674.002	85.05
674.448	86.15
674.893	86.35
675.339	87.05
675.785	85.65
676.23	84.35
676.676	88.75
677.122	91.55
677.567	84.35
678.013	89.15
678.458	85.25
678.904	81.85
679.349	80.85
679.794	87.15
680.24	85.85
680.685	85.15
681.131	84.75
681.576	79.15
682.021	86.75
682.466	84.05
682.912	83.75
683.357	83.05
683.802	86.55
684.247	87.25
684.692	87.35
685.137	87.45
685.583	85.35
686.028	81.95
686.473	88.15
686.918	86.85
687.363	88.45
687.807	85.85
688.252	83.55
688.697	85.75
689.142	82.75
689.587	81.35
690.032	83.45
690.477	86.45
690.921	83.45
691.366	84.35
691.811	77.95
692.255	86.75
692.7	88.45
693.145	81.95
693.589	83.95
694.034	84.55
694.478	85.35
694.923	84.95
695.367	88.95
695.812	86.85
696.256	88.05
696.701	88.25
697.145	89.45
697.59	83.45
698.034	87.05
698.478	78.75
698.922	87.85
699.367	83.95
699.811	85.25
700.255	82.55
700.699	86.75
701.143	88.05
701.588	85.95
702.032	87.05
702.476	84.45
702.92	89.05
703.364	83.85
703.808	83.55
704.252	84.35
704.696	85.45
705.14	84.95
705.584	81.55
706.027	89.45
706.471	88.25
706.915	82.85
707.359	87.85
707.803	84.05
708.246	85.55
708.69	88.15
709.134	90.45
709.577	87.15
710.021	84.25
710.465	84.35
710.908	84.15
711.352	85.05
711.795	84.45
712.239	85.15
712.682	89.35
713.126	88.15
713.569	86.15
714.012	86.65
714.456	87.45
714.899	88.25
715.342	86.05
715.786	83.75
716.229	92.35
716.672	90.95
717.115	88.15
717.558	88.65
718.002	88.05
718.445	86.65
718.888	91.15
719.331	89.25
719.774	86.95
720.217	91.05
720.66	87.65
721.103	90.75
721.546	89.95
721.989	90.35
722.432	85.75
722.874	84.75
723.317	81.95
723.76	85.65
724.203	90.25
724.645	86.95
725.088	90.65
725.531	84.95
725.974	90.15
726.416	85.65
726.859	88.85
727.301	82.15
727.744	84.25
728.187	81.75
728.629	86.75
729.071	86.05
729.514	85.95
729.956	89.65
730.399	86.65
730.841	86.15
731.283	84.55
731.726	88.85
732.168	91.25
732.61	86.75
733.053	88.85
733.495	85.45
733.937	86.95
734.379	85.75
734.821	84.85
735.263	90.15
735.705	90.95
736.148	82.35
736.59	86.05
737.032	85.45
737.474	92.25
737.916	88.25
738.357	86.75
738.799	86.45
739.241	85.05
739.683	91.75
740.125	89.45
740.567	87.95
741.008	87.65
741.45	87.95
741.892	84.45
742.334	86.35
742.775	88.95
743.217	87.55
743.658	92.35
744.1	84.15
744.542	85.75
744.983	88.65
745.425	86.05
745.866	87.55
746.307	85.45
746.749	88.45
747.19	86.05
747.632	83.55
748.073	87.35
748.514	86.65
748.956	88.15
749.397	85.35
749.838	87.15
750.279	88.75
750.72	90.05
751.162	86.95
751.603	85.45
752.044	88.35
752.485	88.65
752.926	88.45
753.367	91.55
753.808	83.75
754.249	89.45
754.69	88.55
755.131	89.45
755.572	85.55
756.013	90.15
756.453	84.45
756.894	85.85
757.335	86.35
757.776	84.25
758.216	82.95
758.657	90.15
759.098	83.95
759.538	86.15
759.979	81.75
760.42	87.75
760.86	85.45
761.301	86.95
761.741	87.45
762.182	89.95
762.622	84.85
763.063	80.45
763.503	82.85
763.943	83.85
764.384	80.35
764.824	84.75
765.264	84.15
765.705	84.95
766.145	87.15
766.585	90.05
767.025	85.85
767.465	85.45
767.906	89.25
768.346	80.15
768.786	88.85
769.226	88.55
769.666	83.65
770.106	85.85
770.546	89.15
770.986	82.65
771.426	85.75
771.866	89.05
772.306	83.85
772.745	88.15
773.185	88.45
773.625	90.15
774.065	80.35
774.505	82.65
774.944	88.55
775.384	87.85
775.824	87.65
776.263	81.45
776.703	86.25
777.142	84.35
777.582	92.55
778.021	88.05
778.461	87.95
778.9	88.35
779.34	91.65
779.779	82.15
780.219	85.55
780.658	84.55
781.097	84.45
781.537	85.55
781.976	93.55
782.415	88.05
782.855	83.95
783.294	84.15
783.733	85.95
784.172	90.45
784.611	88.25
785.05	84.15
785.489	85.85
785.928	84.75
786.367	87.45
786.806	82.25
787.245	83.65
787.684	84.45
788.123	81.75
788.562	84.05
789.001	89.05
789.44	83.55
789.879	90.75
790.317	85.95
790.756	84.85
791.195	91.65
791.634	84.95
792.072	90.15
792.511	88.55
792.95	85.05
793.388	88.35
793.827	89.15
794.265	87.55
794.704	90.45
795.142	87.75
795.581	82.25
796.019	88.35
796.458	88.65
796.896	84.55
797.334	90.25
797.773	86.35
798.211	86.35
798.649	84.15
799.087	86.55
799.526	83.75
799.964	86.95
800.402	89.75
800.84	82.35
801.278	89.45
801.716	84.25
802.154	82.45
802.592	89.15
803.03	87.25
803.468	90.15
803.906	82.25
804.344	84.25
804.782	85.95
805.22	87.05
805.658	90.45
806.096	86.65
806.533	80.35
806.971	87.95
807.409	91.15
807.847	96.55
808.284	85.75
808.722	83.05
809.16	80.95
809.597	87.25
810.035	83.35
810.472	84.45
810.91	86.75
811.347	87.75
811.785	83.65
812.222	88.75
812.66	90.15
813.097	92.25
813.535	87.75
813.972	85.75
814.409	89.85
814.846	84.65
815.284	84.05
815.721	84.45
816.158	86.85
816.595	79.85
817.032	82.45
817.47	83.75
817.907	87.35
818.344	86.85
818.781	85.45
819.218	88.35
819.655	85.25
820.092	90.25
820.529	86.05
820.966	88.65
821.403	86.25
821.839	86.45
822.276	79.95
822.713	90.05
823.15	81.95
823.587	83.85
824.023	85.25
824.46	87.35
824.897	82.05
825.333	86.05
825.77	90.75
826.206	88.55
826.643	83.05
827.08	87.85
827.516	84.85
827.953	85.15
828.389	85.45
828.825	86.75
829.262	86.25
829.698	85.65
830.135	85.25
830.571	87.25
831.007	84.15
831.443	83.55
831.88	87.95
832.316	85.85
832.752	89.15
833.188	86.05
833.624	85.85
834.06	79.75
834.497	88.25
834.933	82.75
835.369	84.75
835.805	85.25
836.241	87.45
836.677	86.65
837.112	85.95
837.548	82.05
837.984	88.75
838.42	83.95
838.856	88.95
839.292	88.25
839.727	91.45
840.163	86.45
840.599	83.15
841.034	86.05
841.47	87.45
841.906	85.25
842.341	81.65
842.777	82.75
843.212	87.85
843.648	89.25
844.083	85.45
844.519	86.95
844.954	88.25
845.39	88.45
845.825	90.75
846.261	87.65
846.696	86.75
847.131	84.85
847.566	87.15
848.002	85.35
848.437	87.15
848.872	84.85
849.307	87.35
849.742	83.85
850.177	86.75
850.613	88.45
851.048	92.55
851.483	84.25
851.918	87.15
852.353	87.15
852.788	82.05
853.223	85.05
853.657	87.15
854.092	85.55
854.527	90.05
854.962	88.65
855.397	88.15
855.832	89.25
856.266	90.05
856.701	88.65
857.136	91.95
857.57	84.55
858.005	91.85
858.44	87.55
858.874	87.75
859.309	91.15
859.743	87.45
860.178	84.65
860.612	87.65
861.047	81.75
861.481	86.85
861.915	86.85
862.35	80.15
862.784	89.75
863.218	91.25
863.653	84.15
864.087	87.95
864.521	85.85
864.955	85.75
865.39	83.85
865.824	86.55
866.258	83.55
866.692	88.85
867.126	88.35
867.56	85.35
867.994	91.55
868.428	91.45
868.862	86.05
869.296	85.65
869.73	81.65
870.164	85.55
870.598	88.95
871.031	84.85
871.465	87.15
871.899	87.75
872.333	84.35
872.766	79.55
873.2	84.95
873.634	84.15
874.067	86.25
874.501	85.55
874.935	86.75
875.368	90.25
875.802	90.65
876.235	85.25
876.669	89.75
877.102	84.05
877.535	82.85
877.969	79.55
878.402	81.75
878.836	82.25
879.269	86.85
879.702	86.95
880.135	83.75
880.569	91.95
881.002	83.05
881.435	88.95
881.868	83.55
882.301	83.85
882.734	87.45
883.167	85.55
883.601	84.55
884.034	85.95
884.467	91.25
884.899	82.05
885.332	84.05
885.765	87.65
886.198	86.75
886.631	85.75
887.064	82.35
887.497	87.05
887.929	88.95
888.362	90.15
888.795	86.15
889.228	84.95
889.66	84.35
890.093	90.15
890.526	88.35
890.958	85.45
891.391	87.65
891.823	87.45
892.256	82.95
892.688	84.25
893.121	85.95
893.553	84.15
893.985	79.95
894.418	86.85
894.85	87.05
895.282	86.95
895.715	83.75
896.147	82.55
896.579	82.85
897.011	87.25
897.444	88.05
897.876	85.15
898.308	84.35
898.74	84.05
899.172	83.15
899.604	84.65
900.036	82.65
900.468	84.05
900.9	83.65
901.332	91.75
901.764	85.05
902.196	86.05
902.628	88.65
903.06	90.75
903.491	85.45
903.923	81.85
904.355	88.15
904.787	86.25
905.218	87.05
905.65	84.05
906.082	82.05
906.513	92.55
906.945	86.05
907.376	86.25
907.808	89.05
908.239	79.15
908.671	80.45
909.102	87.55
909.534	83.25
909.965	84.25
910.397	85.85
910.828	84.95
911.259	84.85
911.691	85.55
912.122	86.35
912.553	88.55
912.984	87.95
913.415	84.45
913.847	88.55
914.278	86.35
914.709	85.15
915.14	85.65
915.571	83.35
916.002	79.25
916.433	89.55
916.864	88.05
917.295	88.05
917.726	85.75
918.157	85.95
918.587	84.65
919.018	87.05
919.449	83.45
919.88	85.45
920.311	85.75
920.741	87.55
921.172	86.15
921.603	85.25
922.033	85.05
922.464	84.35
922.895	87.35
923.325	83.35
923.756	87.25
924.186	88.45
924.617	85.55
925.047	83.45
925.478	86.05
925.908	83.55
926.338	91.15
926.769	85.45
927.199	86.85
927.629	88.35
928.06	82.55
928.49	87.45
928.92	86.95
929.35	89.05
929.78	88.05
930.21	89.45
930.641	90.65
931.071	85.85
931.501	81.65
931.931	83.65
932.361	87.95
932.791	85.35
933.221	82.85
933.651	85.65
934.08	83.75
934.51	87.15
934.94	84.35
935.37	84.15
935.8	84.15
936.229	87.45
936.659	85.55
937.089	88.85
937.519	89.25
937.948	82.75
938.378	89.25
938.807	82.75
939.237	82.05
939.666	83.85
940.096	88.15
940.525	87.05
940.955	87.45
941.384	85.25
941.814	84.35
942.243	82.05
942.672	85.45
943.102	85.35
943.531	83.85
943.96	84.35
944.39	86.75
944.819	84.45
945.248	82.35
945.677	80.45
946.106	86.45
946.535	82.05
946.964	85.45
947.393	86.45
947.822	81.85
948.251	87.05
948.68	87.45
949.109	82.95
949.538	85.85
949.967	88.55
950.396	80.25
950.825	87.35
951.254	82.65
951.682	89.75
952.111	82.45
952.54	81.65
952.969	83.95
953.397	85.85
953.826	89.85
954.254	84.65
954.683	77.75
955.112	85.75
955.54	86.05
955.969	81.65
956.397	85.15
956.826	86.85
957.254	80.05
957.682	89.45
958.111	90.95
958.539	82.95
958.967	87.35
959.396	87.25
959.824	85.55
960.252	83.15
960.68	84.95
961.109	81.05
961.537	89.05
961.965	80.55
962.393	84.75
962.821	89.35
963.249	90.95
963.677	86.65
964.105	82.55
964.533	87.15
964.961	82.45
965.389	86.55
965.817	87.55
966.245	85.45
966.672	86.45
967.1	85.15
967.528	84.25
967.956	86.95
968.383	77.95
968.811	87.65
969.239	88.75
969.666	86.95
970.094	80.85
970.522	86.15
970.949	87.05
971.377	85.55
971.804	85.95
972.232	89.05
972.659	84.65
973.087	82.95
973.514	86.85
973.941	82.15
974.369	79.35
974.796	85.85
975.223	85.95
975.651	87.15
976.078	88.75
976.505	86.25
976.932	85.35
977.359	83.35
977.786	78.95
978.214	88.85
978.641	87.95
979.068	87.85
979.495	85.95
979.922	81.15
980.349	82.05
980.776	84.95
981.202	87.25
981.629	81.95
982.056	87.05
982.483	87.35
982.91	85.45
983.337	88.15
983.763	84.75
984.19	85.35
984.617	85.15
985.043	86.35
985.47	86.35
985.897	84.65
986.323	83.45
986.75	82.65
987.176	88.35
987.603	87.25
988.029	87.85
988.456	82.15
988.882	85.25
989.308	84.95
989.735	83.25
990.161	82.85
990.587	78.85
991.014	81.05
991.44	86.45
991.866	84.15
992.292	82.35
992.719	84.35
993.145	80.65
993.571	82.15
993.997	80.25
994.423	81.25
994.849	86.75
995.275	86.65
995.701	87.35
996.127	84.45
996.553	85.45
996.979	85.35
997.405	91.15
997.83	76.65
998.256	84.95
998.682	81.85
999.108	82.95
999.534	85.55
999.959	85.05
1000.385	82.25
1000.811	84.65
1001.236	85.15
1001.662	89.85
1002.087	93.15
1002.513	88.05
1002.938	83.75
1003.364	85.25
1003.789	78.15
1004.215	85.65
1004.64	83.85
1005.066	90.15
1005.491	80.75
1005.916	86.25
1006.342	86.05
1006.767	83.25
1007.192	81.85
1007.617	80.95
1008.042	85.05
1008.468	85.85
1008.893	84.25
1009.318	83.35
1009.743	85.25
1010.168	83.95
1010.593	82.05
1011.018	85.15
1011.443	87.25
1011.868	84.75
1012.293	82.35
1012.718	84.45
1013.143	83.45
1013.567	88.15
1013.992	87.45
1014.417	86.85
1014.842	88.05
1015.267	83.45
1015.691	83.25
1016.116	80.55
1016.541	83.05
1016.965	83.95
1017.39	82.45
1017.814	88.65
1018.239	82.35
1018.663	87.05
1019.088	82.75
1019.512	89.85
1019.937	85.55
1020.361	83.15
1020.785	83.65
1021.21	84.35
1021.634	86.05
1022.058	82.05
1022.483	83.15
1022.907	85.35
1023.331	91.75
1023.755	86.05
1024.179	85.85
1024.604	87.15
1025.028	77.65
1025.452	85.55
1025.876	83.45
1026.3	83.55
1026.724	87.45
1027.148	83.55
1027.572	84.25
1027.996	85.15
1028.42	81.85
1028.843	83.35
1029.267	87.25
1029.691	79.45
1030.115	83.75
1030.539	84.05
1030.962	82.45
1031.386	84.35
1031.81	84.95
1032.233	83.45
1032.657	92.25
1033.08	90.75
1033.504	86.95
1033.927	87.95
1034.351	82.65
1034.774	80.75
1035.198	87.35
1035.621	86.35
1036.045	88.25
1036.468	82.15
1036.891	87.55
1037.315	91.15
1037.738	84.55
1038.161	86.05
1038.584	88.05
1039.008	88.05
1039.431	88.15
1039.854	86.05
1040.277	83.35
1040.7	88.75
1041.123	82.75
1041.546	82.55
1041.969	86.45
1042.392	86.85
1042.815	85.15
1043.238	76.25
1043.661	79.85
1044.084	81.65
1044.507	87.35
1044.93	79.85
1045.352	85.25
1045.775	82.55
1046.198	87.05
1046.621	84.35
1047.043	82.85
1047.466	86.35
1047.889	86.75
1048.311	86.45
1048.734	82.75
1049.156	84.55
1049.579	83.65
1050.001	84.95
1050.424	84.75
1050.846	81.25
1051.269	84.75
1051.691	82.95
1052.113	83.25
1052.536	84.85
1052.958	85.55
1053.38	85.55
1053.802	82.95
1054.225	86.05
1054.647	92.95
1055.069	83.45
1055.491	81.65
1055.913	86.05
1056.335	83.65
1056.757	88.55
1057.179	87.25
1057.601	85.65
1058.023	80.35
1058.445	87.05
1058.867	79.15
1059.289	83.15
1059.711	83.95
1060.133	78.25
1060.555	78.65
1060.976	82.15
1061.398	83.45
1061.82	82.25
1062.241	78.85
1062.663	86.25
1063.085	88.15
1063.506	84.45
1063.928	82.15
1064.35	84.45
1064.771	85.35
1065.193	87.05
1065.614	80.55
1066.035	86.05
1066.457	92.15
1066.878	81.95
1067.3	84.85
1067.721	85.05
1068.142	77.65
1068.564	80.35
1068.985	88.75
1069.406	81.95
1069.827	83.35
1070.248	85.95
1070.67	84.55
1071.091	82.45
1071.512	83.45
1071.933	84.15
1072.354	80.35
1072.775	87.25
1073.196	85.05
1073.617	88.85
1074.038	84.85
1074.459	87.05
1074.88	85.55
1075.3	85.55
1075.721	82.95
1076.142	81.35
1076.563	85.65
1076.983	83.85
1077.404	83.75
1077.825	81.05
1078.246	84.25
1078.666	84.05
1079.087	80.45
1079.507	80.25
1079.928	82.25
1080.348	87.85
1080.769	82.25
1081.189	87.55
1081.61	84.65
1082.03	83.45
1082.451	85.05
1082.871	81.55
1083.291	84.75
1083.711	84.05
1084.132	82.85
1084.552	86.15
1084.972	85.25
1085.392	86.45
1085.813	85.55
1086.233	85.65
1086.653	88.75
1087.073	86.15
1087.493	82.25
1087.913	83.95
1088.333	81.55
1088.753	84.85
1089.173	86.15
1089.593	83.45
1090.013	87.75
1090.433	86.45
1090.852	84.45
1091.272	82.75
1091.692	83.65
1092.112	84.95
1092.531	83.45
1092.951	82.85
1093.371	84.75
1093.79	86.75
1094.21	86.35
1094.63	83.85
1095.049	85.75
1095.469	83.05
1095.888	86.65
1096.308	80.45
1096.727	86.45
1097.146	84.95
1097.566	88.95
1097.985	88.35
1098.405	83.65
1098.824	84.55
1099.243	85.25
1099.662	89.85
1100.082	82.75
1100.501	89.05
1100.92	85.25
1101.339	84.65
1101.758	85.15
