Data from DH-3PlusCalLight-Halogen_HRD10391_13-39-49-797.txt Node
Date: Thu Feb 15 13:39:49 EST 2018
User: Ender
Spectrometer: HR+D1039
Trigger mode: 0
Integration Time (sec): 2.730000E-2
Scans to average: 10
Electric dark correction enabled: true
Nonlinearity correction enabled: false
Boxcar width: 0
XAxis mode: Wavelengths
Number of Pixels in Spectrum: 2048
>>>>>Begin Spectral Data<<<<<
187.836	-2.06
188.309	-2.06
188.782	-2.06
189.255	0.24
189.728	-5.96
190.201	-5.06
190.674	-6.76
191.147	-6.46
191.619	-9.36
192.092	-11.16
192.565	-3.06
193.038	-1.46
193.511	0.84
193.984	1.44
194.456	4.44
194.929	11.24
195.402	15.24
195.874	17.94
196.347	19.04
196.82	26.14
197.292	31.04
197.765	35.84
198.237	35.94
198.71	40.84
199.182	45.64
199.655	43.24
200.127	54.54
200.6	62.64
201.072	59.74
201.544	62.64
202.017	65.64
202.489	74.04
202.961	73.04
203.433	70.54
203.906	73.14
204.378	74.74
204.85	75.34
205.322	81.14
205.794	80.44
206.266	82.74
206.739	82.04
207.211	83.44
207.683	82.84
208.155	79.94
208.627	82.14
209.099	88.94
209.57	88.14
210.042	86.24
210.514	86.34
210.986	90.64
211.458	89.44
211.93	90.54
212.402	85.74
212.873	83.24
213.345	85.04
213.817	83.24
214.288	89.14
214.76	83.64
215.232	82.84
215.703	86.64
216.175	80.04
216.646	80.94
217.118	84.64
217.589	79.04
218.061	78.54
218.532	77.24
219.004	87.14
219.475	81.84
219.946	80.94
220.418	86.54
220.889	79.24
221.36	78.74
221.832	82.64
222.303	80.24
222.774	81.74
223.245	82.74
223.717	81.74
224.188	82.24
224.659	77.74
225.13	81.74
225.601	75.94
226.072	78.54
226.543	81.04
227.014	82.74
227.485	77.14
227.956	74.14
228.427	77.94
228.898	76.94
229.369	79.94
229.839	74.64
230.31	77.94
230.781	76.84
231.252	79.44
231.722	79.44
232.193	85.24
232.664	80.94
233.135	82.14
233.605	84.44
234.076	78.44
234.546	80.24
235.017	79.84
235.487	78.54
235.958	87.14
236.428	78.84
236.899	77.14
237.369	82.44
237.84	79.54
238.31	82.84
238.78	82.84
239.251	82.74
239.721	79.84
240.191	84.24
240.662	83.14
241.132	81.94
241.602	82.94
242.072	82.74
242.542	78.64
243.013	85.34
243.483	79.84
243.953	81.04
244.423	77.94
244.893	84.04
245.363	86.54
245.833	80.44
246.303	83.54
246.773	86.44
247.243	82.54
247.712	79.24
248.182	84.14
248.652	81.64
249.122	82.04
249.592	84.34
250.061	82.54
250.531	83.94
251.001	85.44
251.471	83.94
251.94	87.74
252.41	77.24
252.879	81.84
253.349	85.44
253.818	82.54
254.288	82.34
254.757	83.14
255.227	83.64
255.696	84.84
256.166	89.64
256.635	85.74
257.105	81.04
257.574	82.44
258.043	87.74
258.513	88.34
258.982	86.34
259.451	84.94
259.92	81.84
260.389	83.14
260.859	83.34
261.328	82.84
261.797	83.94
262.266	85.74
262.735	82.34
263.204	84.94
263.673	83.94
264.142	82.84
264.611	84.84
265.08	80.74
265.549	81.74
266.018	86.94
266.487	88.64
266.955	88.34
267.424	88.94
267.893	82.54
268.362	82.14
268.83	90.44
269.299	86.44
269.768	87.54
270.236	87.84
270.705	88.44
271.174	81.34
271.642	83.34
272.111	85.14
272.579	85.54
273.048	88.14
273.516	83.54
273.985	85.54
274.453	80.64
274.922	82.64
275.39	85.04
275.858	83.34
276.327	86.34
276.795	81.44
277.263	82.24
277.731	81.84
278.2	81.04
278.668	85.04
279.136	89.04
279.604	86.04
280.072	84.84
280.54	83.74
281.008	90.84
281.477	89.54
281.945	87.84
282.413	83.24
282.881	81.14
283.348	84.34
283.816	85.64
284.284	85.84
284.752	89.54
285.22	89.74
285.688	88.14
286.156	83.44
286.623	81.54
287.091	88.84
287.559	84.34
288.026	79.34
288.494	87.44
288.962	85.44
289.429	95.24
289.897	90.74
290.364	81.84
290.832	82.34
291.3	87.24
291.767	88.74
292.234	83.94
292.702	87.04
293.169	84.44
293.637	82.64
294.104	86.64
294.571	89.64
295.039	86.44
295.506	91.84
295.973	85.94
296.44	86.34
296.908	85.24
297.375	91.34
297.842	88.44
298.309	87.74
298.776	89.84
299.243	85.94
299.71	81.44
300.177	83.04
300.644	88.54
301.111	83.44
301.578	93.34
302.045	88.14
302.512	83.94
302.979	83.14
303.446	87.04
303.913	85.94
304.379	85.54
304.846	87.34
305.313	86.64
305.78	81.74
306.246	92.94
306.713	89.34
307.18	93.14
307.646	81.94
308.113	87.64
308.579	90.84
309.046	85.24
309.512	87.74
309.979	84.84
310.445	88.14
310.912	87.34
311.378	88.64
311.845	89.34
312.311	92.94
312.777	78.14
313.244	87.64
313.71	90.34
314.176	85.14
314.642	90.74
315.109	91.64
315.575	85.84
316.041	85.14
316.507	89.44
316.973	88.44
317.439	89.44
317.905	89.54
318.371	91.04
318.837	90.94
319.303	89.34
319.769	86.94
320.235	87.04
320.701	89.14
321.167	85.64
321.633	85.54
322.099	89.74
322.564	93.24
323.03	83.94
323.496	88.64
323.962	87.44
324.427	91.74
324.893	91.04
325.359	90.64
325.824	88.44
326.29	86.94
326.755	88.94
327.221	90.54
327.686	86.74
328.152	88.94
328.617	81.74
329.083	90.94
329.548	88.94
330.014	92.44
330.479	88.24
330.944	77.94
331.41	88.14
331.875	90.94
332.34	87.24
332.805	87.54
333.271	88.54
333.736	90.24
334.201	89.04
334.666	86.34
335.131	91.44
335.596	92.64
336.061	89.04
336.526	91.04
336.991	85.54
337.456	84.94
337.921	88.24
338.386	86.14
338.851	89.04
339.316	82.04
339.781	92.14
340.246	90.54
340.711	87.84
341.175	85.04
341.64	93.14
342.105	89.84
342.569	88.04
343.034	89.94
343.499	89.84
343.963	89.54
344.428	87.64
344.893	92.24
345.357	90.34
345.822	88.84
346.286	86.44
346.751	89.04
347.215	91.34
347.679	87.84
348.144	89.64
348.608	86.74
349.073	90.14
349.537	90.54
350.001	86.94
350.465	89.14
350.93	92.24
351.394	84.64
351.858	87.74
352.322	88.14
352.786	90.94
353.25	90.04
353.715	87.24
354.179	86.24
354.643	92.84
355.107	94.04
355.571	91.74
356.035	90.64
356.498	91.44
356.962	91.64
357.426	94.74
357.89	93.24
358.354	95.74
358.818	93.04
359.281	90.44
359.745	94.14
360.209	85.84
360.673	86.44
361.136	85.94
361.6	89.24
362.064	93.04
362.527	93.14
362.991	91.94
363.454	92.74
363.918	92.34
364.381	89.84
364.845	94.24
365.308	95.84
365.772	92.84
366.235	91.14
366.698	90.74
367.162	94.64
367.625	89.24
368.088	90.84
368.552	92.54
369.015	95.04
369.478	95.44
369.941	96.34
370.404	101.44
370.867	97.34
371.331	95.14
371.794	92.44
372.257	91.44
372.72	93.74
373.183	91.34
373.646	95.44
374.109	94.44
374.572	87.84
375.035	88.24
375.497	95.24
375.96	97.64
376.423	99.04
376.886	90.34
377.349	95.34
377.811	99.54
378.274	100.34
378.737	100.14
379.199	103.84
379.662	100.84
380.125	105.24
380.587	100.84
381.05	103.14
381.512	102.34
381.975	108.44
382.437	102.84
382.9	103.24
383.362	102.94
383.825	106.24
384.287	104.74
384.75	110.84
385.212	109.14
385.674	101.14
386.136	103.14
386.599	107.94
387.061	109.34
387.523	105.44
387.985	112.04
388.447	109.34
388.91	104.04
389.372	110.64
389.834	109.34
390.296	113.24
390.758	109.74
391.22	112.74
391.682	111.84
392.144	112.74
392.606	112.54
393.068	112.94
393.529	116.64
393.991	108.04
394.453	114.94
394.915	120.34
395.377	118.84
395.838	122.14
396.3	121.64
396.762	122.94
397.224	127.24
397.685	126.04
398.147	121.84
398.608	127.84
399.07	131.14
399.531	129.54
399.993	138.34
400.454	126.94
400.916	134.94
401.377	132.54
401.839	134.54
402.3	133.94
402.762	135.94
403.223	142.04
403.684	141.64
404.145	139.04
404.607	140.84
405.068	147.94
405.529	149.14
405.99	150.24
406.451	148.24
406.913	142.24
407.374	154.24
407.835	158.64
408.296	163.84
408.757	158.84
409.218	166.94
409.679	165.34
410.14	171.04
410.601	178.84
411.062	181.74
411.522	182.44
411.983	183.84
412.444	192.54
412.905	194.04
413.366	197.04
413.826	201.54
414.287	198.64
414.748	208.94
415.208	220.24
415.669	216.74
416.13	222.84
416.59	228.24
417.051	232.04
417.511	236.24
417.972	248.44
418.432	256.34
418.893	257.44
419.353	255.44
419.814	267.84
420.274	272.14
420.734	275.24
421.195	287.94
421.655	294.44
422.115	298.74
422.576	312.24
423.036	324.34
423.496	329.94
423.956	342.34
424.416	347.14
424.876	363.34
425.336	368.04
425.797	379.54
426.257	390.34
426.717	412.24
427.177	415.94
427.637	423.34
428.097	440.54
428.556	444.34
429.016	462.54
429.476	475.34
429.936	488.64
430.396	500.14
430.856	515.94
431.315	519.24
431.775	548.64
432.235	564.64
432.694	576.94
433.154	599.84
433.614	603.84
434.073	626.84
434.533	632.74
434.993	648.84
435.452	673.64
435.912	684.74
436.371	702.04
436.83	707.44
437.29	720.04
437.749	747.34
438.209	759.04
438.668	785.24
439.127	797.24
439.587	820.04
440.046	823.34
440.505	849.94
440.964	848.04
441.424	870.94
441.883	907.04
442.342	909.54
442.801	932.04
443.26	945.54
443.719	971.34
444.178	987.94
444.637	1001.54
445.096	1015.94
445.555	1054.14
446.014	1044.14
446.473	1045.34
446.932	1075.64
447.391	1094.44
447.849	1126.64
448.308	1098.94
448.767	1130.64
449.226	1165.64
449.685	1168.64
450.143	1192.44
450.602	1232.64
451.061	1217.04
451.519	1254.44
451.978	1259.84
452.436	1279.84
452.895	1289.14
453.353	1301.24
453.812	1296.84
454.27	1330.64
454.729	1351.74
455.187	1368.64
455.646	1366.14
456.104	1383.74
456.562	1385.74
457.021	1421.94
457.479	1372.04
457.937	1420.04
458.395	1456.84
458.854	1439.44
459.312	1449.94
459.77	1433.14
460.228	1442.54
460.686	1478.54
461.144	1480.04
461.602	1481.44
462.06	1475.24
462.518	1479.34
462.976	1472.94
463.434	1469.04
463.892	1449.74
464.35	1469.24
464.808	1467.24
465.266	1484.84
465.724	1484.84
466.181	1490.64
466.639	1478.04
467.097	1516.14
467.555	1554.74
468.012	1500.74
468.47	1509.14
468.928	1525.94
469.385	1533.74
469.843	1579.14
470.3	1546.14
470.758	1594.84
471.215	1576.64
471.673	1613.74
472.13	1640.34
472.588	1658.04
473.045	1677.54
473.503	1704.24
473.96	1753.44
474.417	1751.64
474.875	1789.14
475.332	1810.34
475.789	1837.04
476.246	1861.44
476.704	1905.34
477.161	1927.74
477.618	1960.74
478.075	1975.24
478.532	2065.34
478.989	2094.94
479.446	2121.54
479.903	2148.14
480.36	2241.14
480.817	2234.14
481.274	2291.64
481.731	2321.84
482.188	2356.74
482.645	2424.54
483.102	2437.94
483.558	2442.44
484.015	2500.84
484.472	2560.84
484.929	2594.44
485.385	2648.74
485.842	2659.44
486.299	2717.44
486.755	2716.44
487.212	2737.84
487.668	2762.34
488.125	2788.64
488.582	2773.84
489.038	2813.94
489.494	2838.54
489.951	2849.24
490.407	2865.04
490.864	2884.04
491.32	2890.94
491.776	2894.14
492.233	2901.74
492.689	2910.84
493.145	2909.64
493.602	2903.64
494.058	2900.44
494.514	2914.04
494.97	2910.64
495.426	2927.64
495.882	2938.04
496.338	2910.94
496.794	2925.04
497.251	2919.74
497.707	2921.14
498.163	2942.24
498.618	2958.34
499.074	2937.34
499.53	2945.84
499.986	2965.44
500.442	2947.94
500.898	2917.74
501.354	2972.34
501.809	2965.24
502.265	2937.84
502.721	2942.94
503.177	2977.84
503.632	2977.84
504.088	2955.24
504.543	2952.74
504.999	2972.24
505.455	2957.64
505.91	2969.64
506.366	2968.74
506.821	2972.44
507.277	2953.34
507.732	2962.24
508.187	2938.14
508.643	2947.44
509.098	2935.04
509.553	2939.94
510.009	2932.94
510.464	2938.34
510.919	2938.74
511.375	2916.94
511.83	2883.74
512.285	2870.14
512.74	2881.24
513.195	2884.14
513.65	2872.24
514.105	2862.74
514.56	2831.04
515.015	2849.74
515.47	2826.34
515.925	2806.74
516.38	2800.24
516.835	2815.94
517.29	2780.24
517.745	2792.94
518.2	2766.34
518.655	2757.64
519.109	2753.34
519.564	2717.84
520.019	2735.64
520.474	2716.34
520.928	2726.94
521.383	2694.24
521.838	2677.24
522.292	2694.14
522.747	2679.84
523.201	2662.74
523.656	2673.94
524.11	2663.14
524.565	2639.44
525.019	2674.94
525.474	2671.84
525.928	2638.14
526.382	2665.24
526.837	2658.84
527.291	2675.64
527.745	2625.54
528.2	2646.24
528.654	2629.54
529.108	2668.54
529.562	2660.44
530.016	2655.24
530.47	2645.74
530.925	2652.54
531.379	2661.44
531.833	2685.64
532.287	2638.24
532.741	2642.44
533.195	2651.34
533.649	2655.34
534.103	2662.94
534.556	2634.74
535.01	2667.34
535.464	2648.94
535.918	2674.44
536.372	2674.84
536.826	2664.44
537.279	2634.54
537.733	2651.74
538.187	2666.64
538.64	2632.14
539.094	2665.94
539.548	2680.14
540.001	2656.04
540.455	2634.94
540.908	2617.34
541.362	2634.44
541.815	2626.14
542.269	2636.74
542.722	2607.14
543.175	2593.54
543.629	2592.14
544.082	2594.34
544.536	2579.34
544.989	2554.84
545.442	2580.54
545.895	2580.54
546.349	2556.94
546.802	2560.34
547.255	2541.04
547.708	2545.24
548.161	2558.34
548.614	2538.94
549.067	2543.44
549.52	2547.24
549.973	2516.24
550.426	2538.74
550.879	2536.14
551.332	2529.54
551.785	2527.64
552.238	2539.64
552.691	2528.34
553.144	2539.54
553.596	2527.14
554.049	2530.24
554.502	2546.24
554.955	2541.04
555.407	2551.74
555.86	2560.54
556.313	2549.54
556.765	2557.24
557.218	2560.34
557.67	2578.54
558.123	2582.64
558.576	2576.94
559.028	2582.74
559.48	2600.64
559.933	2581.54
560.385	2586.84
560.838	2602.94
561.29	2607.34
561.742	2621.34
562.195	2616.44
562.647	2633.24
563.099	2623.34
563.551	2617.14
564.004	2643.34
564.456	2646.84
564.908	2650.84
565.36	2641.54
565.812	2641.24
566.264	2647.74
566.716	2647.14
567.168	2650.74
567.62	2658.04
568.072	2647.24
568.524	2648.64
568.976	2639.14
569.428	2644.64
569.88	2635.54
570.332	2652.14
570.784	2637.24
571.235	2617.74
571.687	2638.54
572.139	2613.64
572.59	2633.54
573.042	2617.84
573.494	2618.14
573.945	2610.14
574.397	2567.74
574.849	2587.94
575.3	2585.24
575.752	2580.14
576.203	2554.34
576.655	2590.34
577.106	2568.24
577.557	2547.44
578.009	2554.14
578.46	2575.24
578.912	2544.44
579.363	2534.64
579.814	2556.24
580.265	2542.54
580.717	2540.34
581.168	2538.04
581.619	2534.94
582.07	2532.54
582.521	2531.74
582.972	2511.34
583.423	2529.24
583.875	2531.44
584.326	2521.04
584.777	2532.64
585.227	2499.44
585.678	2538.44
586.129	2539.14
586.58	2533.44
587.031	2508.04
587.482	2548.34
587.933	2527.84
588.384	2540.84
588.834	2531.14
589.285	2551.04
589.736	2555.34
590.186	2534.24
590.637	2546.24
591.088	2546.84
591.538	2558.34
591.989	2557.04
592.439	2550.54
592.89	2536.74
593.34	2543.64
593.791	2551.54
594.241	2556.94
594.692	2554.04
595.142	2591.44
595.593	2573.84
596.043	2579.34
596.493	2596.54
596.943	2564.64
597.394	2586.44
597.844	2567.34
598.294	2576.24
598.744	2577.74
599.195	2584.84
599.645	2595.64
600.095	2575.94
600.545	2593.84
600.995	2584.04
601.445	2594.84
601.895	2599.84
602.345	2607.44
602.795	2610.84
603.245	2591.84
603.695	2587.34
604.145	2591.84
604.594	2627.34
605.044	2617.44
605.494	2595.74
605.944	2618.24
606.393	2619.54
606.843	2626.44
607.293	2626.24
607.743	2631.44
608.192	2623.04
608.642	2625.74
609.091	2612.54
609.541	2613.44
609.99	2631.64
610.44	2606.64
610.889	2628.64
611.339	2624.14
611.788	2598.14
612.238	2615.94
612.687	2633.14
613.136	2611.34
613.586	2625.64
614.035	2589.44
614.484	2627.94
614.933	2611.74
615.383	2607.24
615.832	2606.44
616.281	2613.84
616.73	2605.34
617.179	2613.14
617.628	2601.94
618.077	2606.64
618.526	2602.34
618.975	2620.94
619.424	2572.84
619.873	2595.84
620.322	2596.64
620.771	2611.34
621.22	2594.84
621.669	2588.64
622.118	2596.74
622.567	2598.04
623.015	2577.94
623.464	2577.04
623.913	2577.64
624.361	2580.64
624.81	2585.94
625.259	2590.54
625.707	2578.24
626.156	2590.94
626.604	2601.34
627.053	2584.54
627.501	2561.74
627.95	2581.44
628.398	2596.94
628.847	2543.64
629.295	2560.74
629.744	2559.44
630.192	2546.14
630.64	2556.64
631.089	2553.94
631.537	2550.14
631.985	2547.44
632.433	2552.74
632.881	2527.34
633.33	2536.04
633.778	2525.34
634.226	2524.04
634.674	2539.24
635.122	2509.14
635.57	2516.74
636.018	2528.74
636.466	2495.94
636.914	2512.74
637.362	2503.94
637.81	2505.34
638.258	2522.54
638.705	2492.74
639.153	2492.74
639.601	2485.84
640.049	2464.34
640.497	2469.34
640.944	2501.84
641.392	2485.34
641.84	2487.74
642.287	2480.64
642.735	2465.54
643.182	2465.04
643.63	2468.84
644.078	2462.54
644.525	2453.64
644.973	2474.14
645.42	2457.14
645.867	2489.54
646.315	2428.34
646.762	2452.24
647.21	2423.54
647.657	2447.24
648.104	2470.04
648.551	2419.44
648.999	2463.04
649.446	2436.94
649.893	2407.24
650.34	2405.84
650.787	2439.84
651.234	2431.34
651.682	2434.64
652.129	2428.74
652.576	2412.04
653.023	2425.94
653.47	2424.74
653.917	2408.84
654.363	2396.74
654.81	2408.24
655.257	2408.04
655.704	2390.44
656.151	2396.94
656.598	2397.44
657.044	2370.74
657.491	2398.74
657.938	2395.94
658.385	2376.34
658.831	2381.34
659.278	2389.34
659.724	2378.04
660.171	2382.04
660.618	2358.14
661.064	2358.04
661.511	2369.14
661.957	2364.54
662.404	2343.14
662.85	2347.34
663.296	2362.14
663.743	2331.64
664.189	2336.24
664.635	2361.84
665.082	2341.94
665.528	2334.34
665.974	2340.54
666.42	2316.14
666.867	2339.84
667.313	2314.54
667.759	2307.14
668.205	2317.94
668.651	2297.04
669.097	2283.34
669.543	2292.54
669.989	2296.14
670.435	2297.64
670.881	2289.84
671.327	2248.64
671.773	2282.64
672.219	2254.44
672.665	2278.14
673.11	2267.24
673.556	2257.94
674.002	2248.74
674.448	2234.04
674.893	2215.24
675.339	2221.84
675.785	2211.24
676.23	2219.64
676.676	2193.04
677.122	2200.34
677.567	2170.34
678.013	2149.84
678.458	2173.14
678.904	2184.74
679.349	2147.34
679.794	2150.34
680.24	2130.64
680.685	2116.04
681.131	2105.94
681.576	2101.84
682.021	2105.54
682.466	2084.54
682.912	2072.54
683.357	2073.24
683.802	2080.74
684.247	2055.44
684.692	2043.54
685.137	2041.14
685.583	2038.34
686.028	2034.74
686.473	2015.14
686.918	2006.74
687.363	2006.84
687.807	1990.64
688.252	1987.64
688.697	1976.94
689.142	1964.74
689.587	1956.84
690.032	1962.64
690.477	1956.84
690.921	1942.84
691.366	1943.84
691.811	1923.14
692.255	1926.64
692.7	1926.44
693.145	1926.94
693.589	1906.84
694.034	1903.94
694.478	1905.84
694.923	1878.04
695.367	1888.04
695.812	1873.54
696.256	1864.04
696.701	1877.24
697.145	1875.94
697.59	1852.24
698.034	1844.14
698.478	1852.84
698.922	1847.74
699.367	1834.64
699.811	1831.54
700.255	1824.54
700.699	1825.64
701.143	1824.14
701.588	1810.84
702.032	1795.04
702.476	1807.44
702.92	1802.74
703.364	1784.14
703.808	1781.04
704.252	1778.64
704.696	1758.44
705.14	1771.04
705.584	1767.24
706.027	1750.74
706.471	1761.44
706.915	1748.44
707.359	1756.84
707.803	1733.24
708.246	1746.84
708.69	1741.94
709.134	1733.94
709.577	1718.04
710.021	1725.94
710.465	1714.94
710.908	1707.04
711.352	1701.34
711.795	1712.54
712.239	1698.24
712.682	1694.54
713.126	1690.84
713.569	1683.24
714.012	1683.04
714.456	1680.54
714.899	1687.94
715.342	1676.34
715.786	1661.64
716.229	1644.34
716.672	1662.64
717.115	1646.54
717.558	1642.44
718.002	1637.34
718.445	1638.24
718.888	1634.54
719.331	1614.04
719.774	1639.14
720.217	1615.64
720.66	1622.84
721.103	1606.14
721.546	1614.34
721.989	1598.84
722.432	1597.84
722.874	1603.84
723.317	1596.94
723.76	1598.54
724.203	1570.14
724.645	1597.04
725.088	1583.34
725.531	1587.84
725.974	1555.84
726.416	1560.34
726.859	1544.84
727.301	1557.44
727.744	1542.04
728.187	1549.34
728.629	1543.24
729.071	1541.34
729.514	1528.34
729.956	1539.14
730.399	1523.54
730.841	1522.84
731.283	1526.44
731.726	1496.54
732.168	1506.74
732.61	1496.64
733.053	1490.64
733.495	1480.74
733.937	1473.74
734.379	1490.44
734.821	1473.24
735.263	1477.84
735.705	1454.14
736.148	1458.14
736.59	1441.64
737.032	1449.24
737.474	1435.74
737.916	1426.54
738.357	1439.44
738.799	1441.04
739.241	1429.74
739.683	1438.34
740.125	1418.14
740.567	1419.64
741.008	1408.34
741.45	1404.24
741.892	1407.04
742.334	1399.24
742.775	1417.74
743.217	1397.24
743.658	1388.04
744.1	1380.64
744.542	1378.54
744.983	1366.04
745.425	1376.64
745.866	1361.74
746.307	1363.04
746.749	1343.54
747.19	1339.94
747.632	1336.44
748.073	1338.84
748.514	1333.34
748.956	1326.94
749.397	1312.54
749.838	1298.14
750.279	1311.04
750.72	1303.94
751.162	1281.94
751.603	1296.54
752.044	1295.34
752.485	1282.74
752.926	1283.34
753.367	1272.74
753.808	1265.74
754.249	1268.74
754.69	1257.74
755.131	1259.04
755.572	1252.34
756.013	1253.94
756.453	1245.44
756.894	1247.94
757.335	1242.64
757.776	1227.04
758.216	1243.54
758.657	1222.24
759.098	1232.24
759.538	1233.14
759.979	1210.84
760.42	1206.14
760.86	1204.04
761.301	1212.94
761.741	1207.44
762.182	1211.94
762.622	1199.74
763.063	1186.84
763.503	1189.34
763.943	1183.04
764.384	1183.84
764.824	1181.54
765.264	1183.44
765.705	1172.64
766.145	1157.34
766.585	1165.54
767.025	1164.84
767.465	1157.94
767.906	1152.74
768.346	1140.74
768.786	1147.04
769.226	1140.34
769.666	1131.34
770.106	1131.64
770.546	1127.54
770.986	1126.84
771.426	1121.94
771.866	1112.04
772.306	1118.24
772.745	1111.74
773.185	1105.94
773.625	1103.14
774.065	1102.14
774.505	1090.04
774.944	1090.64
775.384	1096.64
775.824	1090.14
776.263	1080.84
776.703	1075.74
777.142	1081.74
777.582	1082.34
778.021	1074.64
778.461	1065.44
778.9	1066.44
779.34	1064.94
779.779	1056.34
780.219	1055.34
780.658	1057.24
781.097	1054.24
781.537	1045.84
781.976	1040.64
782.415	1048.24
782.855	1050.94
783.294	1035.74
783.733	1041.74
784.172	1028.44
784.611	1029.14
785.05	1024.74
785.489	1036.04
785.928	1019.94
786.367	1014.44
786.806	1025.44
787.245	1006.24
787.684	1022.04
788.123	1000.04
788.562	1024.84
789.001	1017.44
789.44	1016.84
789.879	1009.94
790.317	1015.34
790.756	1007.54
791.195	1013.84
791.634	1000.24
792.072	1000.34
792.511	1000.14
792.95	1000.54
793.388	994.14
793.827	999.84
794.265	995.54
794.704	1000.04
795.142	986.64
795.581	1001.74
796.019	1001.04
796.458	1001.94
796.896	995.04
797.334	982.94
797.773	998.44
798.211	998.84
798.649	999.04
799.087	1008.74
799.526	1010.74
799.964	1002.24
800.402	998.24
800.84	1006.44
801.278	1004.84
801.716	999.74
802.154	1004.84
802.592	1011.34
803.03	1005.04
803.468	1018.94
803.906	1006.24
804.344	1023.64
804.782	1010.54
805.22	1007.34
805.658	1039.44
806.096	1013.44
806.533	1028.64
806.971	1023.94
807.409	1032.54
807.847	1050.14
808.284	1048.54
808.722	1051.54
809.16	1044.04
809.597	1054.54
810.035	1049.14
810.472	1057.54
810.91	1062.54
811.347	1060.04
811.785	1066.94
812.222	1072.34
812.66	1086.74
813.097	1070.04
813.535	1086.14
813.972	1094.94
814.409	1097.44
814.846	1100.74
815.284	1098.54
815.721	1103.84
816.158	1114.64
816.595	1117.64
817.032	1123.14
817.47	1123.44
817.907	1126.74
818.344	1134.14
818.781	1141.94
819.218	1150.74
819.655	1152.34
820.092	1178.04
820.529	1177.04
820.966	1166.44
821.403	1165.44
821.839	1191.34
822.276	1193.44
822.713	1197.94
823.15	1209.54
823.587	1192.24
824.023	1202.84
824.46	1211.14
824.897	1229.74
825.333	1213.84
825.77	1236.64
826.206	1238.74
826.643	1251.64
827.08	1241.44
827.516	1256.34
827.953	1264.04
828.389	1277.54
828.825	1268.24
829.262	1285.94
829.698	1281.04
830.135	1290.74
830.571	1300.44
831.007	1306.54
831.443	1299.74
831.88	1306.64
832.316	1313.84
832.752	1317.14
833.188	1329.84
833.624	1316.74
834.06	1325.44
834.497	1317.44
834.933	1346.04
835.369	1337.04
835.805	1332.04
836.241	1336.74
836.677	1344.64
837.112	1334.34
837.548	1337.14
837.984	1328.04
838.42	1351.04
838.856	1356.64
839.292	1352.04
839.727	1349.34
840.163	1353.04
840.599	1355.14
841.034	1358.04
841.47	1358.44
841.906	1366.04
842.341	1370.74
842.777	1369.24
843.212	1374.24
843.648	1370.34
844.083	1353.44
844.519	1363.84
844.954	1349.74
845.39	1363.14
845.825	1345.94
846.261	1374.54
846.696	1363.14
847.131	1346.94
847.566	1357.84
848.002	1366.44
848.437	1366.74
848.872	1361.34
849.307	1357.04
849.742	1351.54
850.177	1359.14
850.613	1380.94
851.048	1359.04
851.483	1361.84
851.918	1365.44
852.353	1362.44
852.788	1358.84
853.223	1366.64
853.657	1366.14
854.092	1356.54
854.527	1355.54
854.962	1363.04
855.397	1344.34
855.832	1359.04
856.266	1347.94
856.701	1374.64
857.136	1360.64
857.57	1349.34
858.005	1358.64
858.44	1351.54
858.874	1357.14
859.309	1349.14
859.743	1346.74
860.178	1352.14
860.612	1351.74
861.047	1353.64
861.481	1348.04
861.915	1353.94
862.35	1353.44
862.784	1343.64
863.218	1343.94
863.653	1347.54
864.087	1355.24
864.521	1331.84
864.955	1341.04
865.39	1333.74
865.824	1354.64
866.258	1344.64
866.692	1355.04
867.126	1341.14
867.56	1339.14
867.994	1335.44
868.428	1344.94
868.862	1350.14
869.296	1319.94
869.73	1335.24
870.164	1344.84
870.598	1328.84
871.031	1341.44
871.465	1342.64
871.899	1335.74
872.333	1330.84
872.766	1337.34
873.2	1342.94
873.634	1343.34
874.067	1337.44
874.501	1323.24
874.935	1328.64
875.368	1316.24
875.802	1322.44
876.235	1319.64
876.669	1328.34
877.102	1330.24
877.535	1308.34
877.969	1327.94
878.402	1312.34
878.836	1307.34
879.269	1316.94
879.702	1318.04
880.135	1311.84
880.569	1297.24
881.002	1296.94
881.435	1294.14
881.868	1305.74
882.301	1303.14
882.734	1296.54
883.167	1292.54
883.601	1296.74
884.034	1286.34
884.467	1274.84
884.899	1288.14
885.332	1273.74
885.765	1269.94
886.198	1269.04
886.631	1263.24
887.064	1268.04
887.497	1252.64
887.929	1275.94
888.362	1261.24
888.795	1258.44
889.228	1258.74
889.66	1243.14
890.093	1242.34
890.526	1233.24
890.958	1232.14
891.391	1237.34
891.823	1236.34
892.256	1240.94
892.688	1219.84
893.121	1216.34
893.553	1210.84
893.985	1203.24
894.418	1229.34
894.85	1210.84
895.282	1204.94
895.715	1202.14
896.147	1198.14
896.579	1202.54
897.011	1185.14
897.444	1188.64
897.876	1167.44
898.308	1175.94
898.74	1177.24
899.172	1189.74
899.604	1172.84
900.036	1164.34
900.468	1159.74
900.9	1160.34
901.332	1156.04
901.764	1144.44
902.196	1147.94
902.628	1148.54
903.06	1141.84
903.491	1138.04
903.923	1127.24
904.355	1139.14
904.787	1131.04
905.218	1128.34
905.65	1131.24
906.082	1120.04
906.513	1123.24
906.945	1107.74
907.376	1105.74
907.808	1105.84
908.239	1117.84
908.671	1099.34
909.102	1086.84
909.534	1093.44
909.965	1094.44
910.397	1090.34
910.828	1089.54
911.259	1087.54
911.691	1083.14
912.122	1069.14
912.553	1073.94
912.984	1069.54
913.415	1076.64
913.847	1057.34
914.278	1061.54
914.709	1051.04
915.14	1061.34
915.571	1052.94
916.002	1046.44
916.433	1041.64
916.864	1044.34
917.295	1045.54
917.726	1028.34
918.157	1017.24
918.587	1014.94
919.018	1016.84
919.449	1014.54
919.88	1009.94
920.311	1016.84
920.741	998.74
921.172	991.44
921.603	995.24
922.033	999.54
922.464	984.54
922.895	983.44
923.325	977.64
923.756	989.04
924.186	981.64
924.617	987.24
925.047	984.94
925.478	972.94
925.908	976.04
926.338	977.84
926.769	988.74
927.199	982.84
927.629	985.24
928.06	982.74
928.49	987.24
928.92	984.94
929.35	974.84
929.78	988.84
930.21	990.14
930.641	983.84
931.071	987.54
931.501	988.84
931.931	988.94
932.361	986.84
932.791	976.94
933.221	982.44
933.651	972.44
934.08	978.14
934.51	974.34
934.94	973.04
935.37	971.74
935.8	959.24
936.229	959.64
936.659	961.24
937.089	960.04
937.519	950.44
937.948	936.14
938.378	940.54
938.807	933.94
939.237	921.84
939.666	927.04
940.096	924.34
940.525	920.84
940.955	924.44
941.384	905.74
941.814	903.84
942.243	887.34
942.672	885.04
943.102	875.84
943.531	879.84
943.96	877.24
944.39	877.14
944.819	868.24
945.248	843.84
945.677	862.24
946.106	849.04
946.535	848.64
946.964	842.44
947.393	833.74
947.822	831.94
948.251	817.14
948.68	815.04
949.109	808.04
949.538	813.44
949.967	797.34
950.396	801.94
950.825	789.14
951.254	779.44
951.682	780.04
952.111	772.84
952.54	768.14
952.969	763.74
953.397	763.64
953.826	753.14
954.254	755.74
954.683	747.84
955.112	730.44
955.54	741.34
955.969	727.84
956.397	721.64
956.826	709.44
957.254	710.74
957.682	700.94
958.111	704.64
958.539	686.34
958.967	689.84
959.396	683.54
959.824	671.44
960.252	675.54
960.68	660.44
961.109	672.24
961.537	659.94
961.965	661.64
962.393	648.44
962.821	643.34
963.249	640.64
963.677	632.54
964.105	628.44
964.533	619.14
964.961	613.34
965.389	614.44
965.817	605.64
966.245	600.14
966.672	592.84
967.1	594.04
967.528	577.54
967.956	584.04
968.383	572.44
968.811	576.74
969.239	568.04
969.666	561.44
970.094	568.64
970.522	550.04
970.949	544.54
971.377	539.64
971.804	539.04
972.232	536.64
972.659	529.44
973.087	531.44
973.514	524.04
973.941	520.04
974.369	514.84
974.796	514.04
975.223	510.94
975.651	511.14
976.078	501.34
976.505	498.64
976.932	490.54
977.359	487.14
977.786	492.14
978.214	484.14
978.641	469.14
979.068	471.34
979.495	461.24
979.922	459.24
980.349	463.94
980.776	454.54
981.202	459.14
981.629	454.44
982.056	448.44
982.483	444.44
982.91	439.74
983.337	442.04
983.763	443.24
984.19	435.44
984.617	429.04
985.043	427.04
985.47	430.54
985.897	417.84
986.323	419.64
986.75	417.74
987.176	404.94
987.603	412.14
988.029	399.74
988.456	400.54
988.882	398.44
989.308	393.54
989.735	393.14
990.161	385.54
990.587	382.04
991.014	381.74
991.44	379.44
991.866	375.84
992.292	373.84
992.719	364.34
993.145	362.54
993.571	367.14
993.997	363.44
994.423	352.74
994.849	347.94
995.275	347.34
995.701	344.54
996.127	347.04
996.553	341.24
996.979	346.74
997.405	340.04
997.83	336.34
998.256	337.84
998.682	332.14
999.108	333.24
999.534	331.24
999.959	331.64
1000.385	333.34
1000.811	332.54
1001.236	337.34
1001.662	332.04
1002.087	330.24
1002.513	323.74
1002.938	326.84
1003.364	323.84
1003.789	326.04
1004.215	326.54
1004.64	330.64
1005.066	335.34
1005.491	339.64
1005.916	330.34
1006.342	328.04
1006.767	333.94
1007.192	326.94
1007.617	323.14
1008.042	327.04
1008.468	328.64
1008.893	319.94
1009.318	323.64
1009.743	324.84
1010.168	310.14
1010.593	318.44
1011.018	314.74
1011.443	318.34
1011.868	317.04
1012.293	306.64
1012.718	302.24
1013.143	300.64
1013.567	298.24
1013.992	289.34
1014.417	283.24
1014.842	282.24
1015.267	278.24
1015.691	272.44
1016.116	267.44
1016.541	275.94
1016.965	269.14
1017.39	261.24
1017.814	259.44
1018.239	256.04
1018.663	249.24
1019.088	254.64
1019.512	249.24
1019.937	245.84
1020.361	240.14
1020.785	233.34
1021.21	243.44
1021.634	229.74
1022.058	235.34
1022.483	236.44
1022.907	229.74
1023.331	222.64
1023.755	227.14
1024.179	221.04
1024.604	217.74
1025.028	216.94
1025.452	215.24
1025.876	223.24
1026.3	214.54
1026.724	212.64
1027.148	205.04
1027.572	204.44
1027.996	201.94
1028.42	200.34
1028.843	202.04
1029.267	202.04
1029.691	197.54
1030.115	198.04
1030.539	197.74
1030.962	197.04
1031.386	187.74
1031.81	186.54
1032.233	187.54
1032.657	196.24
1033.08	187.64
1033.504	184.44
1033.927	185.44
1034.351	183.04
1034.774	178.34
1035.198	184.14
1035.621	173.14
1036.045	169.04
1036.468	179.74
1036.891	179.14
1037.315	174.54
1037.738	173.44
1038.161	170.64
1038.584	168.94
1039.008	160.64
1039.431	165.04
1039.854	163.34
1040.277	164.44
1040.7	163.54
1041.123	160.24
1041.546	165.24
1041.969	156.84
1042.392	157.54
1042.815	159.44
1043.238	159.84
1043.661	155.84
1044.084	156.84
1044.507	146.04
1044.93	151.84
1045.352	153.34
1045.775	151.14
1046.198	152.24
1046.621	147.04
1047.043	147.04
1047.466	147.04
1047.889	141.44
1048.311	143.14
1048.734	147.34
1049.156	148.54
1049.579	142.04
1050.001	139.74
1050.424	142.54
1050.846	138.94
1051.269	147.44
1051.691	140.14
1052.113	138.54
1052.536	134.24
1052.958	136.24
1053.38	132.34
1053.802	139.84
1054.225	136.54
1054.647	134.24
1055.069	129.64
1055.491	124.74
1055.913	133.84
1056.335	129.24
1056.757	132.94
1057.179	123.64
1057.601	126.94
1058.023	127.24
1058.445	128.74
1058.867	127.64
1059.289	123.44
1059.711	130.74
1060.133	129.34
1060.555	122.14
1060.976	123.74
1061.398	123.84
1061.82	116.74
1062.241	117.64
1062.663	126.74
1063.085	122.74
1063.506	118.94
1063.928	119.44
1064.35	121.04
1064.771	114.54
1065.193	117.84
1065.614	122.94
1066.035	108.44
1066.457	113.04
1066.878	113.94
1067.3	114.74
1067.721	116.04
1068.142	112.44
1068.564	119.44
1068.985	117.74
1069.406	112.74
1069.827	119.84
1070.248	116.14
1070.67	111.34
1071.091	115.64
1071.512	115.94
1071.933	111.94
1072.354	113.64
1072.775	112.14
1073.196	114.94
1073.617	110.94
1074.038	115.24
1074.459	109.64
1074.88	112.04
1075.3	113.04
1075.721	107.94
1076.142	108.14
1076.563	111.14
1076.983	114.24
1077.404	109.64
1077.825	106.04
1078.246	107.84
1078.666	110.64
1079.087	111.24
1079.507	110.94
1079.928	109.34
1080.348	113.44
1080.769	106.54
1081.189	99.94
1081.61	107.24
1082.03	107.04
1082.451	109.74
1082.871	106.64
1083.291	107.04
1083.711	105.34
1084.132	103.14
1084.552	109.24
1084.972	105.54
1085.392	104.54
1085.813	107.44
1086.233	111.04
1086.653	103.54
1087.073	102.54
1087.493	106.74
1087.913	104.04
1088.333	102.04
1088.753	93.64
1089.173	97.14
1089.593	109.84
1090.013	99.04
1090.433	104.44
1090.852	100.74
1091.272	107.44
1091.692	103.74
1092.112	99.84
1092.531	101.64
1092.951	100.04
1093.371	101.74
1093.79	96.54
1094.21	98.74
1094.63	97.04
1095.049	102.34
1095.469	98.04
1095.888	98.64
1096.308	99.04
1096.727	97.54
1097.146	95.84
1097.566	94.44
1097.985	104.24
1098.405	96.64
1098.824	100.14
1099.243	99.74
1099.662	99.74
1100.082	99.94
1100.501	95.54
1100.92	103.44
1101.339	96.44
1101.758	99.24
