Data from DH-3PlusCalLight-Background_HRD10391_13-34-16-223.txt Node
Date: Thu Feb 15 13:34:16 EST 2018
User: Ender
Spectrometer: HR+D1039
Trigger mode: 0
Integration Time (sec): 2.730000E-2
Scans to average: 10
Electric dark correction enabled: true
Nonlinearity correction enabled: false
Boxcar width: 0
XAxis mode: Wavelengths
Number of Pixels in Spectrum: 2048
>>>>>Begin Spectral Data<<<<<
187.836	3.23
188.309	3.23
188.782	3.23
189.255	-3.17
189.728	-5.17
190.201	-4.77
190.674	-10.47
191.147	-9.17
191.619	-6.17
192.092	-4.57
192.565	0.03
193.038	-3.77
193.511	1.13
193.984	0.23
194.456	4.63
194.929	7.53
195.402	12.63
195.874	17.83
196.347	20.13
196.82	24.23
197.292	27.73
197.765	33.53
198.237	37.83
198.71	35.43
199.182	43.33
199.655	47.93
200.127	54.13
200.6	52.83
201.072	54.93
201.544	56.13
202.017	62.43
202.489	59.53
202.961	71.33
203.433	71.83
203.906	70.73
204.378	77.43
204.85	79.33
205.322	81.13
205.794	80.93
206.266	79.33
206.739	84.73
207.211	88.73
207.683	84.93
208.155	79.13
208.627	84.53
209.099	90.83
209.57	88.43
210.042	86.53
210.514	87.83
210.986	88.43
211.458	88.23
211.93	89.83
212.402	87.73
212.873	88.33
213.345	86.43
213.817	81.53
214.288	82.13
214.76	81.53
215.232	80.23
215.703	86.23
216.175	80.93
216.646	81.33
217.118	81.13
217.589	80.13
218.061	78.23
218.532	83.93
219.004	77.93
219.475	82.43
219.946	78.43
220.418	77.53
220.889	77.43
221.36	82.33
221.832	80.03
222.303	76.73
222.774	73.13
223.245	78.33
223.717	80.23
224.188	75.93
224.659	77.83
225.13	74.23
225.601	77.43
226.072	77.83
226.543	74.43
227.014	76.53
227.485	80.73
227.956	78.53
228.427	74.03
228.898	76.93
229.369	81.13
229.839	82.33
230.31	78.83
230.781	78.93
231.252	81.83
231.722	77.93
232.193	79.13
232.664	73.43
233.135	75.93
233.605	79.13
234.076	82.03
234.546	80.53
235.017	81.33
235.487	77.93
235.958	78.13
236.428	79.63
236.899	79.03
237.369	81.53
237.84	80.03
238.31	78.73
238.78	74.53
239.251	82.23
239.721	79.73
240.191	75.83
240.662	83.43
241.132	81.83
241.602	75.93
242.072	80.83
242.542	78.03
243.013	80.43
243.483	74.73
243.953	77.23
244.423	81.33
244.893	87.33
245.363	81.73
245.833	76.43
246.303	84.43
246.773	82.03
247.243	79.43
247.712	80.33
248.182	80.93
248.652	79.73
249.122	76.23
249.592	81.43
250.061	80.63
250.531	79.43
251.001	79.83
251.471	80.43
251.94	81.33
252.41	78.83
252.879	77.83
253.349	77.23
253.818	77.33
254.288	80.53
254.757	83.93
255.227	78.03
255.696	82.43
256.166	82.23
256.635	79.33
257.105	78.33
257.574	80.63
258.043	76.73
258.513	77.83
258.982	82.13
259.451	81.63
259.92	83.53
260.389	85.23
260.859	81.43
261.328	85.33
261.797	80.13
262.266	80.53
262.735	82.03
263.204	80.43
263.673	80.03
264.142	79.23
264.611	86.13
265.08	79.93
265.549	84.43
266.018	88.23
266.487	82.53
266.955	85.83
267.424	84.03
267.893	78.73
268.362	79.43
268.83	78.93
269.299	84.23
269.768	82.23
270.236	85.73
270.705	82.93
271.174	79.63
271.642	80.73
272.111	83.73
272.579	83.33
273.048	79.73
273.516	81.53
273.985	80.33
274.453	75.43
274.922	86.33
275.39	82.83
275.858	82.03
276.327	82.23
276.795	82.23
277.263	84.13
277.731	80.53
278.2	82.73
278.668	85.03
279.136	80.93
279.604	82.13
280.072	83.33
280.54	83.73
281.008	80.03
281.477	81.53
281.945	85.13
282.413	78.23
282.881	83.53
283.348	88.03
283.816	80.23
284.284	84.13
284.752	78.53
285.22	82.23
285.688	86.23
286.156	82.73
286.623	80.13
287.091	86.23
287.559	87.03
288.026	82.33
288.494	78.13
288.962	85.43
289.429	83.03
289.897	83.33
290.364	82.73
290.832	86.33
291.3	81.73
291.767	85.03
292.234	80.93
292.702	80.33
293.169	90.03
293.637	89.03
294.104	79.23
294.571	79.53
295.039	79.83
295.506	82.73
295.973	80.23
296.44	81.13
296.908	83.83
297.375	84.03
297.842	85.03
298.309	83.33
298.776	85.23
299.243	83.83
299.71	81.93
300.177	86.33
300.644	81.03
301.111	92.03
301.578	83.23
302.045	80.63
302.512	82.43
302.979	85.73
303.446	84.63
303.913	79.33
304.379	86.53
304.846	85.53
305.313	82.83
305.78	83.63
306.246	84.63
306.713	82.33
307.18	85.03
307.646	82.13
308.113	82.63
308.579	83.83
309.046	81.63
309.512	85.03
309.979	81.63
310.445	83.83
310.912	84.93
311.378	85.43
311.845	80.93
312.311	83.63
312.777	85.13
313.244	83.33
313.71	83.93
314.176	81.33
314.642	87.03
315.109	84.33
315.575	86.83
316.041	87.23
316.507	85.73
316.973	80.63
317.439	83.33
317.905	87.03
318.371	82.83
318.837	84.43
319.303	82.33
319.769	89.33
320.235	81.13
320.701	83.23
321.167	83.03
321.633	85.53
322.099	93.33
322.564	84.53
323.03	84.53
323.496	83.63
323.962	78.93
324.427	82.63
324.893	84.23
325.359	86.33
325.824	85.73
326.29	82.93
326.755	90.53
327.221	86.63
327.686	87.93
328.152	79.13
328.617	79.93
329.083	87.83
329.548	85.33
330.014	88.33
330.479	87.53
330.944	86.13
331.41	82.43
331.875	88.43
332.34	82.83
332.805	88.03
333.271	86.83
333.736	88.03
334.201	85.03
334.666	87.23
335.131	82.73
335.596	85.73
336.061	80.53
336.526	83.73
336.991	88.13
337.456	82.23
337.921	88.63
338.386	81.93
338.851	89.63
339.316	83.53
339.781	88.73
340.246	87.43
340.711	87.63
341.175	85.23
341.64	79.73
342.105	85.83
342.569	83.03
343.034	85.63
343.499	85.83
343.963	86.33
344.428	86.03
344.893	86.73
345.357	85.93
345.822	83.53
346.286	87.03
346.751	83.13
347.215	92.03
347.679	83.83
348.144	86.93
348.608	83.73
349.073	80.03
349.537	87.13
350.001	85.33
350.465	86.13
350.93	80.03
351.394	85.43
351.858	84.83
352.322	84.03
352.786	81.13
353.25	86.03
353.715	88.13
354.179	84.93
354.643	86.63
355.107	85.83
355.571	88.03
356.035	84.43
356.498	82.03
356.962	89.63
357.426	85.83
357.89	84.73
358.354	87.43
358.818	87.63
359.281	83.93
359.745	85.93
360.209	85.43
360.673	80.53
361.136	84.93
361.6	85.23
362.064	92.83
362.527	86.03
362.991	84.13
363.454	84.83
363.918	89.33
364.381	82.93
364.845	84.83
365.308	83.73
365.772	85.53
366.235	86.53
366.698	83.43
367.162	85.13
367.625	88.53
368.088	83.43
368.552	83.93
369.015	86.73
369.478	84.93
369.941	89.63
370.404	85.43
370.867	85.53
371.331	87.03
371.794	84.93
372.257	84.13
372.72	86.93
373.183	87.03
373.646	87.93
374.109	88.03
374.572	84.93
375.035	85.23
375.497	86.83
375.96	85.53
376.423	83.73
376.886	83.83
377.349	87.03
377.811	91.43
378.274	87.73
378.737	88.43
379.199	85.53
379.662	84.43
380.125	87.73
380.587	86.13
381.05	91.53
381.512	84.23
381.975	85.93
382.437	85.33
382.9	87.63
383.362	87.03
383.825	88.43
384.287	85.13
384.75	82.73
385.212	91.73
385.674	87.63
386.136	85.43
386.599	85.53
387.061	85.93
387.523	86.13
387.985	91.43
388.447	88.43
388.91	84.13
389.372	79.63
389.834	81.03
390.296	85.23
390.758	89.43
391.22	87.13
391.682	81.53
392.144	84.63
392.606	81.63
393.068	83.73
393.529	91.93
393.991	79.83
394.453	85.03
394.915	87.23
395.377	82.53
395.838	86.83
396.3	85.53
396.762	85.43
397.224	85.53
397.685	84.43
398.147	88.53
398.608	90.13
399.07	84.23
399.531	85.73
399.993	82.53
400.454	85.23
400.916	83.33
401.377	86.73
401.839	81.63
402.3	84.33
402.762	82.83
403.223	84.73
403.684	85.43
404.145	81.23
404.607	84.73
405.068	84.93
405.529	88.03
405.99	83.13
406.451	83.03
406.913	83.63
407.374	84.13
407.835	86.63
408.296	82.63
408.757	83.23
409.218	86.93
409.679	85.03
410.14	89.03
410.601	84.93
411.062	88.53
411.522	82.63
411.983	85.13
412.444	87.73
412.905	85.93
413.366	82.43
413.826	84.63
414.287	84.33
414.748	87.63
415.208	82.13
415.669	83.93
416.13	86.43
416.59	87.13
417.051	85.73
417.511	88.83
417.972	84.33
418.432	83.03
418.893	81.03
419.353	86.33
419.814	83.23
420.274	83.83
420.734	86.93
421.195	87.93
421.655	87.63
422.115	82.83
422.576	89.53
423.036	80.53
423.496	84.43
423.956	87.43
424.416	79.33
424.876	89.93
425.336	86.63
425.797	85.23
426.257	85.73
426.717	86.73
427.177	83.23
427.637	84.33
428.097	82.13
428.556	82.33
429.016	83.03
429.476	83.13
429.936	80.33
430.396	86.83
430.856	90.03
431.315	90.23
431.775	84.33
432.235	87.33
432.694	83.43
433.154	84.93
433.614	85.03
434.073	86.63
434.533	85.13
434.993	82.03
435.452	87.23
435.912	85.43
436.371	88.83
436.83	82.73
437.29	78.13
437.749	85.53
438.209	90.13
438.668	82.93
439.127	82.13
439.587	83.23
440.046	81.83
440.505	85.83
440.964	82.43
441.424	86.63
441.883	84.73
442.342	87.13
442.801	90.73
443.26	79.93
443.719	85.33
444.178	83.23
444.637	81.23
445.096	77.23
445.555	78.43
446.014	82.83
446.473	86.43
446.932	82.23
447.391	83.53
447.849	85.13
448.308	82.63
448.767	81.63
449.226	84.63
449.685	79.23
450.143	83.03
450.602	84.03
451.061	82.03
451.519	86.83
451.978	82.83
452.436	84.83
452.895	82.83
453.353	86.83
453.812	83.83
454.27	79.13
454.729	84.83
455.187	81.23
455.646	84.33
456.104	85.03
456.562	82.43
457.021	84.63
457.479	84.83
457.937	84.93
458.395	86.13
458.854	84.83
459.312	87.13
459.77	85.73
460.228	84.63
460.686	81.93
461.144	88.43
461.602	84.63
462.06	83.43
462.518	84.33
462.976	80.73
463.434	82.03
463.892	85.63
464.35	87.33
464.808	81.13
465.266	85.83
465.724	86.63
466.181	81.13
466.639	83.43
467.097	84.13
467.555	84.53
468.012	86.23
468.47	85.93
468.928	83.63
469.385	83.13
469.843	79.63
470.3	88.23
470.758	83.43
471.215	86.53
471.673	80.83
472.13	84.33
472.588	82.23
473.045	84.93
473.503	82.83
473.96	82.53
474.417	81.43
474.875	80.83
475.332	82.33
475.789	85.43
476.246	84.03
476.704	80.53
477.161	84.33
477.618	86.73
478.075	93.23
478.532	82.73
478.989	78.73
479.446	84.33
479.903	83.23
480.36	87.23
480.817	85.93
481.274	83.93
481.731	82.83
482.188	85.93
482.645	83.73
483.102	79.13
483.558	80.43
484.015	81.63
484.472	84.73
484.929	86.23
485.385	86.43
485.842	87.63
486.299	79.43
486.755	79.73
487.212	78.63
487.668	87.83
488.125	84.03
488.582	87.63
489.038	88.63
489.494	85.83
489.951	81.03
490.407	84.93
490.864	89.43
491.32	84.03
491.776	81.13
492.233	84.73
492.689	85.53
493.145	81.13
493.602	82.43
494.058	83.93
494.514	84.43
494.97	86.23
495.426	84.03
495.882	75.03
496.338	84.13
496.794	78.43
497.251	84.03
497.707	78.93
498.163	87.63
498.618	80.63
499.074	81.93
499.53	81.13
499.986	82.63
500.442	86.63
500.898	83.13
501.354	86.33
501.809	84.03
502.265	82.23
502.721	81.63
503.177	86.33
503.632	81.93
504.088	85.33
504.543	83.53
504.999	84.73
505.455	84.03
505.91	85.43
506.366	88.93
506.821	86.23
507.277	85.63
507.732	79.83
508.187	84.23
508.643	88.53
509.098	87.23
509.553	85.33
510.009	81.13
510.464	79.53
510.919	83.43
511.375	86.73
511.83	79.73
512.285	85.03
512.74	85.63
513.195	81.33
513.65	87.63
514.105	81.63
514.56	83.63
515.015	82.23
515.47	85.83
515.925	77.93
516.38	82.63
516.835	87.23
517.29	84.73
517.745	85.03
518.2	83.43
518.655	79.93
519.109	82.93
519.564	81.13
520.019	86.43
520.474	81.83
520.928	81.03
521.383	85.33
521.838	79.03
522.292	81.03
522.747	79.33
523.201	78.73
523.656	83.63
524.11	84.43
524.565	85.83
525.019	91.13
525.474	81.83
525.928	84.13
526.382	77.83
526.837	83.33
527.291	80.93
527.745	85.73
528.2	84.33
528.654	87.83
529.108	85.93
529.562	81.13
530.016	82.73
530.47	82.43
530.925	87.33
531.379	78.73
531.833	84.33
532.287	83.73
532.741	80.83
533.195	82.93
533.649	78.53
534.103	83.93
534.556	82.43
535.01	82.53
535.464	87.03
535.918	85.33
536.372	87.33
536.826	87.23
537.279	85.63
537.733	85.53
538.187	82.33
538.64	78.93
539.094	82.03
539.548	79.83
540.001	85.33
540.455	82.13
540.908	83.13
541.362	81.63
541.815	83.63
542.269	84.43
542.722	83.23
543.175	87.83
543.629	84.63
544.082	82.63
544.536	81.63
544.989	84.43
545.442	84.13
545.895	81.43
546.349	84.43
546.802	78.93
547.255	84.83
547.708	83.33
548.161	86.03
548.614	80.83
549.067	82.93
549.52	81.23
549.973	82.83
550.426	79.43
550.879	79.33
551.332	81.83
551.785	83.73
552.238	82.93
552.691	78.13
553.144	82.83
553.596	84.63
554.049	81.53
554.502	86.93
554.955	84.63
555.407	75.33
555.86	83.13
556.313	82.43
556.765	86.13
557.218	80.73
557.67	84.93
558.123	86.73
558.576	80.73
559.028	80.43
559.48	81.73
559.933	82.83
560.385	84.13
560.838	83.13
561.29	81.53
561.742	80.73
562.195	83.33
562.647	84.03
563.099	82.33
563.551	84.33
564.004	79.83
564.456	81.23
564.908	81.73
565.36	86.43
565.812	84.13
566.264	80.73
566.716	84.13
567.168	84.63
567.62	80.83
568.072	82.23
568.524	85.83
568.976	87.73
569.428	79.13
569.88	88.83
570.332	81.73
570.784	83.33
571.235	79.63
571.687	80.03
572.139	85.53
572.59	79.23
573.042	81.13
573.494	87.13
573.945	84.43
574.397	80.83
574.849	87.43
575.3	85.63
575.752	82.03
576.203	81.03
576.655	78.23
577.106	82.73
577.557	82.83
578.009	83.73
578.46	82.13
578.912	79.43
579.363	85.03
579.814	82.33
580.265	83.73
580.717	85.13
581.168	84.53
581.619	83.93
582.07	86.83
582.521	81.83
582.972	78.93
583.423	83.33
583.875	88.13
584.326	84.83
584.777	80.73
585.227	84.43
585.678	80.43
586.129	83.43
586.58	84.53
587.031	83.53
587.482	84.13
587.933	85.73
588.384	82.03
588.834	86.03
589.285	83.23
589.736	79.23
590.186	83.13
590.637	81.83
591.088	79.33
591.538	88.33
591.989	86.33
592.439	81.03
592.89	82.93
593.34	86.63
593.791	84.93
594.241	87.13
594.692	81.83
595.142	84.03
595.593	85.83
596.043	80.93
596.493	84.13
596.943	85.33
597.394	89.03
597.844	83.93
598.294	86.13
598.744	80.83
599.195	75.33
599.645	85.23
600.095	80.93
600.545	83.33
600.995	82.03
601.445	82.73
601.895	82.23
602.345	83.13
602.795	80.33
603.245	82.83
603.695	87.33
604.145	79.53
604.594	81.93
605.044	84.43
605.494	82.53
605.944	86.73
606.393	78.93
606.843	82.73
607.293	84.13
607.743	85.33
608.192	85.13
608.642	86.13
609.091	80.53
609.541	84.53
609.99	85.53
610.44	84.83
610.889	90.23
611.339	85.93
611.788	86.23
612.238	83.43
612.687	85.43
613.136	79.03
613.586	78.93
614.035	84.23
614.484	84.13
614.933	81.83
615.383	83.53
615.832	86.03
616.281	83.03
616.73	85.03
617.179	85.63
617.628	81.33
618.077	81.23
618.526	83.63
618.975	79.63
619.424	83.13
619.873	81.33
620.322	83.23
620.771	88.33
621.22	82.23
621.669	88.43
622.118	82.63
622.567	86.43
623.015	87.43
623.464	90.53
623.913	88.63
624.361	82.03
624.81	83.03
625.259	80.63
625.707	86.33
626.156	79.93
626.604	87.43
627.053	83.13
627.501	86.53
627.95	83.23
628.398	89.33
628.847	85.93
629.295	84.63
629.744	83.03
630.192	85.93
630.64	85.93
631.089	85.23
631.537	84.43
631.985	88.83
632.433	85.03
632.881	85.83
633.33	80.33
633.778	83.23
634.226	79.33
634.674	84.13
635.122	87.63
635.57	81.53
636.018	85.03
636.466	79.03
636.914	83.83
637.362	83.73
637.81	84.23
638.258	82.93
638.705	80.63
639.153	85.83
639.601	78.63
640.049	82.83
640.497	84.83
640.944	82.43
641.392	80.53
641.84	84.73
642.287	81.83
642.735	82.73
643.182	85.13
643.63	81.73
644.078	81.33
644.525	84.43
644.973	83.93
645.42	84.13
645.867	86.33
646.315	83.63
646.762	86.23
647.21	88.13
647.657	84.93
648.104	88.03
648.551	88.73
648.999	78.63
649.446	81.23
649.893	84.73
650.34	81.03
650.787	83.43
651.234	83.43
651.682	83.53
652.129	84.43
652.576	88.33
653.023	84.63
653.47	78.73
653.917	76.03
654.363	83.13
654.81	82.53
655.257	83.83
655.704	86.13
656.151	86.73
656.598	82.43
657.044	85.63
657.491	81.83
657.938	85.03
658.385	87.73
658.831	83.03
659.278	82.13
659.724	81.53
660.171	83.63
660.618	85.13
661.064	85.93
661.511	86.23
661.957	82.13
662.404	83.33
662.85	82.53
663.296	83.53
663.743	83.33
664.189	83.93
664.635	81.43
665.082	85.13
665.528	85.33
665.974	81.93
666.42	86.53
666.867	85.23
667.313	88.13
667.759	82.23
668.205	88.33
668.651	84.73
669.097	85.33
669.543	84.83
669.989	83.23
670.435	87.73
670.881	79.33
671.327	78.53
671.773	79.83
672.219	81.63
672.665	89.33
673.11	82.83
673.556	83.03
674.002	86.83
674.448	82.43
674.893	83.13
675.339	89.43
675.785	86.03
676.23	83.03
676.676	81.63
677.122	83.53
677.567	83.43
678.013	83.93
678.458	83.83
678.904	83.83
679.349	85.63
679.794	85.43
680.24	83.73
680.685	88.03
681.131	85.83
681.576	83.33
682.021	82.03
682.466	85.13
682.912	83.33
683.357	84.33
683.802	86.23
684.247	86.73
684.692	88.53
685.137	83.33
685.583	90.43
686.028	84.53
686.473	86.93
686.918	87.93
687.363	87.03
687.807	87.63
688.252	83.13
688.697	78.83
689.142	80.23
689.587	83.13
690.032	80.03
690.477	86.53
690.921	79.03
691.366	86.23
691.811	90.23
692.255	89.43
692.7	83.43
693.145	85.33
693.589	85.13
694.034	88.43
694.478	86.73
694.923	85.13
695.367	86.13
695.812	88.93
696.256	83.83
696.701	82.43
697.145	87.93
697.59	84.83
698.034	83.73
698.478	88.63
698.922	81.43
699.367	78.13
699.811	86.93
700.255	87.63
700.699	86.63
701.143	85.43
701.588	84.23
702.032	82.23
702.476	86.03
702.92	88.13
703.364	84.13
703.808	83.53
704.252	81.33
704.696	88.33
705.14	85.73
705.584	91.13
706.027	86.13
706.471	83.73
706.915	85.93
707.359	86.03
707.803	85.33
708.246	85.23
708.69	81.63
709.134	81.43
709.577	86.83
710.021	84.23
710.465	84.93
710.908	87.33
711.352	85.13
711.795	88.73
712.239	89.73
712.682	87.73
713.126	87.43
713.569	88.23
714.012	82.53
714.456	88.73
714.899	85.73
715.342	84.13
715.786	82.43
716.229	85.63
716.672	82.93
717.115	81.83
717.558	85.53
718.002	84.33
718.445	83.03
718.888	81.63
719.331	87.13
719.774	85.73
720.217	86.73
720.66	83.23
721.103	85.63
721.546	83.03
721.989	91.53
722.432	87.83
722.874	80.53
723.317	85.23
723.76	84.63
724.203	88.53
724.645	86.33
725.088	83.33
725.531	84.93
725.974	83.73
726.416	85.73
726.859	84.83
727.301	82.13
727.744	84.43
728.187	83.83
728.629	82.03
729.071	84.73
729.514	84.13
729.956	84.33
730.399	87.23
730.841	85.43
731.283	88.43
731.726	86.93
732.168	90.13
732.61	84.13
733.053	83.73
733.495	87.13
733.937	86.43
734.379	86.23
734.821	79.43
735.263	86.33
735.705	86.33
736.148	87.03
736.59	81.03
737.032	88.13
737.474	83.13
737.916	91.53
738.357	87.13
738.799	87.13
739.241	87.43
739.683	79.13
740.125	83.43
740.567	84.43
741.008	86.83
741.45	83.83
741.892	89.73
742.334	85.93
742.775	86.63
743.217	89.03
743.658	81.23
744.1	81.93
744.542	85.33
744.983	81.73
745.425	85.43
745.866	85.23
746.307	86.23
746.749	83.53
747.19	80.93
747.632	82.33
748.073	85.23
748.514	89.73
748.956	89.43
749.397	86.03
749.838	86.13
750.279	89.83
750.72	83.33
751.162	88.23
751.603	88.23
752.044	82.73
752.485	79.33
752.926	86.13
753.367	84.93
753.808	87.23
754.249	83.03
754.69	84.63
755.131	82.73
755.572	89.83
756.013	88.83
756.453	84.13
756.894	81.13
757.335	84.63
757.776	86.13
758.216	88.93
758.657	88.83
759.098	88.73
759.538	84.63
759.979	89.73
760.42	83.63
760.86	84.93
761.301	85.93
761.741	88.13
762.182	88.63
762.622	84.93
763.063	82.33
763.503	87.73
763.943	84.53
764.384	82.33
764.824	83.13
765.264	85.73
765.705	81.93
766.145	88.03
766.585	88.03
767.025	92.73
767.465	92.03
767.906	85.93
768.346	85.63
768.786	86.63
769.226	86.13
769.666	86.63
770.106	85.53
770.546	89.23
770.986	86.63
771.426	83.63
771.866	83.63
772.306	83.33
772.745	81.23
773.185	86.03
773.625	91.13
774.065	86.83
774.505	83.93
774.944	89.93
775.384	87.63
775.824	86.23
776.263	87.53
776.703	86.33
777.142	80.53
777.582	82.43
778.021	81.73
778.461	82.63
778.9	88.33
779.34	90.73
779.779	90.23
780.219	82.13
780.658	82.63
781.097	84.13
781.537	84.83
781.976	86.13
782.415	90.23
782.855	89.53
783.294	84.33
783.733	86.13
784.172	86.83
784.611	81.93
785.05	80.13
785.489	87.13
785.928	89.73
786.367	87.53
786.806	80.33
787.245	81.23
787.684	87.23
788.123	87.73
788.562	87.63
789.001	83.13
789.44	85.93
789.879	84.93
790.317	84.33
790.756	88.03
791.195	87.93
791.634	90.23
792.072	86.73
792.511	83.83
792.95	85.83
793.388	84.53
793.827	83.73
794.265	87.33
794.704	85.13
795.142	91.63
795.581	89.93
796.019	79.63
796.458	86.53
796.896	86.93
797.334	88.93
797.773	85.13
798.211	83.73
798.649	87.33
799.087	88.13
799.526	83.83
799.964	85.83
800.402	84.23
800.84	86.03
801.278	82.83
801.716	86.33
802.154	83.73
802.592	88.93
803.03	84.43
803.468	84.43
803.906	84.03
804.344	87.33
804.782	83.43
805.22	86.23
805.658	81.23
806.096	94.63
806.533	79.23
806.971	85.43
807.409	84.13
807.847	84.83
808.284	83.93
808.722	83.03
809.16	84.23
809.597	90.43
810.035	88.63
810.472	87.53
810.91	81.33
811.347	81.93
811.785	84.03
812.222	88.03
812.66	80.13
813.097	85.33
813.535	85.23
813.972	78.53
814.409	83.93
814.846	88.33
815.284	81.93
815.721	90.73
816.158	83.83
816.595	88.53
817.032	89.73
817.47	87.43
817.907	86.13
818.344	88.33
818.781	86.53
819.218	90.33
819.655	89.73
820.092	87.13
820.529	87.53
820.966	85.73
821.403	84.83
821.839	82.83
822.276	86.63
822.713	87.53
823.15	87.43
823.587	86.53
824.023	90.03
824.46	87.23
824.897	85.43
825.333	82.33
825.77	83.73
826.206	84.53
826.643	80.93
827.08	87.63
827.516	79.83
827.953	84.83
828.389	79.33
828.825	85.93
829.262	84.43
829.698	86.33
830.135	86.13
830.571	89.53
831.007	84.23
831.443	88.23
831.88	86.03
832.316	81.13
832.752	83.63
833.188	88.73
833.624	88.73
834.06	87.43
834.497	84.03
834.933	85.73
835.369	86.73
835.805	87.23
836.241	82.93
836.677	84.43
837.112	80.63
837.548	83.93
837.984	85.53
838.42	84.03
838.856	84.63
839.292	82.63
839.727	86.13
840.163	88.23
840.599	87.23
841.034	83.03
841.47	83.13
841.906	84.03
842.341	89.83
842.777	88.53
843.212	85.93
843.648	86.43
844.083	86.23
844.519	88.13
844.954	85.23
845.39	86.63
845.825	87.23
846.261	88.13
846.696	85.83
847.131	86.53
847.566	85.43
848.002	83.83
848.437	84.73
848.872	88.43
849.307	86.53
849.742	85.33
850.177	84.23
850.613	88.73
851.048	81.43
851.483	80.13
851.918	81.83
852.353	79.63
852.788	80.93
853.223	85.53
853.657	80.03
854.092	87.33
854.527	83.73
854.962	86.63
855.397	86.33
855.832	88.13
856.266	83.43
856.701	82.53
857.136	85.03
857.57	80.73
858.005	81.83
858.44	85.83
858.874	84.73
859.309	89.33
859.743	92.43
860.178	88.43
860.612	82.13
861.047	77.53
861.481	83.93
861.915	80.53
862.35	83.53
862.784	84.53
863.218	85.63
863.653	83.33
864.087	88.63
864.521	83.13
864.955	83.03
865.39	87.83
865.824	83.93
866.258	82.13
866.692	87.53
867.126	88.13
867.56	84.23
867.994	85.13
868.428	89.83
868.862	87.83
869.296	90.13
869.73	82.93
870.164	86.53
870.598	83.63
871.031	83.93
871.465	84.13
871.899	85.63
872.333	86.33
872.766	88.73
873.2	85.83
873.634	85.13
874.067	87.83
874.501	87.03
874.935	88.73
875.368	92.03
875.802	82.73
876.235	88.93
876.669	85.63
877.102	85.93
877.535	85.13
877.969	85.93
878.402	86.43
878.836	90.13
879.269	89.83
879.702	88.43
880.135	84.73
880.569	84.93
881.002	87.73
881.435	87.43
881.868	85.43
882.301	81.93
882.734	87.73
883.167	86.73
883.601	86.03
884.034	83.23
884.467	86.03
884.899	83.63
885.332	85.53
885.765	89.53
886.198	86.33
886.631	82.93
887.064	82.83
887.497	85.73
887.929	82.83
888.362	86.83
888.795	88.23
889.228	86.73
889.66	86.53
890.093	84.83
890.526	84.53
890.958	84.13
891.391	82.13
891.823	87.13
892.256	84.33
892.688	82.73
893.121	85.13
893.553	83.73
893.985	83.33
894.418	86.83
894.85	88.73
895.282	87.13
895.715	79.63
896.147	81.23
896.579	85.13
897.011	84.83
897.444	92.83
897.876	90.13
898.308	87.83
898.74	82.73
899.172	84.33
899.604	83.23
900.036	83.83
900.468	85.73
900.9	84.43
901.332	88.83
901.764	86.33
902.196	81.93
902.628	80.13
903.06	81.83
903.491	82.23
903.923	80.83
904.355	82.63
904.787	83.43
905.218	83.33
905.65	87.33
906.082	82.13
906.513	82.43
906.945	87.23
907.376	85.63
907.808	86.63
908.239	87.83
908.671	78.33
909.102	81.63
909.534	83.83
909.965	85.93
910.397	79.83
910.828	90.73
911.259	84.83
911.691	82.83
912.122	83.43
912.553	80.33
912.984	82.93
913.415	84.63
913.847	85.03
914.278	86.63
914.709	84.93
915.14	82.43
915.571	88.43
916.002	86.33
916.433	86.43
916.864	83.73
917.295	81.13
917.726	84.23
918.157	88.23
918.587	86.93
919.018	86.43
919.449	83.33
919.88	84.43
920.311	88.73
920.741	83.63
921.172	86.73
921.603	88.53
922.033	84.93
922.464	81.63
922.895	84.83
923.325	85.03
923.756	79.53
924.186	84.73
924.617	87.13
925.047	83.43
925.478	84.23
925.908	85.33
926.338	81.93
926.769	89.33
927.199	85.63
927.629	90.93
928.06	86.03
928.49	84.73
928.92	82.03
929.35	83.43
929.78	86.93
930.21	86.33
930.641	88.43
931.071	83.03
931.501	86.03
931.931	79.93
932.361	86.53
932.791	82.63
933.221	86.63
933.651	85.73
934.08	87.83
934.51	87.53
934.94	87.53
935.37	81.03
935.8	84.43
936.229	81.93
936.659	89.23
937.089	84.93
937.519	88.23
937.948	85.53
938.378	88.53
938.807	85.73
939.237	83.33
939.666	84.63
940.096	83.23
940.525	83.53
940.955	82.13
941.384	87.43
941.814	88.43
942.243	83.93
942.672	83.93
943.102	84.33
943.531	85.33
943.96	81.13
944.39	83.73
944.819	85.73
945.248	84.83
945.677	86.83
946.106	89.93
946.535	86.23
946.964	81.43
947.393	88.03
947.822	87.63
948.251	84.13
948.68	85.13
949.109	86.63
949.538	87.03
949.967	88.23
950.396	85.73
950.825	83.73
951.254	78.03
951.682	81.03
952.111	85.03
952.54	83.23
952.969	84.03
953.397	84.03
953.826	88.33
954.254	86.33
954.683	85.73
955.112	87.53
955.54	85.03
955.969	86.13
956.397	81.73
956.826	82.43
957.254	82.33
957.682	85.13
958.111	85.53
958.539	80.53
958.967	84.83
959.396	82.63
959.824	81.23
960.252	85.93
960.68	84.43
961.109	83.13
961.537	82.93
961.965	80.13
962.393	89.73
962.821	82.63
963.249	84.33
963.677	89.53
964.105	81.63
964.533	86.43
964.961	87.13
965.389	86.43
965.817	84.03
966.245	79.53
966.672	82.13
967.1	78.33
967.528	82.23
967.956	83.33
968.383	78.83
968.811	83.23
969.239	87.03
969.666	81.53
970.094	79.33
970.522	84.93
970.949	87.23
971.377	84.13
971.804	83.13
972.232	81.93
972.659	80.53
973.087	84.33
973.514	77.13
973.941	81.33
974.369	85.53
974.796	84.03
975.223	86.93
975.651	81.83
976.078	81.03
976.505	83.83
976.932	85.73
977.359	85.33
977.786	81.73
978.214	81.53
978.641	82.43
979.068	83.93
979.495	86.03
979.922	83.33
980.349	86.53
980.776	80.43
981.202	84.73
981.629	86.73
982.056	80.93
982.483	87.83
982.91	89.53
983.337	84.23
983.763	83.93
984.19	85.73
984.617	88.93
985.043	87.73
985.47	82.53
985.897	80.83
986.323	83.53
986.75	84.43
987.176	85.93
987.603	80.53
988.029	90.83
988.456	82.73
988.882	83.83
989.308	88.73
989.735	87.63
990.161	87.83
990.587	85.13
991.014	79.63
991.44	84.03
991.866	87.43
992.292	87.03
992.719	85.53
993.145	82.13
993.571	86.13
993.997	80.23
994.423	88.03
994.849	86.83
995.275	82.43
995.701	84.13
996.127	82.13
996.553	84.93
996.979	86.83
997.405	83.93
997.83	82.23
998.256	81.83
998.682	84.53
999.108	87.23
999.534	83.33
999.959	89.13
1000.385	81.13
1000.811	85.13
1001.236	88.13
1001.662	84.63
1002.087	82.13
1002.513	86.53
1002.938	84.93
1003.364	87.83
1003.789	82.93
1004.215	83.53
1004.64	80.23
1005.066	84.63
1005.491	82.53
1005.916	79.23
1006.342	83.13
1006.767	85.73
1007.192	89.53
1007.617	80.73
1008.042	83.63
1008.468	79.53
1008.893	83.43
1009.318	85.23
1009.743	84.63
1010.168	87.53
1010.593	87.93
1011.018	84.63
1011.443	83.33
1011.868	85.23
1012.293	84.33
1012.718	85.03
1013.143	84.83
1013.567	85.73
1013.992	85.13
1014.417	84.03
1014.842	88.13
1015.267	80.93
1015.691	85.53
1016.116	86.33
1016.541	85.23
1016.965	85.83
1017.39	82.43
1017.814	83.03
1018.239	88.73
1018.663	88.13
1019.088	80.53
1019.512	84.83
1019.937	81.43
1020.361	89.03
1020.785	83.03
1021.21	83.83
1021.634	84.23
1022.058	85.73
1022.483	80.63
1022.907	81.23
1023.331	81.93
1023.755	84.23
1024.179	87.83
1024.604	80.73
1025.028	80.93
1025.452	84.23
1025.876	78.33
1026.3	85.63
1026.724	85.83
1027.148	84.83
1027.572	83.13
1027.996	83.93
1028.42	87.03
1028.843	85.53
1029.267	83.23
1029.691	82.93
1030.115	84.53
1030.539	83.13
1030.962	87.73
1031.386	81.63
1031.81	88.63
1032.233	83.43
1032.657	87.03
1033.08	80.63
1033.504	83.33
1033.927	87.03
1034.351	84.43
1034.774	83.03
1035.198	84.03
1035.621	81.73
1036.045	87.33
1036.468	84.73
1036.891	80.63
1037.315	83.33
1037.738	87.23
1038.161	88.13
1038.584	84.33
1039.008	84.03
1039.431	81.03
1039.854	85.83
1040.277	79.03
1040.7	80.33
1041.123	81.33
1041.546	84.53
1041.969	82.43
1042.392	83.03
1042.815	81.73
1043.238	82.33
1043.661	80.03
1044.084	81.93
1044.507	81.33
1044.93	78.53
1045.352	84.43
1045.775	86.63
1046.198	87.03
1046.621	79.63
1047.043	83.13
1047.466	81.53
1047.889	80.83
1048.311	80.23
1048.734	81.23
1049.156	84.53
1049.579	81.23
1050.001	77.43
1050.424	86.43
1050.846	84.23
1051.269	84.83
1051.691	83.43
1052.113	83.13
1052.536	87.43
1052.958	80.83
1053.38	86.13
1053.802	88.63
1054.225	87.63
1054.647	82.83
1055.069	87.53
1055.491	82.73
1055.913	81.13
1056.335	81.43
1056.757	82.13
1057.179	85.03
1057.601	86.23
1058.023	87.03
1058.445	76.03
1058.867	80.33
1059.289	83.03
1059.711	85.73
1060.133	84.53
1060.555	86.93
1060.976	87.03
1061.398	87.53
1061.82	87.53
1062.241	86.73
1062.663	86.83
1063.085	83.73
1063.506	84.63
1063.928	84.93
1064.35	87.83
1064.771	83.03
1065.193	83.33
1065.614	84.73
1066.035	86.03
1066.457	82.23
1066.878	81.53
1067.3	85.83
1067.721	85.03
1068.142	83.83
1068.564	83.43
1068.985	82.23
1069.406	85.23
1069.827	79.63
1070.248	81.53
1070.67	87.63
1071.091	80.73
1071.512	81.73
1071.933	84.33
1072.354	82.83
1072.775	83.33
1073.196	83.03
1073.617	80.93
1074.038	88.83
1074.459	81.33
1074.88	85.43
1075.3	86.33
1075.721	85.03
1076.142	80.93
1076.563	80.93
1076.983	86.23
1077.404	84.73
1077.825	77.73
1078.246	79.93
1078.666	90.43
1079.087	85.73
1079.507	82.43
1079.928	88.13
1080.348	87.63
1080.769	81.73
1081.189	85.73
1081.61	83.03
1082.03	84.03
1082.451	80.43
1082.871	76.03
1083.291	82.23
1083.711	73.83
1084.132	82.03
1084.552	87.23
1084.972	90.53
1085.392	84.93
1085.813	81.63
1086.233	84.03
1086.653	87.43
1087.073	87.53
1087.493	83.43
1087.913	89.83
1088.333	83.83
1088.753	81.63
1089.173	86.83
1089.593	83.13
1090.013	88.03
1090.433	84.43
1090.852	84.53
1091.272	84.33
1091.692	82.03
1092.112	87.53
1092.531	79.73
1092.951	83.73
1093.371	86.93
1093.79	83.33
1094.21	84.73
1094.63	80.03
1095.049	78.63
1095.469	82.33
1095.888	82.83
1096.308	83.33
1096.727	81.53
1097.146	82.93
1097.566	85.03
1097.985	83.43
1098.405	79.63
1098.824	82.53
1099.243	80.03
1099.662	84.33
1100.082	80.23
1100.501	83.63
1100.92	84.33
1101.339	84.63
1101.758	87.03
