Data from DH-3PlusCalLight-DeuteriumHalogen_HRD10391_13-38-35-537.txt Node
Date: Thu Feb 15 13:38:35 EST 2018
User: Ender
Spectrometer: HR+D1039
Trigger mode: 0
Integration Time (sec): 2.730000E-2
Scans to average: 10
Electric dark correction enabled: true
Nonlinearity correction enabled: false
Boxcar width: 0
XAxis mode: Wavelengths
Number of Pixels in Spectrum: 2048
>>>>>Begin Spectral Data<<<<<
187.836	0.14
188.309	0.14
188.782	0.14
189.255	-0.26
189.728	-2.16
190.201	-9.26
190.674	-8.86
191.147	-10.86
191.619	-4.86
192.092	-5.66
192.565	-1.76
193.038	-3.26
193.511	-4.66
193.984	4.24
194.456	0.44
194.929	12.34
195.402	13.84
195.874	20.54
196.347	25.64
196.82	24.04
197.292	23.24
197.765	30.74
198.237	36.34
198.71	36.84
199.182	47.64
199.655	50.94
200.127	58.64
200.6	59.24
201.072	60.04
201.544	56.24
202.017	60.14
202.489	69.44
202.961	71.34
203.433	76.84
203.906	73.44
204.378	77.64
204.85	81.14
205.322	76.54
205.794	77.84
206.266	76.44
206.739	83.64
207.211	82.34
207.683	85.64
208.155	83.64
208.627	85.84
209.099	83.24
209.57	82.74
210.042	85.04
210.514	85.94
210.986	82.44
211.458	81.04
211.93	85.74
212.402	86.54
212.873	78.04
213.345	87.74
213.817	89.34
214.288	85.14
214.76	87.64
215.232	84.64
215.703	87.44
216.175	85.64
216.646	86.14
217.118	89.94
217.589	84.44
218.061	83.54
218.532	85.14
219.004	85.24
219.475	89.44
219.946	83.64
220.418	82.14
220.889	86.74
221.36	87.94
221.832	82.74
222.303	89.44
222.774	81.94
223.245	86.04
223.717	84.14
224.188	89.34
224.659	89.54
225.13	95.84
225.601	99.14
226.072	98.54
226.543	97.44
227.014	101.94
227.485	100.14
227.956	106.34
228.427	108.84
228.898	106.14
229.369	107.74
229.839	109.54
230.31	114.64
230.781	119.64
231.252	119.44
231.722	115.74
232.193	118.54
232.664	119.64
233.135	119.54
233.605	119.44
234.076	114.14
234.546	113.04
235.017	102.74
235.487	110.54
235.958	110.04
236.428	101.44
236.899	101.14
237.369	96.14
237.84	99.04
238.31	89.24
238.78	88.84
239.251	90.24
239.721	90.34
240.191	89.84
240.662	84.64
241.132	91.74
241.602	85.74
242.072	81.54
242.542	80.34
243.013	86.34
243.483	83.34
243.953	87.14
244.423	82.64
244.893	85.84
245.363	82.94
245.833	79.34
246.303	83.54
246.773	84.44
247.243	82.74
247.712	88.74
248.182	83.44
248.652	85.44
249.122	87.74
249.592	88.84
250.061	83.14
250.531	83.24
251.001	90.54
251.471	95.14
251.94	88.94
252.41	85.44
252.879	93.04
253.349	94.64
253.818	96.44
254.288	101.44
254.757	109.94
255.227	107.64
255.696	104.24
256.166	110.44
256.635	114.94
257.105	120.44
257.574	125.34
258.043	129.94
258.513	134.14
258.982	146.54
259.451	155.14
259.92	162.04
260.389	175.24
260.859	181.24
261.328	191.74
261.797	203.14
262.266	205.94
262.735	219.44
263.204	225.94
263.673	233.34
264.142	243.94
264.611	254.64
265.08	259.04
265.549	269.24
266.018	275.94
266.487	280.84
266.955	290.54
267.424	303.94
267.893	306.54
268.362	302.34
268.83	317.24
269.299	323.24
269.768	325.24
270.236	328.24
270.705	337.14
271.174	338.54
271.642	334.24
272.111	345.74
272.579	342.54
273.048	352.94
273.516	342.44
273.985	358.74
274.453	360.74
274.922	352.74
275.39	344.34
275.858	353.04
276.327	350.04
276.795	354.94
277.263	361.54
277.731	350.94
278.2	350.84
278.668	344.84
279.136	346.04
279.604	348.24
280.072	353.84
280.54	346.04
281.008	344.34
281.477	341.04
281.945	340.34
282.413	344.64
282.881	336.94
283.348	338.44
283.816	334.64
284.284	325.94
284.752	322.54
285.22	323.74
285.688	327.34
286.156	312.64
286.623	311.54
287.091	304.94
287.559	322.44
288.026	319.44
288.494	313.44
288.962	316.74
289.429	309.04
289.897	316.04
290.364	325.84
290.832	318.44
291.3	329.64
291.767	334.84
292.234	337.04
292.702	340.64
293.169	342.44
293.637	346.74
294.104	354.24
294.571	362.74
295.039	358.34
295.506	369.44
295.973	368.24
296.44	375.24
296.908	380.14
297.375	383.34
297.842	378.24
298.309	383.74
298.776	388.04
299.243	386.94
299.71	381.34
300.177	378.14
300.644	391.54
301.111	389.44
301.578	387.04
302.045	394.34
302.512	388.34
302.979	391.44
303.446	389.04
303.913	387.24
304.379	389.24
304.846	387.64
305.313	394.14
305.78	384.54
306.246	382.24
306.713	382.24
307.18	380.44
307.646	376.04
308.113	376.94
308.579	374.54
309.046	376.64
309.512	364.94
309.979	368.94
310.445	376.84
310.912	362.54
311.378	366.44
311.845	362.64
312.311	365.54
312.777	362.54
313.244	362.54
313.71	368.54
314.176	368.74
314.642	363.64
315.109	367.64
315.575	360.94
316.041	368.64
316.507	380.74
316.973	372.64
317.439	365.64
317.905	368.84
318.371	371.24
318.837	374.04
319.303	385.74
319.769	385.44
320.235	379.44
320.701	388.04
321.167	387.64
321.633	391.04
322.099	391.94
322.564	390.24
323.03	394.84
323.496	394.14
323.962	398.74
324.427	406.94
324.893	401.54
325.359	394.34
325.824	396.74
326.29	395.44
326.755	404.94
327.221	396.04
327.686	403.74
328.152	399.94
328.617	399.74
329.083	398.74
329.548	399.14
330.014	390.24
330.479	391.64
330.944	387.04
331.41	391.04
331.875	379.04
332.34	378.34
332.805	377.24
333.271	371.24
333.736	370.34
334.201	367.64
334.666	375.04
335.131	358.34
335.596	359.14
336.061	367.94
336.526	360.84
336.991	355.14
337.456	358.94
337.921	350.54
338.386	344.24
338.851	351.64
339.316	357.24
339.781	366.84
340.246	366.64
340.711	364.34
341.175	377.04
341.64	378.94
342.105	379.04
342.569	388.74
343.034	390.14
343.499	397.04
343.963	392.74
344.428	395.14
344.893	401.94
345.357	400.74
345.822	407.14
346.286	411.84
346.751	417.44
347.215	426.44
347.679	419.34
348.144	435.34
348.608	432.94
349.073	430.94
349.537	442.64
350.001	434.74
350.465	434.14
350.93	446.94
351.394	434.54
351.858	430.84
352.322	437.94
352.786	441.14
353.25	435.94
353.715	439.24
354.179	449.14
354.643	430.64
355.107	440.24
355.571	436.94
356.035	438.84
356.498	440.24
356.962	439.94
357.426	446.84
357.89	442.84
358.354	442.04
358.818	448.24
359.281	443.34
359.745	446.54
360.209	428.64
360.673	443.94
361.136	448.24
361.6	443.44
362.064	443.84
362.527	437.34
362.991	452.54
363.454	441.54
363.918	441.14
364.381	443.94
364.845	443.44
365.308	449.34
365.772	446.14
366.235	442.74
366.698	440.54
367.162	436.14
367.625	445.34
368.088	454.84
368.552	448.74
369.015	440.64
369.478	443.34
369.941	446.64
370.404	446.44
370.867	437.44
371.331	447.54
371.794	449.34
372.257	452.64
372.72	442.04
373.183	448.04
373.646	458.24
374.109	455.34
374.572	461.54
375.035	457.74
375.497	461.74
375.96	461.84
376.423	463.54
376.886	470.64
377.349	486.74
377.811	475.84
378.274	492.04
378.737	482.74
379.199	478.74
379.662	484.64
380.125	476.44
380.587	481.94
381.05	482.74
381.512	485.24
381.975	492.84
382.437	481.24
382.9	475.74
383.362	488.54
383.825	497.64
384.287	503.74
384.75	495.64
385.212	496.84
385.674	499.24
386.136	503.44
386.599	497.54
387.061	512.24
387.523	517.24
387.985	505.74
388.447	493.74
388.91	495.74
389.372	512.34
389.834	508.04
390.296	519.14
390.758	514.44
391.22	526.94
391.682	525.64
392.144	531.34
392.606	511.14
393.068	516.64
393.529	522.44
393.991	516.94
394.453	512.24
394.915	509.54
395.377	525.74
395.838	530.04
396.3	534.54
396.762	547.34
397.224	550.54
397.685	552.54
398.147	531.64
398.608	535.34
399.07	535.24
399.531	522.34
399.993	539.14
400.454	540.54
400.916	525.64
401.377	532.44
401.839	525.04
402.3	534.64
402.762	553.24
403.223	543.34
403.684	536.54
404.145	548.64
404.607	552.04
405.068	542.84
405.529	533.94
405.99	532.34
406.451	524.14
406.913	525.64
407.374	532.84
407.835	542.24
408.296	537.44
408.757	536.04
409.218	541.74
409.679	528.64
410.14	524.54
410.601	534.24
411.062	537.84
411.522	558.94
411.983	547.34
412.444	551.94
412.905	539.94
413.366	545.24
413.826	544.24
414.287	546.34
414.748	540.04
415.208	560.64
415.669	554.24
416.13	545.24
416.59	551.14
417.051	553.84
417.511	566.04
417.972	573.24
418.432	590.74
418.893	591.14
419.353	602.54
419.814	604.54
420.274	617.24
420.734	622.84
421.195	626.94
421.655	609.94
422.115	621.84
422.576	622.64
423.036	627.14
423.496	639.04
423.956	639.24
424.416	640.54
424.876	650.14
425.336	642.14
425.797	659.44
426.257	677.94
426.717	695.04
427.177	689.04
427.637	698.84
428.097	718.54
428.556	729.44
429.016	735.74
429.476	744.24
429.936	749.94
430.396	748.34
430.856	735.44
431.315	746.24
431.775	778.04
432.235	787.34
432.694	813.44
433.154	825.84
433.614	802.04
434.073	831.44
434.533	834.94
434.993	834.84
435.452	858.94
435.912	852.64
436.371	868.64
436.83	877.34
437.29	889.34
437.749	891.74
438.209	901.44
438.668	906.34
439.127	921.04
439.587	931.94
440.046	948.24
440.505	969.14
440.964	956.14
441.424	978.84
441.883	1003.84
442.342	1014.24
442.801	1012.14
443.26	1048.04
443.719	1054.74
444.178	1062.44
444.637	1081.94
445.096	1087.54
445.555	1103.14
446.014	1110.84
446.473	1106.34
446.932	1130.14
447.391	1151.84
447.849	1187.94
448.308	1165.54
448.767	1177.24
449.226	1196.04
449.685	1198.04
450.143	1229.64
450.602	1253.04
451.061	1254.34
451.519	1277.24
451.978	1288.24
452.436	1296.74
452.895	1313.64
453.353	1312.54
453.812	1315.44
454.27	1357.64
454.729	1356.64
455.187	1375.94
455.646	1378.04
456.104	1404.24
456.562	1402.44
457.021	1439.94
457.479	1392.34
457.937	1442.64
458.395	1478.84
458.854	1468.34
459.312	1461.74
459.77	1475.74
460.228	1479.24
460.686	1526.24
461.144	1507.14
461.602	1500.14
462.06	1496.94
462.518	1523.54
462.976	1506.84
463.434	1509.64
463.892	1495.74
464.35	1521.04
464.808	1513.54
465.266	1517.24
465.724	1517.84
466.181	1538.84
466.639	1511.94
467.097	1555.14
467.555	1595.04
468.012	1558.24
468.47	1562.64
468.928	1582.04
469.385	1585.14
469.843	1606.94
470.3	1595.34
470.758	1636.54
471.215	1624.94
471.673	1653.64
472.13	1692.24
472.588	1711.04
473.045	1715.24
473.503	1761.44
473.96	1832.54
474.417	1825.04
474.875	1868.64
475.332	1879.74
475.789	1893.94
476.246	1941.14
476.704	1965.54
477.161	2013.14
477.618	2020.34
478.075	2068.34
478.532	2129.14
478.989	2161.14
479.446	2184.64
479.903	2207.24
480.36	2318.74
480.817	2312.04
481.274	2374.94
481.731	2418.14
482.188	2432.74
482.645	2494.54
483.102	2519.34
483.558	2548.94
484.015	2606.44
484.472	2633.84
484.929	2694.24
485.385	2734.24
485.842	2756.34
486.299	2797.44
486.755	2812.84
487.212	2824.54
487.668	2861.74
488.125	2914.24
488.582	2874.54
489.038	2913.04
489.494	2930.74
489.951	2949.94
490.407	2967.04
490.864	2967.64
491.32	2995.24
491.776	2985.44
492.233	3002.24
492.689	3002.94
493.145	3017.64
493.602	2991.64
494.058	3015.74
494.514	3013.14
494.97	3014.84
495.426	3014.64
495.882	3014.34
496.338	2994.54
496.794	3025.34
497.251	3019.64
497.707	3045.04
498.163	3048.94
498.618	3044.34
499.074	3014.04
499.53	3047.64
499.986	3070.14
500.442	3058.54
500.898	3036.34
501.354	3093.24
501.809	3061.24
502.265	3038.14
502.721	3053.94
503.177	3064.64
503.632	3061.14
504.088	3056.74
504.543	3059.94
504.999	3067.24
505.455	3046.44
505.91	3078.94
506.366	3069.04
506.821	3055.44
507.277	3057.14
507.732	3061.84
508.187	3026.24
508.643	3033.64
509.098	3025.64
509.553	3024.64
510.009	3021.24
510.464	3006.94
510.919	3017.64
511.375	3018.64
511.83	2973.34
512.285	2962.64
512.74	2986.34
513.195	2963.14
513.65	2945.74
514.105	2937.94
514.56	2896.04
515.015	2937.84
515.47	2910.14
515.925	2872.84
516.38	2909.04
516.835	2895.54
517.29	2876.04
517.745	2863.14
518.2	2841.74
518.655	2851.64
519.109	2818.94
519.564	2830.34
520.019	2810.34
520.474	2823.64
520.928	2801.64
521.383	2782.34
521.838	2791.54
522.292	2766.74
522.747	2774.04
523.201	2753.84
523.656	2763.54
524.11	2744.74
524.565	2739.44
525.019	2761.44
525.474	2744.24
525.928	2738.74
526.382	2755.24
526.837	2723.94
527.291	2759.54
527.745	2724.54
528.2	2734.74
528.654	2737.14
529.108	2733.74
529.562	2736.94
530.016	2732.64
530.47	2750.14
530.925	2729.74
531.379	2734.94
531.833	2764.64
532.287	2718.44
532.741	2730.94
533.195	2729.14
533.649	2738.94
534.103	2741.24
534.556	2727.84
535.01	2734.34
535.464	2731.64
535.918	2732.74
536.372	2755.84
536.826	2737.94
537.279	2705.04
537.733	2718.34
538.187	2743.54
538.64	2734.24
539.094	2740.74
539.548	2736.14
540.001	2720.14
540.455	2707.94
540.908	2711.14
541.362	2720.64
541.815	2700.04
542.269	2710.44
542.722	2705.04
543.175	2688.54
543.629	2682.74
544.082	2670.14
544.536	2659.04
544.989	2640.54
545.442	2672.94
545.895	2654.24
546.349	2653.84
546.802	2650.94
547.255	2637.34
547.708	2637.04
548.161	2638.34
548.614	2618.34
549.067	2623.54
549.52	2627.14
549.973	2622.24
550.426	2603.24
550.879	2633.34
551.332	2601.94
551.785	2607.44
552.238	2597.64
552.691	2603.34
553.144	2615.04
553.596	2605.64
554.049	2607.14
554.502	2621.64
554.955	2623.84
555.407	2619.74
555.86	2627.94
556.313	2626.14
556.765	2632.74
557.218	2647.34
557.67	2661.14
558.123	2646.84
558.576	2639.14
559.028	2663.74
559.48	2671.24
559.933	2661.74
560.385	2662.04
560.838	2660.14
561.29	2657.74
561.742	2694.54
562.195	2668.34
562.647	2684.84
563.099	2707.84
563.551	2668.54
564.004	2699.14
564.456	2702.54
564.908	2726.34
565.36	2703.24
565.812	2687.54
566.264	2716.34
566.716	2707.84
567.168	2708.64
567.62	2728.74
568.072	2710.14
568.524	2714.04
568.976	2727.04
569.428	2696.64
569.88	2709.24
570.332	2718.04
570.784	2714.34
571.235	2684.84
571.687	2710.64
572.139	2691.64
572.59	2708.24
573.042	2680.44
573.494	2688.54
573.945	2675.34
574.397	2639.54
574.849	2669.14
575.3	2672.24
575.752	2648.74
576.203	2627.74
576.655	2655.64
577.106	2644.14
577.557	2636.24
578.009	2629.44
578.46	2639.74
578.912	2604.34
579.363	2608.84
579.814	2615.44
580.265	2609.24
580.717	2604.84
581.168	2597.34
581.619	2600.14
582.07	2595.24
582.521	2594.64
582.972	2583.24
583.423	2611.34
583.875	2612.44
584.326	2585.04
584.777	2604.94
585.227	2601.54
585.678	2590.24
586.129	2614.74
586.58	2598.84
587.031	2592.34
587.482	2601.94
587.933	2602.24
588.384	2609.94
588.834	2589.34
589.285	2606.54
589.736	2610.34
590.186	2594.34
590.637	2615.44
591.088	2608.64
591.538	2621.64
591.989	2618.54
592.439	2625.04
592.89	2624.44
593.34	2633.14
593.791	2622.34
594.241	2619.44
594.692	2619.84
595.142	2631.14
595.593	2640.94
596.043	2649.74
596.493	2660.14
596.943	2617.84
597.394	2648.64
597.844	2639.14
598.294	2652.74
598.744	2647.44
599.195	2661.74
599.645	2672.14
600.095	2656.54
600.545	2659.54
600.995	2651.34
601.445	2654.34
601.895	2684.74
602.345	2684.04
602.795	2651.84
603.245	2671.24
603.695	2678.74
604.145	2670.44
604.594	2666.84
605.044	2675.94
605.494	2682.74
605.944	2692.84
606.393	2685.54
606.843	2685.64
607.293	2688.94
607.743	2693.94
608.192	2704.64
608.642	2696.64
609.091	2679.14
609.541	2685.04
609.99	2703.74
610.44	2675.74
610.889	2709.64
611.339	2690.94
611.788	2681.14
612.238	2710.94
612.687	2684.84
613.136	2691.84
613.586	2676.44
614.035	2660.04
614.484	2686.34
614.933	2672.94
615.383	2667.34
615.832	2676.74
616.281	2669.74
616.73	2687.14
617.179	2678.24
617.628	2675.64
618.077	2664.84
618.526	2663.34
618.975	2670.24
619.424	2640.74
619.873	2661.14
620.322	2659.14
620.771	2685.94
621.22	2653.64
621.669	2638.14
622.118	2654.54
622.567	2656.44
623.015	2630.04
623.464	2634.34
623.913	2659.34
624.361	2655.04
624.81	2644.74
625.259	2656.64
625.707	2639.44
626.156	2640.54
626.604	2659.34
627.053	2651.64
627.501	2623.34
627.95	2637.54
628.398	2654.64
628.847	2614.44
629.295	2614.54
629.744	2622.24
630.192	2590.54
630.64	2617.74
631.089	2628.94
631.537	2618.74
631.985	2593.44
632.433	2613.24
632.881	2599.94
633.33	2606.24
633.778	2581.34
634.226	2586.94
634.674	2589.04
635.122	2568.54
635.57	2563.14
636.018	2592.24
636.466	2558.44
636.914	2548.84
637.362	2549.14
637.81	2535.64
638.258	2571.94
638.705	2527.64
639.153	2558.14
639.601	2527.74
640.049	2554.94
640.497	2550.54
640.944	2540.04
641.392	2528.94
641.84	2550.84
642.287	2535.14
642.735	2538.94
643.182	2535.24
643.63	2548.54
644.078	2526.14
644.525	2509.44
644.973	2530.14
645.42	2509.44
645.867	2532.44
646.315	2486.44
646.762	2510.74
647.21	2502.44
647.657	2514.54
648.104	2512.14
648.551	2470.44
648.999	2499.14
649.446	2512.84
649.893	2490.84
650.34	2487.84
650.787	2501.84
651.234	2482.54
651.682	2477.54
652.129	2486.74
652.576	2485.84
653.023	2482.64
653.47	2480.94
653.917	2488.84
654.363	2495.74
654.81	2518.74
655.257	2485.24
655.704	2471.04
656.151	2457.94
656.598	2457.84
657.044	2447.14
657.491	2449.24
657.938	2433.24
658.385	2444.54
658.831	2455.84
659.278	2449.74
659.724	2428.34
660.171	2442.04
660.618	2412.14
661.064	2398.14
661.511	2425.54
661.957	2412.14
662.404	2403.34
662.85	2404.14
663.296	2401.34
663.743	2392.14
664.189	2404.04
664.635	2407.64
665.082	2386.94
665.528	2368.14
665.974	2392.94
666.42	2370.64
666.867	2375.54
667.313	2355.54
667.759	2358.74
668.205	2345.14
668.651	2368.24
669.097	2353.34
669.543	2363.44
669.989	2343.24
670.435	2344.84
670.881	2333.14
671.327	2294.24
671.773	2328.14
672.219	2310.44
672.665	2315.74
673.11	2294.44
673.556	2304.34
674.002	2277.04
674.448	2290.24
674.893	2258.14
675.339	2255.44
675.785	2251.44
676.23	2264.54
676.676	2238.84
677.122	2239.74
677.567	2243.94
678.013	2204.14
678.458	2223.34
678.904	2233.14
679.349	2197.94
679.794	2192.74
680.24	2171.44
680.685	2164.34
681.131	2155.44
681.576	2161.64
682.021	2158.24
682.466	2132.94
682.912	2114.74
683.357	2112.84
683.802	2118.84
684.247	2099.14
684.692	2090.24
685.137	2074.94
685.583	2078.44
686.028	2073.74
686.473	2058.64
686.918	2055.64
687.363	2024.44
687.807	2031.74
688.252	2015.04
688.697	2014.44
689.142	2004.34
689.587	1996.44
690.032	1997.84
690.477	1991.94
690.921	1979.44
691.366	1973.24
691.811	1982.14
692.255	1968.14
692.7	1964.84
693.145	1973.94
693.589	1943.44
694.034	1933.44
694.478	1959.64
694.923	1933.44
695.367	1924.74
695.812	1926.64
696.256	1909.64
696.701	1922.04
697.145	1916.24
697.59	1884.04
698.034	1882.84
698.478	1880.64
698.922	1887.84
699.367	1880.34
699.811	1884.14
700.255	1868.94
700.699	1850.64
701.143	1862.94
701.588	1856.74
702.032	1835.24
702.476	1835.54
702.92	1844.64
703.364	1829.74
703.808	1819.64
704.252	1823.54
704.696	1812.54
705.14	1812.74
705.584	1813.14
706.027	1794.04
706.471	1805.44
706.915	1804.04
707.359	1799.04
707.803	1779.34
708.246	1773.64
708.69	1775.74
709.134	1769.14
709.577	1761.04
710.021	1766.44
710.465	1744.34
710.908	1749.54
711.352	1732.14
711.795	1735.54
712.239	1739.74
712.682	1726.84
713.126	1727.04
713.569	1721.24
714.012	1723.24
714.456	1710.14
714.899	1707.24
715.342	1710.14
715.786	1700.04
716.229	1708.14
716.672	1698.94
717.115	1711.74
717.558	1682.24
718.002	1678.64
718.445	1691.54
718.888	1684.04
719.331	1661.74
719.774	1665.74
720.217	1652.94
720.66	1656.84
721.103	1642.74
721.546	1636.74
721.989	1640.54
722.432	1626.64
722.874	1639.04
723.317	1624.34
723.76	1629.04
724.203	1609.74
724.645	1617.04
725.088	1635.34
725.531	1629.94
725.974	1602.24
726.416	1600.14
726.859	1607.44
727.301	1589.04
727.744	1572.44
728.187	1588.34
728.629	1577.54
729.071	1588.04
729.514	1556.94
729.956	1569.14
730.399	1565.54
730.841	1556.84
731.283	1554.24
731.726	1523.94
732.168	1538.44
732.61	1542.44
733.053	1529.44
733.495	1515.94
733.937	1520.34
734.379	1512.04
734.821	1506.14
735.263	1502.54
735.705	1489.14
736.148	1490.04
736.59	1489.54
737.032	1470.74
737.474	1471.44
737.916	1463.34
738.357	1486.74
738.799	1475.34
739.241	1456.34
739.683	1458.54
740.125	1454.04
740.567	1447.34
741.008	1464.64
741.45	1427.84
741.892	1443.34
742.334	1430.74
742.775	1452.04
743.217	1435.54
743.658	1423.24
744.1	1422.54
744.542	1418.74
744.983	1401.64
745.425	1394.64
745.866	1393.04
746.307	1384.54
746.749	1384.04
747.19	1383.04
747.632	1365.34
748.073	1355.24
748.514	1362.74
748.956	1357.14
749.397	1352.54
749.838	1331.44
750.279	1336.84
750.72	1337.44
751.162	1327.94
751.603	1331.34
752.044	1333.94
752.485	1317.34
752.926	1310.74
753.367	1309.64
753.808	1298.14
754.249	1285.44
754.69	1289.64
755.131	1293.54
755.572	1285.14
756.013	1289.74
756.453	1280.54
756.894	1276.04
757.335	1271.94
757.776	1259.24
758.216	1271.64
758.657	1255.54
759.098	1259.84
759.538	1248.14
759.979	1244.44
760.42	1250.04
760.86	1236.04
761.301	1237.84
761.741	1237.94
762.182	1228.24
762.622	1220.74
763.063	1217.14
763.503	1216.04
763.943	1211.44
764.384	1224.34
764.824	1212.24
765.264	1220.04
765.705	1207.84
766.145	1191.54
766.585	1188.34
767.025	1189.34
767.465	1188.94
767.906	1176.34
768.346	1162.14
768.786	1176.14
769.226	1172.24
769.666	1154.94
770.106	1156.44
770.546	1156.34
770.986	1150.74
771.426	1151.94
771.866	1150.84
772.306	1134.64
772.745	1144.74
773.185	1140.54
773.625	1134.04
774.065	1133.04
774.505	1126.24
774.944	1115.04
775.384	1111.74
775.824	1115.44
776.263	1097.84
776.703	1099.04
777.142	1106.04
777.582	1104.34
778.021	1101.04
778.461	1088.04
778.9	1089.94
779.34	1084.04
779.779	1079.24
780.219	1074.14
780.658	1083.54
781.097	1066.04
781.537	1077.24
781.976	1068.84
782.415	1079.04
782.855	1064.64
783.294	1070.34
783.733	1068.44
784.172	1054.94
784.611	1048.24
785.05	1051.54
785.489	1048.64
785.928	1043.24
786.367	1045.74
786.806	1048.64
787.245	1051.44
787.684	1039.84
788.123	1041.94
788.562	1058.54
789.001	1034.74
789.44	1045.44
789.879	1030.94
790.317	1037.64
790.756	1033.34
791.195	1029.44
791.634	1035.24
792.072	1029.04
792.511	1036.14
792.95	1037.84
793.388	1026.04
793.827	1024.34
794.265	1012.54
794.704	1022.64
795.142	1029.24
795.581	1016.14
796.019	1022.24
796.458	1026.84
796.896	1018.54
797.334	1019.94
797.773	1018.14
798.211	1014.74
798.649	1022.54
799.087	1029.04
799.526	1017.04
799.964	1037.64
800.402	1035.74
800.84	1028.04
801.278	1043.44
801.716	1033.14
802.154	1042.04
802.592	1047.14
803.03	1029.64
803.468	1039.24
803.906	1040.44
804.344	1045.04
804.782	1050.74
805.22	1050.04
805.658	1050.14
806.096	1041.64
806.533	1062.94
806.971	1065.34
807.409	1057.24
807.847	1064.34
808.284	1074.24
808.722	1081.44
809.16	1078.24
809.597	1083.44
810.035	1075.64
810.472	1084.54
810.91	1081.14
811.347	1102.14
811.785	1099.04
812.222	1101.54
812.66	1107.44
813.097	1107.44
813.535	1097.54
813.972	1122.24
814.409	1127.74
814.846	1128.14
815.284	1131.54
815.721	1140.14
816.158	1145.54
816.595	1159.24
817.032	1158.34
817.47	1159.94
817.907	1164.54
818.344	1161.34
818.781	1167.04
819.218	1182.84
819.655	1181.54
820.092	1188.24
820.529	1193.84
820.966	1208.24
821.403	1207.34
821.839	1222.74
822.276	1226.24
822.713	1227.44
823.15	1240.14
823.587	1243.24
824.023	1239.34
824.46	1250.54
824.897	1244.94
825.333	1258.64
825.77	1272.14
826.206	1266.54
826.643	1290.04
827.08	1291.44
827.516	1287.04
827.953	1305.64
828.389	1291.24
828.825	1311.84
829.262	1312.84
829.698	1309.74
830.135	1325.74
830.571	1321.04
831.007	1331.44
831.443	1342.84
831.88	1338.74
832.316	1338.34
832.752	1347.24
833.188	1352.44
833.624	1349.94
834.06	1358.64
834.497	1348.34
834.933	1366.04
835.369	1370.44
835.805	1371.24
836.241	1360.14
836.677	1370.44
837.112	1375.34
837.548	1387.24
837.984	1379.84
838.42	1386.04
838.856	1378.74
839.292	1375.74
839.727	1401.14
840.163	1379.94
840.599	1381.64
841.034	1390.74
841.47	1391.14
841.906	1404.54
842.341	1399.74
842.777	1388.34
843.212	1394.74
843.648	1400.24
844.083	1384.34
844.519	1378.14
844.954	1392.74
845.39	1382.34
845.825	1401.84
846.261	1394.64
846.696	1403.84
847.131	1403.24
847.566	1396.24
848.002	1405.84
848.437	1402.74
848.872	1384.54
849.307	1388.84
849.742	1393.84
850.177	1395.54
850.613	1397.24
851.048	1389.94
851.483	1385.14
851.918	1407.04
852.353	1393.34
852.788	1384.34
853.223	1395.74
853.657	1396.44
854.092	1389.94
854.527	1384.14
854.962	1390.44
855.397	1365.74
855.832	1396.74
856.266	1384.54
856.701	1407.54
857.136	1382.24
857.57	1392.34
858.005	1382.34
858.44	1383.84
858.874	1392.54
859.309	1371.64
859.743	1378.14
860.178	1372.74
860.612	1371.34
861.047	1387.94
861.481	1390.94
861.915	1373.04
862.35	1385.24
862.784	1383.64
863.218	1393.54
863.653	1394.94
864.087	1379.04
864.521	1377.44
864.955	1372.84
865.39	1375.84
865.824	1372.74
866.258	1371.74
866.692	1376.74
867.126	1370.94
867.56	1380.24
867.994	1379.14
868.428	1376.14
868.862	1373.64
869.296	1363.84
869.73	1371.94
870.164	1374.74
870.598	1371.04
871.031	1356.64
871.465	1358.04
871.899	1369.94
872.333	1367.34
872.766	1365.24
873.2	1368.54
873.634	1372.14
874.067	1356.54
874.501	1351.54
874.935	1354.44
875.368	1356.04
875.802	1370.74
876.235	1349.14
876.669	1346.44
877.102	1357.44
877.535	1343.04
877.969	1346.24
878.402	1348.64
878.836	1350.94
879.269	1342.64
879.702	1335.04
880.135	1334.34
880.569	1343.34
881.002	1329.44
881.435	1326.74
881.868	1327.44
882.301	1326.84
882.734	1316.94
883.167	1318.84
883.601	1331.34
884.034	1301.34
884.467	1308.04
884.899	1315.94
885.332	1317.64
885.765	1290.24
886.198	1300.74
886.631	1311.44
887.064	1308.44
887.497	1285.44
887.929	1293.54
888.362	1282.84
888.795	1280.24
889.228	1268.54
889.66	1275.24
890.093	1267.24
890.526	1271.04
890.958	1267.64
891.391	1264.04
891.823	1267.64
892.256	1267.24
892.688	1250.44
893.121	1256.24
893.553	1240.64
893.985	1229.44
894.418	1239.74
894.85	1239.04
895.282	1241.44
895.715	1216.84
896.147	1223.24
896.579	1222.64
897.011	1213.94
897.444	1209.94
897.876	1215.94
898.308	1205.44
898.74	1199.24
899.172	1207.84
899.604	1198.74
900.036	1205.94
900.468	1188.24
900.9	1178.94
901.332	1177.64
901.764	1178.94
902.196	1176.64
902.628	1173.54
903.06	1163.84
903.491	1166.14
903.923	1157.84
904.355	1163.64
904.787	1147.24
905.218	1143.24
905.65	1147.84
906.082	1140.54
906.513	1145.84
906.945	1141.84
907.376	1138.04
907.808	1134.24
908.239	1134.94
908.671	1123.34
909.102	1114.84
909.534	1112.54
909.965	1106.44
910.397	1117.74
910.828	1103.04
911.259	1100.24
911.691	1109.94
912.122	1094.44
912.553	1089.34
912.984	1085.04
913.415	1089.54
913.847	1085.54
914.278	1087.74
914.709	1077.54
915.14	1067.84
915.571	1066.44
916.002	1062.74
916.433	1063.04
916.864	1062.84
917.295	1063.44
917.726	1044.64
918.157	1051.64
918.587	1052.14
919.018	1045.14
919.449	1040.44
919.88	1026.44
920.311	1019.14
920.741	1023.64
921.172	1024.54
921.603	1019.84
922.033	1018.74
922.464	996.54
922.895	1011.54
923.325	1002.64
923.756	1007.04
924.186	1009.34
924.617	1013.64
925.047	1000.64
925.478	993.94
925.908	998.24
926.338	996.24
926.769	1008.34
927.199	1007.34
927.629	996.44
928.06	991.84
928.49	991.24
928.92	1010.34
929.35	1003.24
929.78	997.84
930.21	1017.94
930.641	1004.24
931.071	1011.44
931.501	1006.94
931.931	1005.24
932.361	1009.54
932.791	1002.34
933.221	1005.54
933.651	1000.04
934.08	992.94
934.51	985.14
934.94	992.64
935.37	994.74
935.8	975.44
936.229	970.04
936.659	975.34
937.089	979.24
937.519	980.34
937.948	950.64
938.378	961.54
938.807	949.24
939.237	945.14
939.666	944.74
940.096	934.14
940.525	920.84
940.955	932.94
941.384	913.34
941.814	912.04
942.243	914.14
942.672	907.74
943.102	893.44
943.531	902.44
943.96	888.04
944.39	891.94
944.819	883.34
945.248	874.34
945.677	866.64
946.106	869.14
946.535	870.44
946.964	862.14
947.393	848.24
947.822	850.24
948.251	832.94
948.68	834.74
949.109	815.04
949.538	817.04
949.967	814.94
950.396	807.04
950.825	811.64
951.254	794.64
951.682	790.34
952.111	790.74
952.54	784.64
952.969	778.44
953.397	783.84
953.826	766.94
954.254	762.64
954.683	755.94
955.112	747.14
955.54	746.74
955.969	732.64
956.397	734.04
956.826	722.34
957.254	714.14
957.682	721.74
958.111	704.24
958.539	707.44
958.967	690.94
959.396	690.24
959.824	682.94
960.252	688.84
960.68	684.24
961.109	673.24
961.537	668.14
961.965	663.04
962.393	657.04
962.821	649.34
963.249	648.64
963.677	650.04
964.105	639.34
964.533	629.34
964.961	628.54
965.389	615.04
965.817	620.64
966.245	606.94
966.672	596.74
967.1	603.14
967.528	593.74
967.956	586.74
968.383	586.74
968.811	572.84
969.239	571.14
969.666	568.04
970.094	570.94
970.522	564.94
970.949	553.34
971.377	549.84
971.804	549.04
972.232	543.74
972.659	539.24
973.087	539.74
973.514	534.24
973.941	530.14
974.369	526.14
974.796	516.44
975.223	520.04
975.651	518.24
976.078	513.54
976.505	508.54
976.932	498.74
977.359	490.54
977.786	498.04
978.214	485.44
978.641	482.74
979.068	472.84
979.495	469.74
979.922	464.74
980.349	474.54
980.776	462.44
981.202	461.24
981.629	456.14
982.056	465.24
982.483	448.64
982.91	456.74
983.337	452.74
983.763	442.94
984.19	432.44
984.617	428.04
985.043	438.34
985.47	425.44
985.897	421.44
986.323	418.64
986.75	412.14
987.176	413.24
987.603	410.54
988.029	413.74
988.456	407.34
988.882	404.34
989.308	396.94
989.735	388.94
990.161	389.84
990.587	386.44
991.014	375.54
991.44	384.84
991.866	382.74
992.292	382.24
992.719	378.84
993.145	378.94
993.571	366.74
993.997	364.34
994.423	361.64
994.849	358.34
995.275	353.04
995.701	358.34
996.127	348.94
996.553	341.84
996.979	349.64
997.405	343.94
997.83	337.64
998.256	337.94
998.682	340.14
999.108	345.74
999.534	345.34
999.959	335.34
1000.385	336.84
1000.811	333.04
1001.236	333.64
1001.662	337.34
1002.087	330.54
1002.513	330.04
1002.938	321.24
1003.364	326.14
1003.789	326.54
1004.215	326.44
1004.64	332.54
1005.066	331.94
1005.491	336.84
1005.916	335.94
1006.342	338.84
1006.767	335.04
1007.192	331.74
1007.617	334.74
1008.042	338.54
1008.468	325.84
1008.893	328.24
1009.318	334.34
1009.743	331.54
1010.168	324.04
1010.593	318.74
1011.018	321.94
1011.443	314.44
1011.868	309.84
1012.293	309.84
1012.718	304.44
1013.143	307.94
1013.567	303.84
1013.992	292.94
1014.417	289.44
1014.842	286.54
1015.267	280.64
1015.691	285.84
1016.116	276.04
1016.541	273.44
1016.965	275.34
1017.39	266.14
1017.814	261.54
1018.239	259.64
1018.663	256.74
1019.088	255.44
1019.512	251.34
1019.937	246.34
1020.361	244.44
1020.785	242.94
1021.21	242.64
1021.634	234.94
1022.058	233.94
1022.483	234.64
1022.907	228.74
1023.331	229.44
1023.755	224.64
1024.179	220.54
1024.604	223.24
1025.028	213.34
1025.452	221.64
1025.876	210.04
1026.3	212.14
1026.724	209.84
1027.148	212.44
1027.572	205.14
1027.996	198.94
1028.42	204.74
1028.843	199.64
1029.267	202.74
1029.691	195.94
1030.115	202.84
1030.539	195.54
1030.962	194.94
1031.386	197.54
1031.81	185.44
1032.233	190.34
1032.657	191.24
1033.08	185.44
1033.504	184.04
1033.927	186.84
1034.351	184.84
1034.774	178.74
1035.198	183.94
1035.621	181.94
1036.045	176.54
1036.468	174.04
1036.891	174.24
1037.315	171.44
1037.738	167.94
1038.161	168.74
1038.584	168.04
1039.008	170.04
1039.431	167.54
1039.854	170.34
1040.277	161.04
1040.7	165.14
1041.123	164.74
1041.546	157.34
1041.969	165.14
1042.392	154.24
1042.815	158.14
1043.238	153.74
1043.661	154.14
1044.084	153.54
1044.507	152.14
1044.93	156.84
1045.352	151.94
1045.775	156.34
1046.198	151.34
1046.621	146.14
1047.043	145.94
1047.466	143.34
1047.889	141.14
1048.311	149.94
1048.734	139.74
1049.156	138.84
1049.579	138.44
1050.001	140.84
1050.424	144.74
1050.846	138.54
1051.269	140.44
1051.691	136.94
1052.113	132.54
1052.536	133.54
1052.958	138.04
1053.38	136.44
1053.802	135.94
1054.225	140.34
1054.647	137.44
1055.069	130.54
1055.491	134.54
1055.913	131.04
1056.335	133.14
1056.757	130.34
1057.179	123.04
1057.601	127.64
1058.023	130.74
1058.445	121.04
1058.867	127.64
1059.289	127.34
1059.711	122.54
1060.133	126.04
1060.555	118.54
1060.976	121.44
1061.398	121.44
1061.82	122.24
1062.241	121.84
1062.663	121.54
1063.085	122.84
1063.506	115.24
1063.928	115.74
1064.35	124.34
1064.771	121.34
1065.193	118.54
1065.614	114.24
1066.035	118.14
1066.457	113.54
1066.878	113.14
1067.3	108.24
1067.721	112.14
1068.142	107.14
1068.564	111.74
1068.985	115.94
1069.406	118.94
1069.827	113.84
1070.248	114.04
1070.67	115.24
1071.091	110.54
1071.512	116.24
1071.933	114.04
1072.354	115.44
1072.775	111.84
1073.196	111.94
1073.617	105.94
1074.038	107.44
1074.459	111.04
1074.88	113.84
1075.3	111.54
1075.721	105.24
1076.142	113.74
1076.563	113.34
1076.983	110.44
1077.404	108.94
1077.825	107.84
1078.246	114.24
1078.666	112.44
1079.087	107.74
1079.507	110.74
1079.928	104.44
1080.348	109.44
1080.769	108.34
1081.189	105.14
1081.61	111.74
1082.03	106.74
1082.451	106.04
1082.871	104.84
1083.291	109.34
1083.711	104.34
1084.132	104.74
1084.552	107.54
1084.972	106.14
1085.392	106.84
1085.813	103.74
1086.233	103.54
1086.653	107.84
1087.073	114.04
1087.493	100.74
1087.913	104.84
1088.333	97.34
1088.753	97.14
1089.173	102.14
1089.593	106.94
1090.013	101.84
1090.433	103.14
1090.852	100.84
1091.272	102.54
1091.692	99.54
1092.112	99.54
1092.531	107.74
1092.951	100.44
1093.371	100.04
1093.79	94.84
1094.21	99.14
1094.63	98.94
1095.049	98.74
1095.469	96.84
1095.888	103.24
1096.308	98.04
1096.727	96.44
1097.146	98.54
1097.566	93.94
1097.985	97.94
1098.405	96.34
1098.824	94.14
1099.243	96.84
1099.662	94.14
1100.082	94.44
1100.501	93.14
1100.92	96.54
1101.339	96.34
1101.758	96.74
