Data from DH-3PlusCalLight-Halogen_HRD10391_13-39-47-613.txt Node
Date: Thu Feb 15 13:39:47 EST 2018
User: Ender
Spectrometer: HR+D1039
Trigger mode: 0
Integration Time (sec): 2.730000E-2
Scans to average: 10
Electric dark correction enabled: true
Nonlinearity correction enabled: false
Boxcar width: 0
XAxis mode: Wavelengths
Number of Pixels in Spectrum: 2048
>>>>>Begin Spectral Data<<<<<
187.836	4.86
188.309	4.86
188.782	4.86
189.255	-6.74
189.728	-0.64
190.201	-7.24
190.674	-8.34
191.147	-10.94
191.619	-7.84
192.092	-5.94
192.565	-4.04
193.038	-3.44
193.511	-0.04
193.984	4.26
194.456	7.56
194.929	8.56
195.402	13.66
195.874	16.26
196.347	20.46
196.82	26.36
197.292	32.16
197.765	27.16
198.237	37.26
198.71	41.66
199.182	49.36
199.655	48.06
200.127	49.66
200.6	56.16
201.072	63.46
201.544	61.16
202.017	61.86
202.489	69.46
202.961	69.66
203.433	70.36
203.906	72.76
204.378	79.96
204.85	75.86
205.322	75.26
205.794	82.76
206.266	76.26
206.739	79.16
207.211	84.26
207.683	86.56
208.155	84.46
208.627	75.86
209.099	83.16
209.57	87.46
210.042	83.96
210.514	86.66
210.986	87.56
211.458	84.86
211.93	80.16
212.402	82.66
212.873	84.76
213.345	84.66
213.817	81.96
214.288	80.66
214.76	86.56
215.232	87.06
215.703	80.56
216.175	83.46
216.646	86.36
217.118	77.76
217.589	84.36
218.061	75.86
218.532	81.96
219.004	77.46
219.475	82.36
219.946	85.86
220.418	78.86
220.889	83.86
221.36	80.66
221.832	79.06
222.303	77.56
222.774	76.96
223.245	75.76
223.717	73.36
224.188	75.96
224.659	78.26
225.13	76.16
225.601	73.76
226.072	80.16
226.543	76.16
227.014	71.96
227.485	76.46
227.956	75.76
228.427	81.56
228.898	75.16
229.369	80.26
229.839	76.96
230.31	74.96
230.781	73.06
231.252	79.36
231.722	79.36
232.193	74.46
232.664	78.96
233.135	75.06
233.605	83.16
234.076	76.46
234.546	78.76
235.017	79.86
235.487	79.26
235.958	74.96
236.428	77.36
236.899	78.76
237.369	77.86
237.84	76.86
238.31	77.86
238.78	78.96
239.251	76.86
239.721	84.96
240.191	81.76
240.662	82.16
241.132	81.26
241.602	83.16
242.072	80.86
242.542	79.96
243.013	83.26
243.483	77.96
243.953	80.76
244.423	78.36
244.893	80.26
245.363	79.86
245.833	80.76
246.303	79.56
246.773	76.06
247.243	80.76
247.712	82.26
248.182	79.56
248.652	82.76
249.122	75.36
249.592	81.86
250.061	85.86
250.531	82.76
251.001	83.26
251.471	80.96
251.94	83.86
252.41	82.76
252.879	79.36
253.349	79.46
253.818	81.26
254.288	80.96
254.757	79.96
255.227	85.16
255.696	78.46
256.166	80.56
256.635	79.76
257.105	81.06
257.574	76.56
258.043	85.36
258.513	75.66
258.982	78.16
259.451	80.46
259.92	85.46
260.389	81.36
260.859	80.06
261.328	86.26
261.797	83.76
262.266	84.86
262.735	80.76
263.204	81.66
263.673	88.26
264.142	84.36
264.611	82.96
265.08	81.16
265.549	79.46
266.018	83.36
266.487	86.96
266.955	82.36
267.424	79.16
267.893	82.36
268.362	82.36
268.83	87.86
269.299	80.06
269.768	81.06
270.236	85.36
270.705	81.86
271.174	83.96
271.642	85.26
272.111	86.76
272.579	84.96
273.048	84.56
273.516	81.76
273.985	80.06
274.453	78.36
274.922	86.26
275.39	85.86
275.858	85.96
276.327	87.26
276.795	82.46
277.263	84.66
277.731	85.96
278.2	83.96
278.668	79.56
279.136	77.56
279.604	87.06
280.072	86.96
280.54	84.56
281.008	85.56
281.477	86.26
281.945	85.36
282.413	83.76
282.881	87.66
283.348	81.26
283.816	79.26
284.284	86.76
284.752	90.76
285.22	83.16
285.688	83.76
286.156	82.86
286.623	83.76
287.091	85.46
287.559	87.56
288.026	83.76
288.494	84.56
288.962	84.26
289.429	87.16
289.897	85.56
290.364	82.66
290.832	82.26
291.3	86.16
291.767	86.86
292.234	85.66
292.702	85.26
293.169	89.06
293.637	85.96
294.104	81.66
294.571	82.26
295.039	82.36
295.506	80.96
295.973	85.36
296.44	89.56
296.908	81.66
297.375	86.76
297.842	89.66
298.309	82.56
298.776	89.36
299.243	84.26
299.71	84.16
300.177	86.56
300.644	88.56
301.111	81.86
301.578	81.96
302.045	90.26
302.512	85.76
302.979	86.96
303.446	90.96
303.913	86.06
304.379	87.86
304.846	83.56
305.313	83.96
305.78	85.46
306.246	81.56
306.713	84.76
307.18	87.46
307.646	91.36
308.113	88.16
308.579	89.66
309.046	87.86
309.512	84.16
309.979	86.26
310.445	89.36
310.912	88.46
311.378	88.36
311.845	86.46
312.311	86.06
312.777	83.16
313.244	84.36
313.71	86.16
314.176	81.46
314.642	88.06
315.109	85.56
315.575	85.46
316.041	85.56
316.507	86.76
316.973	86.36
317.439	90.66
317.905	87.16
318.371	88.76
318.837	97.56
319.303	84.46
319.769	90.26
320.235	80.36
320.701	87.96
321.167	88.16
321.633	85.36
322.099	89.96
322.564	83.06
323.03	86.16
323.496	85.86
323.962	88.96
324.427	84.96
324.893	84.46
325.359	85.56
325.824	83.96
326.29	86.76
326.755	88.66
327.221	84.96
327.686	88.96
328.152	83.56
328.617	85.06
329.083	85.06
329.548	92.46
330.014	86.46
330.479	95.06
330.944	86.26
331.41	89.46
331.875	89.76
332.34	82.96
332.805	85.06
333.271	84.66
333.736	86.16
334.201	85.96
334.666	88.96
335.131	90.06
335.596	83.56
336.061	90.16
336.526	89.86
336.991	84.66
337.456	86.66
337.921	88.46
338.386	86.96
338.851	91.46
339.316	91.16
339.781	87.86
340.246	84.16
340.711	85.86
341.175	91.56
341.64	88.76
342.105	94.06
342.569	85.56
343.034	84.96
343.499	84.46
343.963	87.06
344.428	86.66
344.893	89.16
345.357	91.96
345.822	85.26
346.286	89.76
346.751	88.56
347.215	85.36
347.679	83.96
348.144	85.56
348.608	90.16
349.073	89.06
349.537	87.76
350.001	87.36
350.465	87.76
350.93	90.16
351.394	94.66
351.858	87.06
352.322	89.86
352.786	92.66
353.25	93.06
353.715	90.36
354.179	90.36
354.643	86.36
355.107	84.56
355.571	85.56
356.035	91.46
356.498	88.76
356.962	90.76
357.426	89.16
357.89	93.56
358.354	91.36
358.818	94.16
359.281	86.26
359.745	94.26
360.209	90.36
360.673	94.86
361.136	90.46
361.6	83.66
362.064	89.16
362.527	89.26
362.991	95.46
363.454	84.36
363.918	81.96
364.381	88.96
364.845	89.36
365.308	92.86
365.772	86.66
366.235	89.86
366.698	91.86
367.162	89.76
367.625	87.26
368.088	93.36
368.552	89.96
369.015	90.76
369.478	91.66
369.941	88.66
370.404	92.16
370.867	91.06
371.331	92.96
371.794	86.76
372.257	92.66
372.72	96.36
373.183	90.36
373.646	94.26
374.109	91.96
374.572	92.16
375.035	97.06
375.497	91.76
375.96	92.76
376.423	94.46
376.886	92.86
377.349	88.76
377.811	92.96
378.274	90.16
378.737	96.26
379.199	101.36
379.662	101.66
380.125	104.36
380.587	102.46
381.05	102.36
381.512	98.76
381.975	102.46
382.437	100.56
382.9	102.76
383.362	100.66
383.825	98.66
384.287	103.26
384.75	104.06
385.212	105.86
385.674	101.16
386.136	101.36
386.599	107.16
387.061	106.06
387.523	106.56
387.985	102.26
388.447	110.96
388.91	109.46
389.372	108.16
389.834	106.86
390.296	114.36
390.758	109.66
391.22	109.56
391.682	108.66
392.144	111.36
392.606	114.16
393.068	110.66
393.529	112.36
393.991	112.86
394.453	119.46
394.915	119.26
395.377	111.86
395.838	122.86
396.3	122.26
396.762	114.26
397.224	123.26
397.685	122.66
398.147	126.76
398.608	121.36
399.07	127.16
399.531	126.06
399.993	132.76
400.454	131.56
400.916	125.66
401.377	128.56
401.839	130.76
402.3	129.36
402.762	136.46
403.223	135.06
403.684	142.16
404.145	142.76
404.607	137.16
405.068	138.36
405.529	144.86
405.99	148.76
406.451	149.96
406.913	147.46
407.374	153.56
407.835	155.66
408.296	159.76
408.757	158.16
409.218	162.76
409.679	166.36
410.14	165.86
410.601	178.66
411.062	175.56
411.522	185.46
411.983	182.96
412.444	195.06
412.905	186.26
413.366	195.16
413.826	202.06
414.287	203.26
414.748	214.46
415.208	211.36
415.669	224.16
416.13	219.86
416.59	230.66
417.051	230.26
417.511	236.36
417.972	236.66
418.432	251.56
418.893	250.86
419.353	254.26
419.814	264.56
420.274	275.16
420.734	275.86
421.195	288.76
421.655	291.06
422.115	301.76
422.576	305.36
423.036	315.26
423.496	328.16
423.956	326.36
424.416	338.66
424.876	359.96
425.336	363.96
425.797	380.66
426.257	389.56
426.717	408.96
427.177	402.86
427.637	415.26
428.097	434.56
428.556	447.76
429.016	462.76
429.476	475.66
429.936	485.96
430.396	508.46
430.856	520.16
431.315	527.56
431.775	545.86
432.235	570.36
432.694	574.86
433.154	587.26
433.614	603.26
434.073	633.26
434.533	643.96
434.993	658.26
435.452	674.96
435.912	676.86
436.371	701.26
436.83	710.26
437.29	725.16
437.749	743.86
438.209	759.06
438.668	781.86
439.127	787.56
439.587	814.66
440.046	812.06
440.505	837.16
440.964	841.36
441.424	869.06
441.883	901.26
442.342	910.86
442.801	921.36
443.26	949.56
443.719	966.36
444.178	981.46
444.637	1002.46
445.096	1026.26
445.555	1030.36
446.014	1041.96
446.473	1051.46
446.932	1065.96
447.391	1085.66
447.849	1130.86
448.308	1114.86
448.767	1135.16
449.226	1166.26
449.685	1165.36
450.143	1207.36
450.602	1233.56
451.061	1212.16
451.519	1237.16
451.978	1263.96
452.436	1258.46
452.895	1287.86
453.353	1296.66
453.812	1293.16
454.27	1335.26
454.729	1346.76
455.187	1365.66
455.646	1363.36
456.104	1376.76
456.562	1399.36
457.021	1421.26
457.479	1374.26
457.937	1406.96
458.395	1467.36
458.854	1436.26
459.312	1440.16
459.77	1440.26
460.228	1441.46
460.686	1493.56
461.144	1480.06
461.602	1478.46
462.06	1460.36
462.518	1471.46
462.976	1463.86
463.434	1479.86
463.892	1464.86
464.35	1463.96
464.808	1469.46
465.266	1480.16
465.724	1484.76
466.181	1490.26
466.639	1461.16
467.097	1511.56
467.555	1539.86
468.012	1502.66
468.47	1508.76
468.928	1536.36
469.385	1526.36
469.843	1565.76
470.3	1564.36
470.758	1591.16
471.215	1579.56
471.673	1596.26
472.13	1628.06
472.588	1652.16
473.045	1676.16
473.503	1698.46
473.96	1770.56
474.417	1758.66
474.875	1792.26
475.332	1818.66
475.789	1830.36
476.246	1870.46
476.704	1896.16
477.161	1932.06
477.618	1962.06
478.075	1995.26
478.532	2040.56
478.989	2093.36
479.446	2136.26
479.903	2147.86
480.36	2239.66
480.817	2225.06
481.274	2299.66
481.731	2313.76
482.188	2340.26
482.645	2410.06
483.102	2433.36
483.558	2454.56
484.015	2520.16
484.472	2559.46
484.929	2621.16
485.385	2636.26
485.842	2643.36
486.299	2725.46
486.755	2740.36
487.212	2744.16
487.668	2761.76
488.125	2797.86
488.582	2775.16
489.038	2810.26
489.494	2839.76
489.951	2843.86
490.407	2870.46
490.864	2880.26
491.32	2896.96
491.776	2908.26
492.233	2900.96
492.689	2916.26
493.145	2889.96
493.602	2884.86
494.058	2929.26
494.514	2925.06
494.97	2919.66
495.426	2916.26
495.882	2921.56
496.338	2904.66
496.794	2935.86
497.251	2928.56
497.707	2941.76
498.163	2949.66
498.618	2939.86
499.074	2931.46
499.53	2940.56
499.986	2958.56
500.442	2968.06
500.898	2936.26
501.354	2964.86
501.809	2944.36
502.265	2933.86
502.721	2948.86
503.177	2958.96
503.632	2961.36
504.088	2929.06
504.543	2948.16
504.999	2971.66
505.455	2968.36
505.91	2960.56
506.366	2959.76
506.821	2952.36
507.277	2974.06
507.732	2974.06
508.187	2944.56
508.643	2965.26
509.098	2940.96
509.553	2934.06
510.009	2907.86
510.464	2954.96
510.919	2928.96
511.375	2920.36
511.83	2886.76
512.285	2893.06
512.74	2890.66
513.195	2875.16
513.65	2861.26
514.105	2853.86
514.56	2823.96
515.015	2829.06
515.47	2819.96
515.925	2788.46
516.38	2800.66
516.835	2808.46
517.29	2787.06
517.745	2749.76
518.2	2790.76
518.655	2746.96
519.109	2747.66
519.564	2743.56
520.019	2753.86
520.474	2706.66
520.928	2715.26
521.383	2708.86
521.838	2702.86
522.292	2691.16
522.747	2692.56
523.201	2688.66
523.656	2685.26
524.11	2677.06
524.565	2666.66
525.019	2680.26
525.474	2671.66
525.928	2655.46
526.382	2651.56
526.837	2656.36
527.291	2667.96
527.745	2646.86
528.2	2657.46
528.654	2642.26
529.108	2649.46
529.562	2653.26
530.016	2645.76
530.47	2645.16
530.925	2635.66
531.379	2661.66
531.833	2664.46
532.287	2649.16
532.741	2655.06
533.195	2652.26
533.649	2665.46
534.103	2662.16
534.556	2647.66
535.01	2669.06
535.464	2652.76
535.918	2667.46
536.372	2678.96
536.826	2672.56
537.279	2645.96
537.733	2649.96
538.187	2669.16
538.64	2651.76
539.094	2666.96
539.548	2676.96
540.001	2656.06
540.455	2663.66
540.908	2628.96
541.362	2604.26
541.815	2621.66
542.269	2626.36
542.722	2615.76
543.175	2615.56
543.629	2595.76
544.082	2589.96
544.536	2568.76
544.989	2579.46
545.442	2575.76
545.895	2578.96
546.349	2573.36
546.802	2552.16
547.255	2543.96
547.708	2559.26
548.161	2550.76
548.614	2541.86
549.067	2532.76
549.52	2539.66
549.973	2522.66
550.426	2539.06
550.879	2533.36
551.332	2527.46
551.785	2544.96
552.238	2538.26
552.691	2532.66
553.144	2532.66
553.596	2539.46
554.049	2543.26
554.502	2535.06
554.955	2526.86
555.407	2544.36
555.86	2565.56
556.313	2555.46
556.765	2560.46
557.218	2560.16
557.67	2578.26
558.123	2556.96
558.576	2569.76
559.028	2588.56
559.48	2591.86
559.933	2591.26
560.385	2596.96
560.838	2603.06
561.29	2601.46
561.742	2630.96
562.195	2617.86
562.647	2625.76
563.099	2627.86
563.551	2608.96
564.004	2659.76
564.456	2643.46
564.908	2651.76
565.36	2642.96
565.812	2633.56
566.264	2651.56
566.716	2653.36
567.168	2642.86
567.62	2688.26
568.072	2655.06
568.524	2661.06
568.976	2634.16
569.428	2645.86
569.88	2642.46
570.332	2627.06
570.784	2653.66
571.235	2626.26
571.687	2631.06
572.139	2616.76
572.59	2621.56
573.042	2604.76
573.494	2615.56
573.945	2618.06
574.397	2566.26
574.849	2579.16
575.3	2602.96
575.752	2583.46
576.203	2553.16
576.655	2575.76
577.106	2552.26
577.557	2537.66
578.009	2536.26
578.46	2563.16
578.912	2519.46
579.363	2555.26
579.814	2535.16
580.265	2528.66
580.717	2515.46
581.168	2545.76
581.619	2532.96
582.07	2544.06
582.521	2519.06
582.972	2520.46
583.423	2532.86
583.875	2523.56
584.326	2521.36
584.777	2528.96
585.227	2513.66
585.678	2538.36
586.129	2527.46
586.58	2540.86
587.031	2526.96
587.482	2537.66
587.933	2512.76
588.384	2533.76
588.834	2529.96
589.285	2526.66
589.736	2559.36
590.186	2540.46
590.637	2555.06
591.088	2546.26
591.538	2562.06
591.989	2549.76
592.439	2549.46
592.89	2558.86
593.34	2563.56
593.791	2585.26
594.241	2561.06
594.692	2548.86
595.142	2581.06
595.593	2567.86
596.043	2571.76
596.493	2590.06
596.943	2549.86
597.394	2589.86
597.844	2581.86
598.294	2591.56
598.744	2578.76
599.195	2577.96
599.645	2591.76
600.095	2572.46
600.545	2593.66
600.995	2603.36
601.445	2573.16
601.895	2607.96
602.345	2608.76
602.795	2617.16
603.245	2616.66
603.695	2593.16
604.145	2608.26
604.594	2620.06
605.044	2616.16
605.494	2606.86
605.944	2626.46
606.393	2611.76
606.843	2627.46
607.293	2624.96
607.743	2609.06
608.192	2629.46
608.642	2618.26
609.091	2619.86
609.541	2624.66
609.99	2623.06
610.44	2617.76
610.889	2645.16
611.339	2632.66
611.788	2604.86
612.238	2626.36
612.687	2643.76
613.136	2611.16
613.586	2599.36
614.035	2571.16
614.484	2617.86
614.933	2611.86
615.383	2612.46
615.832	2604.16
616.281	2609.36
616.73	2604.86
617.179	2616.66
617.628	2598.56
618.077	2596.06
618.526	2584.26
618.975	2591.26
619.424	2564.96
619.873	2575.26
620.322	2601.06
620.771	2590.66
621.22	2582.06
621.669	2589.26
622.118	2608.46
622.567	2603.46
623.015	2576.96
623.464	2594.56
623.913	2592.06
624.361	2603.16
624.81	2599.96
625.259	2595.46
625.707	2572.06
626.156	2588.16
626.604	2592.06
627.053	2578.96
627.501	2591.66
627.95	2562.86
628.398	2609.86
628.847	2552.46
629.295	2572.66
629.744	2566.06
630.192	2546.26
630.64	2563.56
631.089	2572.86
631.537	2552.06
631.985	2537.66
632.433	2542.06
632.881	2516.06
633.33	2549.46
633.778	2512.96
634.226	2503.96
634.674	2530.26
635.122	2520.06
635.57	2510.86
636.018	2528.16
636.466	2501.26
636.914	2498.16
637.362	2502.06
637.81	2496.26
638.258	2504.16
638.705	2488.86
639.153	2501.46
639.601	2487.56
640.049	2481.16
640.497	2493.66
640.944	2470.46
641.392	2481.26
641.84	2486.66
642.287	2478.76
642.735	2465.46
643.182	2458.56
643.63	2461.36
644.078	2464.96
644.525	2449.56
644.973	2473.06
645.42	2465.16
645.867	2466.26
646.315	2448.76
646.762	2445.06
647.21	2433.16
647.657	2461.26
648.104	2453.26
648.551	2405.66
648.999	2456.36
649.446	2441.86
649.893	2424.36
650.34	2430.26
650.787	2433.26
651.234	2439.66
651.682	2434.86
652.129	2424.86
652.576	2410.66
653.023	2431.86
653.47	2418.56
653.917	2407.66
654.363	2397.96
654.81	2407.66
655.257	2381.76
655.704	2400.26
656.151	2407.46
656.598	2381.96
657.044	2381.56
657.491	2391.96
657.938	2396.06
658.385	2372.56
658.831	2398.76
659.278	2372.26
659.724	2379.16
660.171	2390.66
660.618	2377.16
661.064	2358.06
661.511	2360.26
661.957	2355.36
662.404	2347.26
662.85	2344.36
663.296	2350.76
663.743	2326.26
664.189	2335.86
664.635	2353.86
665.082	2325.86
665.528	2317.26
665.974	2349.96
666.42	2323.96
666.867	2313.46
667.313	2315.76
667.759	2314.76
668.205	2299.36
668.651	2285.86
669.097	2278.66
669.543	2301.06
669.989	2284.76
670.435	2282.26
670.881	2276.16
671.327	2260.56
671.773	2272.36
672.219	2255.56
672.665	2260.76
673.11	2268.36
673.556	2249.66
674.002	2242.56
674.448	2243.46
674.893	2209.26
675.339	2223.06
675.785	2206.56
676.23	2212.26
676.676	2193.76
677.122	2205.16
677.567	2184.16
678.013	2153.26
678.458	2181.66
678.904	2164.66
679.349	2149.06
679.794	2141.36
680.24	2138.06
680.685	2124.66
681.131	2116.96
681.576	2110.96
682.021	2107.46
682.466	2073.66
682.912	2075.26
683.357	2077.56
683.802	2063.56
684.247	2076.36
684.692	2033.46
685.137	2027.66
685.583	2035.96
686.028	2016.76
686.473	2020.66
686.918	1986.86
687.363	1997.36
687.807	1975.76
688.252	1982.16
688.697	1964.06
689.142	1955.96
689.587	1966.26
690.032	1950.46
690.477	1958.16
690.921	1937.86
691.366	1942.16
691.811	1942.26
692.255	1913.76
692.7	1913.26
693.145	1915.86
693.589	1897.46
694.034	1879.26
694.478	1910.56
694.923	1897.06
695.367	1891.26
695.812	1860.36
696.256	1858.46
696.701	1866.16
697.145	1883.36
697.59	1856.56
698.034	1841.16
698.478	1845.96
698.922	1843.56
699.367	1826.96
699.811	1831.36
700.255	1834.16
700.699	1813.66
701.143	1794.36
701.588	1798.96
702.032	1795.66
702.476	1810.26
702.92	1798.96
703.364	1774.06
703.808	1767.96
704.252	1768.06
704.696	1774.16
705.14	1758.36
705.584	1772.96
706.027	1754.46
706.471	1767.76
706.915	1760.26
707.359	1740.76
707.803	1728.86
708.246	1742.66
708.69	1736.16
709.134	1730.56
709.577	1720.76
710.021	1723.46
710.465	1712.16
710.908	1695.66
711.352	1689.46
711.795	1697.76
712.239	1687.26
712.682	1684.26
713.126	1690.16
713.569	1685.76
714.012	1675.96
714.456	1672.86
714.899	1667.96
715.342	1659.66
715.786	1649.66
716.229	1664.56
716.672	1655.16
717.115	1656.46
717.558	1647.56
718.002	1634.06
718.445	1646.66
718.888	1633.66
719.331	1611.16
719.774	1634.16
720.217	1625.36
720.66	1616.86
721.103	1616.56
721.546	1600.26
721.989	1607.46
722.432	1592.56
722.874	1602.46
723.317	1596.26
723.76	1594.66
724.203	1586.56
724.645	1573.76
725.088	1574.86
725.531	1583.76
725.974	1549.16
726.416	1570.76
726.859	1563.06
727.301	1559.36
727.744	1549.66
728.187	1551.96
728.629	1546.46
729.071	1528.96
729.514	1531.76
729.956	1523.66
730.399	1516.36
730.841	1513.46
731.283	1509.26
731.726	1511.56
732.168	1493.26
732.61	1497.66
733.053	1486.06
733.495	1483.16
733.937	1480.76
734.379	1485.16
734.821	1465.86
735.263	1458.66
735.705	1438.66
736.148	1455.76
736.59	1451.16
737.032	1454.76
737.474	1443.06
737.916	1424.06
738.357	1444.86
738.799	1432.46
739.241	1435.86
739.683	1434.06
740.125	1421.36
740.567	1418.16
741.008	1418.36
741.45	1399.36
741.892	1398.46
742.334	1393.46
742.775	1392.96
743.217	1389.96
743.658	1392.76
744.1	1379.26
744.542	1368.66
744.983	1370.96
745.425	1365.66
745.866	1352.36
746.307	1358.96
746.749	1354.66
747.19	1342.86
747.632	1331.66
748.073	1324.16
748.514	1334.46
748.956	1309.06
749.397	1312.06
749.838	1301.36
750.279	1301.76
750.72	1295.86
751.162	1301.36
751.603	1296.46
752.044	1287.66
752.485	1284.86
752.926	1277.46
753.367	1276.96
753.808	1262.56
754.249	1260.16
754.69	1257.06
755.131	1257.96
755.572	1256.76
756.013	1244.46
756.453	1243.86
756.894	1245.76
757.335	1246.56
757.776	1220.56
758.216	1239.86
758.657	1229.66
759.098	1227.16
759.538	1233.36
759.979	1222.16
760.42	1225.76
760.86	1214.76
761.301	1212.26
761.741	1201.96
762.182	1203.76
762.622	1196.16
763.063	1190.96
763.503	1181.36
763.943	1178.36
764.384	1177.36
764.824	1189.66
765.264	1170.26
765.705	1167.36
766.145	1163.46
766.585	1159.76
767.025	1148.36
767.465	1145.06
767.906	1144.16
768.346	1146.46
768.786	1139.66
769.226	1144.26
769.666	1124.46
770.106	1124.56
770.546	1130.16
770.986	1126.76
771.426	1118.86
771.866	1119.36
772.306	1113.66
772.745	1108.96
773.185	1094.86
773.625	1097.56
774.065	1093.36
774.505	1109.46
774.944	1087.76
775.384	1075.26
775.824	1082.86
776.263	1071.26
776.703	1075.86
777.142	1075.56
777.582	1067.46
778.021	1071.46
778.461	1065.66
778.9	1060.26
779.34	1051.66
779.779	1058.86
780.219	1049.46
780.658	1047.46
781.097	1047.16
781.537	1057.86
781.976	1049.66
782.415	1035.36
782.855	1040.36
783.294	1039.46
783.733	1032.06
784.172	1034.36
784.611	1023.16
785.05	1031.46
785.489	1020.76
785.928	1032.76
786.367	1027.56
786.806	1023.86
787.245	1004.66
787.684	1018.66
788.123	1002.56
788.562	1020.86
789.001	1012.86
789.44	1021.96
789.879	1004.16
790.317	1004.86
790.756	1016.76
791.195	1013.06
791.634	995.66
792.072	996.76
792.511	1004.96
792.95	995.06
793.388	993.96
793.827	990.66
794.265	992.76
794.704	999.26
795.142	992.26
795.581	993.36
796.019	1000.86
796.458	999.06
796.896	985.46
797.334	987.46
797.773	998.06
798.211	985.16
798.649	997.26
799.087	989.56
799.526	1001.16
799.964	995.26
800.402	1009.86
800.84	999.86
801.278	999.36
801.716	998.46
802.154	1017.26
802.592	1007.26
803.03	1004.46
803.468	1004.96
803.906	1009.76
804.344	1017.06
804.782	1026.76
805.22	1036.76
805.658	1040.76
806.096	1026.86
806.533	1028.16
806.971	1040.86
807.409	1034.86
807.847	1025.06
808.284	1041.86
808.722	1053.16
809.16	1043.66
809.597	1044.96
810.035	1045.86
810.472	1053.46
810.91	1061.46
811.347	1061.06
811.785	1061.66
812.222	1069.86
812.66	1074.96
813.097	1078.46
813.535	1083.86
813.972	1088.96
814.409	1098.46
814.846	1114.26
815.284	1099.96
815.721	1125.76
816.158	1116.16
816.595	1118.06
817.032	1116.46
817.47	1128.26
817.907	1131.56
818.344	1132.56
818.781	1134.76
819.218	1131.16
819.655	1158.36
820.092	1165.86
820.529	1167.46
820.966	1172.56
821.403	1171.46
821.839	1181.56
822.276	1187.76
822.713	1188.26
823.15	1202.36
823.587	1207.56
824.023	1219.96
824.46	1218.96
824.897	1222.06
825.333	1217.96
825.77	1229.86
826.206	1226.26
826.643	1244.16
827.08	1249.56
827.516	1247.86
827.953	1273.26
828.389	1278.36
828.825	1272.46
829.262	1275.76
829.698	1280.06
830.135	1291.36
830.571	1293.86
831.007	1288.86
831.443	1314.26
831.88	1304.36
832.316	1303.76
832.752	1315.76
833.188	1318.86
833.624	1313.06
834.06	1325.26
834.497	1313.56
834.933	1336.36
835.369	1325.66
835.805	1332.56
836.241	1333.66
836.677	1327.16
837.112	1338.66
837.548	1346.76
837.984	1341.46
838.42	1350.76
838.856	1343.36
839.292	1352.06
839.727	1360.86
840.163	1360.36
840.599	1352.76
841.034	1350.26
841.47	1350.26
841.906	1354.76
842.341	1367.06
842.777	1361.26
843.212	1366.26
843.648	1349.46
844.083	1358.86
844.519	1358.96
844.954	1367.16
845.39	1368.56
845.825	1352.06
846.261	1363.26
846.696	1367.36
847.131	1357.26
847.566	1354.46
848.002	1354.26
848.437	1357.26
848.872	1366.46
849.307	1360.96
849.742	1358.26
850.177	1348.06
850.613	1368.36
851.048	1352.26
851.483	1361.16
851.918	1367.06
852.353	1359.06
852.788	1356.46
853.223	1360.16
853.657	1360.96
854.092	1355.26
854.527	1361.46
854.962	1359.46
855.397	1342.76
855.832	1362.06
856.266	1353.96
856.701	1363.26
857.136	1356.16
857.57	1348.26
858.005	1343.76
858.44	1350.56
858.874	1355.26
859.309	1350.86
859.743	1347.36
860.178	1339.46
860.612	1335.76
861.047	1353.96
861.481	1361.36
861.915	1353.96
862.35	1351.46
862.784	1342.56
863.218	1349.96
863.653	1348.06
864.087	1343.06
864.521	1353.66
864.955	1331.06
865.39	1342.96
865.824	1331.16
866.258	1346.56
866.692	1336.76
867.126	1355.06
867.56	1344.96
867.994	1338.96
868.428	1344.76
868.862	1338.26
869.296	1352.86
869.73	1336.86
870.164	1339.66
870.598	1334.26
871.031	1333.36
871.465	1332.86
871.899	1329.66
872.333	1323.86
872.766	1323.96
873.2	1334.46
873.634	1343.86
874.067	1335.36
874.501	1324.96
874.935	1330.76
875.368	1313.76
875.802	1320.86
876.235	1321.76
876.669	1303.76
877.102	1316.46
877.535	1315.76
877.969	1314.76
878.402	1321.86
878.836	1312.46
879.269	1311.46
879.702	1302.96
880.135	1305.26
880.569	1305.36
881.002	1303.56
881.435	1298.86
881.868	1299.76
882.301	1303.16
882.734	1291.96
883.167	1296.36
883.601	1298.16
884.034	1291.26
884.467	1279.26
884.899	1292.16
885.332	1295.36
885.765	1271.76
886.198	1265.46
886.631	1271.66
887.064	1270.46
887.497	1255.56
887.929	1271.76
888.362	1256.96
888.795	1258.56
889.228	1255.46
889.66	1238.66
890.093	1239.96
890.526	1241.66
890.958	1234.66
891.391	1226.76
891.823	1233.76
892.256	1230.06
892.688	1217.06
893.121	1218.26
893.553	1224.96
893.985	1208.76
894.418	1222.26
894.85	1202.36
895.282	1207.46
895.715	1195.66
896.147	1196.36
896.579	1202.96
897.011	1186.26
897.444	1185.16
897.876	1191.16
898.308	1183.56
898.74	1164.96
899.172	1178.06
899.604	1165.46
900.036	1164.46
900.468	1163.86
900.9	1163.96
901.332	1165.06
901.764	1162.16
902.196	1154.86
902.628	1149.86
903.06	1153.46
903.491	1143.46
903.923	1122.86
904.355	1126.46
904.787	1137.36
905.218	1112.26
905.65	1127.46
906.082	1115.36
906.513	1127.26
906.945	1108.56
907.376	1115.86
907.808	1112.06
908.239	1106.86
908.671	1092.66
909.102	1079.96
909.534	1104.46
909.965	1090.86
910.397	1087.66
910.828	1088.06
911.259	1085.76
911.691	1073.66
912.122	1070.56
912.553	1071.66
912.984	1061.76
913.415	1067.26
913.847	1056.96
914.278	1057.16
914.709	1049.56
915.14	1053.06
915.571	1046.86
916.002	1047.66
916.433	1043.26
916.864	1038.76
917.295	1031.46
917.726	1037.06
918.157	1017.66
918.587	1016.46
919.018	1028.86
919.449	1026.26
919.88	1006.96
920.311	1011.26
920.741	1003.46
921.172	999.96
921.603	1001.46
922.033	992.06
922.464	988.96
922.895	978.56
923.325	983.86
923.756	983.46
924.186	987.86
924.617	978.36
925.047	981.16
925.478	969.26
925.908	975.46
926.338	986.06
926.769	991.66
927.199	981.16
927.629	977.66
928.06	978.16
928.49	983.16
928.92	975.86
929.35	986.56
929.78	984.46
930.21	987.96
930.641	976.26
931.071	985.96
931.501	992.06
931.931	998.86
932.361	982.76
932.791	977.56
933.221	970.16
933.651	970.96
934.08	979.66
934.51	971.96
934.94	964.16
935.37	959.86
935.8	962.66
936.229	951.66
936.659	959.06
937.089	963.86
937.519	951.06
937.948	947.26
938.378	948.16
938.807	932.96
939.237	929.56
939.666	934.76
940.096	922.06
940.525	926.86
940.955	917.76
941.384	902.86
941.814	891.76
942.243	893.56
942.672	890.96
943.102	880.56
943.531	876.46
943.96	875.86
944.39	862.86
944.819	865.36
945.248	858.56
945.677	856.36
946.106	844.16
946.535	839.36
946.964	838.16
947.393	835.86
947.822	831.06
948.251	831.06
948.68	817.26
949.109	805.16
949.538	801.66
949.967	801.16
950.396	799.36
950.825	795.06
951.254	777.16
951.682	767.46
952.111	778.06
952.54	763.96
952.969	766.86
953.397	759.56
953.826	747.96
954.254	749.06
954.683	746.16
955.112	729.36
955.54	727.46
955.969	718.56
956.397	721.66
956.826	706.46
957.254	708.76
957.682	709.56
958.111	700.36
958.539	699.96
958.967	684.16
959.396	677.46
959.824	674.86
960.252	670.56
960.68	659.56
961.109	658.86
961.537	654.66
961.965	651.96
962.393	646.26
962.821	641.56
963.249	635.46
963.677	636.36
964.105	622.56
964.533	621.86
964.961	611.16
965.389	603.76
965.817	599.56
966.245	594.96
966.672	594.06
967.1	592.76
967.528	592.56
967.956	583.76
968.383	573.36
968.811	571.46
969.239	568.86
969.666	560.06
970.094	561.86
970.522	551.66
970.949	548.66
971.377	536.26
971.804	551.26
972.232	538.76
972.659	531.46
973.087	536.06
973.514	528.76
973.941	525.16
974.369	510.96
974.796	516.06
975.223	506.46
975.651	502.26
976.078	495.76
976.505	487.56
976.932	492.96
977.359	493.96
977.786	491.96
978.214	476.46
978.641	476.56
979.068	475.26
979.495	473.66
979.922	471.06
980.349	466.86
980.776	452.96
981.202	452.76
981.629	454.06
982.056	451.86
982.483	449.66
982.91	437.96
983.337	435.86
983.763	438.16
984.19	421.56
984.617	424.86
985.043	427.86
985.47	412.16
985.897	430.16
986.323	414.36
986.75	407.26
987.176	409.86
987.603	401.96
988.029	398.96
988.456	397.06
988.882	400.96
989.308	399.56
989.735	390.06
990.161	381.56
990.587	384.46
991.014	384.66
991.44	382.76
991.866	378.96
992.292	372.76
992.719	370.66
993.145	368.46
993.571	365.46
993.997	354.66
994.423	356.36
994.849	347.36
995.275	356.06
995.701	346.16
996.127	348.06
996.553	338.46
996.979	340.46
997.405	337.26
997.83	330.86
998.256	339.76
998.682	330.16
999.108	335.26
999.534	329.56
999.959	335.56
1000.385	327.76
1000.811	323.76
1001.236	338.96
1001.662	327.76
1002.087	331.56
1002.513	325.66
1002.938	327.46
1003.364	327.86
1003.789	331.16
1004.215	325.56
1004.64	325.16
1005.066	321.46
1005.491	327.06
1005.916	322.36
1006.342	319.86
1006.767	325.86
1007.192	333.36
1007.617	321.96
1008.042	324.46
1008.468	325.06
1008.893	330.66
1009.318	322.46
1009.743	320.06
1010.168	323.06
1010.593	313.26
1011.018	311.36
1011.443	305.36
1011.868	313.06
1012.293	305.86
1012.718	303.06
1013.143	305.16
1013.567	289.16
1013.992	287.06
1014.417	293.36
1014.842	280.16
1015.267	278.76
1015.691	273.46
1016.116	269.26
1016.541	277.06
1016.965	266.66
1017.39	263.26
1017.814	263.16
1018.239	260.96
1018.663	257.66
1019.088	250.86
1019.512	254.06
1019.937	243.26
1020.361	244.56
1020.785	237.76
1021.21	232.46
1021.634	233.76
1022.058	234.96
1022.483	231.06
1022.907	221.36
1023.331	227.36
1023.755	224.26
1024.179	223.66
1024.604	219.36
1025.028	216.86
1025.452	213.56
1025.876	209.96
1026.3	205.26
1026.724	208.36
1027.148	204.86
1027.572	197.56
1027.996	201.06
1028.42	199.86
1028.843	199.36
1029.267	197.76
1029.691	196.06
1030.115	194.46
1030.539	189.76
1030.962	198.56
1031.386	186.46
1031.81	191.76
1032.233	196.16
1032.657	187.16
1033.08	187.76
1033.504	191.16
1033.927	182.96
1034.351	180.56
1034.774	179.06
1035.198	184.26
1035.621	176.56
1036.045	175.76
1036.468	168.26
1036.891	168.96
1037.315	172.36
1037.738	172.96
1038.161	171.86
1038.584	163.66
1039.008	163.56
1039.431	160.66
1039.854	169.06
1040.277	157.16
1040.7	167.36
1041.123	157.86
1041.546	159.76
1041.969	159.66
1042.392	159.66
1042.815	153.06
1043.238	155.56
1043.661	152.46
1044.084	151.16
1044.507	153.56
1044.93	155.06
1045.352	148.96
1045.775	154.26
1046.198	147.26
1046.621	146.26
1047.043	145.06
1047.466	147.06
1047.889	147.46
1048.311	146.66
1048.734	146.46
1049.156	143.46
1049.579	143.26
1050.001	139.46
1050.424	141.66
1050.846	131.86
1051.269	134.76
1051.691	134.96
1052.113	130.56
1052.536	131.56
1052.958	135.86
1053.38	139.36
1053.802	134.16
1054.225	139.56
1054.647	130.76
1055.069	131.86
1055.491	129.76
1055.913	131.66
1056.335	128.86
1056.757	126.36
1057.179	133.96
1057.601	127.56
1058.023	123.66
1058.445	124.86
1058.867	125.76
1059.289	120.86
1059.711	120.26
1060.133	120.16
1060.555	120.96
1060.976	117.16
1061.398	117.26
1061.82	122.56
1062.241	111.76
1062.663	121.06
1063.085	119.26
1063.506	114.86
1063.928	116.96
1064.35	119.66
1064.771	117.46
1065.193	119.76
1065.614	115.06
1066.035	116.56
1066.457	119.86
1066.878	118.56
1067.3	115.46
1067.721	117.96
1068.142	109.96
1068.564	112.06
1068.985	113.86
1069.406	113.86
1069.827	107.96
1070.248	114.26
1070.67	116.96
1071.091	115.06
1071.512	107.86
1071.933	109.66
1072.354	114.56
1072.775	108.36
1073.196	108.96
1073.617	109.56
1074.038	111.36
1074.459	111.66
1074.88	109.36
1075.3	110.66
1075.721	110.16
1076.142	107.96
1076.563	105.16
1076.983	109.06
1077.404	111.26
1077.825	107.76
1078.246	108.76
1078.666	100.16
1079.087	104.96
1079.507	106.96
1079.928	108.56
1080.348	109.26
1080.769	106.06
1081.189	106.76
1081.61	103.86
1082.03	111.06
1082.451	105.06
1082.871	106.56
1083.291	103.76
1083.711	104.06
1084.132	105.36
1084.552	106.16
1084.972	107.76
1085.392	101.46
1085.813	108.36
1086.233	101.56
1086.653	102.36
1087.073	103.56
1087.493	103.76
1087.913	107.86
1088.333	108.26
1088.753	105.16
1089.173	104.56
1089.593	104.16
1090.013	98.86
1090.433	97.96
1090.852	104.16
1091.272	97.46
1091.692	96.16
1092.112	100.36
1092.531	99.66
1092.951	97.86
1093.371	102.66
1093.79	99.36
1094.21	93.36
1094.63	95.96
1095.049	102.26
1095.469	94.66
1095.888	95.26
1096.308	96.46
1096.727	92.26
1097.146	94.86
1097.566	97.46
1097.985	97.96
1098.405	93.46
1098.824	93.86
1099.243	97.46
1099.662	92.46
1100.082	97.86
1100.501	87.06
1100.92	93.96
1101.339	94.56
1101.758	93.86
