Data from DH-3PlusCalLight-Deuterium_HRD10391_13-35-08-089.txt Node
Date: Thu Feb 15 13:35:08 EST 2018
User: Ender
Spectrometer: HR+D1039
Trigger mode: 0
Integration Time (sec): 2.730000E-2
Scans to average: 10
Electric dark correction enabled: true
Nonlinearity correction enabled: false
Boxcar width: 0
XAxis mode: Wavelengths
Number of Pixels in Spectrum: 2048
>>>>>Begin Spectral Data<<<<<
187.836	1.17
188.309	1.17
188.782	1.17
189.255	-1.62
189.728	-5.23
190.201	-9.52
190.674	-7.42
191.147	-6.73
191.619	-7.42
192.092	-6.23
192.565	-2.62
193.038	-4.52
193.511	0.17
193.984	0.88
194.456	4.08
194.929	12.27
195.402	14.58
195.874	18.17
196.347	23.88
196.82	27.17
197.292	23.38
197.765	31.27
198.237	33.08
198.71	36.58
199.182	41.98
199.655	49.98
200.127	55.08
200.6	53.48
201.072	59.08
201.544	63.58
202.017	61.67
202.489	65.58
202.961	69.17
203.433	71.98
203.906	75.17
204.378	78.17
204.85	74.58
205.322	78.38
205.794	80.27
206.266	80.67
206.739	84.98
207.211	86.08
207.683	85.08
208.155	87.27
208.627	86.67
209.099	85.88
209.57	88.27
210.042	90.08
210.514	87.17
210.986	93.67
211.458	84.58
211.93	88.77
212.402	87.38
212.873	88.08
213.345	81.88
213.817	84.77
214.288	86.88
214.76	82.27
215.232	83.67
215.703	81.77
216.175	87.38
216.646	76.98
217.118	85.17
217.589	80.77
218.061	82.08
218.532	80.77
219.004	79.48
219.475	79.88
219.946	85.27
220.418	83.38
220.889	81.38
221.36	80.67
221.832	83.08
222.303	82.58
222.774	85.38
223.245	83.88
223.717	84.58
224.188	89.08
224.659	87.17
225.13	87.08
225.601	86.27
226.072	89.58
226.543	92.27
227.014	92.08
227.485	92.98
227.956	94.88
228.427	98.27
228.898	91.67
229.369	97.17
229.839	101.27
230.31	102.38
230.781	98.08
231.252	106.67
231.722	103.98
232.193	102.67
232.664	101.88
233.135	97.38
233.605	102.08
234.076	95.58
234.546	99.67
235.017	96.38
235.487	94.77
235.958	94.48
236.428	93.48
236.899	90.38
237.369	87.77
237.84	88.38
238.31	84.38
238.78	83.88
239.251	81.77
239.721	83.08
240.191	78.27
240.662	85.48
241.132	86.98
241.602	85.38
242.072	89.58
242.542	87.38
243.013	86.88
243.483	81.58
243.953	76.08
244.423	82.27
244.893	83.48
245.363	79.98
245.833	83.48
246.303	83.17
246.773	82.98
247.243	79.77
247.712	85.77
248.182	81.58
248.652	83.67
249.122	81.08
249.592	85.98
250.061	83.77
250.531	87.27
251.001	81.08
251.471	88.77
251.94	88.27
252.41	88.67
252.879	85.67
253.349	82.67
253.818	91.77
254.288	88.67
254.757	90.38
255.227	88.38
255.696	96.38
256.166	96.38
256.635	98.17
257.105	106.48
257.574	104.77
258.043	107.17
258.513	116.88
258.982	118.58
259.451	123.88
259.92	134.58
260.389	139.08
260.859	144.98
261.328	155.77
261.797	153.38
262.266	166.17
262.735	171.77
263.204	174.77
263.673	174.08
264.142	185.67
264.611	194.88
265.08	195.88
265.549	207.58
266.018	205.17
266.487	215.08
266.955	225.48
267.424	227.98
267.893	228.88
268.362	230.88
268.83	231.17
269.299	240.67
269.768	241.88
270.236	246.38
270.705	249.77
271.174	252.27
271.642	251.98
272.111	249.98
272.579	258.98
273.048	264.38
273.516	259.58
273.985	254.77
274.453	258.88
274.922	264.58
275.39	266.27
275.858	264.88
276.327	265.27
276.795	256.77
277.263	262.67
277.731	261.67
278.2	263.67
278.668	264.67
279.136	255.48
279.604	259.58
280.072	253.67
280.54	255.38
281.008	261.17
281.477	252.98
281.945	249.67
282.413	253.98
282.881	252.27
283.348	246.67
283.816	246.88
284.284	243.67
284.752	244.88
285.22	237.88
285.688	242.77
286.156	233.77
286.623	236.67
287.091	242.58
287.559	240.08
288.026	244.98
288.494	250.88
288.962	243.88
289.429	246.17
289.897	255.77
290.364	251.08
290.832	249.38
291.3	248.17
291.767	264.98
292.234	265.88
292.702	262.08
293.169	269.98
293.637	269.38
294.104	273.58
294.571	275.77
295.039	277.98
295.506	275.98
295.973	280.67
296.44	284.48
296.908	280.58
297.375	272.58
297.842	282.98
298.309	281.08
298.776	282.58
299.243	291.38
299.71	283.58
300.177	285.17
300.644	287.48
301.111	287.67
301.578	288.48
302.045	279.77
302.512	285.08
302.979	286.58
303.446	283.67
303.913	286.27
304.379	287.77
304.846	284.17
305.313	279.58
305.78	274.77
306.246	276.38
306.713	279.27
307.18	278.58
307.646	277.67
308.113	281.48
308.579	274.48
309.046	271.48
309.512	267.48
309.979	279.58
310.445	275.58
310.912	271.27
311.378	271.98
311.845	261.67
312.311	270.67
312.777	269.88
313.244	272.98
313.71	276.08
314.176	267.17
314.642	268.98
315.109	272.67
315.575	273.77
316.041	267.27
316.507	274.67
316.973	273.38
317.439	273.77
317.905	280.17
318.371	281.98
318.837	280.88
319.303	286.27
319.769	286.98
320.235	283.17
320.701	291.67
321.167	285.38
321.633	290.08
322.099	296.77
322.564	288.48
323.03	295.98
323.496	295.88
323.962	293.58
324.427	302.88
324.893	295.88
325.359	292.67
325.824	294.48
326.29	292.38
326.755	290.67
327.221	294.27
327.686	290.27
328.152	284.67
328.617	284.58
329.083	291.58
329.548	291.27
330.014	291.58
330.479	277.98
330.944	279.48
331.41	278.98
331.875	276.08
332.34	275.58
332.805	273.38
333.271	267.58
333.736	267.08
334.201	275.27
334.666	264.08
335.131	269.58
335.596	263.27
336.061	269.08
336.526	263.08
336.991	265.98
337.456	265.08
337.921	263.58
338.386	261.67
338.851	264.88
339.316	272.27
339.781	272.48
340.246	275.17
340.711	269.77
341.175	279.17
341.64	280.98
342.105	289.38
342.569	291.27
343.034	291.88
343.499	287.67
343.963	293.98
344.428	292.98
344.893	295.98
345.357	301.27
345.822	298.17
346.286	303.98
346.751	306.77
347.215	304.88
347.679	314.77
348.144	312.98
348.608	316.48
349.073	316.48
349.537	317.27
350.001	312.27
350.465	323.27
350.93	317.67
351.394	311.48
351.858	318.67
352.322	311.77
352.786	317.88
353.25	319.88
353.715	321.88
354.179	311.88
354.643	317.38
355.107	316.27
355.571	316.98
356.035	319.27
356.498	322.27
356.962	310.77
357.426	324.77
357.89	320.88
358.354	320.58
358.818	316.17
359.281	319.58
359.745	317.17
360.209	325.98
360.673	319.67
361.136	308.17
361.6	322.58
362.064	325.17
362.527	317.67
362.991	324.67
363.454	318.48
363.918	318.88
364.381	316.27
364.845	317.38
365.308	323.48
365.772	316.17
366.235	317.58
366.698	324.77
367.162	319.27
367.625	320.38
368.088	321.98
368.552	318.48
369.015	317.98
369.478	316.98
369.941	325.67
370.404	321.08
370.867	319.17
371.331	313.48
371.794	326.48
372.257	320.08
372.72	324.98
373.183	321.27
373.646	332.98
374.109	336.28
374.572	332.58
375.035	328.08
375.497	332.58
375.96	326.27
376.423	326.77
376.886	334.47
377.349	335.17
377.811	341.08
378.274	344.97
378.737	338.28
379.199	345.38
379.662	336.08
380.125	340.28
380.587	333.48
381.05	336.97
381.512	345.58
381.975	347.08
382.437	348.67
382.9	344.88
383.362	343.38
383.825	345.38
384.287	349.88
384.75	349.58
385.212	340.47
385.674	351.97
386.136	353.28
386.599	352.97
387.061	353.97
387.523	362.28
387.985	348.38
388.447	348.28
388.91	351.67
389.372	351.08
389.834	356.97
390.296	349.67
390.758	352.97
391.22	356.78
391.682	365.97
392.144	361.17
392.606	357.28
393.068	349.97
393.529	355.67
393.991	352.97
394.453	352.08
394.915	352.97
395.377	349.58
395.838	353.97
396.3	359.17
396.762	371.08
397.224	375.08
397.685	375.47
398.147	361.38
398.608	357.67
399.07	357.58
399.531	351.08
399.993	362.08
400.454	355.97
400.916	362.17
401.377	359.88
401.839	348.97
402.3	357.78
402.762	359.78
403.223	360.58
403.684	357.78
404.145	361.47
404.607	356.67
405.068	352.88
405.529	343.97
405.99	342.28
406.451	335.67
406.913	331.58
407.374	340.97
407.835	345.78
408.296	344.28
408.757	340.58
409.218	331.77
409.679	313.17
410.14	320.98
410.601	329.88
411.062	320.08
411.522	326.27
411.983	323.58
412.444	323.67
412.905	310.67
413.366	306.27
413.826	300.38
414.287	304.58
414.748	308.58
415.208	311.38
415.669	303.48
416.13	298.77
416.59	305.27
417.051	302.17
417.511	290.58
417.972	305.27
418.432	303.77
418.893	309.08
419.353	320.58
419.814	317.27
420.274	312.48
420.734	320.48
421.195	315.67
421.655	304.58
422.115	310.88
422.576	300.38
423.036	302.08
423.496	299.17
423.956	293.08
424.416	294.98
424.876	288.98
425.336	286.88
425.797	281.67
426.257	292.67
426.717	289.67
427.177	278.48
427.637	279.48
428.097	282.48
428.556	288.98
429.016	277.38
429.476	273.67
429.936	264.77
430.396	255.77
430.856	245.48
431.315	239.08
431.775	237.58
432.235	241.67
432.694	248.27
433.154	240.17
433.614	221.48
434.073	229.27
434.533	222.67
434.993	220.48
435.452	212.27
435.912	216.48
436.371	208.67
436.83	201.98
437.29	193.88
437.749	199.27
438.209	192.88
438.668	188.27
439.127	181.88
439.587	182.08
440.046	183.58
440.505	179.38
440.964	172.27
441.424	170.98
441.883	172.88
442.342	166.08
442.801	162.77
443.26	151.88
443.719	153.08
444.178	151.77
444.637	146.58
445.096	146.58
445.555	143.77
446.014	142.48
446.473	135.67
446.932	131.98
447.391	131.17
447.849	122.77
448.308	124.17
448.767	124.27
449.226	121.38
449.685	114.58
450.143	116.38
450.602	112.08
451.061	111.08
451.519	108.77
451.978	102.38
452.436	103.48
452.895	100.48
453.353	103.48
453.812	98.88
454.27	97.17
454.729	100.98
455.187	97.38
455.646	90.67
456.104	98.08
456.562	89.98
457.021	91.08
457.479	91.48
457.937	90.27
458.395	94.27
458.854	88.98
459.312	93.58
459.77	91.98
460.228	88.58
460.686	89.08
461.144	87.77
461.602	92.17
462.06	85.77
462.518	91.48
462.976	87.38
463.434	88.98
463.892	92.17
464.35	88.88
464.808	88.88
465.266	86.17
465.724	87.88
466.181	84.48
466.639	89.88
467.097	87.17
467.555	86.77
468.012	86.27
468.47	86.77
468.928	88.67
469.385	88.58
469.843	84.17
470.3	90.17
470.758	85.77
471.215	85.77
471.673	90.98
472.13	85.77
472.588	87.88
473.045	87.77
473.503	85.08
473.96	89.08
474.417	86.48
474.875	91.98
475.332	85.48
475.789	92.27
476.246	88.48
476.704	87.38
477.161	93.98
477.618	92.38
478.075	87.27
478.532	86.08
478.989	88.88
479.446	90.98
479.903	87.27
480.36	84.98
480.817	83.98
481.274	88.48
481.731	90.08
482.188	87.98
482.645	87.48
483.102	89.17
483.558	87.27
484.015	83.77
484.472	85.38
484.929	88.27
485.385	94.67
485.842	87.17
486.299	93.27
486.755	85.77
487.212	90.77
487.668	87.88
488.125	88.08
488.582	90.27
489.038	88.48
489.494	86.08
489.951	89.48
490.407	88.77
490.864	86.17
491.32	88.58
491.776	86.77
492.233	84.67
492.689	88.88
493.145	82.67
493.602	88.38
494.058	89.67
494.514	85.67
494.97	86.58
495.426	85.77
495.882	91.58
496.338	88.38
496.794	87.38
497.251	86.17
497.707	89.08
498.163	91.08
498.618	87.17
499.074	86.27
499.53	86.98
499.986	86.17
500.442	89.77
500.898	88.58
501.354	89.48
501.809	91.48
502.265	82.27
502.721	88.58
503.177	82.58
503.632	87.88
504.088	93.67
504.543	88.17
504.999	86.48
505.455	89.67
505.91	88.38
506.366	80.08
506.821	88.27
507.277	92.88
507.732	88.17
508.187	92.27
508.643	90.38
509.098	90.38
509.553	82.88
510.009	89.77
510.464	86.88
510.919	89.38
511.375	86.67
511.83	84.88
512.285	87.98
512.74	89.67
513.195	89.38
513.65	85.27
514.105	89.58
514.56	88.58
515.015	87.38
515.47	86.08
515.925	89.77
516.38	94.48
516.835	82.77
517.29	89.27
517.745	83.27
518.2	86.08
518.655	84.17
519.109	87.67
519.564	85.08
520.019	87.27
520.474	85.98
520.928	84.48
521.383	84.27
521.838	88.58
522.292	87.27
522.747	85.98
523.201	87.88
523.656	84.77
524.11	83.58
524.565	85.17
525.019	90.98
525.474	87.17
525.928	83.98
526.382	82.48
526.837	84.17
527.291	86.77
527.745	88.38
528.2	86.77
528.654	88.88
529.108	88.27
529.562	86.58
530.016	88.17
530.47	88.27
530.925	90.58
531.379	80.08
531.833	88.38
532.287	88.98
532.741	84.58
533.195	84.27
533.649	86.48
534.103	87.27
534.556	90.77
535.01	89.08
535.464	87.88
535.918	89.17
536.372	79.38
536.826	86.88
537.279	86.98
537.733	81.58
538.187	82.08
538.64	86.38
539.094	88.88
539.548	87.77
540.001	88.67
540.455	88.27
540.908	88.38
541.362	83.38
541.815	87.77
542.269	81.58
542.722	87.58
543.175	89.88
543.629	85.48
544.082	86.77
544.536	87.27
544.989	89.88
545.442	79.17
545.895	88.27
546.349	88.08
546.802	89.38
547.255	85.88
547.708	83.88
548.161	88.27
548.614	87.48
549.067	86.58
549.52	82.88
549.973	89.48
550.426	86.77
550.879	84.58
551.332	85.27
551.785	85.98
552.238	87.08
552.691	86.17
553.144	87.88
553.596	85.08
554.049	87.48
554.502	87.67
554.955	83.58
555.407	87.48
555.86	90.27
556.313	85.88
556.765	81.88
557.218	84.27
557.67	86.88
558.123	85.98
558.576	83.48
559.028	87.77
559.48	85.98
559.933	86.38
560.385	89.27
560.838	86.27
561.29	89.77
561.742	86.08
562.195	87.77
562.647	85.77
563.099	88.27
563.551	85.88
564.004	85.38
564.456	91.08
564.908	86.58
565.36	90.27
565.812	85.27
566.264	88.58
566.716	84.27
567.168	84.67
567.62	84.98
568.072	84.27
568.524	91.17
568.976	88.88
569.428	90.27
569.88	90.38
570.332	87.77
570.784	89.27
571.235	92.08
571.687	91.17
572.139	88.98
572.59	88.88
573.042	83.58
573.494	91.27
573.945	86.27
574.397	90.88
574.849	88.77
575.3	89.58
575.752	84.27
576.203	83.88
576.655	89.77
577.106	86.48
577.557	86.48
578.009	90.88
578.46	86.08
578.912	90.38
579.363	84.58
579.814	90.48
580.265	90.38
580.717	88.98
581.168	87.67
581.619	86.88
582.07	84.77
582.521	87.67
582.972	82.88
583.423	89.48
583.875	90.77
584.326	88.48
584.777	90.17
585.227	90.08
585.678	81.38
586.129	89.48
586.58	88.17
587.031	89.38
587.482	84.38
587.933	85.08
588.384	88.27
588.834	89.08
589.285	86.48
589.736	84.77
590.186	88.77
590.637	87.17
591.088	87.48
591.538	85.38
591.989	89.08
592.439	87.08
592.89	88.98
593.34	88.77
593.791	84.27
594.241	88.98
594.692	87.58
595.142	86.38
595.593	88.38
596.043	85.27
596.493	83.17
596.943	85.67
597.394	83.48
597.844	84.58
598.294	89.67
598.744	86.17
599.195	88.27
599.645	86.77
600.095	87.77
600.545	88.77
600.995	87.88
601.445	92.58
601.895	89.88
602.345	92.98
602.795	84.38
603.245	92.17
603.695	85.67
604.145	85.98
604.594	84.88
605.044	80.88
605.494	88.08
605.944	90.67
606.393	83.08
606.843	82.08
607.293	87.17
607.743	83.48
608.192	88.88
608.642	84.27
609.091	83.58
609.541	85.88
609.99	83.77
610.44	90.17
610.889	86.08
611.339	87.17
611.788	85.58
612.238	88.98
612.687	81.98
613.136	79.67
613.586	90.38
614.035	85.38
614.484	86.98
614.933	87.17
615.383	87.17
615.832	89.98
616.281	85.88
616.73	81.48
617.179	86.27
617.628	81.67
618.077	84.48
618.526	87.98
618.975	84.38
619.424	84.48
619.873	83.67
620.322	86.38
620.771	81.67
621.22	87.77
621.669	87.77
622.118	84.27
622.567	86.88
623.015	83.58
623.464	90.48
623.913	82.67
624.361	85.38
624.81	81.88
625.259	86.17
625.707	90.38
626.156	89.88
626.604	83.17
627.053	83.17
627.501	88.27
627.95	88.98
628.398	87.88
628.847	83.67
629.295	86.08
629.744	87.67
630.192	87.88
630.64	87.27
631.089	88.48
631.537	83.88
631.985	89.27
632.433	86.98
632.881	83.77
633.33	88.27
633.778	86.08
634.226	86.77
634.674	87.98
635.122	89.77
635.57	86.27
636.018	84.38
636.466	87.17
636.914	85.77
637.362	84.98
637.81	84.38
638.258	83.67
638.705	87.67
639.153	84.58
639.601	86.98
640.049	84.58
640.497	84.67
640.944	88.77
641.392	85.48
641.84	83.98
642.287	86.98
642.735	86.17
643.182	81.17
643.63	86.58
644.078	78.88
644.525	85.38
644.973	83.88
645.42	81.88
645.867	88.08
646.315	85.38
646.762	82.38
647.21	84.27
647.657	83.98
648.104	86.17
648.551	87.98
648.999	91.48
649.446	79.67
649.893	84.27
650.34	81.58
650.787	82.17
651.234	85.77
651.682	86.58
652.129	92.08
652.576	84.98
653.023	91.17
653.47	94.67
653.917	95.48
654.363	102.08
654.81	108.38
655.257	104.67
655.704	85.27
656.151	80.48
656.598	82.08
657.044	80.27
657.491	81.38
657.938	86.17
658.385	84.38
658.831	88.77
659.278	83.88
659.724	83.17
660.171	85.98
660.618	82.38
661.064	87.27
661.511	86.88
661.957	83.08
662.404	83.27
662.85	86.48
663.296	85.38
663.743	81.77
664.189	85.67
664.635	83.88
665.082	91.27
665.528	86.38
665.974	83.88
666.42	85.98
666.867	92.17
667.313	81.98
667.759	82.98
668.205	84.98
668.651	80.77
669.097	85.58
669.543	78.98
669.989	83.98
670.435	83.77
670.881	84.48
671.327	85.27
671.773	86.48
672.219	91.17
672.665	87.08
673.11	87.77
673.556	87.08
674.002	84.58
674.448	84.58
674.893	85.77
675.339	90.67
675.785	78.58
676.23	83.77
676.676	78.08
677.122	88.67
677.567	85.58
678.013	84.77
678.458	87.67
678.904	87.08
679.349	84.98
679.794	83.88
680.24	81.77
680.685	88.08
681.131	84.88
681.576	87.77
682.021	84.98
682.466	87.38
682.912	90.67
683.357	83.67
683.802	83.58
684.247	85.48
684.692	87.48
685.137	82.27
685.583	86.67
686.028	85.88
686.473	87.77
686.918	85.17
687.363	80.98
687.807	82.58
688.252	90.58
688.697	84.08
689.142	88.38
689.587	85.77
690.032	84.48
690.477	88.48
690.921	88.48
691.366	92.17
691.811	84.98
692.255	85.67
692.7	81.77
693.145	81.17
693.589	85.48
694.034	84.17
694.478	88.27
694.923	86.17
695.367	83.58
695.812	85.98
696.256	85.77
696.701	85.58
697.145	86.58
697.59	80.38
698.034	85.17
698.478	85.27
698.922	80.17
699.367	83.77
699.811	85.17
700.255	86.98
700.699	80.17
701.143	86.17
701.588	86.58
702.032	87.38
702.476	88.38
702.92	88.27
703.364	86.67
703.808	82.48
704.252	86.77
704.696	83.98
705.14	87.27
705.584	84.77
706.027	83.88
706.471	86.58
706.915	87.48
707.359	80.67
707.803	86.58
708.246	83.67
708.69	85.27
709.134	83.48
709.577	85.98
710.021	90.27
710.465	84.58
710.908	88.38
711.352	82.48
711.795	86.67
712.239	80.48
712.682	87.38
713.126	79.88
713.569	88.77
714.012	88.77
714.456	87.98
714.899	84.88
715.342	86.48
715.786	88.08
716.229	89.27
716.672	84.58
717.115	85.38
717.558	84.77
718.002	80.08
718.445	82.67
718.888	84.08
719.331	86.98
719.774	85.08
720.217	86.08
720.66	89.98
721.103	88.58
721.546	84.48
721.989	84.48
722.432	86.08
722.874	83.58
723.317	82.08
723.76	86.48
724.203	86.17
724.645	83.77
725.088	86.08
725.531	86.88
725.974	83.98
726.416	86.48
726.859	84.08
727.301	85.48
727.744	84.17
728.187	86.38
728.629	87.27
729.071	85.08
729.514	93.88
729.956	83.27
730.399	86.88
730.841	86.27
731.283	89.77
731.726	85.67
732.168	86.67
732.61	90.48
733.053	85.58
733.495	82.98
733.937	86.58
734.379	86.27
734.821	89.98
735.263	89.67
735.705	83.48
736.148	82.48
736.59	85.88
737.032	82.27
737.474	83.98
737.916	76.58
738.357	86.77
738.799	87.98
739.241	89.17
739.683	89.88
740.125	81.17
740.567	90.67
741.008	83.88
741.45	85.38
741.892	89.88
742.334	89.98
742.775	81.48
743.217	83.58
743.658	85.17
744.1	84.67
744.542	87.88
744.983	86.38
745.425	83.27
745.866	87.77
746.307	83.88
746.749	80.77
747.19	82.08
747.632	83.38
748.073	82.58
748.514	88.17
748.956	82.77
749.397	85.17
749.838	87.48
750.279	82.88
750.72	87.27
751.162	82.08
751.603	82.27
752.044	80.27
752.485	87.48
752.926	85.58
753.367	83.88
753.808	87.08
754.249	85.88
754.69	85.98
755.131	83.58
755.572	87.27
756.013	87.77
756.453	89.27
756.894	83.08
757.335	87.38
757.776	88.27
758.216	84.88
758.657	81.88
759.098	89.88
759.538	84.58
759.979	83.98
760.42	86.98
760.86	88.58
761.301	84.58
761.741	85.38
762.182	87.88
762.622	86.88
763.063	84.27
763.503	85.17
763.943	85.77
764.384	91.58
764.824	84.17
765.264	84.48
765.705	84.67
766.145	87.98
766.585	86.27
767.025	86.27
767.465	84.48
767.906	87.08
768.346	86.27
768.786	86.38
769.226	91.67
769.666	86.27
770.106	86.08
770.546	84.17
770.986	85.48
771.426	82.17
771.866	78.38
772.306	89.58
772.745	86.17
773.185	85.98
773.625	85.27
774.065	81.67
774.505	85.58
774.944	83.58
775.384	87.77
775.824	89.58
776.263	85.67
776.703	84.17
777.142	81.77
777.582	85.58
778.021	86.58
778.461	88.08
778.9	87.38
779.34	88.48
779.779	90.17
780.219	84.98
780.658	85.98
781.097	87.38
781.537	85.58
781.976	91.17
782.415	90.17
782.855	85.27
783.294	83.27
783.733	83.08
784.172	84.77
784.611	83.48
785.05	81.38
785.489	86.67
785.928	84.88
786.367	90.77
786.806	86.17
787.245	89.08
787.684	89.08
788.123	84.27
788.562	87.38
789.001	83.67
789.44	86.58
789.879	87.27
790.317	83.58
790.756	82.08
791.195	88.58
791.634	83.67
792.072	83.27
792.511	84.17
792.95	86.67
793.388	84.38
793.827	84.08
794.265	88.27
794.704	83.77
795.142	83.98
795.581	80.27
796.019	87.98
796.458	86.38
796.896	91.08
797.334	84.38
797.773	84.27
798.211	87.27
798.649	81.48
799.087	85.88
799.526	90.38
799.964	86.98
800.402	86.48
800.84	86.67
801.278	86.17
801.716	88.08
802.154	87.98
802.592	84.77
803.03	91.17
803.468	86.88
803.906	85.67
804.344	84.98
804.782	86.38
805.22	84.08
805.658	84.27
806.096	87.08
806.533	84.27
806.971	84.27
807.409	83.67
807.847	86.27
808.284	88.08
808.722	84.67
809.16	87.88
809.597	83.58
810.035	86.17
810.472	87.98
810.91	85.27
811.347	89.17
811.785	82.38
812.222	85.48
812.66	82.98
813.097	82.98
813.535	86.27
813.972	85.77
814.409	84.17
814.846	87.88
815.284	87.38
815.721	86.77
816.158	86.48
816.595	82.67
817.032	89.08
817.47	89.17
817.907	86.17
818.344	81.58
818.781	85.67
819.218	85.08
819.655	80.88
820.092	85.38
820.529	82.08
820.966	86.48
821.403	86.08
821.839	86.77
822.276	88.77
822.713	84.67
823.15	82.58
823.587	84.67
824.023	90.88
824.46	88.88
824.897	87.38
825.333	88.48
825.77	87.58
826.206	87.48
826.643	84.27
827.08	81.88
827.516	87.38
827.953	82.38
828.389	82.77
828.825	84.27
829.262	83.48
829.698	84.58
830.135	77.88
830.571	87.58
831.007	91.38
831.443	87.17
831.88	83.67
832.316	83.08
832.752	82.67
833.188	81.17
833.624	82.88
834.06	87.58
834.497	85.17
834.933	87.08
835.369	84.38
835.805	82.77
836.241	87.08
836.677	85.27
837.112	80.48
837.548	84.67
837.984	82.48
838.42	81.98
838.856	87.88
839.292	91.58
839.727	90.17
840.163	86.98
840.599	89.27
841.034	84.98
841.47	82.48
841.906	85.98
842.341	82.67
842.777	82.58
843.212	77.98
843.648	88.27
844.083	83.08
844.519	91.58
844.954	85.48
845.39	81.58
845.825	81.88
846.261	87.27
846.696	81.88
847.131	82.88
847.566	82.48
848.002	84.17
848.437	84.27
848.872	84.88
849.307	84.17
849.742	88.08
850.177	86.88
850.613	86.98
851.048	86.08
851.483	82.77
851.918	82.48
852.353	84.98
852.788	90.17
853.223	83.98
853.657	86.58
854.092	86.98
854.527	87.67
854.962	85.08
855.397	86.88
855.832	87.38
856.266	87.98
856.701	84.77
857.136	84.67
857.57	83.77
858.005	84.77
858.44	88.17
858.874	81.38
859.309	88.27
859.743	85.67
860.178	85.77
860.612	83.38
861.047	82.38
861.481	85.08
861.915	88.77
862.35	88.38
862.784	86.27
863.218	85.58
863.653	87.98
864.087	82.17
864.521	85.58
864.955	86.27
865.39	86.38
865.824	84.38
866.258	83.17
866.692	81.17
867.126	80.08
867.56	88.67
867.994	90.27
868.428	80.38
868.862	90.27
869.296	86.38
869.73	84.77
870.164	85.38
870.598	86.48
871.031	87.27
871.465	88.77
871.899	85.08
872.333	86.58
872.766	88.67
873.2	87.98
873.634	88.48
874.067	84.27
874.501	84.48
874.935	85.88
875.368	81.38
875.802	87.58
876.235	86.77
876.669	86.98
877.102	89.17
877.535	88.08
877.969	82.88
878.402	83.48
878.836	83.77
879.269	86.58
879.702	80.17
880.135	84.58
880.569	85.27
881.002	83.48
881.435	84.27
881.868	85.77
882.301	89.27
882.734	89.58
883.167	85.27
883.601	84.77
884.034	83.58
884.467	87.17
884.899	85.17
885.332	84.67
885.765	81.38
886.198	84.88
886.631	83.17
887.064	87.38
887.497	88.98
887.929	85.38
888.362	76.98
888.795	87.48
889.228	87.17
889.66	83.27
890.093	81.67
890.526	85.77
890.958	87.27
891.391	86.08
891.823	84.67
892.256	82.88
892.688	88.17
893.121	81.77
893.553	88.67
893.985	86.67
894.418	80.48
894.85	85.27
895.282	89.58
895.715	87.88
896.147	85.38
896.579	90.08
897.011	83.48
897.444	81.58
897.876	86.58
898.308	81.98
898.74	81.88
899.172	83.48
899.604	84.67
900.036	79.88
900.468	85.48
900.9	86.88
901.332	82.48
901.764	87.77
902.196	86.17
902.628	83.17
903.06	85.38
903.491	86.17
903.923	85.67
904.355	79.48
904.787	84.08
905.218	80.77
905.65	81.08
906.082	85.98
906.513	81.48
906.945	87.58
907.376	89.98
907.808	85.77
908.239	90.98
908.671	81.38
909.102	85.08
909.534	84.67
909.965	80.38
910.397	86.77
910.828	82.08
911.259	88.88
911.691	82.17
912.122	78.67
912.553	83.48
912.984	88.27
913.415	85.98
913.847	84.77
914.278	82.77
914.709	90.58
915.14	83.67
915.571	84.08
916.002	90.48
916.433	87.27
916.864	83.38
917.295	88.08
917.726	87.17
918.157	84.17
918.587	85.08
919.018	80.67
919.449	87.77
919.88	83.48
920.311	80.58
920.741	86.98
921.172	81.88
921.603	82.38
922.033	84.48
922.464	88.17
922.895	82.67
923.325	82.48
923.756	81.88
924.186	80.48
924.617	83.08
925.047	90.58
925.478	86.77
925.908	88.58
926.338	86.48
926.769	86.77
927.199	88.08
927.629	85.08
928.06	88.58
928.49	84.08
928.92	93.17
929.35	84.17
929.78	80.88
930.21	84.17
930.641	86.77
931.071	87.17
931.501	87.98
931.931	82.17
932.361	83.38
932.791	88.38
933.221	83.48
933.651	87.17
934.08	86.48
934.51	94.38
934.94	87.38
935.37	89.17
935.8	86.48
936.229	80.88
936.659	83.08
937.089	89.77
937.519	86.38
937.948	83.08
938.378	86.17
938.807	86.48
939.237	88.38
939.666	88.27
940.096	87.48
940.525	81.38
940.955	79.27
941.384	83.77
941.814	86.08
942.243	85.77
942.672	83.58
943.102	80.98
943.531	86.38
943.96	82.08
944.39	82.08
944.819	81.77
945.248	87.67
945.677	79.98
946.106	85.98
946.535	88.48
946.964	82.48
947.393	81.98
947.822	85.67
948.251	82.58
948.68	83.48
949.109	86.98
949.538	83.67
949.967	79.98
950.396	89.77
950.825	84.08
951.254	84.38
951.682	79.27
952.111	85.77
952.54	81.17
952.969	85.08
953.397	85.27
953.826	85.38
954.254	88.27
954.683	81.88
955.112	82.58
955.54	87.38
955.969	88.17
956.397	85.77
956.826	86.88
957.254	84.27
957.682	84.27
958.111	88.08
958.539	86.98
958.967	86.77
959.396	87.48
959.824	86.67
960.252	81.77
960.68	84.88
961.109	85.08
961.537	80.48
961.965	85.88
962.393	83.08
962.821	83.48
963.249	80.38
963.677	84.08
964.105	84.77
964.533	82.88
964.961	84.88
965.389	88.98
965.817	83.27
966.245	81.27
966.672	91.98
967.1	85.27
967.528	83.67
967.956	81.98
968.383	86.08
968.811	85.77
969.239	83.38
969.666	82.67
970.094	83.38
970.522	90.38
970.949	79.58
971.377	85.08
971.804	86.08
972.232	87.67
972.659	85.38
973.087	84.88
973.514	88.17
973.941	86.08
974.369	85.17
974.796	89.08
975.223	84.88
975.651	86.17
976.078	80.98
976.505	86.88
976.932	87.48
977.359	86.38
977.786	86.38
978.214	80.48
978.641	81.98
979.068	81.48
979.495	83.67
979.922	85.77
980.349	84.98
980.776	83.48
981.202	86.38
981.629	82.88
982.056	88.48
982.483	79.58
982.91	85.08
983.337	81.08
983.763	86.17
984.19	88.88
984.617	86.98
985.043	85.27
985.47	83.17
985.897	83.17
986.323	83.67
986.75	83.77
987.176	82.77
987.603	86.77
988.029	84.67
988.456	77.58
988.882	81.58
989.308	81.27
989.735	90.27
990.161	86.38
990.587	84.17
991.014	91.77
991.44	83.88
991.866	87.88
992.292	83.88
992.719	87.38
993.145	83.88
993.571	84.77
993.997	88.17
994.423	87.88
994.849	88.27
995.275	84.08
995.701	80.08
996.127	80.38
996.553	84.88
996.979	81.17
997.405	83.38
997.83	87.17
998.256	85.38
998.682	89.17
999.108	80.98
999.534	79.48
999.959	79.88
1000.385	82.88
1000.811	83.27
1001.236	80.58
1001.662	82.77
1002.087	86.77
1002.513	87.88
1002.938	88.27
1003.364	82.27
1003.789	85.88
1004.215	84.77
1004.64	83.48
1005.066	85.77
1005.491	81.38
1005.916	80.88
1006.342	86.67
1006.767	85.08
1007.192	88.27
1007.617	86.08
1008.042	87.98
1008.468	84.98
1008.893	87.77
1009.318	85.88
1009.743	81.48
1010.168	85.17
1010.593	85.48
1011.018	81.58
1011.443	80.27
1011.868	84.58
1012.293	85.98
1012.718	86.17
1013.143	84.27
1013.567	83.98
1013.992	86.17
1014.417	80.08
1014.842	90.88
1015.267	79.27
1015.691	84.48
1016.116	84.17
1016.541	85.58
1016.965	83.67
1017.39	87.98
1017.814	85.98
1018.239	80.67
1018.663	79.98
1019.088	86.98
1019.512	86.58
1019.937	83.67
1020.361	80.38
1020.785	86.17
1021.21	80.58
1021.634	84.17
1022.058	82.08
1022.483	78.17
1022.907	89.08
1023.331	83.48
1023.755	81.48
1024.179	83.98
1024.604	83.88
1025.028	82.17
1025.452	81.98
1025.876	86.58
1026.3	89.58
1026.724	89.27
1027.148	81.88
1027.572	79.17
1027.996	83.17
1028.42	85.58
1028.843	81.17
1029.267	84.08
1029.691	88.17
1030.115	84.17
1030.539	87.17
1030.962	83.27
1031.386	89.27
1031.81	81.67
1032.233	84.17
1032.657	91.77
1033.08	90.77
1033.504	78.17
1033.927	81.67
1034.351	83.67
1034.774	83.77
1035.198	89.27
1035.621	89.08
1036.045	86.88
1036.468	83.88
1036.891	84.77
1037.315	85.27
1037.738	87.88
1038.161	84.48
1038.584	86.58
1039.008	85.38
1039.431	83.88
1039.854	87.98
1040.277	82.77
1040.7	80.58
1041.123	81.77
1041.546	83.38
1041.969	82.77
1042.392	81.67
1042.815	85.27
1043.238	84.67
1043.661	80.38
1044.084	87.48
1044.507	85.67
1044.93	85.17
1045.352	82.67
1045.775	83.77
1046.198	84.08
1046.621	82.08
1047.043	86.17
1047.466	86.48
1047.889	88.77
1048.311	83.17
1048.734	87.08
1049.156	85.88
1049.579	88.48
1050.001	81.17
1050.424	83.98
1050.846	79.27
1051.269	83.88
1051.691	83.77
1052.113	81.38
1052.536	83.88
1052.958	81.58
1053.38	85.08
1053.802	84.17
1054.225	79.27
1054.647	78.27
1055.069	82.38
1055.491	81.08
1055.913	87.77
1056.335	78.88
1056.757	82.27
1057.179	87.38
1057.601	82.98
1058.023	88.08
1058.445	83.88
1058.867	85.98
1059.289	82.58
1059.711	87.98
1060.133	86.08
1060.555	84.67
1060.976	82.08
1061.398	87.27
1061.82	91.98
1062.241	84.77
1062.663	87.17
1063.085	84.27
1063.506	84.67
1063.928	84.58
1064.35	85.67
1064.771	88.98
1065.193	80.38
1065.614	80.58
1066.035	82.88
1066.457	84.17
1066.878	83.08
1067.3	80.27
1067.721	85.67
1068.142	82.98
1068.564	88.98
1068.985	84.88
1069.406	82.38
1069.827	80.48
1070.248	86.17
1070.67	84.77
1071.091	85.67
1071.512	89.67
1071.933	81.38
1072.354	86.58
1072.775	86.88
1073.196	84.38
1073.617	87.48
1074.038	85.77
1074.459	89.67
1074.88	86.27
1075.3	81.77
1075.721	78.38
1076.142	84.67
1076.563	82.88
1076.983	80.38
1077.404	86.17
1077.825	84.17
1078.246	85.88
1078.666	80.88
1079.087	81.98
1079.507	82.48
1079.928	86.27
1080.348	85.77
1080.769	86.38
1081.189	79.67
1081.61	82.88
1082.03	81.77
1082.451	82.38
1082.871	85.67
1083.291	84.08
1083.711	85.77
1084.132	83.88
1084.552	85.08
1084.972	87.48
1085.392	82.08
1085.813	86.27
1086.233	83.48
1086.653	82.08
1087.073	87.67
1087.493	84.58
1087.913	85.88
1088.333	85.98
1088.753	89.27
1089.173	85.77
1089.593	85.27
1090.013	84.88
1090.433	81.27
1090.852	83.17
1091.272	88.38
1091.692	79.88
1092.112	88.08
1092.531	83.48
1092.951	79.98
1093.371	86.17
1093.79	82.38
1094.21	85.48
1094.63	84.67
1095.049	81.58
1095.469	80.48
1095.888	84.17
1096.308	80.67
1096.727	86.67
1097.146	83.48
1097.566	83.48
1097.985	83.58
1098.405	72.67
1098.824	83.48
1099.243	85.48
1099.662	82.67
1100.082	85.48
1100.501	83.48
1100.92	84.88
1101.339	85.48
1101.758	90.77
