Data from DH-3PlusCalLight-Deuterium_HRD10391_13-35-09-727.txt Node
Date: Thu Feb 15 13:35:09 EST 2018
User: Ender
Spectrometer: HR+D1039
Trigger mode: 0
Integration Time (sec): 2.730000E-2
Scans to average: 10
Electric dark correction enabled: true
Nonlinearity correction enabled: false
Boxcar width: 0
XAxis mode: Wavelengths
Number of Pixels in Spectrum: 2048
>>>>>Begin Spectral Data<<<<<
187.836	4.37
188.309	4.37
188.782	4.37
189.255	-2.53
189.728	-3.43
190.201	-4.93
190.674	-5.53
191.147	-4.53
191.619	-8.93
192.092	-8.93
192.565	-6.33
193.038	-0.23
193.511	-4.43
193.984	2.87
194.456	4.07
194.929	6.17
195.402	10.67
195.874	21.67
196.347	22.77
196.82	21.97
197.292	27.07
197.765	36.07
198.237	40.77
198.71	40.07
199.182	40.67
199.655	43.27
200.127	54.77
200.6	52.87
201.072	58.07
201.544	58.27
202.017	65.17
202.489	65.37
202.961	68.37
203.433	72.17
203.906	71.17
204.378	80.67
204.85	78.87
205.322	79.17
205.794	77.87
206.266	83.87
206.739	81.97
207.211	82.87
207.683	87.07
208.155	77.37
208.627	86.67
209.099	88.77
209.57	82.37
210.042	84.17
210.514	83.97
210.986	85.27
211.458	85.27
211.93	83.27
212.402	87.97
212.873	88.07
213.345	83.97
213.817	81.37
214.288	80.77
214.76	81.07
215.232	87.17
215.703	82.97
216.175	83.37
216.646	82.67
217.118	80.87
217.589	81.47
218.061	76.97
218.532	77.57
219.004	81.37
219.475	84.07
219.946	81.17
220.418	83.47
220.889	81.17
221.36	82.97
221.832	83.27
222.303	80.97
222.774	83.87
223.245	79.67
223.717	88.77
224.188	85.27
224.659	88.17
225.13	87.07
225.601	85.17
226.072	93.57
226.543	84.17
227.014	90.97
227.485	89.37
227.956	92.87
228.427	97.27
228.898	97.27
229.369	98.87
229.839	99.97
230.31	97.77
230.781	103.37
231.252	102.37
231.722	98.97
232.193	99.07
232.664	98.67
233.135	100.97
233.605	101.37
234.076	97.87
234.546	98.87
235.017	97.87
235.487	95.87
235.958	87.17
236.428	92.67
236.899	85.47
237.369	83.87
237.84	87.87
238.31	81.07
238.78	82.47
239.251	88.97
239.721	83.07
240.191	88.17
240.662	83.47
241.132	80.07
241.602	80.87
242.072	84.77
242.542	80.27
243.013	82.77
243.483	80.97
243.953	84.87
244.423	76.17
244.893	80.17
245.363	85.97
245.833	81.57
246.303	84.47
246.773	80.07
247.243	83.07
247.712	81.07
248.182	88.67
248.652	79.17
249.122	83.57
249.592	82.27
250.061	79.07
250.531	78.97
251.001	81.17
251.471	86.07
251.94	84.47
252.41	83.37
252.879	87.37
253.349	88.57
253.818	89.27
254.288	90.67
254.757	93.47
255.227	85.37
255.696	96.57
256.166	94.17
256.635	96.87
257.105	98.77
257.574	104.97
258.043	103.77
258.513	106.07
258.982	117.27
259.451	121.27
259.92	130.27
260.389	128.77
260.859	141.37
261.328	144.77
261.797	149.07
262.266	159.37
262.735	160.97
263.204	176.67
263.673	178.87
264.142	184.07
264.611	188.17
265.08	194.97
265.549	194.97
266.018	205.77
266.487	211.57
266.955	218.57
267.424	221.47
267.893	223.87
268.362	228.47
268.83	229.77
269.299	240.67
269.768	239.87
270.236	239.97
270.705	249.37
271.174	248.37
271.642	247.17
272.111	244.77
272.579	248.87
273.048	249.67
273.516	255.47
273.985	256.57
274.453	259.87
274.922	257.77
275.39	256.67
275.858	253.97
276.327	253.07
276.795	260.87
277.263	254.07
277.731	249.37
278.2	251.17
278.668	257.17
279.136	249.27
279.604	248.77
280.072	253.77
280.54	247.17
281.008	251.97
281.477	241.97
281.945	249.57
282.413	241.37
282.881	241.87
283.348	239.17
283.816	236.57
284.284	238.97
284.752	237.27
285.22	240.37
285.688	236.77
286.156	233.47
286.623	240.07
287.091	236.87
287.559	238.77
288.026	240.07
288.494	242.87
288.962	234.67
289.429	238.07
289.897	245.77
290.364	249.67
290.832	239.47
291.3	246.77
291.767	250.87
292.234	253.87
292.702	247.47
293.169	257.67
293.637	262.47
294.104	262.77
294.571	261.77
295.039	274.67
295.506	281.97
295.973	270.97
296.44	271.17
296.908	276.17
297.375	274.67
297.842	268.87
298.309	273.47
298.776	278.97
299.243	283.57
299.71	282.77
300.177	283.67
300.644	274.47
301.111	281.97
301.578	278.67
302.045	275.57
302.512	281.27
302.979	274.57
303.446	272.47
303.913	284.67
304.379	279.87
304.846	276.57
305.313	269.37
305.78	267.67
306.246	272.37
306.713	274.47
307.18	274.17
307.646	271.17
308.113	268.37
308.579	274.57
309.046	266.57
309.512	268.17
309.979	264.37
310.445	266.77
310.912	264.77
311.378	255.97
311.845	270.57
312.311	265.77
312.777	262.67
313.244	261.97
313.71	263.37
314.176	260.87
314.642	269.57
315.109	267.57
315.575	264.47
316.041	270.37
316.507	271.27
316.973	269.47
317.439	265.47
317.905	270.27
318.371	278.17
318.837	274.27
319.303	283.87
319.769	276.27
320.235	283.97
320.701	286.47
321.167	284.17
321.633	285.37
322.099	277.37
322.564	282.87
323.03	287.87
323.496	291.57
323.962	285.07
324.427	290.87
324.893	287.97
325.359	287.47
325.824	291.27
326.29	285.87
326.755	282.37
327.221	272.27
327.686	286.87
328.152	279.77
328.617	282.67
329.083	280.77
329.548	283.17
330.014	278.97
330.479	272.27
330.944	273.47
331.41	273.07
331.875	267.37
332.34	266.17
332.805	265.47
333.271	266.07
333.736	267.77
334.201	258.17
334.666	258.07
335.131	266.87
335.596	260.17
336.061	257.47
336.526	261.77
336.991	264.67
337.456	263.87
337.921	260.67
338.386	251.77
338.851	254.37
339.316	257.87
339.781	253.67
340.246	269.57
340.711	264.27
341.175	269.17
341.64	277.27
342.105	277.77
342.569	279.37
343.034	275.37
343.499	281.27
343.963	293.77
344.428	286.87
344.893	288.97
345.357	290.27
345.822	286.97
346.286	292.67
346.751	298.07
347.215	304.07
347.679	298.67
348.144	302.17
348.608	307.77
349.073	312.07
349.537	308.77
350.001	309.37
350.465	302.77
350.93	305.17
351.394	302.27
351.858	302.17
352.322	302.57
352.786	306.57
353.25	305.57
353.715	309.87
354.179	309.87
354.643	309.87
355.107	308.47
355.571	305.07
356.035	308.47
356.498	307.07
356.962	303.37
357.426	309.17
357.89	307.77
358.354	308.07
358.818	304.07
359.281	312.57
359.745	311.07
360.209	307.87
360.673	307.17
361.136	305.27
361.6	309.17
362.064	314.47
362.527	303.27
362.991	313.77
363.454	307.37
363.918	306.77
364.381	311.17
364.845	311.27
365.308	312.27
365.772	320.97
366.235	309.07
366.698	317.97
367.162	305.27
367.625	314.37
368.088	312.57
368.552	311.27
369.015	308.27
369.478	308.77
369.941	314.57
370.404	308.87
370.867	312.57
371.331	308.57
371.794	316.87
372.257	316.47
372.72	318.87
373.183	310.97
373.646	316.37
374.109	314.07
374.572	317.77
375.035	318.27
375.497	318.67
375.96	318.77
376.423	323.57
376.886	329.47
377.349	320.57
377.811	327.57
378.274	335.37
378.737	330.47
379.199	327.57
379.662	334.17
380.125	327.07
380.587	327.37
381.05	328.57
381.512	339.67
381.975	333.87
382.437	332.57
382.9	335.87
383.362	338.17
383.825	340.17
384.287	331.57
384.75	331.97
385.212	334.07
385.674	338.57
386.136	347.87
386.599	342.97
387.061	343.77
387.523	345.07
387.985	338.57
388.447	341.87
388.91	333.37
389.372	339.07
389.834	337.47
390.296	342.97
390.758	346.17
391.22	343.47
391.682	353.97
392.144	354.27
392.606	346.97
393.068	332.57
393.529	341.17
393.991	343.37
394.453	342.97
394.915	339.37
395.377	344.57
395.838	351.07
396.3	348.97
396.762	363.07
397.224	354.07
397.685	353.97
398.147	346.57
398.608	341.37
399.07	344.57
399.531	348.27
399.993	350.17
400.454	346.87
400.916	343.97
401.377	353.97
401.839	342.47
402.3	342.57
402.762	343.87
403.223	348.37
403.684	347.67
404.145	350.67
404.607	349.47
405.068	344.57
405.529	337.87
405.99	332.87
406.451	323.57
406.913	324.37
407.374	334.47
407.835	325.47
408.296	326.67
408.757	322.57
409.218	326.77
409.679	313.77
410.14	318.47
410.601	307.47
411.062	308.07
411.522	321.27
411.983	309.67
412.444	315.37
412.905	302.97
413.366	302.97
413.826	293.57
414.287	300.47
414.748	293.67
415.208	292.07
415.669	287.57
416.13	287.87
416.59	284.57
417.051	286.07
417.511	286.97
417.972	298.57
418.432	302.77
418.893	296.47
419.353	304.77
419.814	302.57
420.274	303.77
420.734	311.57
421.195	311.37
421.655	294.17
422.115	293.87
422.576	292.37
423.036	284.77
423.496	291.57
423.956	287.27
424.416	279.77
424.876	277.87
425.336	268.87
425.797	269.07
426.257	278.27
426.717	287.77
427.177	276.67
427.637	272.27
428.097	271.27
428.556	271.87
429.016	272.17
429.476	271.47
429.936	257.37
430.396	250.87
430.856	237.77
431.315	240.57
431.775	234.17
432.235	234.97
432.694	243.57
433.154	235.87
433.614	216.77
434.073	217.87
434.533	211.87
434.993	206.87
435.452	206.57
435.912	201.27
436.371	196.67
436.83	188.87
437.29	190.67
437.749	193.77
438.209	186.87
438.668	178.27
439.127	179.47
439.587	183.57
440.046	181.97
440.505	180.97
440.964	169.67
441.424	163.87
441.883	164.47
442.342	159.97
442.801	160.77
443.26	155.27
443.719	144.77
444.178	145.97
444.637	142.27
445.096	139.57
445.555	135.47
446.014	132.27
446.473	125.37
446.932	126.17
447.391	118.07
447.849	121.17
448.308	118.77
448.767	119.77
449.226	114.37
449.685	111.87
450.143	109.47
450.602	111.87
451.061	103.37
451.519	104.67
451.978	103.47
452.436	98.97
452.895	103.47
453.353	97.57
453.812	94.87
454.27	98.57
454.729	96.87
455.187	92.07
455.646	93.17
456.104	94.37
456.562	89.27
457.021	93.47
457.479	93.07
457.937	90.17
458.395	91.27
458.854	89.97
459.312	90.27
459.77	90.97
460.228	89.57
460.686	85.87
461.144	90.27
461.602	88.47
462.06	87.57
462.518	83.97
462.976	91.57
463.434	87.87
463.892	86.47
464.35	87.57
464.808	89.27
465.266	85.77
465.724	82.97
466.181	90.07
466.639	88.27
467.097	86.77
467.555	88.57
468.012	86.27
468.47	86.07
468.928	86.47
469.385	90.17
469.843	86.37
470.3	84.47
470.758	82.37
471.215	82.17
471.673	88.57
472.13	84.47
472.588	86.37
473.045	86.47
473.503	88.17
473.96	86.27
474.417	80.47
474.875	85.87
475.332	91.97
475.789	87.47
476.246	88.87
476.704	83.57
477.161	87.27
477.618	87.87
478.075	85.27
478.532	84.87
478.989	84.37
479.446	81.97
479.903	84.07
480.36	84.77
480.817	81.67
481.274	85.57
481.731	84.57
482.188	83.87
482.645	82.97
483.102	89.17
483.558	80.07
484.015	90.47
484.472	89.67
484.929	83.97
485.385	87.67
485.842	87.67
486.299	86.67
486.755	86.77
487.212	84.47
487.668	85.37
488.125	88.27
488.582	83.77
489.038	86.87
489.494	86.87
489.951	81.87
490.407	86.37
490.864	86.87
491.32	84.67
491.776	87.97
492.233	81.57
492.689	82.07
493.145	89.57
493.602	87.27
494.058	84.27
494.514	81.97
494.97	85.17
495.426	85.47
495.882	87.57
496.338	83.37
496.794	81.97
497.251	86.67
497.707	88.47
498.163	83.97
498.618	84.97
499.074	88.67
499.53	85.47
499.986	85.87
500.442	83.67
500.898	89.37
501.354	84.37
501.809	84.07
502.265	86.27
502.721	84.37
503.177	89.57
503.632	85.07
504.088	84.67
504.543	90.67
504.999	88.27
505.455	84.97
505.91	86.67
506.366	85.37
506.821	83.57
507.277	88.17
507.732	86.87
508.187	90.07
508.643	88.27
509.098	84.67
509.553	81.77
510.009	85.77
510.464	83.07
510.919	79.77
511.375	85.37
511.83	83.67
512.285	85.97
512.74	87.57
513.195	85.37
513.65	82.07
514.105	84.97
514.56	85.07
515.015	86.07
515.47	81.57
515.925	84.57
516.38	83.37
516.835	87.87
517.29	85.67
517.745	86.17
518.2	85.97
518.655	86.87
519.109	81.47
519.564	82.77
520.019	84.17
520.474	83.97
520.928	83.67
521.383	85.27
521.838	84.47
522.292	86.97
522.747	81.37
523.201	82.77
523.656	87.07
524.11	85.27
524.565	89.57
525.019	80.87
525.474	86.67
525.928	82.17
526.382	85.17
526.837	82.37
527.291	88.27
527.745	92.77
528.2	88.97
528.654	86.47
529.108	82.17
529.562	89.77
530.016	80.97
530.47	83.67
530.925	85.07
531.379	83.37
531.833	84.07
532.287	84.77
532.741	86.27
533.195	81.47
533.649	83.47
534.103	87.77
534.556	87.87
535.01	79.57
535.464	86.67
535.918	83.47
536.372	87.17
536.826	82.47
537.279	83.37
537.733	87.67
538.187	89.17
538.64	89.97
539.094	82.67
539.548	84.17
540.001	83.47
540.455	81.87
540.908	79.97
541.362	80.67
541.815	85.47
542.269	81.87
542.722	86.17
543.175	83.87
543.629	82.87
544.082	81.57
544.536	82.77
544.989	77.87
545.442	78.67
545.895	86.97
546.349	84.97
546.802	82.17
547.255	84.47
547.708	87.47
548.161	87.87
548.614	77.87
549.067	87.67
549.52	78.47
549.973	88.17
550.426	89.47
550.879	82.37
551.332	81.17
551.785	83.57
552.238	84.67
552.691	84.87
553.144	86.87
553.596	82.77
554.049	84.37
554.502	81.47
554.955	85.37
555.407	87.57
555.86	89.97
556.313	85.27
556.765	88.67
557.218	87.57
557.67	86.77
558.123	89.27
558.576	82.77
559.028	85.47
559.48	88.87
559.933	80.37
560.385	88.97
560.838	86.27
561.29	86.57
561.742	83.37
562.195	84.07
562.647	89.87
563.099	85.47
563.551	85.67
564.004	85.07
564.456	83.97
564.908	84.77
565.36	84.77
565.812	84.37
566.264	86.37
566.716	85.17
567.168	85.77
567.62	88.07
568.072	86.87
568.524	84.67
568.976	87.77
569.428	84.57
569.88	81.37
570.332	90.47
570.784	85.17
571.235	84.47
571.687	83.47
572.139	82.67
572.59	87.47
573.042	82.17
573.494	80.97
573.945	84.27
574.397	87.07
574.849	88.77
575.3	85.07
575.752	84.07
576.203	88.27
576.655	83.07
577.106	88.77
577.557	84.77
578.009	86.17
578.46	86.47
578.912	82.97
579.363	86.27
579.814	84.97
580.265	88.27
580.717	88.77
581.168	81.97
581.619	88.17
582.07	87.97
582.521	86.17
582.972	86.27
583.423	89.47
583.875	84.97
584.326	87.87
584.777	86.27
585.227	80.27
585.678	84.47
586.129	89.27
586.58	88.27
587.031	84.77
587.482	84.37
587.933	88.97
588.384	85.47
588.834	89.67
589.285	89.27
589.736	83.87
590.186	87.67
590.637	84.17
591.088	87.37
591.538	83.57
591.989	85.07
592.439	83.37
592.89	86.97
593.34	79.77
593.791	81.87
594.241	89.27
594.692	85.47
595.142	87.97
595.593	87.67
596.043	80.27
596.493	85.27
596.943	84.57
597.394	85.97
597.844	82.17
598.294	84.57
598.744	87.17
599.195	89.37
599.645	88.47
600.095	82.87
600.545	82.97
600.995	88.87
601.445	87.37
601.895	88.07
602.345	89.67
602.795	82.67
603.245	88.17
603.695	85.87
604.145	90.57
604.594	87.67
605.044	83.77
605.494	83.57
605.944	85.47
606.393	89.27
606.843	84.47
607.293	88.77
607.743	80.37
608.192	88.07
608.642	86.27
609.091	83.67
609.541	80.47
609.99	80.57
610.44	87.07
610.889	88.27
611.339	86.07
611.788	86.37
612.238	89.97
612.687	86.27
613.136	81.37
613.586	85.17
614.035	87.47
614.484	83.27
614.933	85.47
615.383	88.47
615.832	92.07
616.281	83.57
616.73	86.17
617.179	89.77
617.628	85.07
618.077	83.37
618.526	85.17
618.975	85.57
619.424	81.37
619.873	80.17
620.322	79.97
620.771	78.87
621.22	85.37
621.669	80.87
622.118	80.57
622.567	90.37
623.015	83.47
623.464	86.37
623.913	82.77
624.361	87.87
624.81	88.97
625.259	85.27
625.707	81.57
626.156	85.57
626.604	85.97
627.053	82.47
627.501	91.37
627.95	89.37
628.398	84.67
628.847	85.07
629.295	87.77
629.744	89.57
630.192	82.07
630.64	86.27
631.089	82.37
631.537	84.67
631.985	82.07
632.433	88.47
632.881	81.97
633.33	83.47
633.778	83.27
634.226	85.57
634.674	86.37
635.122	85.97
635.57	83.57
636.018	79.47
636.466	84.67
636.914	83.67
637.362	87.07
637.81	84.47
638.258	83.17
638.705	82.77
639.153	90.17
639.601	82.07
640.049	82.37
640.497	81.97
640.944	85.97
641.392	78.17
641.84	80.27
642.287	83.67
642.735	83.77
643.182	86.57
643.63	83.07
644.078	82.87
644.525	84.27
644.973	80.37
645.42	83.27
645.867	82.77
646.315	86.57
646.762	82.27
647.21	80.87
647.657	80.17
648.104	84.77
648.551	87.77
648.999	86.77
649.446	83.77
649.893	85.77
650.34	88.17
650.787	83.77
651.234	84.27
651.682	85.27
652.129	82.37
652.576	82.67
653.023	88.17
653.47	91.17
653.917	92.77
654.363	97.37
654.81	100.87
655.257	105.67
655.704	86.77
656.151	83.97
656.598	83.37
657.044	83.07
657.491	80.27
657.938	82.97
658.385	88.17
658.831	83.27
659.278	83.27
659.724	82.87
660.171	87.07
660.618	81.47
661.064	80.77
661.511	84.67
661.957	83.87
662.404	81.77
662.85	83.57
663.296	84.07
663.743	86.17
664.189	84.37
664.635	81.27
665.082	81.87
665.528	82.47
665.974	88.87
666.42	84.37
666.867	82.07
667.313	79.47
667.759	82.17
668.205	87.17
668.651	84.37
669.097	85.17
669.543	82.77
669.989	85.47
670.435	81.37
670.881	83.47
671.327	83.27
671.773	83.07
672.219	79.07
672.665	84.27
673.11	80.97
673.556	84.67
674.002	80.47
674.448	83.27
674.893	87.67
675.339	83.97
675.785	84.27
676.23	88.67
676.676	87.27
677.122	87.57
677.567	85.97
678.013	87.67
678.458	88.87
678.904	93.57
679.349	84.17
679.794	84.67
680.24	80.17
680.685	82.77
681.131	84.57
681.576	81.17
682.021	79.87
682.466	84.87
682.912	86.67
683.357	82.37
683.802	85.97
684.247	85.77
684.692	82.17
685.137	84.57
685.583	84.67
686.028	80.37
686.473	85.77
686.918	87.67
687.363	84.57
687.807	83.47
688.252	86.87
688.697	87.47
689.142	84.67
689.587	81.87
690.032	85.47
690.477	81.37
690.921	80.97
691.366	85.67
691.811	85.17
692.255	81.87
692.7	85.87
693.145	86.67
693.589	87.37
694.034	86.57
694.478	84.47
694.923	83.17
695.367	80.97
695.812	76.67
696.256	82.57
696.701	84.67
697.145	80.97
697.59	82.17
698.034	84.17
698.478	82.87
698.922	84.67
699.367	79.17
699.811	85.87
700.255	87.27
700.699	89.57
701.143	86.77
701.588	86.17
702.032	84.87
702.476	86.87
702.92	86.07
703.364	89.47
703.808	82.57
704.252	82.77
704.696	83.07
705.14	87.47
705.584	82.97
706.027	79.67
706.471	87.17
706.915	84.57
707.359	81.07
707.803	84.77
708.246	83.07
708.69	84.57
709.134	90.27
709.577	82.07
710.021	82.37
710.465	85.17
710.908	81.57
711.352	85.97
711.795	86.07
712.239	84.97
712.682	87.67
713.126	82.57
713.569	81.77
714.012	81.47
714.456	84.87
714.899	79.17
715.342	88.07
715.786	86.47
716.229	90.87
716.672	80.87
717.115	82.27
717.558	85.27
718.002	82.07
718.445	82.47
718.888	79.97
719.331	86.77
719.774	81.57
720.217	87.27
720.66	87.47
721.103	83.87
721.546	88.07
721.989	84.07
722.432	80.47
722.874	80.07
723.317	89.37
723.76	88.77
724.203	85.77
724.645	88.17
725.088	88.67
725.531	83.97
725.974	83.57
726.416	89.67
726.859	87.47
727.301	86.97
727.744	84.17
728.187	86.97
728.629	81.47
729.071	82.17
729.514	88.37
729.956	80.87
730.399	87.87
730.841	84.77
731.283	81.87
731.726	84.87
732.168	84.47
732.61	84.27
733.053	82.27
733.495	88.97
733.937	82.77
734.379	79.67
734.821	80.57
735.263	85.07
735.705	82.67
736.148	81.37
736.59	88.37
737.032	81.17
737.474	85.57
737.916	83.97
738.357	88.47
738.799	84.67
739.241	86.57
739.683	81.57
740.125	78.97
740.567	77.97
741.008	76.67
741.45	86.47
741.892	84.57
742.334	87.97
742.775	82.77
743.217	84.07
743.658	85.57
744.1	88.37
744.542	80.17
744.983	88.87
745.425	89.57
745.866	87.27
746.307	86.67
746.749	81.17
747.19	89.17
747.632	83.27
748.073	84.97
748.514	95.27
748.956	87.67
749.397	86.07
749.838	83.17
750.279	81.47
750.72	86.37
751.162	86.27
751.603	81.97
752.044	81.07
752.485	79.77
752.926	85.57
753.367	82.97
753.808	87.27
754.249	87.77
754.69	86.77
755.131	84.67
755.572	80.07
756.013	79.17
756.453	82.37
756.894	83.17
757.335	90.37
757.776	87.87
758.216	88.57
758.657	87.67
759.098	84.17
759.538	86.87
759.979	88.27
760.42	89.07
760.86	85.97
761.301	84.97
761.741	81.87
762.182	77.57
762.622	85.07
763.063	79.17
763.503	87.77
763.943	83.37
764.384	85.07
764.824	88.47
765.264	84.47
765.705	81.87
766.145	84.27
766.585	91.37
767.025	87.07
767.465	82.17
767.906	84.37
768.346	84.17
768.786	88.17
769.226	86.47
769.666	88.77
770.106	87.07
770.546	81.37
770.986	85.67
771.426	81.87
771.866	87.87
772.306	88.57
772.745	82.47
773.185	86.67
773.625	86.97
774.065	83.57
774.505	87.97
774.944	85.27
775.384	83.97
775.824	83.07
776.263	84.17
776.703	81.27
777.142	84.37
777.582	86.67
778.021	84.57
778.461	79.47
778.9	83.77
779.34	86.77
779.779	81.87
780.219	80.57
780.658	86.07
781.097	87.57
781.537	90.77
781.976	85.07
782.415	81.87
782.855	84.57
783.294	83.27
783.733	86.57
784.172	85.67
784.611	84.07
785.05	87.37
785.489	80.57
785.928	85.07
786.367	87.17
786.806	85.37
787.245	83.17
787.684	82.27
788.123	87.57
788.562	84.97
789.001	80.57
789.44	83.67
789.879	85.97
790.317	86.67
790.756	85.17
791.195	82.17
791.634	82.97
792.072	82.47
792.511	85.97
792.95	85.77
793.388	77.17
793.827	84.67
794.265	87.27
794.704	86.17
795.142	89.27
795.581	86.97
796.019	82.87
796.458	83.57
796.896	84.37
797.334	88.97
797.773	84.97
798.211	85.97
798.649	85.87
799.087	78.97
799.526	85.27
799.964	88.77
800.402	78.37
800.84	80.57
801.278	87.07
801.716	82.87
802.154	82.57
802.592	80.47
803.03	88.57
803.468	82.47
803.906	86.77
804.344	83.57
804.782	85.77
805.22	86.47
805.658	80.67
806.096	89.77
806.533	87.97
806.971	89.37
807.409	78.27
807.847	82.97
808.284	80.87
808.722	78.17
809.16	82.67
809.597	90.27
810.035	84.77
810.472	83.77
810.91	82.47
811.347	86.57
811.785	84.27
812.222	86.37
812.66	87.67
813.097	84.17
813.535	78.27
813.972	83.27
814.409	82.97
814.846	85.37
815.284	83.27
815.721	87.47
816.158	85.87
816.595	84.17
817.032	84.77
817.47	84.57
817.907	82.67
818.344	85.27
818.781	83.07
819.218	82.07
819.655	84.17
820.092	86.67
820.529	82.77
820.966	81.37
821.403	83.47
821.839	81.77
822.276	89.87
822.713	84.47
823.15	89.67
823.587	86.07
824.023	84.97
824.46	80.07
824.897	89.97
825.333	82.17
825.77	86.77
826.206	88.37
826.643	80.57
827.08	82.47
827.516	84.07
827.953	83.77
828.389	78.57
828.825	81.57
829.262	81.47
829.698	90.07
830.135	87.97
830.571	81.77
831.007	81.87
831.443	80.07
831.88	81.97
832.316	80.87
832.752	86.77
833.188	80.67
833.624	83.97
834.06	85.87
834.497	87.87
834.933	86.27
835.369	86.87
835.805	88.17
836.241	86.27
836.677	83.17
837.112	82.17
837.548	81.97
837.984	82.67
838.42	83.47
838.856	81.67
839.292	80.07
839.727	80.47
840.163	86.57
840.599	85.17
841.034	78.27
841.47	83.07
841.906	81.57
842.341	84.47
842.777	83.47
843.212	81.27
843.648	81.97
844.083	88.37
844.519	85.67
844.954	84.77
845.39	86.47
845.825	85.17
846.261	87.87
846.696	81.37
847.131	85.07
847.566	90.27
848.002	84.37
848.437	82.67
848.872	82.17
849.307	83.07
849.742	84.27
850.177	79.37
850.613	81.27
851.048	81.17
851.483	83.67
851.918	83.37
852.353	79.07
852.788	83.27
853.223	87.17
853.657	86.07
854.092	86.67
854.527	87.37
854.962	78.47
855.397	82.17
855.832	81.87
856.266	85.67
856.701	86.57
857.136	85.97
857.57	89.57
858.005	85.57
858.44	85.67
858.874	85.17
859.309	81.47
859.743	83.57
860.178	84.17
860.612	83.17
861.047	82.07
861.481	85.57
861.915	87.97
862.35	81.57
862.784	80.77
863.218	86.17
863.653	82.67
864.087	84.07
864.521	81.47
864.955	87.17
865.39	78.37
865.824	84.07
866.258	83.07
866.692	88.07
867.126	78.67
867.56	82.17
867.994	84.57
868.428	83.17
868.862	83.57
869.296	85.77
869.73	79.17
870.164	77.87
870.598	84.17
871.031	83.87
871.465	79.97
871.899	81.37
872.333	81.07
872.766	82.57
873.2	86.37
873.634	85.37
874.067	87.07
874.501	77.57
874.935	85.87
875.368	80.57
875.802	80.97
876.235	79.67
876.669	81.07
877.102	82.57
877.535	85.67
877.969	85.97
878.402	87.67
878.836	83.27
879.269	83.97
879.702	86.17
880.135	82.67
880.569	84.97
881.002	83.97
881.435	86.37
881.868	83.37
882.301	84.37
882.734	84.17
883.167	80.77
883.601	84.77
884.034	84.57
884.467	80.97
884.899	87.57
885.332	78.97
885.765	77.77
886.198	77.77
886.631	85.77
887.064	86.97
887.497	75.57
887.929	85.87
888.362	83.27
888.795	85.07
889.228	88.57
889.66	83.17
890.093	81.67
890.526	85.07
890.958	81.47
891.391	84.47
891.823	78.97
892.256	84.87
892.688	83.87
893.121	80.07
893.553	81.97
893.985	84.17
894.418	81.67
894.85	80.07
895.282	85.57
895.715	84.17
896.147	81.27
896.579	85.37
897.011	83.37
897.444	85.97
897.876	78.57
898.308	84.87
898.74	85.27
899.172	84.57
899.604	83.07
900.036	79.37
900.468	84.07
900.9	87.37
901.332	80.97
901.764	77.87
902.196	79.87
902.628	85.07
903.06	84.37
903.491	85.57
903.923	84.07
904.355	82.97
904.787	85.57
905.218	82.07
905.65	84.77
906.082	84.37
906.513	83.37
906.945	77.57
907.376	87.07
907.808	86.37
908.239	86.27
908.671	84.37
909.102	82.47
909.534	90.17
909.965	79.77
910.397	82.87
910.828	84.37
911.259	89.47
911.691	78.77
912.122	82.87
912.553	84.57
912.984	85.37
913.415	83.47
913.847	81.07
914.278	85.57
914.709	83.27
915.14	87.97
915.571	79.37
916.002	79.07
916.433	87.47
916.864	85.27
917.295	88.57
917.726	84.27
918.157	86.47
918.587	83.57
919.018	83.97
919.449	82.97
919.88	79.07
920.311	79.87
920.741	82.37
921.172	84.27
921.603	79.87
922.033	81.17
922.464	79.07
922.895	77.17
923.325	83.57
923.756	79.87
924.186	84.67
924.617	81.87
925.047	81.87
925.478	83.77
925.908	82.37
926.338	83.47
926.769	82.07
927.199	83.47
927.629	86.27
928.06	82.07
928.49	84.47
928.92	85.17
929.35	80.87
929.78	85.77
930.21	85.27
930.641	91.27
931.071	86.77
931.501	78.27
931.931	88.57
932.361	83.27
932.791	85.27
933.221	88.47
933.651	83.17
934.08	85.47
934.51	87.27
934.94	82.57
935.37	81.27
935.8	85.67
936.229	85.37
936.659	86.37
937.089	81.27
937.519	82.87
937.948	82.67
938.378	78.57
938.807	82.77
939.237	87.67
939.666	81.57
940.096	83.47
940.525	83.87
940.955	83.57
941.384	90.37
941.814	84.07
942.243	82.67
942.672	82.17
943.102	82.57
943.531	79.77
943.96	82.47
944.39	83.87
944.819	82.87
945.248	87.67
945.677	82.97
946.106	82.67
946.535	87.77
946.964	86.57
947.393	84.37
947.822	84.57
948.251	81.57
948.68	80.17
949.109	84.27
949.538	78.67
949.967	80.97
950.396	82.97
950.825	86.07
951.254	81.47
951.682	82.17
952.111	82.87
952.54	85.07
952.969	79.97
953.397	84.17
953.826	83.97
954.254	83.57
954.683	82.17
955.112	84.87
955.54	74.27
955.969	80.17
956.397	81.07
956.826	80.77
957.254	85.27
957.682	81.07
958.111	80.57
958.539	77.37
958.967	85.27
959.396	86.77
959.824	81.27
960.252	82.37
960.68	84.67
961.109	77.77
961.537	81.87
961.965	76.97
962.393	83.67
962.821	84.77
963.249	87.67
963.677	83.77
964.105	81.27
964.533	80.57
964.961	83.37
965.389	81.77
965.817	86.07
966.245	81.77
966.672	85.17
967.1	83.07
967.528	86.27
967.956	82.47
968.383	82.37
968.811	81.87
969.239	80.67
969.666	84.27
970.094	85.97
970.522	85.87
970.949	83.37
971.377	84.67
971.804	79.27
972.232	80.97
972.659	85.57
973.087	84.47
973.514	83.27
973.941	83.47
974.369	83.17
974.796	79.57
975.223	87.17
975.651	80.37
976.078	79.57
976.505	88.47
976.932	83.17
977.359	79.77
977.786	81.57
978.214	87.87
978.641	84.67
979.068	83.97
979.495	82.37
979.922	82.57
980.349	79.87
980.776	84.57
981.202	78.67
981.629	80.27
982.056	80.77
982.483	77.97
982.91	84.07
983.337	81.67
983.763	82.17
984.19	78.57
984.617	77.27
985.043	79.07
985.47	84.37
985.897	82.27
986.323	81.67
986.75	88.57
987.176	83.57
987.603	77.97
988.029	83.27
988.456	81.37
988.882	87.97
989.308	83.17
989.735	83.47
990.161	84.17
990.587	82.17
991.014	84.57
991.44	84.57
991.866	85.17
992.292	86.47
992.719	86.17
993.145	83.57
993.571	81.27
993.997	81.07
994.423	84.17
994.849	78.87
995.275	84.77
995.701	83.47
996.127	79.77
996.553	78.87
996.979	86.07
997.405	84.47
997.83	77.77
998.256	80.27
998.682	84.17
999.108	77.67
999.534	87.17
999.959	82.97
1000.385	79.17
1000.811	81.37
1001.236	80.77
1001.662	85.47
1002.087	78.57
1002.513	85.87
1002.938	80.27
1003.364	84.37
1003.789	80.27
1004.215	84.67
1004.64	83.37
1005.066	78.87
1005.491	82.77
1005.916	81.47
1006.342	78.27
1006.767	79.67
1007.192	83.97
1007.617	82.57
1008.042	82.37
1008.468	77.17
1008.893	79.97
1009.318	79.67
1009.743	80.57
1010.168	81.37
1010.593	79.77
1011.018	77.77
1011.443	81.87
1011.868	79.37
1012.293	82.67
1012.718	84.27
1013.143	85.07
1013.567	81.07
1013.992	86.17
1014.417	84.57
1014.842	84.27
1015.267	85.77
1015.691	81.07
1016.116	84.07
1016.541	79.67
1016.965	88.57
1017.39	84.97
1017.814	83.97
1018.239	82.07
1018.663	82.77
1019.088	84.07
1019.512	81.27
1019.937	82.17
1020.361	85.57
1020.785	82.47
1021.21	80.07
1021.634	80.27
1022.058	81.17
1022.483	81.27
1022.907	80.97
1023.331	78.87
1023.755	84.37
1024.179	84.57
1024.604	85.37
1025.028	82.97
1025.452	85.67
1025.876	78.77
1026.3	82.57
1026.724	84.37
1027.148	85.27
1027.572	86.57
1027.996	84.77
1028.42	79.67
1028.843	81.07
1029.267	78.57
1029.691	76.17
1030.115	84.67
1030.539	82.37
1030.962	81.57
1031.386	82.07
1031.81	76.67
1032.233	85.77
1032.657	78.77
1033.08	80.87
1033.504	85.17
1033.927	81.37
1034.351	79.17
1034.774	82.87
1035.198	79.17
1035.621	83.37
1036.045	84.77
1036.468	84.77
1036.891	84.57
1037.315	86.87
1037.738	80.07
1038.161	87.37
1038.584	84.67
1039.008	83.97
1039.431	81.07
1039.854	79.07
1040.277	78.57
1040.7	86.37
1041.123	86.37
1041.546	81.57
1041.969	79.17
1042.392	81.87
1042.815	81.47
1043.238	80.97
1043.661	84.57
1044.084	83.37
1044.507	88.47
1044.93	78.27
1045.352	81.67
1045.775	83.07
1046.198	80.07
1046.621	83.17
1047.043	81.57
1047.466	80.17
1047.889	80.67
1048.311	85.77
1048.734	85.57
1049.156	83.17
1049.579	83.87
1050.001	86.57
1050.424	85.37
1050.846	82.07
1051.269	87.27
1051.691	79.07
1052.113	88.47
1052.536	83.37
1052.958	80.77
1053.38	83.07
1053.802	84.17
1054.225	84.97
1054.647	78.67
1055.069	83.57
1055.491	86.17
1055.913	85.87
1056.335	83.37
1056.757	85.67
1057.179	79.77
1057.601	84.67
1058.023	83.87
1058.445	84.37
1058.867	82.47
1059.289	81.47
1059.711	84.17
1060.133	78.77
1060.555	81.37
1060.976	84.97
1061.398	82.67
1061.82	83.17
1062.241	82.67
1062.663	82.17
1063.085	86.07
1063.506	85.17
1063.928	79.87
1064.35	83.07
1064.771	82.47
1065.193	83.67
1065.614	84.77
1066.035	79.07
1066.457	87.47
1066.878	84.07
1067.3	87.17
1067.721	84.17
1068.142	82.87
1068.564	86.17
1068.985	77.57
1069.406	78.27
1069.827	81.77
1070.248	82.67
1070.67	82.67
1071.091	83.27
1071.512	84.77
1071.933	84.77
1072.354	84.67
1072.775	81.57
1073.196	81.87
1073.617	79.07
1074.038	82.27
1074.459	83.07
1074.88	82.57
1075.3	84.07
1075.721	81.67
1076.142	82.87
1076.563	79.67
1076.983	86.87
1077.404	85.47
1077.825	81.87
1078.246	83.97
1078.666	78.67
1079.087	77.27
1079.507	83.17
1079.928	81.57
1080.348	75.67
1080.769	80.57
1081.189	84.97
1081.61	80.07
1082.03	79.67
1082.451	78.97
1082.871	79.57
1083.291	76.47
1083.711	83.67
1084.132	83.17
1084.552	81.27
1084.972	87.87
1085.392	83.67
1085.813	84.87
1086.233	88.87
1086.653	85.77
1087.073	79.67
1087.493	86.27
1087.913	79.37
1088.333	84.07
1088.753	87.27
1089.173	84.37
1089.593	82.27
1090.013	80.67
1090.433	84.57
1090.852	82.87
1091.272	87.57
1091.692	79.47
1092.112	83.27
1092.531	82.97
1092.951	81.47
1093.371	82.77
1093.79	83.97
1094.21	86.57
1094.63	89.87
1095.049	81.87
1095.469	87.27
1095.888	80.47
1096.308	79.97
1096.727	83.07
1097.146	84.37
1097.566	80.77
1097.985	84.27
1098.405	80.87
1098.824	81.57
1099.243	89.07
1099.662	86.97
1100.082	77.97
1100.501	82.77
1100.92	78.87
1101.339	83.07
1101.758	83.27
