Data from DH-3PlusCalLight-Halogen_HRD10391_13-39-48-159.txt Node
Date: Thu Feb 15 13:39:48 EST 2018
User: Ender
Spectrometer: HR+D1039
Trigger mode: 0
Integration Time (sec): 2.730000E-2
Scans to average: 10
Electric dark correction enabled: true
Nonlinearity correction enabled: false
Boxcar width: 0
XAxis mode: Wavelengths
Number of Pixels in Spectrum: 2048
>>>>>Begin Spectral Data<<<<<
187.836	3.49
188.309	3.49
188.782	3.49
189.255	-5.51
189.728	-7.51
190.201	-6.61
190.674	-8.81
191.147	-6.11
191.619	-10.51
192.092	-4.41
192.565	-2.91
193.038	-2.11
193.511	-0.01
193.984	-1.01
194.456	6.19
194.929	12.49
195.402	18.19
195.874	15.19
196.347	18.59
196.82	23.39
197.292	34.59
197.765	28.99
198.237	33.99
198.71	41.99
199.182	41.99
199.655	41.19
200.127	51.79
200.6	55.49
201.072	60.99
201.544	62.79
202.017	66.99
202.489	64.69
202.961	66.99
203.433	70.99
203.906	73.39
204.378	79.89
204.85	76.99
205.322	75.29
205.794	80.29
206.266	80.19
206.739	83.39
207.211	81.49
207.683	84.09
208.155	82.89
208.627	83.29
209.099	89.09
209.57	84.69
210.042	83.79
210.514	80.09
210.986	81.79
211.458	84.19
211.93	88.69
212.402	86.19
212.873	84.99
213.345	82.09
213.817	81.49
214.288	87.99
214.76	86.29
215.232	82.99
215.703	84.09
216.175	79.79
216.646	81.09
217.118	83.79
217.589	77.99
218.061	79.49
218.532	74.29
219.004	81.89
219.475	84.49
219.946	77.89
220.418	75.49
220.889	78.99
221.36	81.09
221.832	78.59
222.303	78.89
222.774	77.59
223.245	73.89
223.717	78.29
224.188	81.19
224.659	76.29
225.13	83.49
225.601	73.59
226.072	68.69
226.543	75.99
227.014	72.39
227.485	76.69
227.956	80.29
228.427	75.19
228.898	76.29
229.369	79.19
229.839	81.49
230.31	77.99
230.781	77.79
231.252	73.69
231.722	79.39
232.193	75.89
232.664	76.89
233.135	78.79
233.605	78.19
234.076	77.79
234.546	81.49
235.017	76.59
235.487	79.09
235.958	77.39
236.428	76.79
236.899	83.89
237.369	84.69
237.84	77.19
238.31	78.79
238.78	79.99
239.251	79.99
239.721	82.59
240.191	79.99
240.662	77.79
241.132	78.09
241.602	81.59
242.072	83.39
242.542	76.79
243.013	79.89
243.483	76.89
243.953	77.89
244.423	83.39
244.893	79.79
245.363	81.69
245.833	83.29
246.303	79.39
246.773	78.49
247.243	83.09
247.712	79.69
248.182	79.99
248.652	78.99
249.122	78.19
249.592	76.19
250.061	79.39
250.531	80.09
251.001	84.79
251.471	86.19
251.94	80.09
252.41	81.99
252.879	78.29
253.349	84.49
253.818	79.89
254.288	84.69
254.757	78.99
255.227	80.39
255.696	79.29
256.166	87.09
256.635	83.69
257.105	82.49
257.574	87.69
258.043	82.09
258.513	80.59
258.982	81.19
259.451	83.59
259.92	82.89
260.389	83.79
260.859	80.89
261.328	78.19
261.797	84.29
262.266	82.19
262.735	80.19
263.204	82.79
263.673	88.09
264.142	83.69
264.611	88.59
265.08	81.29
265.549	77.59
266.018	80.69
266.487	83.29
266.955	82.39
267.424	78.19
267.893	77.39
268.362	81.79
268.83	81.29
269.299	82.39
269.768	81.09
270.236	82.69
270.705	84.29
271.174	83.69
271.642	77.59
272.111	84.89
272.579	79.49
273.048	80.09
273.516	83.99
273.985	89.39
274.453	85.79
274.922	85.19
275.39	86.99
275.858	84.79
276.327	85.39
276.795	83.49
277.263	88.69
277.731	85.39
278.2	77.49
278.668	84.79
279.136	79.59
279.604	83.89
280.072	85.39
280.54	85.89
281.008	85.09
281.477	79.99
281.945	77.99
282.413	86.29
282.881	88.79
283.348	84.59
283.816	87.49
284.284	81.09
284.752	78.29
285.22	84.29
285.688	84.99
286.156	84.29
286.623	87.79
287.091	88.59
287.559	88.09
288.026	85.79
288.494	83.99
288.962	84.49
289.429	87.69
289.897	82.09
290.364	87.09
290.832	81.19
291.3	87.79
291.767	86.39
292.234	82.99
292.702	87.89
293.169	80.89
293.637	86.09
294.104	87.59
294.571	86.19
295.039	85.69
295.506	84.79
295.973	82.39
296.44	86.89
296.908	89.39
297.375	89.69
297.842	89.59
298.309	90.39
298.776	83.69
299.243	84.79
299.71	88.19
300.177	81.59
300.644	81.09
301.111	87.89
301.578	82.49
302.045	82.89
302.512	85.49
302.979	89.99
303.446	87.09
303.913	79.69
304.379	86.29
304.846	90.69
305.313	82.99
305.78	86.39
306.246	82.29
306.713	83.29
307.18	86.29
307.646	85.19
308.113	84.09
308.579	87.69
309.046	83.09
309.512	87.29
309.979	85.09
310.445	91.59
310.912	83.59
311.378	85.09
311.845	86.89
312.311	89.39
312.777	88.09
313.244	86.29
313.71	87.59
314.176	86.49
314.642	85.29
315.109	84.79
315.575	89.39
316.041	88.59
316.507	90.29
316.973	86.99
317.439	86.29
317.905	87.19
318.371	88.39
318.837	85.99
319.303	86.19
319.769	86.39
320.235	84.69
320.701	83.49
321.167	84.59
321.633	86.39
322.099	81.69
322.564	85.09
323.03	85.59
323.496	88.59
323.962	88.89
324.427	83.69
324.893	82.19
325.359	92.09
325.824	90.09
326.29	87.49
326.755	86.49
327.221	80.79
327.686	85.59
328.152	88.49
328.617	86.59
329.083	88.69
329.548	90.39
330.014	85.99
330.479	90.69
330.944	83.89
331.41	87.59
331.875	90.99
332.34	93.09
332.805	91.49
333.271	87.99
333.736	87.09
334.201	87.89
334.666	85.59
335.131	86.89
335.596	92.19
336.061	89.59
336.526	91.19
336.991	89.99
337.456	92.29
337.921	89.79
338.386	93.69
338.851	89.19
339.316	85.19
339.781	88.89
340.246	85.89
340.711	87.39
341.175	86.89
341.64	90.19
342.105	87.99
342.569	82.19
343.034	85.09
343.499	88.29
343.963	82.69
344.428	85.09
344.893	88.59
345.357	87.79
345.822	89.39
346.286	88.89
346.751	90.59
347.215	84.99
347.679	91.39
348.144	88.89
348.608	85.59
349.073	83.39
349.537	90.39
350.001	83.59
350.465	89.39
350.93	90.99
351.394	86.49
351.858	91.69
352.322	90.29
352.786	91.89
353.25	84.99
353.715	87.39
354.179	90.89
354.643	90.29
355.107	87.89
355.571	87.99
356.035	87.79
356.498	82.39
356.962	85.89
357.426	92.69
357.89	87.19
358.354	89.29
358.818	95.29
359.281	88.59
359.745	90.19
360.209	90.79
360.673	89.59
361.136	88.69
361.6	86.59
362.064	89.79
362.527	90.69
362.991	90.39
363.454	88.29
363.918	87.79
364.381	92.79
364.845	90.49
365.308	91.69
365.772	82.79
366.235	83.09
366.698	90.09
367.162	91.39
367.625	95.69
368.088	85.29
368.552	89.49
369.015	97.39
369.478	94.39
369.941	88.79
370.404	92.59
370.867	93.29
371.331	87.89
371.794	95.79
372.257	91.89
372.72	94.89
373.183	94.59
373.646	93.29
374.109	89.39
374.572	93.49
375.035	96.79
375.497	94.49
375.96	95.89
376.423	98.29
376.886	96.69
377.349	96.89
377.811	95.19
378.274	93.79
378.737	97.19
379.199	97.79
379.662	99.09
380.125	105.09
380.587	99.69
381.05	100.99
381.512	98.69
381.975	104.19
382.437	105.79
382.9	98.79
383.362	105.69
383.825	106.89
384.287	99.39
384.75	105.89
385.212	102.29
385.674	107.39
386.136	104.49
386.599	100.99
387.061	104.99
387.523	109.59
387.985	105.99
388.447	111.89
388.91	105.29
389.372	103.49
389.834	109.09
390.296	112.09
390.758	112.39
391.22	110.79
391.682	113.69
392.144	113.59
392.606	112.39
393.068	114.09
393.529	118.89
393.991	114.99
394.453	110.89
394.915	116.69
395.377	122.19
395.838	118.39
396.3	119.39
396.762	118.99
397.224	120.69
397.685	124.09
398.147	122.09
398.608	122.99
399.07	124.49
399.531	124.79
399.993	129.79
400.454	126.49
400.916	131.09
401.377	132.89
401.839	123.19
402.3	134.29
402.762	133.29
403.223	136.99
403.684	138.39
404.145	143.69
404.607	145.99
405.068	144.89
405.529	146.49
405.99	143.49
406.451	148.79
406.913	154.29
407.374	153.09
407.835	160.49
408.296	159.49
408.757	160.29
409.218	171.89
409.679	168.99
410.14	172.69
410.601	173.59
411.062	176.69
411.522	182.99
411.983	183.89
412.444	191.89
412.905	197.09
413.366	199.39
413.826	200.29
414.287	204.89
414.748	204.29
415.208	210.19
415.669	215.09
416.13	225.09
416.59	228.19
417.051	229.69
417.511	236.39
417.972	247.39
418.432	244.89
418.893	261.79
419.353	258.69
419.814	269.49
420.274	270.19
420.734	278.39
421.195	286.49
421.655	286.59
422.115	299.89
422.576	298.99
423.036	318.89
423.496	327.89
423.956	332.09
424.416	340.99
424.876	360.09
425.336	362.89
425.797	383.29
426.257	385.59
426.717	406.69
427.177	423.59
427.637	417.49
428.097	436.49
428.556	443.19
429.016	461.59
429.476	483.59
429.936	493.99
430.396	501.49
430.856	518.29
431.315	523.99
431.775	551.09
432.235	566.89
432.694	576.59
433.154	591.29
433.614	602.79
434.073	636.19
434.533	634.29
434.993	649.19
435.452	672.69
435.912	669.29
436.371	690.59
436.83	708.79
437.29	720.79
437.749	740.59
438.209	766.69
438.668	772.29
439.127	793.99
439.587	800.79
440.046	818.09
440.505	850.69
440.964	853.79
441.424	871.19
441.883	892.39
442.342	906.79
442.801	919.69
443.26	946.69
443.719	972.69
444.178	977.99
444.637	1008.89
445.096	1023.19
445.555	1032.39
446.014	1034.99
446.473	1044.59
446.932	1072.89
447.391	1100.09
447.849	1140.89
448.308	1116.59
448.767	1133.89
449.226	1156.49
449.685	1169.89
450.143	1188.59
450.602	1222.29
451.061	1206.79
451.519	1240.59
451.978	1264.29
452.436	1279.59
452.895	1285.79
453.353	1293.99
453.812	1298.49
454.27	1333.69
454.729	1355.69
455.187	1354.09
455.646	1362.79
456.104	1368.29
456.562	1394.19
457.021	1403.49
457.479	1383.09
457.937	1418.39
458.395	1454.69
458.854	1441.49
459.312	1435.89
459.77	1433.39
460.228	1448.39
460.686	1493.59
461.144	1476.89
461.602	1461.19
462.06	1458.19
462.518	1484.59
462.976	1466.09
463.434	1466.29
463.892	1458.59
464.35	1474.09
464.808	1481.79
465.266	1472.19
465.724	1477.09
466.181	1489.79
466.639	1474.59
467.097	1506.79
467.555	1541.89
468.012	1507.49
468.47	1514.09
468.928	1531.39
469.385	1541.69
469.843	1576.39
470.3	1546.89
470.758	1582.19
471.215	1578.19
471.673	1603.49
472.13	1620.19
472.588	1669.09
473.045	1674.59
473.503	1716.69
473.96	1768.99
474.417	1755.99
474.875	1798.29
475.332	1816.19
475.789	1828.19
476.246	1871.89
476.704	1898.59
477.161	1923.39
477.618	1945.39
478.075	1988.69
478.532	2059.29
478.989	2086.09
479.446	2116.99
479.903	2145.09
480.36	2238.89
480.817	2237.59
481.274	2288.19
481.731	2313.59
482.188	2347.59
482.645	2422.99
483.102	2418.39
483.558	2447.59
484.015	2501.09
484.472	2571.69
484.929	2621.59
485.385	2634.89
485.842	2658.99
486.299	2720.59
486.755	2720.59
487.212	2725.69
487.668	2774.69
488.125	2801.69
488.582	2777.79
489.038	2799.69
489.494	2827.59
489.951	2845.09
490.407	2880.79
490.864	2882.39
491.32	2886.19
491.776	2893.59
492.233	2902.09
492.689	2881.09
493.145	2902.19
493.602	2877.59
494.058	2915.09
494.514	2924.29
494.97	2918.09
495.426	2918.89
495.882	2924.69
496.338	2890.89
496.794	2915.59
497.251	2916.49
497.707	2939.09
498.163	2946.39
498.618	2938.99
499.074	2908.99
499.53	2948.69
499.986	2941.39
500.442	2950.59
500.898	2936.99
501.354	2964.39
501.809	2968.79
502.265	2939.79
502.721	2934.39
503.177	2969.29
503.632	2961.59
504.088	2948.09
504.543	2946.69
504.999	2968.39
505.455	2943.39
505.91	2953.89
506.366	2950.69
506.821	2962.59
507.277	2952.49
507.732	2965.59
508.187	2939.29
508.643	2951.09
509.098	2936.59
509.553	2944.79
510.009	2917.79
510.464	2927.39
510.919	2928.19
511.375	2933.29
511.83	2882.79
512.285	2868.69
512.74	2896.79
513.195	2879.49
513.65	2852.59
514.105	2847.39
514.56	2825.19
515.015	2827.19
515.47	2810.29
515.925	2805.99
516.38	2815.99
516.835	2810.39
517.29	2791.99
517.745	2766.69
518.2	2762.49
518.655	2754.99
519.109	2737.59
519.564	2724.79
520.019	2732.69
520.474	2717.39
520.928	2701.59
521.383	2688.09
521.838	2699.89
522.292	2689.49
522.747	2666.09
523.201	2683.29
523.656	2661.59
524.11	2670.49
524.565	2661.29
525.019	2658.79
525.474	2658.59
525.928	2654.59
526.382	2651.09
526.837	2652.29
527.291	2666.79
527.745	2646.69
528.2	2666.69
528.654	2634.69
529.108	2653.39
529.562	2634.69
530.016	2659.89
530.47	2664.99
530.925	2657.59
531.379	2652.89
531.833	2669.59
532.287	2662.09
532.741	2669.99
533.195	2654.89
533.649	2660.09
534.103	2659.09
534.556	2654.79
535.01	2654.69
535.464	2655.89
535.918	2666.79
536.372	2680.49
536.826	2654.39
537.279	2631.99
537.733	2672.79
538.187	2659.39
538.64	2648.29
539.094	2664.79
539.548	2664.09
540.001	2647.39
540.455	2629.99
540.908	2616.09
541.362	2625.29
541.815	2639.29
542.269	2636.79
542.722	2604.79
543.175	2610.49
543.629	2589.89
544.082	2605.49
544.536	2578.49
544.989	2574.29
545.442	2572.29
545.895	2573.99
546.349	2548.89
546.802	2560.19
547.255	2522.39
547.708	2541.49
548.161	2540.49
548.614	2539.89
549.067	2536.79
549.52	2533.89
549.973	2516.69
550.426	2527.49
550.879	2516.79
551.332	2539.29
551.785	2520.29
552.238	2530.39
552.691	2522.09
553.144	2531.79
553.596	2536.09
554.049	2543.39
554.502	2553.39
554.955	2557.09
555.407	2537.09
555.86	2559.39
556.313	2567.09
556.765	2555.79
557.218	2573.39
557.67	2578.59
558.123	2573.79
558.576	2576.09
559.028	2585.29
559.48	2598.39
559.933	2592.99
560.385	2599.49
560.838	2600.89
561.29	2587.29
561.742	2628.89
562.195	2624.79
562.647	2630.49
563.099	2637.59
563.551	2607.29
564.004	2620.39
564.456	2638.99
564.908	2638.99
565.36	2650.59
565.812	2628.49
566.264	2645.59
566.716	2639.09
567.168	2645.99
567.62	2660.69
568.072	2641.29
568.524	2647.89
568.976	2652.09
569.428	2643.29
569.88	2629.49
570.332	2636.29
570.784	2634.29
571.235	2623.59
571.687	2648.39
572.139	2632.39
572.59	2621.29
573.042	2597.89
573.494	2611.09
573.945	2596.99
574.397	2569.09
574.849	2591.79
575.3	2583.39
575.752	2572.79
576.203	2541.89
576.655	2591.09
577.106	2563.09
577.557	2542.79
578.009	2557.49
578.46	2559.49
578.912	2513.89
579.363	2544.69
579.814	2547.89
580.265	2526.49
580.717	2537.39
581.168	2540.39
581.619	2519.49
582.07	2539.29
582.521	2515.69
582.972	2500.69
583.423	2540.79
583.875	2521.19
584.326	2529.29
584.777	2522.99
585.227	2522.89
585.678	2512.99
586.129	2510.49
586.58	2521.09
587.031	2539.99
587.482	2520.19
587.933	2504.39
588.384	2529.69
588.834	2508.09
589.285	2544.09
589.736	2535.89
590.186	2539.79
590.637	2535.39
591.088	2541.19
591.538	2568.69
591.989	2557.89
592.439	2528.89
592.89	2563.29
593.34	2540.59
593.791	2559.29
594.241	2558.49
594.692	2571.29
595.142	2582.89
595.593	2570.29
596.043	2568.79
596.493	2580.29
596.943	2536.89
597.394	2588.49
597.844	2557.39
598.294	2585.09
598.744	2564.39
599.195	2585.09
599.645	2593.29
600.095	2587.39
600.545	2592.69
600.995	2599.39
601.445	2593.69
601.895	2601.09
602.345	2613.29
602.795	2593.59
603.245	2593.99
603.695	2619.79
604.145	2607.99
604.594	2604.09
605.044	2588.99
605.494	2589.29
605.944	2605.99
606.393	2625.09
606.843	2608.09
607.293	2615.09
607.743	2617.99
608.192	2615.99
608.642	2610.59
609.091	2603.29
609.541	2624.49
609.99	2623.19
610.44	2595.49
610.889	2636.19
611.339	2632.19
611.788	2605.69
612.238	2634.29
612.687	2625.89
613.136	2609.29
613.586	2620.29
614.035	2603.09
614.484	2601.89
614.933	2608.69
615.383	2584.29
615.832	2596.79
616.281	2608.29
616.73	2603.39
617.179	2609.89
617.628	2601.79
618.077	2596.99
618.526	2594.09
618.975	2602.19
619.424	2566.09
619.873	2612.99
620.322	2588.29
620.771	2616.59
621.22	2592.19
621.669	2579.09
622.118	2577.59
622.567	2612.99
623.015	2597.79
623.464	2584.09
623.913	2583.49
624.361	2599.29
624.81	2580.99
625.259	2609.19
625.707	2580.39
626.156	2597.79
626.604	2581.49
627.053	2578.89
627.501	2590.99
627.95	2572.79
628.398	2592.39
628.847	2549.79
629.295	2558.79
629.744	2565.19
630.192	2533.19
630.64	2552.99
631.089	2548.59
631.537	2545.59
631.985	2548.39
632.433	2542.59
632.881	2538.69
633.33	2545.99
633.778	2521.89
634.226	2502.89
634.674	2528.19
635.122	2506.39
635.57	2507.59
636.018	2526.19
636.466	2496.69
636.914	2488.39
637.362	2517.19
637.81	2508.59
638.258	2517.39
638.705	2461.39
639.153	2510.09
639.601	2474.49
640.049	2487.09
640.497	2478.79
640.944	2486.99
641.392	2469.69
641.84	2471.39
642.287	2466.69
642.735	2457.69
643.182	2462.19
643.63	2471.49
644.078	2458.89
644.525	2449.59
644.973	2472.79
645.42	2468.89
645.867	2472.59
646.315	2438.69
646.762	2449.89
647.21	2433.29
647.657	2453.89
648.104	2457.99
648.551	2416.99
648.999	2457.09
649.446	2444.69
649.893	2416.59
650.34	2423.59
650.787	2427.19
651.234	2420.79
651.682	2425.99
652.129	2420.79
652.576	2405.19
653.023	2423.79
653.47	2398.59
653.917	2417.89
654.363	2401.59
654.81	2421.39
655.257	2400.99
655.704	2408.89
656.151	2401.19
656.598	2392.79
657.044	2383.99
657.491	2376.29
657.938	2395.49
658.385	2375.59
658.831	2378.69
659.278	2368.29
659.724	2368.79
660.171	2380.79
660.618	2357.29
661.064	2348.59
661.511	2359.99
661.957	2360.59
662.404	2361.79
662.85	2359.59
663.296	2344.39
663.743	2339.19
664.189	2344.29
664.635	2344.09
665.082	2342.09
665.528	2341.59
665.974	2338.29
666.42	2326.69
666.867	2322.79
667.313	2303.99
667.759	2316.39
668.205	2302.89
668.651	2295.09
669.097	2286.39
669.543	2297.79
669.989	2287.89
670.435	2287.89
670.881	2302.89
671.327	2251.19
671.773	2290.79
672.219	2261.29
672.665	2263.89
673.11	2251.49
673.556	2253.39
674.002	2236.39
674.448	2234.99
674.893	2222.19
675.339	2225.99
675.785	2213.79
676.23	2196.19
676.676	2203.19
677.122	2195.99
677.567	2191.59
678.013	2172.99
678.458	2177.39
678.904	2155.89
679.349	2150.29
679.794	2137.99
680.24	2132.39
680.685	2117.09
681.131	2096.49
681.576	2094.99
682.021	2098.89
682.466	2075.79
682.912	2060.49
683.357	2071.19
683.802	2068.79
684.247	2059.09
684.692	2046.69
685.137	2038.79
685.583	2031.99
686.028	2014.09
686.473	2007.39
686.918	1998.69
687.363	1998.09
687.807	1990.09
688.252	1985.99
688.697	1977.29
689.142	1964.99
689.587	1960.39
690.032	1973.59
690.477	1949.09
690.921	1922.09
691.366	1948.49
691.811	1944.29
692.255	1920.69
692.7	1909.49
693.145	1910.39
693.589	1900.99
694.034	1896.19
694.478	1902.99
694.923	1896.09
695.367	1877.49
695.812	1868.19
696.256	1863.19
696.701	1874.79
697.145	1860.59
697.59	1840.99
698.034	1833.09
698.478	1851.79
698.922	1845.99
699.367	1839.19
699.811	1841.99
700.255	1829.29
700.699	1810.79
701.143	1803.69
701.588	1808.49
702.032	1788.79
702.476	1809.19
702.92	1798.79
703.364	1782.19
703.808	1767.49
704.252	1770.59
704.696	1757.99
705.14	1759.09
705.584	1762.09
706.027	1731.59
706.471	1743.59
706.915	1741.89
707.359	1756.49
707.803	1732.99
708.246	1740.59
708.69	1725.59
709.134	1720.19
709.577	1739.89
710.021	1710.99
710.465	1708.39
710.908	1697.89
711.352	1681.59
711.795	1704.59
712.239	1695.79
712.682	1690.09
713.126	1686.59
713.569	1682.29
714.012	1702.29
714.456	1669.19
714.899	1673.49
715.342	1665.09
715.786	1658.29
716.229	1667.19
716.672	1663.59
717.115	1649.09
717.558	1637.79
718.002	1638.59
718.445	1645.99
718.888	1629.99
719.331	1633.49
719.774	1625.09
720.217	1620.79
720.66	1613.59
721.103	1607.59
721.546	1604.79
721.989	1587.19
722.432	1595.49
722.874	1604.29
723.317	1589.99
723.76	1582.89
724.203	1561.39
724.645	1566.49
725.088	1580.59
725.531	1581.79
725.974	1566.09
726.416	1554.19
726.859	1551.89
727.301	1555.79
727.744	1547.69
728.187	1536.19
728.629	1532.79
729.071	1526.69
729.514	1521.19
729.956	1538.49
730.399	1515.59
730.841	1508.19
731.283	1522.09
731.726	1500.09
732.168	1501.69
732.61	1496.89
733.053	1475.59
733.495	1475.49
733.937	1480.19
734.379	1463.49
734.821	1469.89
735.263	1473.39
735.705	1448.49
736.148	1440.39
736.59	1446.49
737.032	1441.09
737.474	1434.79
737.916	1429.09
738.357	1443.49
738.799	1430.59
739.241	1423.29
739.683	1416.19
740.125	1423.99
740.567	1409.99
741.008	1415.49
741.45	1405.59
741.892	1408.79
742.334	1404.29
742.775	1392.19
743.217	1400.09
743.658	1391.59
744.1	1375.89
744.542	1379.99
744.983	1366.19
745.425	1359.69
745.866	1354.39
746.307	1349.49
746.749	1344.39
747.19	1350.29
747.632	1333.29
748.073	1327.39
748.514	1329.69
748.956	1322.79
749.397	1303.59
749.838	1300.29
750.279	1295.29
750.72	1308.79
751.162	1300.09
751.603	1287.09
752.044	1280.99
752.485	1284.89
752.926	1279.89
753.367	1274.39
753.808	1268.99
754.249	1270.79
754.69	1255.99
755.131	1254.99
755.572	1257.89
756.013	1250.39
756.453	1251.59
756.894	1231.39
757.335	1239.89
757.776	1227.19
758.216	1236.59
758.657	1223.39
759.098	1223.89
759.538	1223.69
759.979	1208.69
760.42	1226.79
760.86	1215.19
761.301	1203.79
761.741	1204.09
762.182	1196.09
762.622	1188.99
763.063	1184.89
763.503	1187.59
763.943	1195.09
764.384	1174.29
764.824	1177.49
765.264	1181.69
765.705	1164.89
766.145	1155.99
766.585	1162.89
767.025	1165.89
767.465	1155.89
767.906	1143.39
768.346	1143.69
768.786	1133.59
769.226	1137.19
769.666	1122.39
770.106	1142.49
770.546	1127.79
770.986	1125.89
771.426	1121.39
771.866	1111.59
772.306	1101.79
772.745	1120.29
773.185	1108.99
773.625	1105.29
774.065	1102.29
774.505	1097.19
774.944	1076.89
775.384	1078.69
775.824	1079.69
776.263	1072.59
776.703	1068.59
777.142	1072.79
777.582	1065.99
778.021	1066.29
778.461	1069.89
778.9	1064.29
779.34	1061.99
779.779	1063.09
780.219	1049.79
780.658	1051.59
781.097	1040.39
781.537	1050.39
781.976	1042.79
782.415	1036.59
782.855	1030.59
783.294	1031.49
783.733	1029.19
784.172	1021.29
784.611	1024.79
785.05	1025.29
785.489	1015.89
785.928	1027.59
786.367	1019.29
786.806	1012.09
787.245	1021.29
787.684	1016.29
788.123	1009.09
788.562	1018.19
789.001	1006.89
789.44	1006.39
789.879	1001.29
790.317	1007.19
790.756	1006.89
791.195	1000.89
791.634	1007.39
792.072	997.49
792.511	1001.79
792.95	998.99
793.388	994.39
793.827	996.29
794.265	995.49
794.704	989.09
795.142	998.59
795.581	993.89
796.019	992.29
796.458	993.29
796.896	992.59
797.334	1003.19
797.773	988.59
798.211	992.59
798.649	1009.49
799.087	997.89
799.526	1000.79
799.964	1003.59
800.402	1004.29
800.84	1010.19
801.278	1014.59
801.716	1006.49
802.154	1010.39
802.592	1004.49
803.03	1004.19
803.468	1003.39
803.906	1014.29
804.344	1008.29
804.782	1016.39
805.22	1022.89
805.658	1028.89
806.096	1019.99
806.533	1025.79
806.971	1021.09
807.409	1029.09
807.847	1033.69
808.284	1038.09
808.722	1042.39
809.16	1043.29
809.597	1041.89
810.035	1055.79
810.472	1065.69
810.91	1058.09
811.347	1069.99
811.785	1069.99
812.222	1067.19
812.66	1067.59
813.097	1076.09
813.535	1077.39
813.972	1092.89
814.409	1087.79
814.846	1093.89
815.284	1098.29
815.721	1112.39
816.158	1102.19
816.595	1104.19
817.032	1113.79
817.47	1127.49
817.907	1125.09
818.344	1131.19
818.781	1138.19
819.218	1136.89
819.655	1156.09
820.092	1158.69
820.529	1171.29
820.966	1179.59
821.403	1172.89
821.839	1166.39
822.276	1202.89
822.713	1187.19
823.15	1198.09
823.587	1209.59
824.023	1217.99
824.46	1211.49
824.897	1216.59
825.333	1223.29
825.77	1218.19
826.206	1232.19
826.643	1238.39
827.08	1253.09
827.516	1246.29
827.953	1261.29
828.389	1269.99
828.825	1265.79
829.262	1273.19
829.698	1275.89
830.135	1290.69
830.571	1278.29
831.007	1296.49
831.443	1319.49
831.88	1292.29
832.316	1311.49
832.752	1303.19
833.188	1333.89
833.624	1304.69
834.06	1326.19
834.497	1320.59
834.933	1321.89
835.369	1335.79
835.805	1329.79
836.241	1336.09
836.677	1330.89
837.112	1341.49
837.548	1338.29
837.984	1336.79
838.42	1351.09
838.856	1349.09
839.292	1338.39
839.727	1355.69
840.163	1355.99
840.599	1338.99
841.034	1346.29
841.47	1343.39
841.906	1365.09
842.341	1369.19
842.777	1357.09
843.212	1362.69
843.648	1357.39
844.083	1350.19
844.519	1365.09
844.954	1368.49
845.39	1360.29
845.825	1364.29
846.261	1357.99
846.696	1361.19
847.131	1356.49
847.566	1358.89
848.002	1358.79
848.437	1357.99
848.872	1360.29
849.307	1358.39
849.742	1350.79
850.177	1352.19
850.613	1362.69
851.048	1362.99
851.483	1351.29
851.918	1367.49
852.353	1363.69
852.788	1361.89
853.223	1356.39
853.657	1358.19
854.092	1358.99
854.527	1355.09
854.962	1365.19
855.397	1365.29
855.832	1365.19
856.266	1350.59
856.701	1368.99
857.136	1342.69
857.57	1351.19
858.005	1350.19
858.44	1358.39
858.874	1343.89
859.309	1353.79
859.743	1349.39
860.178	1346.99
860.612	1340.29
861.047	1349.99
861.481	1358.19
861.915	1352.79
862.35	1336.89
862.784	1338.49
863.218	1349.09
863.653	1341.79
864.087	1339.69
864.521	1340.19
864.955	1336.99
865.39	1354.49
865.824	1338.59
866.258	1341.39
866.692	1335.29
867.126	1338.79
867.56	1336.19
867.994	1341.49
868.428	1335.59
868.862	1337.09
869.296	1343.59
869.73	1348.19
870.164	1340.29
870.598	1330.99
871.031	1326.19
871.465	1335.69
871.899	1323.89
872.333	1337.19
872.766	1320.19
873.2	1343.19
873.634	1326.09
874.067	1331.19
874.501	1332.09
874.935	1327.49
875.368	1311.29
875.802	1321.79
876.235	1316.99
876.669	1325.49
877.102	1317.79
877.535	1315.29
877.969	1314.89
878.402	1315.89
878.836	1309.69
879.269	1318.59
879.702	1308.39
880.135	1305.19
880.569	1297.29
881.002	1295.89
881.435	1295.79
881.868	1309.19
882.301	1295.19
882.734	1290.09
883.167	1284.69
883.601	1299.89
884.034	1294.99
884.467	1275.89
884.899	1281.29
885.332	1290.09
885.765	1260.79
886.198	1284.69
886.631	1278.29
887.064	1267.39
887.497	1262.39
887.929	1260.59
888.362	1259.09
888.795	1254.79
889.228	1264.09
889.66	1250.69
890.093	1233.59
890.526	1245.79
890.958	1246.89
891.391	1240.19
891.823	1232.99
892.256	1221.39
892.688	1221.39
893.121	1215.99
893.553	1213.69
893.985	1210.49
894.418	1219.99
894.85	1203.19
895.282	1199.99
895.715	1200.69
896.147	1191.49
896.579	1200.49
897.011	1184.89
897.444	1187.09
897.876	1187.59
898.308	1177.89
898.74	1169.89
899.172	1177.09
899.604	1171.99
900.036	1174.99
900.468	1160.89
900.9	1158.99
901.332	1151.79
901.764	1142.19
902.196	1151.19
902.628	1148.69
903.06	1147.59
903.491	1132.39
903.923	1132.99
904.355	1119.99
904.787	1128.69
905.218	1115.19
905.65	1124.39
906.082	1115.59
906.513	1123.09
906.945	1112.29
907.376	1105.09
907.808	1111.39
908.239	1110.79
908.671	1093.69
909.102	1094.39
909.534	1098.89
909.965	1088.19
910.397	1085.59
910.828	1077.99
911.259	1094.09
911.691	1072.29
912.122	1061.69
912.553	1075.39
912.984	1071.09
913.415	1071.19
913.847	1064.59
914.278	1066.59
914.709	1053.19
915.14	1059.79
915.571	1043.49
916.002	1046.09
916.433	1044.09
916.864	1047.69
917.295	1033.69
917.726	1024.49
918.157	1027.19
918.587	1023.99
919.018	1008.19
919.449	1018.99
919.88	995.69
920.311	1000.19
920.741	1004.19
921.172	987.89
921.603	982.39
922.033	996.29
922.464	979.69
922.895	982.59
923.325	981.79
923.756	987.69
924.186	973.79
924.617	978.99
925.047	981.99
925.478	976.49
925.908	982.09
926.338	979.89
926.769	979.59
927.199	985.49
927.629	980.69
928.06	988.99
928.49	971.09
928.92	970.29
929.35	977.09
929.78	979.59
930.21	989.39
930.641	984.59
931.071	980.29
931.501	988.29
931.931	988.99
932.361	984.19
932.791	977.79
933.221	967.69
933.651	969.09
934.08	981.69
934.51	963.39
934.94	975.69
935.37	970.19
935.8	958.89
936.229	952.69
936.659	955.59
937.089	958.59
937.519	946.29
937.948	940.39
938.378	941.69
938.807	934.89
939.237	924.09
939.666	934.29
940.096	903.49
940.525	915.49
940.955	906.79
941.384	903.29
941.814	896.29
942.243	907.19
942.672	900.49
943.102	883.59
943.531	882.99
943.96	882.39
944.39	868.59
944.819	870.69
945.248	861.89
945.677	850.19
946.106	855.39
946.535	841.69
946.964	839.79
947.393	835.79
947.822	829.79
948.251	826.99
948.68	819.99
949.109	811.79
949.538	800.09
949.967	798.19
950.396	799.29
950.825	781.89
951.254	783.09
951.682	776.89
952.111	772.99
952.54	762.19
952.969	771.69
953.397	758.49
953.826	757.59
954.254	747.89
954.683	738.89
955.112	731.99
955.54	737.59
955.969	714.29
956.397	722.79
956.826	713.89
957.254	705.39
957.682	705.29
958.111	697.19
958.539	697.59
958.967	688.89
959.396	684.89
959.824	671.39
960.252	671.39
960.68	669.49
961.109	665.69
961.537	653.49
961.965	650.19
962.393	648.89
962.821	643.49
963.249	627.89
963.677	631.29
964.105	626.89
964.533	620.59
964.961	616.49
965.389	609.49
965.817	601.09
966.245	587.39
966.672	585.49
967.1	592.79
967.528	591.29
967.956	579.29
968.383	573.59
968.811	573.59
969.239	567.39
969.666	562.99
970.094	556.09
970.522	554.89
970.949	546.39
971.377	548.59
971.804	541.59
972.232	532.19
972.659	538.19
973.087	528.09
973.514	524.89
973.941	530.29
974.369	514.99
974.796	504.79
975.223	511.69
975.651	502.99
976.078	507.89
976.505	495.49
976.932	503.49
977.359	484.69
977.786	484.39
978.214	483.29
978.641	469.69
979.068	471.49
979.495	469.99
979.922	460.29
980.349	467.79
980.776	457.19
981.202	456.89
981.629	462.09
982.056	453.59
982.483	441.09
982.91	440.09
983.337	439.29
983.763	435.69
984.19	443.49
984.617	421.69
985.043	414.69
985.47	424.69
985.897	415.69
986.323	411.89
986.75	411.29
987.176	406.19
987.603	405.39
988.029	409.09
988.456	402.69
988.882	388.79
989.308	392.39
989.735	388.89
990.161	383.99
990.587	384.19
991.014	371.99
991.44	379.19
991.866	378.29
992.292	374.29
992.719	368.39
993.145	370.09
993.571	366.99
993.997	354.59
994.423	351.49
994.849	350.79
995.275	352.59
995.701	347.99
996.127	353.29
996.553	340.89
996.979	339.99
997.405	336.29
997.83	339.59
998.256	341.99
998.682	347.29
999.108	333.89
999.534	330.09
999.959	327.79
1000.385	330.29
1000.811	327.49
1001.236	332.49
1001.662	328.39
1002.087	324.09
1002.513	328.39
1002.938	324.59
1003.364	328.79
1003.789	337.69
1004.215	325.29
1004.64	331.29
1005.066	324.19
1005.491	334.49
1005.916	328.09
1006.342	327.29
1006.767	334.59
1007.192	327.49
1007.617	326.79
1008.042	327.39
1008.468	327.79
1008.893	321.39
1009.318	319.39
1009.743	316.69
1010.168	316.59
1010.593	318.89
1011.018	312.69
1011.443	316.39
1011.868	302.69
1012.293	305.99
1012.718	299.69
1013.143	298.79
1013.567	295.19
1013.992	293.89
1014.417	294.99
1014.842	280.99
1015.267	283.79
1015.691	277.59
1016.116	271.49
1016.541	270.69
1016.965	266.49
1017.39	262.29
1017.814	264.79
1018.239	253.49
1018.663	254.49
1019.088	250.39
1019.512	244.59
1019.937	238.69
1020.361	242.19
1020.785	236.19
1021.21	237.59
1021.634	236.79
1022.058	231.49
1022.483	233.89
1022.907	230.29
1023.331	233.69
1023.755	214.49
1024.179	221.59
1024.604	216.59
1025.028	224.49
1025.452	213.99
1025.876	212.89
1026.3	214.39
1026.724	208.19
1027.148	210.39
1027.572	203.99
1027.996	204.09
1028.42	202.39
1028.843	206.19
1029.267	197.29
1029.691	198.99
1030.115	201.99
1030.539	190.29
1030.962	189.29
1031.386	197.49
1031.81	193.09
1032.233	185.09
1032.657	189.79
1033.08	184.89
1033.504	180.19
1033.927	187.39
1034.351	179.19
1034.774	174.79
1035.198	175.39
1035.621	180.99
1036.045	175.89
1036.468	180.79
1036.891	173.09
1037.315	175.19
1037.738	170.29
1038.161	170.99
1038.584	169.79
1039.008	172.29
1039.431	165.89
1039.854	165.19
1040.277	168.09
1040.7	163.39
1041.123	163.99
1041.546	158.89
1041.969	163.09
1042.392	157.69
1042.815	156.69
1043.238	155.59
1043.661	154.59
1044.084	159.19
1044.507	158.39
1044.93	150.09
1045.352	150.49
1045.775	144.79
1046.198	146.69
1046.621	147.49
1047.043	147.99
1047.466	150.09
1047.889	139.59
1048.311	141.99
1048.734	143.09
1049.156	139.69
1049.579	145.59
1050.001	143.49
1050.424	142.19
1050.846	137.69
1051.269	138.49
1051.691	136.99
1052.113	140.69
1052.536	137.49
1052.958	134.49
1053.38	133.09
1053.802	131.79
1054.225	132.79
1054.647	132.69
1055.069	133.09
1055.491	130.59
1055.913	133.79
1056.335	130.79
1056.757	131.69
1057.179	127.69
1057.601	126.79
1058.023	122.79
1058.445	130.19
1058.867	126.99
1059.289	123.79
1059.711	122.29
1060.133	123.59
1060.555	121.29
1060.976	120.99
1061.398	116.89
1061.82	120.19
1062.241	118.59
1062.663	117.89
1063.085	113.09
1063.506	120.79
1063.928	117.59
1064.35	117.99
1064.771	116.59
1065.193	118.19
1065.614	116.79
1066.035	120.79
1066.457	111.79
1066.878	116.89
1067.3	109.49
1067.721	114.79
1068.142	113.59
1068.564	111.39
1068.985	111.39
1069.406	110.79
1069.827	115.09
1070.248	109.29
1070.67	111.39
1071.091	112.49
1071.512	112.39
1071.933	108.39
1072.354	110.59
1072.775	108.39
1073.196	106.09
1073.617	111.19
1074.038	107.99
1074.459	107.99
1074.88	108.09
1075.3	109.19
1075.721	114.39
1076.142	107.29
1076.563	109.29
1076.983	112.79
1077.404	106.19
1077.825	106.49
1078.246	108.79
1078.666	105.49
1079.087	104.09
1079.507	106.99
1079.928	110.89
1080.348	107.39
1080.769	100.59
1081.189	107.69
1081.61	105.79
1082.03	108.09
1082.451	107.39
1082.871	109.89
1083.291	109.29
1083.711	105.69
1084.132	111.69
1084.552	106.39
1084.972	105.69
1085.392	101.39
1085.813	104.59
1086.233	102.79
1086.653	99.09
1087.073	102.89
1087.493	101.69
1087.913	100.09
1088.333	103.89
1088.753	101.89
1089.173	99.89
1089.593	108.29
1090.013	103.09
1090.433	101.99
1090.852	102.69
1091.272	94.99
1091.692	99.49
1092.112	91.49
1092.531	100.69
1092.951	97.89
1093.371	104.79
1093.79	100.09
1094.21	101.29
1094.63	100.89
1095.049	95.49
1095.469	93.99
1095.888	101.89
1096.308	95.19
1096.727	98.59
1097.146	101.79
1097.566	95.39
1097.985	99.89
1098.405	95.59
1098.824	95.09
1099.243	100.59
1099.662	95.79
1100.082	94.59
1100.501	94.39
1100.92	93.59
1101.339	94.79
1101.758	97.19
