Data from DH-3PlusCalLight-DeuteriumHalogen_HRD10391_13-38-36-355.txt Node
Date: Thu Feb 15 13:38:36 EST 2018
User: Ender
Spectrometer: HR+D1039
Trigger mode: 0
Integration Time (sec): 2.730000E-2
Scans to average: 10
Electric dark correction enabled: true
Nonlinearity correction enabled: false
Boxcar width: 0
XAxis mode: Wavelengths
Number of Pixels in Spectrum: 2048
>>>>>Begin Spectral Data<<<<<
187.836	1.83
188.309	1.83
188.782	1.83
189.255	-0.27
189.728	-7.88
190.201	-5.57
190.674	-11.67
191.147	-15.27
191.619	-9.38
192.092	-6.17
192.565	-3.27
193.038	0.33
193.511	-0.88
193.984	-0.27
194.456	10.23
194.929	11.43
195.402	15.73
195.874	21.12
196.347	24.33
196.82	22.43
197.292	26.83
197.765	33.03
198.237	36.73
198.71	37.43
199.182	43.03
199.655	49.83
200.127	59.62
200.6	51.83
201.072	59.43
201.544	62.23
202.017	67.03
202.489	69.83
202.961	74.53
203.433	73.62
203.906	79.53
204.378	74.73
204.85	76.43
205.322	80.93
205.794	81.23
206.266	89.83
206.739	81.12
207.211	91.62
207.683	86.93
208.155	91.43
208.627	86.12
209.099	87.62
209.57	89.03
210.042	86.43
210.514	86.53
210.986	84.73
211.458	83.03
211.93	88.62
212.402	87.73
212.873	87.53
213.345	82.03
213.817	90.83
214.288	87.03
214.76	83.73
215.232	79.43
215.703	81.83
216.175	80.93
216.646	81.73
217.118	82.33
217.589	84.03
218.061	81.73
218.532	83.93
219.004	87.33
219.475	80.43
219.946	84.33
220.418	81.62
220.889	85.73
221.36	86.53
221.832	89.83
222.303	84.73
222.774	90.33
223.245	89.62
223.717	94.83
224.188	89.43
224.659	95.73
225.13	95.53
225.601	97.12
226.072	90.33
226.543	99.12
227.014	97.53
227.485	108.73
227.956	102.12
228.427	108.73
228.898	108.62
229.369	107.43
229.839	118.53
230.31	114.83
230.781	119.43
231.252	110.33
231.722	119.53
232.193	119.23
232.664	114.12
233.135	121.03
233.605	118.03
234.076	113.33
234.546	114.43
235.017	118.03
235.487	109.62
235.958	105.93
236.428	97.73
236.899	94.33
237.369	97.53
237.84	97.73
238.31	97.03
238.78	87.23
239.251	89.93
239.721	92.03
240.191	90.03
240.662	94.53
241.132	86.53
241.602	84.62
242.072	83.43
242.542	91.12
243.013	83.03
243.483	88.43
243.953	84.73
244.423	85.12
244.893	83.53
245.363	83.83
245.833	89.53
246.303	89.43
246.773	86.83
247.243	84.43
247.712	85.62
248.182	88.03
248.652	83.33
249.122	89.23
249.592	85.33
250.061	91.33
250.531	86.62
251.001	89.43
251.471	93.53
251.94	92.23
252.41	95.33
252.879	93.03
253.349	92.12
253.818	90.83
254.288	100.62
254.757	100.23
255.227	113.53
255.696	106.33
256.166	110.93
256.635	119.43
257.105	124.83
257.574	130.83
258.043	135.93
258.513	143.03
258.982	144.23
259.451	155.93
259.92	161.62
260.389	174.23
260.859	180.53
261.328	186.62
261.797	202.03
262.266	211.23
262.735	218.93
263.204	225.83
263.673	235.62
264.142	240.23
264.611	259.03
265.08	259.73
265.549	263.33
266.018	276.73
266.487	287.03
266.955	290.23
267.424	295.73
267.893	302.03
268.362	307.62
268.83	311.23
269.299	317.43
269.768	321.23
270.236	336.62
270.705	332.53
271.174	338.43
271.642	338.23
272.111	336.23
272.579	351.12
273.048	351.53
273.516	350.93
273.985	347.03
274.453	350.93
274.922	352.83
275.39	349.43
275.858	360.73
276.327	358.33
276.795	361.33
277.263	355.42
277.731	358.03
278.2	355.53
278.668	351.33
279.136	348.03
279.604	347.73
280.072	352.83
280.54	349.43
281.008	344.62
281.477	346.12
281.945	342.93
282.413	344.12
282.881	339.83
283.348	332.83
283.816	335.43
284.284	328.33
284.752	331.33
285.22	327.03
285.688	320.83
286.156	323.83
286.623	314.23
287.091	319.23
287.559	326.33
288.026	312.93
288.494	322.12
288.962	320.03
289.429	321.43
289.897	322.33
290.364	319.53
290.832	327.12
291.3	331.23
291.767	338.93
292.234	331.83
292.702	342.83
293.169	353.12
293.637	362.42
294.104	356.53
294.571	363.92
295.039	362.23
295.506	366.83
295.973	374.42
296.44	369.12
296.908	382.92
297.375	376.12
297.842	383.33
298.309	372.92
298.776	384.23
299.243	390.12
299.71	385.92
300.177	386.03
300.644	389.73
301.111	390.12
301.578	386.03
302.045	395.73
302.512	397.42
302.979	399.33
303.446	392.83
303.913	387.73
304.379	391.03
304.846	392.03
305.313	398.83
305.78	388.62
306.246	386.53
306.713	376.83
307.18	378.23
307.646	383.92
308.113	370.23
308.579	376.33
309.046	367.23
309.512	377.33
309.979	372.42
310.445	369.23
310.912	372.73
311.378	368.42
311.845	363.53
312.311	363.12
312.777	366.83
313.244	358.03
313.71	369.62
314.176	367.42
314.642	369.42
315.109	370.92
315.575	367.42
316.041	366.03
316.507	369.03
316.973	366.23
317.439	363.53
317.905	370.33
318.371	375.42
318.837	377.53
319.303	383.33
319.769	380.92
320.235	390.53
320.701	386.92
321.167	396.03
321.633	397.23
322.099	397.23
322.564	399.83
323.03	395.73
323.496	411.33
323.962	411.92
324.427	406.03
324.893	405.53
325.359	408.92
325.824	402.12
326.29	405.53
326.755	404.03
327.221	403.23
327.686	403.03
328.152	392.73
328.617	402.53
329.083	406.23
329.548	403.53
330.014	394.73
330.479	394.83
330.944	391.73
331.41	397.23
331.875	389.62
332.34	378.33
332.805	376.62
333.271	379.83
333.736	363.83
334.201	375.92
334.666	371.53
335.131	367.42
335.596	362.62
336.061	357.23
336.526	351.93
336.991	363.42
337.456	352.33
337.921	359.12
338.386	359.12
338.851	352.83
339.316	355.83
339.781	360.33
340.246	364.92
340.711	365.83
341.175	378.23
341.64	382.92
342.105	389.03
342.569	386.23
343.034	391.73
343.499	400.33
343.963	394.42
344.428	396.03
344.893	394.53
345.357	396.73
345.822	412.12
346.286	412.42
346.751	426.12
347.215	427.42
347.679	432.83
348.144	427.12
348.608	441.23
349.073	437.92
349.537	450.23
350.001	442.62
350.465	439.83
350.93	448.73
351.394	442.12
351.858	440.33
352.322	447.03
352.786	442.33
353.25	438.73
353.715	441.53
354.179	435.62
354.643	437.53
355.107	444.12
355.571	438.53
356.035	448.53
356.498	441.03
356.962	434.73
357.426	446.12
357.89	446.83
358.354	444.62
358.818	447.03
359.281	449.62
359.745	443.12
360.209	435.83
360.673	442.03
361.136	448.23
361.6	444.83
362.064	448.12
362.527	438.03
362.991	445.73
363.454	442.33
363.918	451.23
364.381	452.33
364.845	443.92
365.308	449.73
365.772	455.83
366.235	437.53
366.698	444.23
367.162	447.03
367.625	441.73
368.088	443.73
368.552	451.23
369.015	439.73
369.478	438.92
369.941	453.33
370.404	445.12
370.867	440.12
371.331	442.12
371.794	452.73
372.257	447.73
372.72	456.42
373.183	459.73
373.646	455.42
374.109	460.03
374.572	463.42
375.035	464.83
375.497	459.42
375.96	463.83
376.423	475.53
376.886	471.62
377.349	482.03
377.811	473.33
378.274	496.12
378.737	482.73
379.199	488.83
379.662	478.73
380.125	484.23
380.587	478.33
381.05	489.53
381.512	482.92
381.975	492.23
382.437	492.33
382.9	483.92
383.362	494.23
383.825	495.83
384.287	497.33
384.75	493.42
385.212	494.33
385.674	499.92
386.136	507.62
386.599	505.42
387.061	514.62
387.523	517.92
387.985	515.73
388.447	507.12
388.91	499.83
389.372	504.03
389.834	502.83
390.296	511.33
390.758	516.92
391.22	531.42
391.682	531.62
392.144	541.12
392.606	519.12
393.068	515.62
393.529	520.33
393.991	519.62
394.453	514.83
394.915	518.23
395.377	514.33
395.838	527.92
396.3	538.12
396.762	550.03
397.224	549.83
397.685	551.83
398.147	543.92
398.608	535.03
399.07	536.33
399.531	528.73
399.993	536.12
400.454	539.23
400.916	525.12
401.377	525.83
401.839	544.83
402.3	530.12
402.762	541.62
403.223	555.42
403.684	540.62
404.145	558.92
404.607	560.33
405.068	534.92
405.529	537.33
405.99	530.83
406.451	529.12
406.913	534.62
407.374	532.83
407.835	546.42
408.296	539.33
408.757	537.03
409.218	538.92
409.679	534.73
410.14	538.23
410.601	538.42
411.062	540.62
411.522	548.23
411.983	549.73
412.444	552.12
412.905	545.03
413.366	545.53
413.826	544.53
414.287	548.53
414.748	541.12
415.208	550.12
415.669	556.42
416.13	552.73
416.59	555.23
417.051	553.83
417.511	559.83
417.972	579.62
418.432	595.42
418.893	596.83
419.353	597.23
419.814	608.42
420.274	622.53
420.734	626.62
421.195	645.62
421.655	614.33
422.115	630.42
422.576	625.12
423.036	633.33
423.496	636.53
423.956	635.12
424.416	641.33
424.876	644.92
425.336	645.53
425.797	665.42
426.257	684.23
426.717	693.03
427.177	680.73
427.637	705.03
428.097	715.23
428.556	721.03
429.016	738.83
429.476	750.83
429.936	749.53
430.396	756.33
430.856	744.03
431.315	750.33
431.775	771.33
432.235	788.23
432.694	817.03
433.154	823.33
433.614	799.23
434.073	836.62
434.533	844.33
434.993	835.53
435.452	857.92
435.912	861.42
436.371	867.03
436.83	870.92
437.29	892.12
437.749	901.12
438.209	903.53
438.668	921.33
439.127	927.83
439.587	938.73
440.046	950.12
440.505	976.73
440.964	971.23
441.424	987.83
441.883	1004.62
442.342	1014.62
442.801	1014.33
443.26	1039.92
443.719	1060.53
444.178	1061.12
444.637	1077.42
445.096	1101.62
445.555	1117.42
446.014	1111.23
446.473	1104.83
446.932	1135.42
447.391	1154.03
447.849	1173.42
448.308	1166.03
448.767	1169.03
449.226	1203.62
449.685	1201.03
450.143	1224.33
450.602	1264.12
451.061	1242.83
451.519	1266.42
451.978	1289.03
452.436	1303.03
452.895	1306.42
453.353	1323.12
453.812	1327.53
454.27	1363.83
454.729	1372.33
455.187	1390.63
455.646	1391.23
456.104	1401.42
456.562	1419.42
457.021	1449.52
457.479	1397.83
457.937	1452.23
458.395	1484.92
458.854	1470.52
459.312	1473.73
459.77	1475.73
460.228	1492.02
460.686	1532.52
461.144	1527.83
461.602	1503.33
462.06	1487.63
462.518	1529.73
462.976	1525.23
463.434	1528.33
463.892	1508.92
464.35	1512.02
464.808	1512.13
465.266	1541.63
465.724	1530.52
466.181	1531.73
466.639	1514.02
467.097	1554.92
467.555	1600.92
468.012	1571.33
468.47	1572.73
468.928	1578.33
469.385	1593.92
469.843	1635.63
470.3	1617.73
470.758	1647.33
471.215	1637.13
471.673	1648.92
472.13	1686.42
472.588	1726.23
473.045	1744.63
473.503	1770.92
473.96	1836.92
474.417	1828.13
474.875	1875.13
475.332	1877.92
475.789	1889.42
476.246	1945.33
476.704	1993.02
477.161	2005.13
477.618	2030.13
478.075	2074.32
478.532	2146.62
478.989	2170.82
479.446	2198.62
479.903	2214.43
480.36	2333.73
480.817	2325.52
481.274	2374.12
481.731	2420.52
482.188	2435.32
482.645	2502.43
483.102	2516.23
483.558	2550.32
484.015	2604.12
484.472	2663.32
484.929	2720.02
485.385	2729.23
485.842	2753.52
486.299	2822.52
486.755	2842.32
487.212	2844.02
487.668	2876.23
488.125	2904.73
488.582	2866.62
489.038	2913.82
489.494	2929.12
489.951	2942.23
490.407	2960.82
490.864	2973.12
491.32	3002.23
491.776	3008.82
492.233	3030.62
492.689	3007.02
493.145	3011.62
493.602	3000.12
494.058	3050.93
494.514	3025.23
494.97	3027.12
495.426	3038.23
495.882	3021.43
496.338	2993.32
496.794	3054.12
497.251	3044.43
497.707	3045.12
498.163	3058.82
498.618	3053.43
499.074	3044.62
499.53	3031.43
499.986	3076.93
500.442	3065.73
500.898	3058.62
501.354	3092.62
501.809	3083.43
502.265	3039.32
502.721	3073.62
503.177	3064.32
503.632	3067.02
504.088	3050.32
504.543	3075.52
504.999	3088.62
505.455	3062.73
505.91	3061.23
506.366	3084.12
506.821	3061.93
507.277	3053.93
507.732	3058.43
508.187	3045.12
508.643	3049.12
509.098	3042.02
509.553	3032.02
510.009	3019.23
510.464	3038.73
510.919	3020.02
511.375	3013.02
511.83	2983.12
512.285	2983.23
512.74	2976.02
513.195	2981.32
513.65	2956.32
514.105	2953.32
514.56	2922.12
515.015	2961.32
515.47	2936.82
515.925	2887.02
516.38	2908.32
516.835	2910.52
517.29	2855.43
517.745	2862.23
518.2	2868.12
518.655	2875.62
519.109	2849.12
519.564	2841.23
520.019	2831.82
520.474	2811.23
520.928	2812.12
521.383	2796.62
521.838	2787.32
522.292	2767.02
522.747	2767.93
523.201	2760.43
523.656	2761.73
524.11	2756.62
524.565	2757.32
525.019	2773.62
525.474	2748.02
525.928	2737.23
526.382	2751.52
526.837	2749.02
527.291	2751.73
527.745	2738.43
528.2	2759.73
528.654	2757.43
529.108	2732.62
529.562	2731.02
530.016	2756.02
530.47	2734.02
530.925	2741.02
531.379	2722.32
531.833	2751.73
532.287	2746.32
532.741	2733.32
533.195	2747.73
533.649	2742.73
534.103	2768.62
534.556	2727.62
535.01	2747.52
535.464	2726.52
535.918	2741.82
536.372	2767.52
536.826	2734.93
537.279	2728.52
537.733	2738.32
538.187	2733.32
538.64	2727.23
539.094	2747.12
539.548	2749.43
540.001	2719.82
540.455	2713.32
540.908	2713.93
541.362	2703.73
541.815	2720.23
542.269	2718.12
542.722	2688.02
543.175	2685.52
543.629	2684.12
544.082	2681.02
544.536	2685.02
544.989	2654.43
545.442	2665.62
545.895	2654.62
546.349	2652.52
546.802	2663.32
547.255	2637.12
547.708	2634.82
548.161	2625.82
548.614	2631.02
549.067	2629.32
549.52	2637.52
549.973	2622.82
550.426	2613.82
550.879	2618.43
551.332	2615.32
551.785	2618.73
552.238	2624.43
552.691	2615.62
553.144	2611.52
553.596	2620.52
554.049	2622.93
554.502	2626.62
554.955	2638.52
555.407	2629.82
555.86	2639.62
556.313	2620.93
556.765	2633.82
557.218	2649.32
557.67	2654.52
558.123	2660.32
558.576	2649.32
559.028	2656.02
559.48	2671.32
559.933	2674.62
560.385	2661.32
560.838	2678.62
561.29	2682.32
561.742	2694.82
562.195	2683.02
562.647	2685.82
563.099	2690.52
563.551	2678.82
564.004	2721.82
564.456	2704.12
564.908	2737.02
565.36	2707.32
565.812	2703.23
566.264	2734.02
566.716	2734.12
567.168	2708.73
567.62	2719.23
568.072	2711.02
568.524	2694.32
568.976	2735.62
569.428	2704.52
569.88	2707.32
570.332	2722.23
570.784	2715.73
571.235	2692.32
571.687	2693.93
572.139	2708.23
572.59	2693.73
573.042	2681.73
573.494	2690.73
573.945	2690.62
574.397	2662.02
574.849	2671.32
575.3	2667.62
575.752	2657.02
576.203	2645.02
576.655	2668.32
577.106	2635.73
577.557	2622.02
578.009	2626.62
578.46	2643.93
578.912	2621.62
579.363	2622.52
579.814	2639.23
580.265	2617.02
580.717	2622.12
581.168	2612.12
581.619	2599.62
582.07	2608.12
582.521	2602.12
582.972	2598.02
583.423	2602.52
583.875	2619.43
584.326	2590.23
584.777	2605.82
585.227	2594.82
585.678	2607.32
586.129	2613.02
586.58	2605.62
587.031	2612.62
587.482	2611.52
587.933	2582.32
588.384	2598.23
588.834	2602.73
589.285	2626.12
589.736	2634.73
590.186	2612.02
590.637	2621.02
591.088	2629.62
591.538	2639.23
591.989	2655.52
592.439	2631.82
592.89	2622.32
593.34	2621.32
593.791	2635.52
594.241	2619.43
594.692	2648.23
595.142	2653.23
595.593	2637.32
596.043	2659.43
596.493	2654.23
596.943	2640.02
597.394	2671.23
597.844	2646.82
598.294	2664.93
598.744	2656.82
599.195	2663.32
599.645	2659.82
600.095	2655.43
600.545	2665.32
600.995	2666.43
601.445	2656.73
601.895	2680.82
602.345	2677.93
602.795	2681.02
603.245	2692.82
603.695	2657.23
604.145	2667.32
604.594	2678.93
605.044	2696.82
605.494	2668.62
605.944	2680.02
606.393	2724.73
606.843	2690.52
607.293	2699.32
607.743	2706.32
608.192	2708.62
608.642	2689.12
609.091	2702.73
609.541	2684.23
609.99	2723.73
610.44	2683.12
610.889	2708.32
611.339	2702.62
611.788	2674.43
612.238	2693.52
612.687	2716.82
613.136	2705.43
613.586	2697.02
614.035	2679.62
614.484	2700.52
614.933	2677.73
615.383	2686.12
615.832	2669.12
616.281	2679.43
616.73	2691.12
617.179	2690.12
617.628	2680.62
618.077	2670.32
618.526	2676.82
618.975	2660.62
619.424	2637.23
619.873	2671.52
620.322	2673.82
620.771	2668.73
621.22	2662.62
621.669	2647.52
622.118	2660.52
622.567	2659.93
623.015	2655.93
623.464	2669.73
623.913	2662.82
624.361	2666.73
624.81	2647.52
625.259	2657.02
625.707	2647.73
626.156	2644.62
626.604	2660.43
627.053	2651.52
627.501	2627.52
627.95	2630.62
628.398	2673.12
628.847	2611.23
629.295	2646.12
629.744	2611.93
630.192	2616.62
630.64	2632.62
631.089	2611.62
631.537	2610.43
631.985	2592.23
632.433	2610.12
632.881	2595.32
633.33	2614.73
633.778	2587.82
634.226	2588.23
634.674	2595.02
635.122	2584.43
635.57	2572.52
636.018	2599.93
636.466	2556.43
636.914	2550.43
637.362	2557.12
637.81	2551.82
638.258	2569.32
638.705	2532.62
639.153	2575.52
639.601	2538.02
640.049	2572.93
640.497	2552.32
640.944	2537.12
641.392	2536.23
641.84	2562.43
642.287	2543.73
642.735	2555.73
643.182	2519.93
643.63	2541.43
644.078	2541.62
644.525	2519.52
644.973	2519.23
645.42	2531.73
645.867	2543.43
646.315	2502.32
646.762	2519.73
647.21	2493.23
647.657	2515.43
648.104	2522.93
648.551	2478.43
648.999	2526.93
649.446	2502.23
649.893	2496.43
650.34	2487.23
650.787	2500.23
651.234	2484.52
651.682	2501.62
652.129	2482.93
652.576	2477.32
653.023	2484.52
653.47	2484.12
653.917	2489.73
654.363	2503.12
654.81	2515.43
655.257	2474.02
655.704	2469.12
656.151	2477.32
656.598	2462.93
657.044	2438.62
657.491	2451.62
657.938	2455.73
658.385	2440.23
658.831	2439.62
659.278	2443.32
659.724	2446.23
660.171	2438.02
660.618	2422.12
661.064	2432.23
661.511	2426.02
661.957	2419.93
662.404	2412.23
662.85	2406.43
663.296	2410.23
663.743	2390.82
664.189	2398.43
664.635	2398.52
665.082	2408.52
665.528	2396.52
665.974	2389.73
666.42	2383.02
666.867	2372.93
667.313	2363.82
667.759	2371.73
668.205	2355.52
668.651	2377.12
669.097	2345.12
669.543	2354.73
669.989	2358.02
670.435	2336.82
670.881	2347.43
671.327	2317.23
671.773	2346.43
672.219	2317.02
672.665	2325.32
673.11	2313.12
673.556	2303.43
674.002	2282.62
674.448	2284.43
674.893	2275.12
675.339	2277.02
675.785	2276.32
676.23	2265.62
676.676	2241.32
677.122	2244.43
677.567	2233.23
678.013	2224.82
678.458	2223.82
678.904	2230.02
679.349	2203.23
679.794	2185.12
680.24	2170.23
680.685	2167.93
681.131	2158.73
681.576	2151.02
682.021	2143.93
682.466	2127.23
682.912	2112.73
683.357	2130.52
683.802	2129.02
684.247	2100.43
684.692	2082.62
685.137	2071.52
685.583	2087.23
686.028	2069.73
686.473	2068.12
686.918	2056.52
687.363	2048.82
687.807	2040.92
688.252	2039.42
688.697	2028.02
689.142	2017.42
689.587	2016.52
690.032	2015.23
690.477	2012.52
690.921	1985.33
691.366	1990.83
691.811	1977.52
692.255	1977.02
692.7	1969.63
693.145	1967.23
693.589	1951.63
694.034	1944.23
694.478	1953.33
694.923	1940.33
695.367	1940.73
695.812	1916.23
696.256	1922.63
696.701	1925.63
697.145	1924.02
697.59	1908.33
698.034	1886.13
698.478	1901.02
698.922	1891.52
699.367	1892.02
699.811	1887.73
700.255	1870.33
700.699	1866.23
701.143	1861.73
701.588	1851.33
702.032	1839.83
702.476	1834.63
702.92	1830.13
703.364	1843.33
703.808	1821.92
704.252	1821.42
704.696	1814.13
705.14	1803.73
705.584	1826.73
706.027	1807.23
706.471	1808.73
706.915	1802.02
707.359	1783.83
707.803	1797.83
708.246	1783.52
708.69	1782.23
709.134	1781.92
709.577	1781.42
710.021	1756.63
710.465	1749.73
710.908	1748.83
711.352	1750.52
711.795	1745.33
712.239	1737.02
712.682	1736.23
713.126	1736.63
713.569	1732.63
714.012	1727.23
714.456	1723.83
714.899	1722.92
715.342	1705.52
715.786	1704.63
716.229	1681.23
716.672	1698.42
717.115	1690.23
717.558	1685.52
718.002	1679.92
718.445	1686.02
718.888	1681.13
719.331	1678.73
719.774	1681.73
720.217	1669.23
720.66	1654.63
721.103	1646.63
721.546	1654.13
721.989	1642.92
722.432	1630.83
722.874	1649.63
723.317	1627.83
723.76	1635.33
724.203	1612.42
724.645	1622.13
725.088	1619.02
725.531	1627.73
725.974	1601.33
726.416	1609.42
726.859	1599.92
727.301	1585.92
727.744	1590.83
728.187	1587.63
728.629	1580.63
729.071	1577.13
729.514	1575.13
729.956	1574.92
730.399	1560.33
730.841	1552.13
731.283	1568.63
731.726	1537.42
732.168	1541.83
732.61	1534.92
733.053	1521.42
733.495	1527.33
733.937	1529.42
734.379	1525.92
734.821	1507.02
735.263	1512.23
735.705	1495.83
736.148	1489.73
736.59	1489.63
737.032	1487.52
737.474	1492.23
737.916	1477.23
738.357	1487.83
738.799	1477.33
739.241	1465.23
739.683	1473.23
740.125	1469.92
740.567	1460.02
741.008	1449.73
741.45	1441.63
741.892	1443.83
742.334	1436.63
742.775	1438.33
743.217	1424.13
743.658	1422.13
744.1	1418.73
744.542	1398.02
744.983	1409.13
745.425	1399.52
745.866	1396.83
746.307	1392.63
746.749	1382.33
747.19	1383.42
747.632	1379.73
748.073	1374.12
748.514	1366.23
748.956	1365.92
749.397	1352.42
749.838	1345.92
750.279	1349.42
750.72	1355.42
751.162	1332.73
751.603	1334.42
752.044	1322.62
752.485	1320.12
752.926	1329.53
753.367	1318.33
753.808	1299.83
754.249	1289.33
754.69	1308.73
755.131	1291.92
755.572	1300.12
756.013	1287.12
756.453	1276.62
756.894	1285.03
757.335	1270.23
757.776	1268.53
758.216	1262.12
758.657	1261.92
759.098	1255.03
759.538	1256.03
759.979	1248.03
760.42	1248.73
760.86	1252.33
761.301	1254.33
761.741	1241.42
762.182	1245.92
762.622	1236.53
763.063	1210.03
763.503	1222.42
763.943	1207.12
764.384	1219.12
764.824	1228.92
765.264	1210.42
765.705	1209.83
766.145	1190.92
766.585	1187.23
767.025	1176.62
767.465	1183.03
767.906	1177.62
768.346	1173.12
768.786	1177.73
769.226	1176.83
769.666	1162.62
770.106	1166.42
770.546	1153.03
770.986	1148.92
771.426	1144.42
771.866	1155.03
772.306	1145.92
772.745	1142.62
773.185	1135.73
773.625	1139.03
774.065	1132.62
774.505	1125.03
774.944	1118.62
775.384	1101.92
775.824	1123.03
776.263	1102.12
776.703	1101.62
777.142	1102.12
777.582	1098.23
778.021	1103.23
778.461	1096.03
778.9	1089.23
779.34	1092.12
779.779	1088.83
780.219	1075.92
780.658	1085.42
781.097	1075.42
781.537	1071.42
781.976	1079.73
782.415	1078.53
782.855	1073.92
783.294	1056.92
783.733	1065.42
784.172	1068.12
784.611	1065.42
785.05	1058.42
785.489	1062.53
785.928	1043.33
786.367	1059.83
786.806	1064.23
787.245	1054.83
787.684	1049.73
788.123	1042.92
788.562	1042.62
789.001	1048.83
789.44	1037.62
789.879	1041.33
790.317	1042.03
790.756	1040.83
791.195	1038.62
791.634	1032.42
792.072	1025.53
792.511	1022.23
792.95	1034.53
793.388	1028.12
793.827	1023.62
794.265	1030.83
794.704	1031.73
795.142	1031.03
795.581	1033.73
796.019	1031.03
796.458	1033.62
796.896	1029.33
797.334	1031.83
797.773	1026.12
798.211	1027.42
798.649	1038.23
799.087	1028.12
799.526	1029.92
799.964	1035.62
800.402	1041.23
800.84	1040.53
801.278	1029.23
801.716	1051.92
802.154	1058.23
802.592	1037.12
803.03	1054.23
803.468	1044.33
803.906	1050.92
804.344	1054.33
804.782	1070.03
805.22	1045.33
805.658	1061.03
806.096	1053.33
806.533	1057.92
806.971	1075.42
807.409	1063.73
807.847	1066.83
808.284	1075.42
808.722	1093.33
809.16	1076.03
809.597	1094.12
810.035	1078.12
810.472	1086.53
810.91	1097.92
811.347	1105.12
811.785	1097.23
812.222	1111.83
812.66	1111.83
813.097	1109.03
813.535	1126.03
813.972	1124.33
814.409	1137.53
814.846	1138.23
815.284	1141.23
815.721	1141.03
816.158	1144.12
816.595	1154.62
817.032	1158.33
817.47	1168.42
817.907	1168.23
818.344	1184.12
818.781	1175.12
819.218	1180.23
819.655	1197.83
820.092	1197.92
820.529	1209.53
820.966	1214.53
821.403	1212.53
821.839	1210.42
822.276	1221.92
822.713	1231.03
823.15	1236.03
823.587	1241.92
824.023	1255.23
824.46	1261.83
824.897	1268.03
825.333	1268.23
825.77	1271.33
826.206	1273.12
826.643	1283.73
827.08	1279.33
827.516	1297.42
827.953	1296.62
828.389	1299.12
828.825	1315.92
829.262	1314.42
829.698	1312.62
830.135	1315.92
830.571	1323.53
831.007	1334.33
831.443	1346.53
831.88	1333.42
832.316	1350.62
832.752	1348.33
833.188	1359.53
833.624	1355.42
834.06	1367.92
834.497	1351.42
834.933	1377.12
835.369	1364.03
835.805	1377.03
836.241	1382.33
836.677	1367.23
837.112	1386.52
837.548	1389.23
837.984	1388.52
838.42	1380.73
838.856	1386.33
839.292	1381.13
839.727	1399.23
840.163	1380.52
840.599	1384.02
841.034	1374.73
841.47	1389.23
841.906	1393.92
842.341	1410.02
842.777	1400.73
843.212	1404.52
843.648	1398.33
844.083	1393.73
844.519	1400.13
844.954	1385.52
845.39	1396.73
845.825	1396.63
846.261	1396.02
846.696	1406.63
847.131	1394.13
847.566	1392.33
848.002	1405.63
848.437	1397.42
848.872	1409.73
849.307	1410.33
849.742	1402.52
850.177	1396.33
850.613	1388.52
851.048	1397.92
851.483	1394.63
851.918	1406.52
852.353	1407.33
852.788	1388.52
853.223	1395.42
853.657	1390.02
854.092	1397.52
854.527	1409.42
854.962	1396.92
855.397	1388.83
855.832	1394.52
856.266	1382.23
856.701	1403.33
857.136	1378.73
857.57	1396.42
858.005	1397.13
858.44	1395.52
858.874	1391.02
859.309	1389.02
859.743	1388.33
860.178	1390.83
860.612	1381.83
861.047	1385.42
861.481	1388.33
861.915	1374.23
862.35	1386.92
862.784	1386.42
863.218	1382.92
863.653	1386.92
864.087	1385.02
864.521	1388.13
864.955	1379.52
865.39	1383.63
865.824	1378.03
866.258	1373.73
866.692	1389.02
867.126	1381.02
867.56	1382.02
867.994	1380.83
868.428	1389.83
868.862	1372.92
869.296	1380.02
869.73	1382.02
870.164	1382.13
870.598	1376.12
871.031	1361.92
871.465	1368.92
871.899	1376.03
872.333	1363.12
872.766	1368.83
873.2	1367.42
873.634	1370.03
874.067	1360.53
874.501	1360.73
874.935	1367.73
875.368	1350.53
875.802	1359.33
876.235	1354.83
876.669	1357.12
877.102	1356.12
877.535	1340.23
877.969	1350.12
878.402	1346.42
878.836	1347.42
879.269	1344.73
879.702	1345.12
880.135	1347.12
880.569	1344.92
881.002	1345.53
881.435	1328.92
881.868	1333.83
882.301	1339.92
882.734	1323.62
883.167	1324.33
883.601	1326.42
884.034	1319.73
884.467	1315.62
884.899	1329.42
885.332	1318.03
885.765	1304.83
886.198	1309.03
886.631	1303.92
887.064	1312.53
887.497	1297.62
887.929	1291.12
888.362	1288.33
888.795	1288.73
889.228	1287.42
889.66	1279.62
890.093	1269.42
890.526	1268.42
890.958	1258.12
891.391	1270.83
891.823	1270.73
892.256	1263.03
892.688	1256.12
893.121	1254.42
893.553	1250.33
893.985	1245.23
894.418	1250.42
894.85	1233.73
895.282	1226.03
895.715	1227.03
896.147	1218.23
896.579	1233.53
897.011	1217.73
897.444	1226.42
897.876	1202.83
898.308	1212.62
898.74	1203.33
899.172	1203.23
899.604	1201.62
900.036	1203.42
900.468	1200.23
900.9	1181.12
901.332	1196.42
901.764	1185.62
902.196	1187.12
902.628	1181.83
903.06	1185.12
903.491	1175.62
903.923	1157.12
904.355	1161.33
904.787	1158.42
905.218	1157.33
905.65	1157.73
906.082	1137.73
906.513	1137.62
906.945	1139.33
907.376	1138.62
907.808	1134.83
908.239	1128.73
908.671	1135.92
909.102	1121.23
909.534	1124.62
909.965	1122.62
910.397	1114.03
910.828	1121.62
911.259	1106.12
911.691	1095.03
912.122	1095.23
912.553	1110.73
912.984	1100.12
913.415	1093.12
913.847	1091.42
914.278	1085.62
914.709	1080.83
915.14	1079.62
915.571	1084.12
916.002	1070.73
916.433	1065.92
916.864	1057.83
917.295	1056.33
917.726	1061.53
918.157	1062.23
918.587	1061.73
919.018	1042.83
919.449	1039.53
919.88	1025.42
920.311	1039.03
920.741	1015.53
921.172	1026.62
921.603	1018.23
922.033	1015.53
922.464	1011.62
922.895	1015.12
923.325	1007.33
923.756	1001.62
924.186	1012.03
924.617	1002.83
925.047	997.83
925.478	1006.23
925.908	1004.62
926.338	999.62
926.769	1017.92
927.199	997.83
927.629	1008.42
928.06	1007.62
928.49	1000.73
928.92	995.53
929.35	1001.62
929.78	1002.92
930.21	1009.12
930.641	1010.83
931.071	1015.12
931.501	1007.92
931.931	1010.12
932.361	1011.33
932.791	1005.83
933.221	996.23
933.651	1009.62
934.08	1005.23
934.51	994.83
934.94	996.53
935.37	996.33
935.8	989.92
936.229	982.42
936.659	971.83
937.089	966.33
937.519	970.92
937.948	960.73
938.378	962.03
938.807	961.83
939.237	949.53
939.666	946.73
940.096	942.62
940.525	934.23
940.955	944.62
941.384	922.03
941.814	916.33
942.243	916.03
942.672	901.62
943.102	894.62
943.531	905.53
943.96	890.73
944.39	894.33
944.819	877.53
945.248	882.83
945.677	871.62
946.106	868.12
946.535	866.73
946.964	869.42
947.393	856.33
947.822	842.73
948.251	840.12
948.68	839.03
949.109	813.33
949.538	829.92
949.967	815.62
950.396	821.62
950.825	805.33
951.254	800.23
951.682	792.83
952.111	796.42
952.54	779.12
952.969	781.83
953.397	778.73
953.826	771.33
954.254	764.33
954.683	753.42
955.112	755.23
955.54	736.62
955.969	741.23
956.397	737.62
956.826	724.12
957.254	727.62
957.682	721.03
958.111	710.62
958.539	698.23
958.967	707.03
959.396	703.62
959.824	688.53
960.252	690.62
960.68	679.73
961.109	679.92
961.537	665.42
961.965	668.12
962.393	656.53
962.821	664.83
963.249	645.53
963.677	638.73
964.105	638.53
964.533	630.53
964.961	625.73
965.389	618.03
965.817	607.03
966.245	605.92
966.672	606.92
967.1	603.23
967.528	595.42
967.956	586.83
968.383	584.53
968.811	582.23
969.239	582.92
969.666	580.62
970.094	568.23
970.522	562.42
970.949	554.23
971.377	557.92
971.804	555.73
972.232	555.53
972.659	544.12
973.087	542.53
973.514	541.73
973.941	526.83
974.369	524.62
974.796	520.33
975.223	518.12
975.651	510.42
976.078	506.83
976.505	507.53
976.932	499.62
977.359	499.12
977.786	496.62
978.214	491.03
978.641	485.62
979.068	477.33
979.495	486.83
979.922	466.73
980.349	470.42
980.776	462.92
981.202	460.12
981.629	464.12
982.056	459.92
982.483	465.92
982.91	446.73
983.337	449.83
983.763	436.12
984.19	443.03
984.617	444.53
985.043	435.53
985.47	432.12
985.897	426.53
986.323	417.62
986.75	410.23
987.176	423.33
987.603	417.92
988.029	407.73
988.456	400.42
988.882	399.83
989.308	398.83
989.735	396.83
990.161	394.92
990.587	383.83
991.014	389.12
991.44	387.23
991.866	382.42
992.292	371.83
992.719	374.12
993.145	370.92
993.571	370.33
993.997	365.42
994.423	361.42
994.849	358.92
995.275	349.53
995.701	352.33
996.127	353.33
996.553	340.83
996.979	351.62
997.405	341.23
997.83	340.73
998.256	341.53
998.682	336.62
999.108	331.83
999.534	334.03
999.959	337.93
1000.385	340.93
1000.811	337.83
1001.236	334.73
1001.662	335.12
1002.087	332.73
1002.513	340.83
1002.938	332.53
1003.364	333.12
1003.789	334.23
1004.215	326.03
1004.64	326.43
1005.066	331.23
1005.491	333.12
1005.916	338.12
1006.342	336.73
1006.767	332.93
1007.192	331.73
1007.617	331.62
1008.042	335.53
1008.468	334.33
1008.893	331.93
1009.318	330.12
1009.743	329.73
1010.168	322.03
1010.593	323.62
1011.018	320.62
1011.443	322.33
1011.868	302.23
1012.293	312.12
1012.718	303.23
1013.143	302.43
1013.567	306.73
1013.992	294.62
1014.417	287.12
1014.842	291.03
1015.267	288.12
1015.691	282.33
1016.116	279.12
1016.541	276.73
1016.965	273.43
1017.39	265.73
1017.814	263.73
1018.239	266.03
1018.663	254.73
1019.088	256.83
1019.512	256.03
1019.937	247.93
1020.361	249.23
1020.785	246.73
1021.21	246.03
1021.634	234.62
1022.058	241.53
1022.483	235.93
1022.907	237.53
1023.331	226.23
1023.755	222.33
1024.179	223.83
1024.604	226.03
1025.028	223.73
1025.452	222.62
1025.876	220.62
1026.3	213.33
1026.724	212.23
1027.148	203.73
1027.572	204.62
1027.996	203.33
1028.42	200.43
1028.843	201.23
1029.267	201.83
1029.691	195.93
1030.115	196.23
1030.539	196.33
1030.962	199.53
1031.386	196.53
1031.81	193.23
1032.233	188.43
1032.657	197.12
1033.08	186.23
1033.504	182.43
1033.927	180.33
1034.351	188.23
1034.774	181.62
1035.198	180.43
1035.621	177.33
1036.045	170.93
1036.468	175.83
1036.891	182.33
1037.315	175.03
1037.738	165.23
1038.161	169.23
1038.584	172.93
1039.008	169.83
1039.431	167.83
1039.854	161.03
1040.277	168.43
1040.7	160.12
1041.123	162.73
1041.546	162.83
1041.969	157.43
1042.392	156.73
1042.815	158.73
1043.238	162.62
1043.661	150.03
1044.084	150.43
1044.507	155.03
1044.93	152.83
1045.352	154.03
1045.775	154.33
1046.198	149.33
1046.621	147.73
1047.043	147.43
1047.466	142.73
1047.889	145.43
1048.311	142.73
1048.734	150.43
1049.156	142.73
1049.579	146.23
1050.001	141.12
1050.424	141.33
1050.846	146.03
1051.269	139.03
1051.691	141.12
1052.113	139.12
1052.536	135.53
1052.958	141.12
1053.38	136.93
1053.802	132.43
1054.225	136.33
1054.647	134.53
1055.069	128.33
1055.491	135.23
1055.913	130.83
1056.335	129.03
1056.757	129.53
1057.179	131.53
1057.601	130.83
1058.023	126.53
1058.445	134.12
1058.867	124.93
1059.289	130.12
1059.711	127.33
1060.133	126.73
1060.555	124.62
1060.976	123.73
1061.398	117.73
1061.82	122.12
1062.241	122.83
1062.663	121.62
1063.085	119.73
1063.506	119.43
1063.928	120.12
1064.35	117.23
1064.771	115.83
1065.193	119.43
1065.614	113.62
1066.035	117.23
1066.457	115.43
1066.878	117.62
1067.3	111.03
1067.721	110.33
1068.142	116.33
1068.564	116.73
1068.985	116.12
1069.406	109.33
1069.827	115.12
1070.248	116.83
1070.67	114.33
1071.091	114.62
1071.512	109.83
1071.933	115.73
1072.354	106.33
1072.775	113.23
1073.196	112.43
1073.617	111.93
1074.038	112.43
1074.459	115.12
1074.88	115.33
1075.3	112.03
1075.721	115.33
1076.142	110.62
1076.563	105.93
1076.983	105.23
1077.404	108.33
1077.825	105.12
1078.246	112.03
1078.666	111.62
1079.087	103.03
1079.507	110.73
1079.928	107.03
1080.348	108.62
1080.769	103.23
1081.189	107.43
1081.61	110.33
1082.03	109.33
1082.451	102.73
1082.871	104.53
1083.291	107.62
1083.711	103.83
1084.132	102.62
1084.552	104.62
1084.972	106.12
1085.392	107.23
1085.813	110.33
1086.233	104.12
1086.653	103.93
1087.073	107.33
1087.493	102.73
1087.913	100.23
1088.333	100.43
1088.753	100.43
1089.173	99.03
1089.593	99.93
1090.013	105.33
1090.433	102.73
1090.852	99.83
1091.272	104.62
1091.692	100.23
1092.112	105.23
1092.531	103.62
1092.951	101.93
1093.371	98.33
1093.79	103.03
1094.21	96.03
1094.63	99.53
1095.049	100.43
1095.469	98.73
1095.888	100.23
1096.308	94.03
1096.727	99.53
1097.146	89.93
1097.566	91.93
1097.985	93.73
1098.405	94.43
1098.824	93.62
1099.243	93.23
1099.662	92.43
1100.082	93.62
1100.501	94.23
1100.92	90.83
1101.339	100.73
1101.758	95.03
