Data from DH-3PlusCalLight-Background_HRD10391_13-40-41-936.txt Node
Date: Thu Feb 15 13:40:41 EST 2018
User: Ender
Spectrometer: HR+D1039
Trigger mode: 0
Integration Time (sec): 2.730000E-2
Scans to average: 10
Electric dark correction enabled: true
Nonlinearity correction enabled: false
Boxcar width: 0
XAxis mode: Wavelengths
Number of Pixels in Spectrum: 2048
>>>>>Begin Spectral Data<<<<<
187.836	-1.43
188.309	-1.43
188.782	-1.43
189.255	-4.23
189.728	-5.53
190.201	-6.23
190.674	-7.43
191.147	-9.23
191.619	-5.43
192.092	-0.43
192.565	-5.53
193.038	-5.53
193.511	-2.83
193.984	10.47
194.456	2.27
194.929	11.27
195.402	14.07
195.874	15.67
196.347	13.67
196.82	24.87
197.292	28.87
197.765	25.87
198.237	31.47
198.71	38.37
199.182	46.07
199.655	45.97
200.127	50.57
200.6	58.67
201.072	63.27
201.544	60.97
202.017	63.67
202.489	65.97
202.961	61.77
203.433	62.97
203.906	74.07
204.378	75.77
204.85	74.87
205.322	76.97
205.794	80.27
206.266	81.57
206.739	79.87
207.211	81.27
207.683	81.47
208.155	77.67
208.627	85.57
209.099	81.27
209.57	82.37
210.042	81.87
210.514	79.47
210.986	80.37
211.458	83.17
211.93	75.77
212.402	79.17
212.873	85.97
213.345	83.27
213.817	80.27
214.288	82.47
214.76	81.87
215.232	78.57
215.703	78.57
216.175	79.27
216.646	77.17
217.118	74.17
217.589	77.37
218.061	72.27
218.532	74.07
219.004	74.57
219.475	73.97
219.946	75.47
220.418	75.47
220.889	77.87
221.36	72.37
221.832	74.77
222.303	73.87
222.774	71.27
223.245	78.67
223.717	76.67
224.188	74.37
224.659	77.37
225.13	76.27
225.601	73.07
226.072	78.47
226.543	73.77
227.014	80.47
227.485	76.57
227.956	75.47
228.427	77.77
228.898	76.07
229.369	70.77
229.839	70.77
230.31	77.57
230.781	76.27
231.252	74.37
231.722	77.47
232.193	69.97
232.664	79.97
233.135	73.57
233.605	75.27
234.076	75.57
234.546	76.07
235.017	76.07
235.487	75.47
235.958	77.97
236.428	75.27
236.899	72.57
237.369	74.97
237.84	77.57
238.31	72.17
238.78	74.17
239.251	77.27
239.721	79.47
240.191	80.27
240.662	75.47
241.132	79.87
241.602	76.67
242.072	77.17
242.542	78.27
243.013	80.37
243.483	82.27
243.953	77.67
244.423	74.17
244.893	77.57
245.363	83.37
245.833	70.57
246.303	77.87
246.773	82.87
247.243	75.07
247.712	81.27
248.182	77.17
248.652	78.37
249.122	77.87
249.592	80.37
250.061	75.67
250.531	80.67
251.001	79.57
251.471	76.67
251.94	82.27
252.41	77.77
252.879	77.77
253.349	78.77
253.818	77.67
254.288	78.77
254.757	75.77
255.227	79.27
255.696	75.87
256.166	79.57
256.635	76.47
257.105	79.97
257.574	75.07
258.043	81.37
258.513	84.37
258.982	78.67
259.451	82.57
259.92	78.47
260.389	74.37
260.859	76.47
261.328	81.97
261.797	81.17
262.266	79.17
262.735	82.97
263.204	78.07
263.673	84.97
264.142	78.77
264.611	78.77
265.08	76.77
265.549	77.67
266.018	75.97
266.487	81.07
266.955	77.17
267.424	72.67
267.893	80.17
268.362	76.77
268.83	78.47
269.299	74.47
269.768	75.27
270.236	74.77
270.705	73.87
271.174	82.67
271.642	76.47
272.111	81.97
272.579	79.97
273.048	78.47
273.516	83.77
273.985	82.67
274.453	77.87
274.922	79.37
275.39	87.27
275.858	80.37
276.327	75.47
276.795	78.47
277.263	80.97
277.731	79.27
278.2	76.97
278.668	81.07
279.136	78.77
279.604	80.97
280.072	72.97
280.54	78.27
281.008	73.87
281.477	73.67
281.945	78.57
282.413	78.17
282.881	83.87
283.348	79.47
283.816	77.27
284.284	77.87
284.752	82.77
285.22	76.37
285.688	80.87
286.156	75.47
286.623	78.67
287.091	81.87
287.559	78.27
288.026	85.27
288.494	80.07
288.962	82.97
289.429	78.77
289.897	80.07
290.364	80.47
290.832	78.67
291.3	80.87
291.767	80.07
292.234	83.97
292.702	83.27
293.169	81.17
293.637	78.67
294.104	79.77
294.571	87.77
295.039	80.87
295.506	84.27
295.973	83.37
296.44	78.47
296.908	83.07
297.375	82.27
297.842	81.67
298.309	75.27
298.776	81.97
299.243	83.17
299.71	82.87
300.177	82.17
300.644	77.17
301.111	79.97
301.578	79.47
302.045	84.27
302.512	79.97
302.979	82.17
303.446	86.07
303.913	77.67
304.379	80.67
304.846	79.57
305.313	82.87
305.78	80.17
306.246	77.77
306.713	74.87
307.18	84.97
307.646	80.77
308.113	76.57
308.579	85.37
309.046	86.97
309.512	79.57
309.979	82.57
310.445	81.67
310.912	80.47
311.378	79.77
311.845	81.57
312.311	78.47
312.777	79.77
313.244	81.17
313.71	85.27
314.176	76.67
314.642	80.87
315.109	79.77
315.575	85.17
316.041	82.87
316.507	84.07
316.973	81.47
317.439	80.27
317.905	81.37
318.371	80.77
318.837	88.67
319.303	79.07
319.769	85.77
320.235	78.37
320.701	86.27
321.167	86.57
321.633	81.77
322.099	84.17
322.564	79.17
323.03	82.27
323.496	85.77
323.962	79.97
324.427	83.67
324.893	83.27
325.359	82.87
325.824	77.97
326.29	81.57
326.755	84.57
327.221	89.77
327.686	81.77
328.152	81.77
328.617	82.87
329.083	78.97
329.548	80.67
330.014	80.07
330.479	85.67
330.944	81.07
331.41	78.37
331.875	81.07
332.34	83.77
332.805	85.67
333.271	76.47
333.736	83.57
334.201	84.27
334.666	83.87
335.131	82.47
335.596	82.57
336.061	85.47
336.526	81.57
336.991	78.17
337.456	84.47
337.921	86.37
338.386	84.97
338.851	83.87
339.316	84.87
339.781	79.07
340.246	79.57
340.711	75.47
341.175	79.37
341.64	86.77
342.105	89.17
342.569	82.17
343.034	82.07
343.499	85.57
343.963	78.77
344.428	79.87
344.893	79.27
345.357	86.67
345.822	82.07
346.286	78.77
346.751	78.67
347.215	83.37
347.679	83.87
348.144	78.77
348.608	84.17
349.073	83.07
349.537	81.07
350.001	83.77
350.465	81.17
350.93	81.77
351.394	82.57
351.858	82.77
352.322	76.07
352.786	81.47
353.25	78.67
353.715	85.97
354.179	82.77
354.643	82.27
355.107	80.57
355.571	82.37
356.035	81.97
356.498	84.67
356.962	79.17
357.426	77.57
357.89	88.87
358.354	85.57
358.818	80.37
359.281	81.87
359.745	82.97
360.209	83.67
360.673	82.17
361.136	77.67
361.6	81.77
362.064	81.37
362.527	84.27
362.991	81.27
363.454	86.37
363.918	83.47
364.381	74.97
364.845	74.37
365.308	85.27
365.772	79.77
366.235	79.67
366.698	86.07
367.162	79.57
367.625	80.27
368.088	81.47
368.552	85.67
369.015	81.17
369.478	80.97
369.941	83.67
370.404	84.97
370.867	82.97
371.331	79.97
371.794	78.07
372.257	81.57
372.72	83.57
373.183	81.17
373.646	82.77
374.109	83.17
374.572	85.87
375.035	79.57
375.497	81.57
375.96	81.87
376.423	80.77
376.886	83.17
377.349	87.97
377.811	83.67
378.274	80.47
378.737	79.27
379.199	79.37
379.662	76.37
380.125	79.87
380.587	82.77
381.05	79.77
381.512	82.47
381.975	80.37
382.437	80.27
382.9	82.37
383.362	83.57
383.825	80.97
384.287	84.07
384.75	81.67
385.212	79.77
385.674	81.87
386.136	79.37
386.599	86.27
387.061	81.67
387.523	81.97
387.985	83.37
388.447	88.47
388.91	82.37
389.372	81.07
389.834	79.07
390.296	80.47
390.758	83.17
391.22	78.87
391.682	89.27
392.144	79.97
392.606	84.07
393.068	84.67
393.529	79.67
393.991	83.57
394.453	83.77
394.915	85.07
395.377	76.97
395.838	82.37
396.3	80.57
396.762	87.47
397.224	78.97
397.685	82.27
398.147	82.17
398.608	79.57
399.07	84.57
399.531	83.67
399.993	81.67
400.454	80.97
400.916	77.57
401.377	89.17
401.839	79.07
402.3	81.87
402.762	87.87
403.223	78.57
403.684	81.47
404.145	78.17
404.607	79.77
405.068	77.67
405.529	84.17
405.99	79.87
406.451	84.17
406.913	78.87
407.374	81.67
407.835	83.07
408.296	80.87
408.757	81.07
409.218	79.77
409.679	80.77
410.14	82.27
410.601	79.97
411.062	76.37
411.522	85.47
411.983	83.97
412.444	79.57
412.905	83.77
413.366	82.17
413.826	83.57
414.287	84.27
414.748	82.07
415.208	78.87
415.669	77.77
416.13	85.77
416.59	82.27
417.051	84.57
417.511	78.37
417.972	83.77
418.432	83.77
418.893	84.07
419.353	83.67
419.814	85.77
420.274	84.37
420.734	78.17
421.195	84.57
421.655	82.87
422.115	85.07
422.576	90.97
423.036	80.27
423.496	83.57
423.956	75.97
424.416	80.57
424.876	83.57
425.336	82.47
425.797	76.47
426.257	77.87
426.717	83.27
427.177	78.67
427.637	84.37
428.097	82.67
428.556	85.77
429.016	80.87
429.476	78.37
429.936	80.47
430.396	84.27
430.856	79.07
431.315	81.17
431.775	80.87
432.235	84.97
432.694	84.37
433.154	83.67
433.614	77.67
434.073	82.97
434.533	80.77
434.993	85.17
435.452	83.87
435.912	82.07
436.371	79.77
436.83	87.77
437.29	82.57
437.749	77.67
438.209	82.67
438.668	82.57
439.127	84.57
439.587	82.07
440.046	87.47
440.505	79.87
440.964	78.47
441.424	78.27
441.883	84.77
442.342	84.17
442.801	85.17
443.26	83.17
443.719	85.27
444.178	86.57
444.637	80.77
445.096	85.77
445.555	84.37
446.014	83.17
446.473	81.97
446.932	79.57
447.391	80.97
447.849	85.87
448.308	78.97
448.767	85.97
449.226	92.37
449.685	83.17
450.143	88.07
450.602	85.27
451.061	78.57
451.519	85.77
451.978	88.17
452.436	84.27
452.895	81.37
453.353	88.27
453.812	84.27
454.27	87.37
454.729	86.97
455.187	86.27
455.646	88.67
456.104	83.57
456.562	91.57
457.021	87.87
457.479	85.07
457.937	88.47
458.395	82.07
458.854	80.47
459.312	83.37
459.77	86.37
460.228	87.67
460.686	85.77
461.144	82.57
461.602	81.97
462.06	83.87
462.518	85.77
462.976	81.87
463.434	78.97
463.892	89.47
464.35	85.27
464.808	84.17
465.266	85.67
465.724	87.87
466.181	83.47
466.639	86.27
467.097	85.77
467.555	87.57
468.012	88.07
468.47	81.07
468.928	82.47
469.385	89.47
469.843	83.87
470.3	83.87
470.758	77.67
471.215	91.77
471.673	86.27
472.13	84.17
472.588	83.57
473.045	79.97
473.503	85.57
473.96	88.67
474.417	90.77
474.875	77.87
475.332	85.67
475.789	86.77
476.246	80.67
476.704	82.57
477.161	85.57
477.618	85.87
478.075	87.07
478.532	88.37
478.989	89.47
479.446	88.57
479.903	88.67
480.36	90.57
480.817	84.97
481.274	87.77
481.731	91.67
482.188	90.77
482.645	89.57
483.102	83.57
483.558	91.37
484.015	88.97
484.472	87.27
484.929	95.97
485.385	86.47
485.842	89.87
486.299	82.57
486.755	87.37
487.212	89.07
487.668	86.67
488.125	86.47
488.582	87.27
489.038	90.87
489.494	86.27
489.951	97.17
490.407	89.87
490.864	92.17
491.32	88.07
491.776	89.17
492.233	86.07
492.689	89.27
493.145	95.77
493.602	87.57
494.058	87.77
494.514	92.87
494.97	93.57
495.426	89.07
495.882	88.97
496.338	90.17
496.794	82.97
497.251	94.57
497.707	86.37
498.163	89.17
498.618	88.57
499.074	88.67
499.53	97.57
499.986	90.17
500.442	86.37
500.898	86.67
501.354	86.47
501.809	91.67
502.265	90.37
502.721	90.67
503.177	91.37
503.632	93.47
504.088	90.67
504.543	93.87
504.999	89.87
505.455	94.67
505.91	87.77
506.366	93.47
506.821	87.07
507.277	91.77
507.732	93.27
508.187	89.67
508.643	90.97
509.098	92.17
509.553	91.87
510.009	91.87
510.464	87.57
510.919	87.87
511.375	84.37
511.83	88.67
512.285	86.27
512.74	88.87
513.195	89.07
513.65	92.27
514.105	90.27
514.56	88.67
515.015	96.97
515.47	89.47
515.925	89.57
516.38	87.17
516.835	91.37
517.29	85.17
517.745	91.37
518.2	88.37
518.655	92.47
519.109	88.27
519.564	89.47
520.019	92.47
520.474	86.87
520.928	88.57
521.383	88.07
521.838	87.87
522.292	89.87
522.747	80.87
523.201	87.17
523.656	90.17
524.11	88.37
524.565	92.17
525.019	89.47
525.474	86.67
525.928	94.97
526.382	89.27
526.837	93.97
527.291	92.67
527.745	89.77
528.2	89.47
528.654	90.77
529.108	94.17
529.562	90.37
530.016	85.17
530.47	84.77
530.925	86.77
531.379	91.17
531.833	86.57
532.287	93.87
532.741	92.07
533.195	90.47
533.649	87.17
534.103	91.87
534.556	86.67
535.01	89.37
535.464	86.87
535.918	86.47
536.372	90.97
536.826	90.47
537.279	88.57
537.733	89.57
538.187	89.77
538.64	89.27
539.094	90.87
539.548	92.97
540.001	92.47
540.455	88.37
540.908	85.87
541.362	85.87
541.815	94.27
542.269	93.97
542.722	91.27
543.175	86.57
543.629	88.17
544.082	89.47
544.536	88.27
544.989	91.77
545.442	89.47
545.895	84.07
546.349	88.37
546.802	92.07
547.255	90.97
547.708	93.77
548.161	89.77
548.614	86.37
549.067	93.57
549.52	86.37
549.973	90.47
550.426	86.97
550.879	92.47
551.332	91.17
551.785	88.37
552.238	88.47
552.691	88.57
553.144	90.87
553.596	89.77
554.049	88.77
554.502	85.17
554.955	89.77
555.407	88.67
555.86	86.97
556.313	90.67
556.765	88.07
557.218	91.07
557.67	93.97
558.123	95.27
558.576	86.57
559.028	90.27
559.48	89.97
559.933	91.37
560.385	88.27
560.838	91.77
561.29	90.77
561.742	88.97
562.195	92.67
562.647	88.77
563.099	90.47
563.551	93.37
564.004	87.67
564.456	98.27
564.908	81.27
565.36	86.87
565.812	88.47
566.264	86.47
566.716	88.17
567.168	90.37
567.62	88.47
568.072	93.17
568.524	91.57
568.976	88.77
569.428	90.37
569.88	86.17
570.332	92.97
570.784	92.27
571.235	88.57
571.687	88.57
572.139	90.47
572.59	91.37
573.042	89.77
573.494	88.47
573.945	91.17
574.397	95.17
574.849	93.07
575.3	92.97
575.752	93.17
576.203	89.47
576.655	88.07
577.106	86.27
577.557	88.87
578.009	84.37
578.46	89.37
578.912	86.97
579.363	93.67
579.814	91.37
580.265	91.97
580.717	87.57
581.168	87.37
581.619	91.07
582.07	92.27
582.521	92.37
582.972	88.37
583.423	87.67
583.875	90.97
584.326	86.27
584.777	89.47
585.227	88.87
585.678	95.77
586.129	86.37
586.58	88.47
587.031	92.17
587.482	86.77
587.933	94.07
588.384	85.77
588.834	93.37
589.285	91.97
589.736	87.17
590.186	88.27
590.637	85.77
591.088	89.67
591.538	86.67
591.989	90.57
592.439	88.17
592.89	90.67
593.34	88.17
593.791	83.17
594.241	88.97
594.692	87.27
595.142	91.67
595.593	89.97
596.043	89.97
596.493	92.57
596.943	95.47
597.394	93.37
597.844	91.47
598.294	90.47
598.744	87.97
599.195	91.17
599.645	92.07
600.095	89.07
600.545	93.37
600.995	89.47
601.445	91.37
601.895	90.47
602.345	88.47
602.795	87.97
603.245	91.87
603.695	95.97
604.145	89.87
604.594	83.37
605.044	89.57
605.494	93.17
605.944	88.47
606.393	94.17
606.843	88.77
607.293	84.97
607.743	86.37
608.192	92.97
608.642	92.37
609.091	84.47
609.541	89.17
609.99	90.57
610.44	95.27
610.889	88.87
611.339	88.27
611.788	94.17
612.238	90.97
612.687	89.87
613.136	88.17
613.586	91.77
614.035	95.17
614.484	91.27
614.933	87.27
615.383	98.37
615.832	93.07
616.281	93.07
616.73	88.47
617.179	85.97
617.628	89.77
618.077	89.27
618.526	92.37
618.975	87.77
619.424	88.87
619.873	85.47
620.322	91.27
620.771	87.17
621.22	93.67
621.669	96.47
622.118	88.87
622.567	96.07
623.015	96.47
623.464	89.87
623.913	92.17
624.361	94.07
624.81	93.57
625.259	95.27
625.707	93.47
626.156	87.77
626.604	95.57
627.053	90.47
627.501	90.27
627.95	93.27
628.398	85.17
628.847	91.17
629.295	88.67
629.744	88.37
630.192	93.17
630.64	92.57
631.089	95.17
631.537	88.87
631.985	95.17
632.433	92.47
632.881	89.27
633.33	92.57
633.778	96.67
634.226	89.87
634.674	89.17
635.122	91.57
635.57	92.17
636.018	88.17
636.466	92.17
636.914	93.17
637.362	90.47
637.81	94.17
638.258	95.47
638.705	91.87
639.153	93.87
639.601	91.27
640.049	89.37
640.497	91.87
640.944	93.87
641.392	89.17
641.84	90.37
642.287	94.07
642.735	89.07
643.182	91.67
643.63	91.07
644.078	89.27
644.525	92.07
644.973	87.77
645.42	91.27
645.867	88.47
646.315	88.27
646.762	89.57
647.21	90.87
647.657	92.97
648.104	90.07
648.551	90.97
648.999	95.67
649.446	91.67
649.893	86.47
650.34	95.17
650.787	89.17
651.234	92.47
651.682	89.37
652.129	89.57
652.576	91.07
653.023	94.87
653.47	89.07
653.917	87.17
654.363	90.27
654.81	86.47
655.257	92.17
655.704	86.67
656.151	89.57
656.598	91.87
657.044	93.37
657.491	90.87
657.938	90.17
658.385	93.77
658.831	91.07
659.278	89.47
659.724	91.07
660.171	89.27
660.618	88.17
661.064	90.77
661.511	90.47
661.957	86.77
662.404	93.77
662.85	92.27
663.296	93.77
663.743	94.47
664.189	91.27
664.635	95.07
665.082	88.87
665.528	89.57
665.974	86.57
666.42	93.57
666.867	90.37
667.313	90.77
667.759	90.37
668.205	89.07
668.651	94.07
669.097	93.47
669.543	93.07
669.989	89.57
670.435	85.97
670.881	89.37
671.327	90.27
671.773	95.97
672.219	92.37
672.665	94.37
673.11	93.37
673.556	90.27
674.002	92.57
674.448	92.67
674.893	92.67
675.339	88.27
675.785	86.07
676.23	83.67
676.676	86.77
677.122	90.77
677.567	94.37
678.013	91.97
678.458	89.87
678.904	88.07
679.349	93.97
679.794	86.67
680.24	85.17
680.685	88.17
681.131	89.97
681.576	93.07
682.021	86.97
682.466	84.97
682.912	96.27
683.357	90.97
683.802	87.77
684.247	85.47
684.692	94.87
685.137	88.57
685.583	87.67
686.028	90.07
686.473	86.97
686.918	91.37
687.363	89.17
687.807	86.87
688.252	92.47
688.697	91.47
689.142	91.27
689.587	90.57
690.032	88.27
690.477	89.87
690.921	87.27
691.366	90.17
691.811	92.77
692.255	94.07
692.7	86.47
693.145	91.57
693.589	86.87
694.034	88.77
694.478	85.47
694.923	89.67
695.367	89.57
695.812	92.87
696.256	88.87
696.701	86.47
697.145	88.17
697.59	91.97
698.034	89.17
698.478	84.87
698.922	90.27
699.367	92.67
699.811	92.07
700.255	86.07
700.699	86.47
701.143	87.87
701.588	85.27
702.032	90.77
702.476	88.47
702.92	90.57
703.364	90.47
703.808	87.87
704.252	86.47
704.696	85.57
705.14	84.37
705.584	88.17
706.027	92.77
706.471	89.37
706.915	91.07
707.359	89.27
707.803	82.57
708.246	91.57
708.69	84.87
709.134	87.77
709.577	88.37
710.021	90.67
710.465	83.17
710.908	85.17
711.352	86.47
711.795	90.67
712.239	87.47
712.682	84.17
713.126	87.37
713.569	85.27
714.012	92.07
714.456	89.87
714.899	88.77
715.342	83.87
715.786	87.47
716.229	88.37
716.672	92.67
717.115	85.27
717.558	86.77
718.002	92.07
718.445	86.07
718.888	87.67
719.331	88.67
719.774	88.17
720.217	93.37
720.66	83.37
721.103	87.47
721.546	81.67
721.989	90.07
722.432	84.97
722.874	86.57
723.317	92.17
723.76	88.07
724.203	90.17
724.645	87.67
725.088	86.37
725.531	86.57
725.974	86.77
726.416	90.07
726.859	89.17
727.301	90.67
727.744	84.47
728.187	88.07
728.629	89.17
729.071	90.47
729.514	91.67
729.956	90.27
730.399	88.17
730.841	85.97
731.283	86.37
731.726	88.37
732.168	87.67
732.61	84.07
733.053	90.37
733.495	87.27
733.937	84.47
734.379	91.37
734.821	91.37
735.263	89.07
735.705	84.97
736.148	82.47
736.59	84.37
737.032	86.67
737.474	89.37
737.916	91.37
738.357	87.87
738.799	85.07
739.241	86.07
739.683	83.57
740.125	87.87
740.567	86.07
741.008	85.97
741.45	82.87
741.892	86.37
742.334	86.97
742.775	84.17
743.217	86.17
743.658	85.87
744.1	89.37
744.542	88.47
744.983	80.77
745.425	88.57
745.866	89.07
746.307	88.27
746.749	88.67
747.19	86.97
747.632	85.27
748.073	85.87
748.514	87.87
748.956	83.37
749.397	89.77
749.838	86.57
750.279	87.17
750.72	83.87
751.162	88.97
751.603	84.17
752.044	86.87
752.485	84.87
752.926	86.77
753.367	90.57
753.808	85.57
754.249	89.77
754.69	82.87
755.131	85.77
755.572	84.17
756.013	85.87
756.453	92.87
756.894	87.37
757.335	89.47
757.776	87.97
758.216	82.47
758.657	85.67
759.098	90.17
759.538	87.47
759.979	82.07
760.42	92.37
760.86	86.77
761.301	87.87
761.741	85.27
762.182	92.57
762.622	82.67
763.063	85.97
763.503	89.77
763.943	87.27
764.384	93.17
764.824	87.27
765.264	83.67
765.705	89.17
766.145	86.97
766.585	84.67
767.025	87.97
767.465	82.97
767.906	88.57
768.346	85.47
768.786	85.27
769.226	84.87
769.666	82.47
770.106	85.67
770.546	88.07
770.986	84.27
771.426	95.27
771.866	89.37
772.306	85.47
772.745	84.17
773.185	91.07
773.625	90.07
774.065	90.77
774.505	83.37
774.944	88.97
775.384	89.07
775.824	84.67
776.263	88.57
776.703	83.27
777.142	91.17
777.582	81.07
778.021	87.37
778.461	91.57
778.9	80.57
779.34	89.17
779.779	83.57
780.219	87.77
780.658	84.97
781.097	90.57
781.537	88.77
781.976	86.27
782.415	87.57
782.855	85.57
783.294	87.27
783.733	82.27
784.172	86.67
784.611	91.57
785.05	83.37
785.489	85.87
785.928	87.77
786.367	89.37
786.806	86.87
787.245	91.07
787.684	87.57
788.123	87.67
788.562	90.87
789.001	85.07
789.44	92.17
789.879	86.97
790.317	85.07
790.756	84.47
791.195	91.07
791.634	88.37
792.072	83.07
792.511	83.87
792.95	86.07
793.388	87.77
793.827	85.87
794.265	83.47
794.704	83.27
795.142	86.47
795.581	94.87
796.019	80.97
796.458	86.67
796.896	82.97
797.334	83.07
797.773	88.27
798.211	86.27
798.649	87.87
799.087	85.97
799.526	86.37
799.964	88.17
800.402	86.17
800.84	89.17
801.278	85.67
801.716	89.77
802.154	83.47
802.592	91.47
803.03	89.07
803.468	89.17
803.906	85.47
804.344	88.57
804.782	84.97
805.22	87.27
805.658	93.37
806.096	90.87
806.533	95.77
806.971	83.17
807.409	88.27
807.847	87.97
808.284	89.37
808.722	87.37
809.16	81.47
809.597	91.47
810.035	85.67
810.472	91.37
810.91	91.37
811.347	89.17
811.785	83.07
812.222	89.57
812.66	90.17
813.097	85.87
813.535	84.57
813.972	85.97
814.409	87.87
814.846	87.67
815.284	89.37
815.721	88.47
816.158	88.27
816.595	80.57
817.032	88.17
817.47	82.57
817.907	85.17
818.344	84.17
818.781	82.07
819.218	91.77
819.655	88.17
820.092	90.17
820.529	89.07
820.966	85.07
821.403	89.57
821.839	85.27
822.276	90.67
822.713	85.77
823.15	86.87
823.587	82.67
824.023	87.97
824.46	88.17
824.897	85.87
825.333	87.87
825.77	85.47
826.206	88.17
826.643	89.67
827.08	92.37
827.516	82.17
827.953	89.27
828.389	87.47
828.825	90.77
829.262	85.57
829.698	86.37
830.135	84.97
830.571	91.37
831.007	87.27
831.443	83.97
831.88	84.37
832.316	89.47
832.752	84.57
833.188	80.67
833.624	86.27
834.06	86.47
834.497	86.37
834.933	87.87
835.369	88.87
835.805	84.17
836.241	83.27
836.677	84.47
837.112	88.87
837.548	85.07
837.984	85.97
838.42	81.07
838.856	89.87
839.292	88.27
839.727	91.47
840.163	93.37
840.599	87.87
841.034	90.27
841.47	82.37
841.906	87.07
842.341	85.57
842.777	91.27
843.212	90.17
843.648	88.47
844.083	87.67
844.519	84.37
844.954	86.07
845.39	81.87
845.825	85.77
846.261	91.37
846.696	85.87
847.131	87.77
847.566	86.27
848.002	86.57
848.437	84.97
848.872	88.97
849.307	82.27
849.742	85.97
850.177	90.57
850.613	88.27
851.048	89.67
851.483	86.27
851.918	84.47
852.353	82.47
852.788	87.37
853.223	86.17
853.657	80.47
854.092	90.87
854.527	86.97
854.962	84.27
855.397	85.27
855.832	86.17
856.266	88.57
856.701	91.77
857.136	85.77
857.57	87.77
858.005	89.27
858.44	85.27
858.874	86.37
859.309	83.57
859.743	91.57
860.178	87.27
860.612	86.67
861.047	93.17
861.481	85.27
861.915	86.57
862.35	85.47
862.784	90.57
863.218	86.17
863.653	88.27
864.087	86.77
864.521	83.47
864.955	87.97
865.39	84.07
865.824	87.37
866.258	90.57
866.692	87.17
867.126	90.67
867.56	89.27
867.994	87.57
868.428	82.57
868.862	83.47
869.296	84.67
869.73	87.67
870.164	86.47
870.598	89.17
871.031	83.27
871.465	84.67
871.899	85.77
872.333	86.67
872.766	90.07
873.2	87.37
873.634	89.97
874.067	83.77
874.501	85.57
874.935	90.17
875.368	78.57
875.802	89.47
876.235	87.77
876.669	92.17
877.102	87.87
877.535	94.07
877.969	81.57
878.402	87.27
878.836	85.97
879.269	83.37
879.702	91.07
880.135	92.77
880.569	87.57
881.002	88.07
881.435	85.37
881.868	88.67
882.301	83.77
882.734	90.57
883.167	90.47
883.601	91.47
884.034	89.17
884.467	86.57
884.899	87.07
885.332	86.27
885.765	84.87
886.198	82.57
886.631	90.37
887.064	84.17
887.497	91.97
887.929	91.47
888.362	89.07
888.795	87.67
889.228	81.87
889.66	85.17
890.093	86.77
890.526	92.07
890.958	85.57
891.391	92.67
891.823	86.37
892.256	90.07
892.688	86.57
893.121	88.87
893.553	93.27
893.985	85.17
894.418	84.17
894.85	87.47
895.282	86.27
895.715	87.37
896.147	81.67
896.579	88.97
897.011	83.97
897.444	87.97
897.876	84.07
898.308	89.47
898.74	82.37
899.172	90.57
899.604	91.37
900.036	89.57
900.468	86.47
900.9	87.17
901.332	84.27
901.764	81.87
902.196	86.77
902.628	83.87
903.06	88.47
903.491	86.07
903.923	86.47
904.355	87.47
904.787	87.97
905.218	84.17
905.65	87.47
906.082	86.67
906.513	87.77
906.945	84.37
907.376	90.97
907.808	84.47
908.239	93.77
908.671	84.97
909.102	87.37
909.534	88.17
909.965	89.17
910.397	88.67
910.828	87.57
911.259	89.57
911.691	85.87
912.122	92.37
912.553	84.67
912.984	80.67
913.415	86.17
913.847	86.77
914.278	88.87
914.709	87.47
915.14	88.47
915.571	84.97
916.002	90.17
916.433	89.27
916.864	86.37
917.295	83.97
917.726	87.57
918.157	87.57
918.587	79.97
919.018	83.77
919.449	82.87
919.88	86.47
920.311	88.37
920.741	88.37
921.172	83.57
921.603	86.17
922.033	88.17
922.464	85.67
922.895	90.07
923.325	86.27
923.756	90.97
924.186	83.37
924.617	87.87
925.047	86.37
925.478	87.87
925.908	86.87
926.338	85.07
926.769	85.17
927.199	86.67
927.629	86.97
928.06	89.47
928.49	88.97
928.92	89.87
929.35	84.97
929.78	85.97
930.21	88.97
930.641	87.77
931.071	86.87
931.501	85.67
931.931	84.57
932.361	87.47
932.791	88.37
933.221	86.97
933.651	86.07
934.08	83.27
934.51	85.17
934.94	84.77
935.37	90.87
935.8	82.07
936.229	83.47
936.659	89.87
937.089	83.27
937.519	85.37
937.948	87.67
938.378	85.67
938.807	84.87
939.237	77.57
939.666	84.87
940.096	87.77
940.525	83.37
940.955	85.67
941.384	83.67
941.814	87.17
942.243	85.67
942.672	82.17
943.102	87.47
943.531	84.57
943.96	85.57
944.39	88.57
944.819	88.27
945.248	88.77
945.677	81.57
946.106	86.17
946.535	86.47
946.964	84.67
947.393	87.37
947.822	83.27
948.251	89.37
948.68	80.97
949.109	86.77
949.538	88.37
949.967	81.67
950.396	89.27
950.825	87.57
951.254	88.97
951.682	83.97
952.111	84.37
952.54	86.47
952.969	86.67
953.397	85.57
953.826	86.27
954.254	81.67
954.683	86.27
955.112	83.97
955.54	84.17
955.969	81.67
956.397	85.57
956.826	82.27
957.254	84.07
957.682	84.07
958.111	87.67
958.539	77.57
958.967	80.97
959.396	82.57
959.824	83.07
960.252	85.97
960.68	88.77
961.109	88.17
961.537	85.67
961.965	85.27
962.393	82.07
962.821	86.27
963.249	80.27
963.677	85.37
964.105	90.17
964.533	76.87
964.961	84.07
965.389	82.87
965.817	87.37
966.245	93.17
966.672	81.77
967.1	81.77
967.528	75.07
967.956	80.97
968.383	81.97
968.811	83.37
969.239	82.67
969.666	81.17
970.094	81.47
970.522	78.67
970.949	83.67
971.377	78.97
971.804	82.77
972.232	87.37
972.659	82.47
973.087	84.87
973.514	87.67
973.941	87.27
974.369	84.47
974.796	81.07
975.223	83.67
975.651	87.37
976.078	85.47
976.505	87.57
976.932	83.47
977.359	85.57
977.786	81.67
978.214	78.87
978.641	86.27
979.068	79.97
979.495	84.27
979.922	85.47
980.349	81.97
980.776	82.57
981.202	78.17
981.629	85.97
982.056	78.97
982.483	87.77
982.91	85.37
983.337	87.37
983.763	82.57
984.19	85.67
984.617	80.87
985.043	86.77
985.47	86.67
985.897	83.87
986.323	79.97
986.75	80.37
987.176	85.07
987.603	82.67
988.029	83.37
988.456	83.17
988.882	83.17
989.308	77.37
989.735	80.67
990.161	80.87
990.587	84.87
991.014	86.87
991.44	81.47
991.866	82.87
992.292	86.07
992.719	79.67
993.145	86.87
993.571	84.27
993.997	83.37
994.423	82.77
994.849	87.77
995.275	83.17
995.701	82.27
996.127	83.47
996.553	83.47
996.979	81.17
997.405	78.07
997.83	81.37
998.256	83.77
998.682	80.57
999.108	80.97
999.534	81.17
999.959	80.27
1000.385	80.67
1000.811	86.87
1001.236	80.57
1001.662	80.27
1002.087	77.87
1002.513	84.07
1002.938	85.67
1003.364	84.27
1003.789	85.67
1004.215	78.87
1004.64	81.37
1005.066	78.97
1005.491	80.27
1005.916	84.97
1006.342	81.77
1006.767	86.37
1007.192	77.77
1007.617	84.27
1008.042	81.37
1008.468	82.67
1008.893	83.37
1009.318	82.57
1009.743	81.47
1010.168	80.27
1010.593	83.77
1011.018	79.37
1011.443	83.17
1011.868	78.67
1012.293	84.97
1012.718	82.07
1013.143	82.77
1013.567	82.07
1013.992	84.97
1014.417	83.47
1014.842	82.97
1015.267	85.17
1015.691	82.97
1016.116	86.67
1016.541	82.17
1016.965	79.27
1017.39	90.17
1017.814	83.57
1018.239	84.67
1018.663	80.87
1019.088	78.47
1019.512	83.47
1019.937	82.67
1020.361	79.07
1020.785	76.07
1021.21	82.97
1021.634	80.97
1022.058	85.97
1022.483	85.27
1022.907	83.57
1023.331	84.17
1023.755	78.67
1024.179	80.77
1024.604	87.17
1025.028	86.57
1025.452	81.67
1025.876	79.57
1026.3	74.87
1026.724	88.17
1027.148	80.17
1027.572	78.17
1027.996	82.07
1028.42	81.77
1028.843	81.17
1029.267	77.47
1029.691	81.77
1030.115	79.67
1030.539	84.07
1030.962	79.27
1031.386	79.87
1031.81	81.97
1032.233	82.77
1032.657	85.07
1033.08	82.17
1033.504	80.97
1033.927	80.37
1034.351	79.97
1034.774	85.37
1035.198	81.67
1035.621	80.57
1036.045	83.17
1036.468	85.07
1036.891	82.17
1037.315	86.07
1037.738	86.67
1038.161	84.87
1038.584	81.47
1039.008	84.07
1039.431	77.77
1039.854	80.57
1040.277	85.37
1040.7	80.87
1041.123	80.67
1041.546	77.77
1041.969	82.87
1042.392	80.17
1042.815	79.77
1043.238	81.97
1043.661	78.07
1044.084	83.77
1044.507	81.67
1044.93	79.97
1045.352	80.27
1045.775	87.07
1046.198	81.97
1046.621	78.27
1047.043	83.17
1047.466	80.07
1047.889	84.07
1048.311	77.97
1048.734	84.07
1049.156	80.67
1049.579	77.37
1050.001	80.07
1050.424	84.67
1050.846	82.77
1051.269	81.27
1051.691	80.37
1052.113	81.77
1052.536	79.47
1052.958	82.77
1053.38	83.77
1053.802	84.07
1054.225	81.77
1054.647	82.07
1055.069	81.77
1055.491	82.77
1055.913	81.27
1056.335	83.87
1056.757	81.67
1057.179	78.07
1057.601	83.77
1058.023	78.87
1058.445	79.67
1058.867	76.97
1059.289	80.27
1059.711	81.67
1060.133	82.27
1060.555	82.47
1060.976	81.87
1061.398	80.47
1061.82	84.97
1062.241	83.27
1062.663	80.27
1063.085	76.37
1063.506	83.77
1063.928	84.17
1064.35	76.37
1064.771	77.57
1065.193	81.77
1065.614	80.77
1066.035	79.47
1066.457	82.47
1066.878	77.57
1067.3	81.77
1067.721	85.37
1068.142	80.97
1068.564	81.27
1068.985	85.47
1069.406	74.37
1069.827	81.87
1070.248	84.87
1070.67	79.77
1071.091	83.37
1071.512	78.87
1071.933	77.37
1072.354	83.97
1072.775	75.77
1073.196	82.87
1073.617	79.47
1074.038	81.87
1074.459	78.57
1074.88	80.77
1075.3	78.07
1075.721	80.77
1076.142	82.17
1076.563	81.57
1076.983	80.67
1077.404	88.27
1077.825	81.17
1078.246	81.97
1078.666	81.47
1079.087	78.87
1079.507	79.47
1079.928	86.67
1080.348	82.67
1080.769	84.17
1081.189	80.27
1081.61	81.57
1082.03	86.17
1082.451	81.97
1082.871	83.27
1083.291	79.97
1083.711	79.17
1084.132	76.67
1084.552	83.67
1084.972	82.77
1085.392	83.37
1085.813	83.27
1086.233	87.77
1086.653	81.87
1087.073	80.57
1087.493	81.77
1087.913	77.17
1088.333	80.47
1088.753	83.27
1089.173	78.87
1089.593	80.97
1090.013	82.37
1090.433	79.97
1090.852	79.67
1091.272	84.07
1091.692	84.67
1092.112	80.87
1092.531	79.97
1092.951	78.57
1093.371	85.37
1093.79	78.47
1094.21	75.57
1094.63	78.77
1095.049	80.17
1095.469	81.27
1095.888	77.17
1096.308	80.17
1096.727	84.57
1097.146	86.67
1097.566	81.47
1097.985	84.27
1098.405	85.37
1098.824	83.67
1099.243	79.27
1099.662	83.77
1100.082	81.87
1100.501	81.67
1100.92	82.57
1101.339	77.37
1101.758	86.67
