Data from DH-3PlusCalLight-DeuteriumHalogen_HRD10391_13-38-34-990.txt Node
Date: Thu Feb 15 13:38:34 EST 2018
User: Ender
Spectrometer: HR+D1039
Trigger mode: 0
Integration Time (sec): 2.730000E-2
Scans to average: 10
Electric dark correction enabled: true
Nonlinearity correction enabled: false
Boxcar width: 0
XAxis mode: Wavelengths
Number of Pixels in Spectrum: 2048
>>>>>Begin Spectral Data<<<<<
187.836	-0.2
188.309	-0.2
188.782	-0.2
189.255	-2
189.728	-8.1
190.201	-6.2
190.674	-6.4
191.147	-6.8
191.619	-5
192.092	-1.8
192.565	-2.9
193.038	-2.9
193.511	-4.3
193.984	1.5
194.456	5.8
194.929	8.3
195.402	14.1
195.874	16.9
196.347	20.2
196.82	21.5
197.292	25.9
197.765	28.3
198.237	37.9
198.71	35.6
199.182	44.3
199.655	44
200.127	52.1
200.6	56.3
201.072	57
201.544	63
202.017	67.9
202.489	71.7
202.961	63.7
203.433	70.9
203.906	71.1
204.378	71.6
204.85	79.9
205.322	81.3
205.794	83.1
206.266	82.5
206.739	83
207.211	85.9
207.683	85.2
208.155	84
208.627	83.6
209.099	80.4
209.57	83
210.042	84
210.514	87.3
210.986	88.7
211.458	86.2
211.93	82.6
212.402	87.3
212.873	88.1
213.345	87.3
213.817	83.4
214.288	89.7
214.76	83.4
215.232	82.2
215.703	84
216.175	78.4
216.646	82.3
217.118	81.9
217.589	86.2
218.061	81.6
218.532	86.7
219.004	84.5
219.475	79.6
219.946	79.5
220.418	84.2
220.889	84.9
221.36	82.7
221.832	81
222.303	84.4
222.774	84.3
223.245	89.8
223.717	88
224.188	87.2
224.659	91.9
225.13	89
225.601	92.5
226.072	96.5
226.543	102.4
227.014	103
227.485	98.1
227.956	101.7
228.427	104.2
228.898	116.3
229.369	112
229.839	113.2
230.31	116.1
230.781	118.4
231.252	115.5
231.722	117.1
232.193	116.4
232.664	117.5
233.135	120
233.605	120.1
234.076	114.7
234.546	116.8
235.017	107.4
235.487	107.2
235.958	109.7
236.428	108.6
236.899	101.5
237.369	96.4
237.84	96.4
238.31	95.6
238.78	96.3
239.251	97.6
239.721	92.7
240.191	82.9
240.662	86.4
241.132	87.6
241.602	88.2
242.072	92.7
242.542	86.1
243.013	81.2
243.483	79.2
243.953	81.7
244.423	83.6
244.893	85.1
245.363	88.5
245.833	86.7
246.303	85.1
246.773	84.5
247.243	87.5
247.712	88.1
248.182	85.2
248.652	84.3
249.122	86.1
249.592	89.4
250.061	87.1
250.531	88.2
251.001	87
251.471	94.9
251.94	93.4
252.41	87.8
252.879	91.7
253.349	88.9
253.818	99.2
254.288	98.5
254.757	101.6
255.227	100.5
255.696	111.3
256.166	114.4
256.635	113.6
257.105	123
257.574	128.5
258.043	129.8
258.513	139.6
258.982	150.9
259.451	158.8
259.92	168.6
260.389	176.6
260.859	180.5
261.328	189.3
261.797	197.9
262.266	209.9
262.735	220
263.204	229.4
263.673	238.5
264.142	249.8
264.611	258.2
265.08	261.3
265.549	271
266.018	279.7
266.487	280.8
266.955	287.7
267.424	294.7
267.893	304.3
268.362	304.7
268.83	312.6
269.299	314.2
269.768	321.4
270.236	320.8
270.705	335.2
271.174	335.9
271.642	337.7
272.111	338.1
272.579	349.2
273.048	352.6
273.516	346.8
273.985	352.7
274.453	348
274.922	361.7
275.39	344.4
275.858	352
276.327	357.1
276.795	350.2
277.263	351
277.731	356.3
278.2	350
278.668	351.9
279.136	351.9
279.604	352.9
280.072	351.4
280.54	347.8
281.008	344.6
281.477	341.9
281.945	338.1
282.413	337
282.881	341.2
283.348	337.4
283.816	333.5
284.284	333
284.752	333.1
285.22	322.8
285.688	322.2
286.156	319
286.623	314.9
287.091	319
287.559	320.2
288.026	316.5
288.494	316.5
288.962	318.4
289.429	323.5
289.897	321.1
290.364	312
290.832	328.5
291.3	332.4
291.767	330
292.234	336
292.702	338.4
293.169	344.6
293.637	355.6
294.104	356.5
294.571	354.5
295.039	360.8
295.506	363.2
295.973	366.1
296.44	371.2
296.908	370.2
297.375	380.8
297.842	384
298.309	377.4
298.776	384.4
299.243	395.3
299.71	396
300.177	388.8
300.644	388.4
301.111	387.8
301.578	385.7
302.045	385.1
302.512	396.4
302.979	391.7
303.446	393
303.913	387.3
304.379	392.3
304.846	381.2
305.313	381.6
305.78	383.1
306.246	380
306.713	384.7
307.18	382.9
307.646	375.1
308.113	378.9
308.579	371.6
309.046	379.4
309.512	373
309.979	377.1
310.445	369
310.912	368.3
311.378	368.5
311.845	370.1
312.311	365.1
312.777	353.6
313.244	357
313.71	362.5
314.176	363.9
314.642	363.6
315.109	371.9
315.575	365.7
316.041	364.9
316.507	363.7
316.973	363.3
317.439	374.2
317.905	371.4
318.371	375.8
318.837	375.6
319.303	385.6
319.769	387.7
320.235	383.8
320.701	393.7
321.167	390.5
321.633	388.7
322.099	393
322.564	384.7
323.03	397.5
323.496	396.7
323.962	404.6
324.427	400.2
324.893	402.5
325.359	396.4
325.824	405.1
326.29	397.9
326.755	404.2
327.221	406.9
327.686	408.6
328.152	406.1
328.617	396
329.083	401.4
329.548	398.1
330.014	398.9
330.479	388.4
330.944	383.9
331.41	391.1
331.875	377.9
332.34	379.7
332.805	380.7
333.271	373.3
333.736	370.7
334.201	383.6
334.666	364.6
335.131	362.9
335.596	362.8
336.061	354.1
336.526	366.9
336.991	357.2
337.456	358.1
337.921	348.4
338.386	355.7
338.851	365.8
339.316	363.5
339.781	363.9
340.246	363.7
340.711	369.9
341.175	377
341.64	380.7
342.105	380.1
342.569	385.3
343.034	391.7
343.499	380.8
343.963	404
344.428	391.2
344.893	400.9
345.357	402.6
345.822	413.4
346.286	415.2
346.751	420.8
347.215	418.1
347.679	424.8
348.144	433
348.608	438.6
349.073	436.6
349.537	436.7
350.001	435.3
350.465	441.2
350.93	441.6
351.394	437.3
351.858	436.9
352.322	438.4
352.786	439.7
353.25	434.6
353.715	438.4
354.179	436.3
354.643	434
355.107	440.3
355.571	435.2
356.035	438.6
356.498	436.9
356.962	435.4
357.426	437.7
357.89	441.6
358.354	435
358.818	443.5
359.281	440.2
359.745	447.5
360.209	437.3
360.673	451.5
361.136	435
361.6	438.4
362.064	443.5
362.527	443.1
362.991	455
363.454	432.5
363.918	440.6
364.381	439
364.845	447.4
365.308	444.7
365.772	448
366.235	448.7
366.698	446
367.162	443.2
367.625	446.1
368.088	446
368.552	449.4
369.015	444.6
369.478	447.2
369.941	436.5
370.404	444.1
370.867	438.9
371.331	446.7
371.794	444.2
372.257	449.4
372.72	448.8
373.183	447
373.646	460.4
374.109	454.3
374.572	458.8
375.035	467.2
375.497	461.8
375.96	466.4
376.423	473.3
376.886	473.7
377.349	476.9
377.811	476.3
378.274	482.5
378.737	481.3
379.199	485.3
379.662	486
380.125	481.2
380.587	477
381.05	483.4
381.512	484.3
381.975	498.3
382.437	477.7
382.9	490.2
383.362	496.3
383.825	490.4
384.287	489.1
384.75	500
385.212	500.8
385.674	505.5
386.136	505.5
386.599	514.1
387.061	514.5
387.523	516.5
387.985	508.2
388.447	494.3
388.91	501.7
389.372	502.6
389.834	498.6
390.296	505.4
390.758	513.9
391.22	520.2
391.682	533.6
392.144	531.5
392.606	513.9
393.068	518.3
393.529	521.1
393.991	513.5
394.453	515.1
394.915	521.5
395.377	520.6
395.838	531.1
396.3	535.1
396.762	534.7
397.224	551.2
397.685	551.7
398.147	539.9
398.608	533.1
399.07	526.3
399.531	529.6
399.993	534.6
400.454	530.2
400.916	531.7
401.377	530.7
401.839	538.4
402.3	533.8
402.762	545.5
403.223	544.1
403.684	542.4
404.145	550.3
404.607	552.4
405.068	541
405.529	536.9
405.99	536.4
406.451	527.9
406.913	536.8
407.374	539.7
407.835	543.1
408.296	542.3
408.757	546.2
409.218	537.7
409.679	531.8
410.14	536.7
410.601	543.1
411.062	536.9
411.522	551.9
411.983	553.1
412.444	546.3
412.905	545.1
413.366	546.2
413.826	546.6
414.287	549.9
414.748	538.2
415.208	549.5
415.669	554.7
416.13	554.6
416.59	563.4
417.051	550.9
417.511	562.5
417.972	583.5
418.432	577
418.893	593.2
419.353	602.5
419.814	616.9
420.274	612.6
420.734	622.8
421.195	632.5
421.655	611.6
422.115	626.2
422.576	615.8
423.036	631.7
423.496	634.9
423.956	639.7
424.416	627.6
424.876	657.5
425.336	644.2
425.797	657.4
426.257	672.2
426.717	698.5
427.177	675.2
427.637	701.9
428.097	707.5
428.556	724.1
429.016	743.2
429.476	742.6
429.936	757.8
430.396	748.3
430.856	735.9
431.315	741.1
431.775	763.8
432.235	784.8
432.694	807.1
433.154	828.8
433.614	803.2
434.073	833.5
434.533	824.8
434.993	837.8
435.452	856
435.912	847.2
436.371	860.6
436.83	869.5
437.29	880.3
437.749	889.4
438.209	903.9
438.668	907.8
439.127	919.8
439.587	936.8
440.046	941.1
440.505	971.4
440.964	967.8
441.424	991.5
441.883	1007.5
442.342	1006.5
442.801	1010
443.26	1047.8
443.719	1056.9
444.178	1055.5
444.637	1080.9
445.096	1088.5
445.555	1109
446.014	1101.4
446.473	1105.3
446.932	1135.9
447.391	1147.7
447.849	1182.9
448.308	1157
448.767	1166.7
449.226	1200.1
449.685	1206.4
450.143	1226.3
450.602	1261.5
451.061	1239
451.519	1265.6
451.978	1298.2
452.436	1291
452.895	1309
453.353	1301.3
453.812	1314.7
454.27	1350.4
454.729	1362.6
455.187	1392.7
455.646	1379.6
456.104	1403.4
456.562	1401.2
457.021	1457.4
457.479	1398.2
457.937	1435
458.395	1476.1
458.854	1462
459.312	1461.9
459.77	1469.9
460.228	1475
460.686	1522.1
461.144	1518.9
461.602	1488.5
462.06	1506.4
462.518	1515.6
462.976	1523.4
463.434	1520.9
463.892	1510.5
464.35	1500.5
464.808	1502.8
465.266	1519.5
465.724	1531.1
466.181	1538.1
466.639	1508.7
467.097	1559.7
467.555	1593.7
468.012	1558.4
468.47	1561.7
468.928	1578.3
469.385	1580.1
469.843	1620.5
470.3	1605.3
470.758	1636.5
471.215	1639.6
471.673	1657.3
472.13	1689
472.588	1719.7
473.045	1726.7
473.503	1773.1
473.96	1836.8
474.417	1821.1
474.875	1864.7
475.332	1879.1
475.789	1890.9
476.246	1928.1
476.704	1975.1
477.161	2007.3
477.618	2034.5
478.075	2055.5
478.532	2137
478.989	2161.7
479.446	2204.6
479.903	2222.1
480.36	2317.9
480.817	2305.5
481.274	2368.8
481.731	2399.2
482.188	2429.5
482.645	2498.1
483.102	2520.7
483.558	2544.8
484.015	2610.2
484.472	2649.1
484.929	2700
485.385	2714.8
485.842	2720.8
486.299	2805.7
486.755	2820.7
487.212	2850.7
487.668	2858.4
488.125	2891.9
488.582	2864
489.038	2914
489.494	2919.6
489.951	2953.5
490.407	2956.1
490.864	2969.9
491.32	2985.9
491.776	2987.9
492.233	3027.3
492.689	2991.6
493.145	2998.5
493.602	2979.3
494.058	3021.2
494.514	3015.8
494.97	3031.5
495.426	3015.7
495.882	3040.6
496.338	2991.7
496.794	3039.5
497.251	3023.6
497.707	3049.6
498.163	3062.9
498.618	3061.1
499.074	3029.5
499.53	3027.8
499.986	3049.2
500.442	3061.4
500.898	3034.6
501.354	3067.6
501.809	3081.4
502.265	3035
502.721	3052.3
503.177	3055.5
503.632	3067.1
504.088	3064.8
504.543	3053.9
504.999	3057.7
505.455	3071.9
505.91	3057
506.366	3046.4
506.821	3086
507.277	3038.8
507.732	3051.6
508.187	3033.4
508.643	3062.3
509.098	3021.2
509.553	3025.7
510.009	3003.9
510.464	3003.4
510.919	2994.6
511.375	3005
511.83	2988.7
512.285	2986.9
512.74	2985.8
513.195	2957.9
513.65	2933.7
514.105	2924.6
514.56	2914.4
515.015	2924.8
515.47	2913.2
515.925	2883.8
516.38	2895
516.835	2907.6
517.29	2873.9
517.745	2882.2
518.2	2877.4
518.655	2836.3
519.109	2852.4
519.564	2809.8
520.019	2830.7
520.474	2804.9
520.928	2790.1
521.383	2785
521.838	2788.7
522.292	2776.4
522.747	2777.6
523.201	2762.6
523.656	2762.5
524.11	2731.7
524.565	2748.7
525.019	2743.7
525.474	2769.5
525.928	2738.9
526.382	2756.1
526.837	2739.6
527.291	2762.3
527.745	2742.4
528.2	2748.4
528.654	2708.2
529.108	2718.6
529.562	2740.4
530.016	2736.2
530.47	2725.7
530.925	2744.5
531.379	2728.2
531.833	2746.4
532.287	2741.2
532.741	2721.8
533.195	2741.6
533.649	2759.5
534.103	2731.9
534.556	2716.9
535.01	2739.3
535.464	2718.3
535.918	2729.2
536.372	2743
536.826	2742.1
537.279	2710.8
537.733	2742.7
538.187	2749.7
538.64	2720.5
539.094	2722.4
539.548	2735.3
540.001	2728.3
540.455	2716.4
540.908	2707.3
541.362	2704.5
541.815	2705.5
542.269	2711
542.722	2681.5
543.175	2680.6
543.629	2657.1
544.082	2661.1
544.536	2669.5
544.989	2657.2
545.442	2655.8
545.895	2656.9
546.349	2642.6
546.802	2643.8
547.255	2601.7
547.708	2624.2
548.161	2631.2
548.614	2614.6
549.067	2613
549.52	2639.5
549.973	2615.2
550.426	2590.4
550.879	2611.3
551.332	2615.2
551.785	2620.7
552.238	2617
552.691	2593.6
553.144	2625.4
553.596	2617.5
554.049	2610.5
554.502	2615.7
554.955	2602.1
555.407	2616.7
555.86	2635
556.313	2625.5
556.765	2640.9
557.218	2637.7
557.67	2643.8
558.123	2648.9
558.576	2668
559.028	2645.3
559.48	2659.4
559.933	2650.8
560.385	2668.9
560.838	2671.3
561.29	2671.5
561.742	2695.5
562.195	2677.5
562.647	2675.2
563.099	2699
563.551	2684.8
564.004	2705.3
564.456	2696.5
564.908	2714
565.36	2714.6
565.812	2697
566.264	2713.8
566.716	2715.2
567.168	2698.5
567.62	2717.1
568.072	2729.7
568.524	2717.6
568.976	2723.2
569.428	2699.5
569.88	2704.5
570.332	2712.7
570.784	2706
571.235	2681.3
571.687	2701.1
572.139	2682.5
572.59	2697.9
573.042	2678.5
573.494	2683.7
573.945	2677.4
574.397	2632.6
574.849	2660.6
575.3	2665.6
575.752	2661.8
576.203	2629.7
576.655	2648.7
577.106	2635.1
577.557	2617
578.009	2601.6
578.46	2626.1
578.912	2611.1
579.363	2613.9
579.814	2599.7
580.265	2593.8
580.717	2603.9
581.168	2612.6
581.619	2607.3
582.07	2610.2
582.521	2581.6
582.972	2598.1
583.423	2611.4
583.875	2596.4
584.326	2599.5
584.777	2594.7
585.227	2594.9
585.678	2589.3
586.129	2598.9
586.58	2593.7
587.031	2593.2
587.482	2612
587.933	2588.3
588.384	2604.5
588.834	2576.3
589.285	2604.9
589.736	2626.4
590.186	2605.5
590.637	2621.6
591.088	2609.8
591.538	2622.3
591.989	2624.9
592.439	2613.9
592.89	2614
593.34	2619.4
593.791	2619.8
594.241	2623
594.692	2630.1
595.142	2631.3
595.593	2635.8
596.043	2632.9
596.493	2659.9
596.943	2625.6
597.394	2653.2
597.844	2630.7
598.294	2645.5
598.744	2638.3
599.195	2645
599.645	2659.4
600.095	2660.6
600.545	2656.4
600.995	2665.3
601.445	2640.9
601.895	2694.2
602.345	2662.3
602.795	2653
603.245	2661.3
603.695	2660.5
604.145	2687.4
604.594	2687.5
605.044	2672
605.494	2686.8
605.944	2674.7
606.393	2682.7
606.843	2667.9
607.293	2667.1
607.743	2673.7
608.192	2691.8
608.642	2682.9
609.091	2679
609.541	2675
609.99	2683.4
610.44	2683.5
610.889	2708
611.339	2691.5
611.788	2653.4
612.238	2690.6
612.687	2674
613.136	2684.9
613.586	2693.1
614.035	2671.9
614.484	2683
614.933	2680.2
615.383	2670.9
615.832	2666.2
616.281	2664.7
616.73	2660.9
617.179	2678.2
617.628	2676.6
618.077	2648.4
618.526	2668.1
618.975	2664.1
619.424	2631.4
619.873	2665.4
620.322	2642
620.771	2657.5
621.22	2648
621.669	2652.4
622.118	2666.4
622.567	2652.5
623.015	2646.2
623.464	2654.9
623.913	2665.5
624.361	2672.2
624.81	2658.2
625.259	2661.6
625.707	2645.3
626.156	2625.9
626.604	2654.9
627.053	2632.3
627.501	2617
627.95	2620.1
628.398	2671
628.847	2597.2
629.295	2616.5
629.744	2601.2
630.192	2585.9
630.64	2614.4
631.089	2617.5
631.537	2601.9
631.985	2601.2
632.433	2600.9
632.881	2606.9
633.33	2600.8
633.778	2580
634.226	2570.5
634.674	2567
635.122	2573.5
635.57	2558.9
636.018	2585.6
636.466	2549.8
636.914	2554.7
637.362	2580.3
637.81	2558.2
638.258	2558
638.705	2537.5
639.153	2569.2
639.601	2536.7
640.049	2540.2
640.497	2530.4
640.944	2532.7
641.392	2529.6
641.84	2535.9
642.287	2526.7
642.735	2516.8
643.182	2517.9
643.63	2525.6
644.078	2530.4
644.525	2514.8
644.973	2510.2
645.42	2525.8
645.867	2520.7
646.315	2488.9
646.762	2508.9
647.21	2495.5
647.657	2500.6
648.104	2499.1
648.551	2464.7
648.999	2496.4
649.446	2504
649.893	2480
650.34	2475
650.787	2497.9
651.234	2486.9
651.682	2502.1
652.129	2481.7
652.576	2470.3
653.023	2471.9
653.47	2466.2
653.917	2487.7
654.363	2462.7
654.81	2508.4
655.257	2492.4
655.704	2484
656.151	2473.5
656.598	2467
657.044	2434.9
657.491	2447.2
657.938	2444.8
658.385	2439.7
658.831	2455.9
659.278	2430.2
659.724	2422.7
660.171	2440.1
660.618	2404.4
661.064	2416
661.511	2424.9
661.957	2409.8
662.404	2399.1
662.85	2432.8
663.296	2406.1
663.743	2398.3
664.189	2400.1
664.635	2396.5
665.082	2389.5
665.528	2388
665.974	2374.7
666.42	2380.1
666.867	2385.1
667.313	2353.3
667.759	2367.9
668.205	2360.3
668.651	2344.7
669.097	2342.3
669.543	2345.5
669.989	2328.1
670.435	2354.6
670.881	2327.6
671.327	2305.9
671.773	2337.8
672.219	2312.1
672.665	2313.8
673.11	2314
673.556	2289.6
674.002	2300.2
674.448	2279.3
674.893	2265
675.339	2274.7
675.785	2257.3
676.23	2240.2
676.676	2256.6
677.122	2241.6
677.567	2224.7
678.013	2211.5
678.458	2214.2
678.904	2208.5
679.349	2193.5
679.794	2188.5
680.24	2177.9
680.685	2168.6
681.131	2158.2
681.576	2145.5
682.021	2133.4
682.466	2119
682.912	2124.4
683.357	2109.7
683.802	2119.3
684.247	2092.8
684.692	2095.7
685.137	2080.9
685.583	2075.4
686.028	2063.4
686.473	2053.3
686.918	2061.6
687.363	2042.1
687.807	2020.9
688.252	2019.1
688.697	2031.7
689.142	2025.7
689.587	2012.7
690.032	2011.3
690.477	1988.9
690.921	1985.3
691.366	1971.5
691.811	1970.4
692.255	1954.7
692.7	1960
693.145	1961.6
693.589	1953.6
694.034	1938.3
694.478	1937.8
694.923	1941.2
695.367	1927
695.812	1911
696.256	1912.3
696.701	1914.8
697.145	1915.1
697.59	1889.5
698.034	1889.6
698.478	1874.5
698.922	1889.9
699.367	1883.7
699.811	1869.1
700.255	1871.7
700.699	1861.9
701.143	1838.2
701.588	1836.3
702.032	1841.2
702.476	1844.5
702.92	1848.9
703.364	1817.6
703.808	1829.6
704.252	1829.7
704.696	1812.5
705.14	1801.9
705.584	1811.4
706.027	1813.6
706.471	1812.4
706.915	1800.9
707.359	1787.1
707.803	1778
708.246	1772.5
708.69	1774.5
709.134	1783.9
709.577	1752.2
710.021	1749.4
710.465	1746.9
710.908	1745.2
711.352	1740.6
711.795	1739.9
712.239	1738.8
712.682	1742.7
713.126	1726.3
713.569	1717.3
714.012	1710.4
714.456	1711.9
714.899	1706.3
715.342	1711.8
715.786	1699.2
716.229	1701.2
716.672	1696.3
717.115	1693
717.558	1682.5
718.002	1670.9
718.445	1671.9
718.888	1676.7
719.331	1652.8
719.774	1665.9
720.217	1654.9
720.66	1658
721.103	1631.9
721.546	1639
721.989	1636.7
722.432	1647.7
722.874	1631.5
723.317	1626.7
723.76	1625.1
724.203	1617.2
724.645	1619.5
725.088	1615.8
725.531	1620.5
725.974	1616.6
726.416	1600.4
726.859	1598.6
727.301	1603.7
727.744	1598.6
728.187	1583.8
728.629	1571.2
729.071	1576.9
729.514	1566.2
729.956	1566.8
730.399	1558.4
730.841	1566
731.283	1567.7
731.726	1526.4
732.168	1524.1
732.61	1540.4
733.053	1524.6
733.495	1514.6
733.937	1513.8
734.379	1525.5
734.821	1504.7
735.263	1508.7
735.705	1487
736.148	1488.4
736.59	1487
737.032	1486.8
737.474	1481
737.916	1474.6
738.357	1486.8
738.799	1459.1
739.241	1468
739.683	1461.7
740.125	1448.3
740.567	1461.3
741.008	1457
741.45	1440.3
741.892	1447.4
742.334	1428.5
742.775	1434
743.217	1408.3
743.658	1425.4
744.1	1403.3
744.542	1412.2
744.983	1385.3
745.425	1398.2
745.866	1385.5
746.307	1388.1
746.749	1377.4
747.19	1375.7
747.632	1376.1
748.073	1358.9
748.514	1364.6
748.956	1357.6
749.397	1345.4
749.838	1345.2
750.279	1336.9
750.72	1331.2
751.162	1329.9
751.603	1312.8
752.044	1320.9
752.485	1297.4
752.926	1306.1
753.367	1310.5
753.808	1288.6
754.249	1298.1
754.69	1291.3
755.131	1293.1
755.572	1290.6
756.013	1287
756.453	1282.9
756.894	1263.7
757.335	1266
757.776	1256.4
758.216	1274.3
758.657	1269.6
759.098	1271.8
759.538	1263.7
759.979	1246.9
760.42	1233.8
760.86	1249.5
761.301	1250.4
761.741	1247.4
762.182	1227
762.622	1219.1
763.063	1226.1
763.503	1215.9
763.943	1216.5
764.384	1206.6
764.824	1197
765.264	1214.7
765.705	1196.4
766.145	1183.8
766.585	1198.5
767.025	1192.5
767.465	1190.9
767.906	1177.3
768.346	1167.7
768.786	1183
769.226	1163.2
769.666	1153.9
770.106	1168.8
770.546	1158.6
770.986	1143.4
771.426	1152.1
771.866	1154.2
772.306	1136.3
772.745	1128.2
773.185	1132.9
773.625	1130.2
774.065	1129.7
774.505	1122.2
774.944	1122.5
775.384	1108.2
775.824	1103.5
776.263	1114.4
776.703	1094.3
777.142	1096.3
777.582	1095.8
778.021	1084.2
778.461	1080.6
778.9	1077.6
779.34	1077.3
779.779	1082.2
780.219	1071.1
780.658	1080.3
781.097	1071.2
781.537	1070.2
781.976	1069.5
782.415	1057.8
782.855	1065.2
783.294	1069.3
783.733	1053.8
784.172	1057.5
784.611	1058
785.05	1051.1
785.489	1048.1
785.928	1059.2
786.367	1055.6
786.806	1047.1
787.245	1044.8
787.684	1042.4
788.123	1043.1
788.562	1049.3
789.001	1052.6
789.44	1036.9
789.879	1039.6
790.317	1040.3
790.756	1037.2
791.195	1022
791.634	1026.8
792.072	1034.1
792.511	1030.5
792.95	1032.8
793.388	1020.2
793.827	1022.1
794.265	1039.8
794.704	1024.5
795.142	1031.4
795.581	1021.3
796.019	1022.1
796.458	1028.9
796.896	1024.3
797.334	1025.3
797.773	1021.8
798.211	1022.9
798.649	1021.5
799.087	1025.1
799.526	1031.5
799.964	1044.1
800.402	1031.9
800.84	1038.7
801.278	1043.5
801.716	1040.3
802.154	1043
802.592	1032.7
803.03	1040.7
803.468	1041.2
803.906	1038.1
804.344	1045.8
804.782	1042.6
805.22	1051.7
805.658	1044
806.096	1045.3
806.533	1051.8
806.971	1070.8
807.409	1057.4
807.847	1074.6
808.284	1073.2
808.722	1071.9
809.16	1082.6
809.597	1087.2
810.035	1086.2
810.472	1085
810.91	1091.2
811.347	1098.6
811.785	1101.3
812.222	1110.8
812.66	1094.2
813.097	1108.7
813.535	1107
813.972	1122.1
814.409	1129.2
814.846	1131.4
815.284	1142.2
815.721	1144.6
816.158	1150.5
816.595	1137.9
817.032	1150
817.47	1162.6
817.907	1155.3
818.344	1160.2
818.781	1167.1
819.218	1184.8
819.655	1184.1
820.092	1198.9
820.529	1199.8
820.966	1214
821.403	1191.6
821.839	1221.3
822.276	1224.3
822.713	1225.3
823.15	1233
823.587	1239.9
824.023	1239.3
824.46	1245
824.897	1247.1
825.333	1257.5
825.77	1258.4
826.206	1268.8
826.643	1277.5
827.08	1290.4
827.516	1298.4
827.953	1298.9
828.389	1296.6
828.825	1309.2
829.262	1310.7
829.698	1315.3
830.135	1331.4
830.571	1329.4
831.007	1343.1
831.443	1345.6
831.88	1334.7
832.316	1337.9
832.752	1352
833.188	1337.2
833.624	1341.9
834.06	1364.9
834.497	1342.6
834.933	1357.9
835.369	1360.9
835.805	1375.2
836.241	1369.3
836.677	1366.3
837.112	1379.8
837.548	1379.7
837.984	1369.3
838.42	1380.6
838.856	1384.1
839.292	1383.4
839.727	1404.8
840.163	1390.1
840.599	1380.8
841.034	1384.5
841.47	1391.5
841.906	1388.2
842.341	1390.8
842.777	1401.9
843.212	1394.2
843.648	1397.3
844.083	1388
844.519	1387.6
844.954	1390.7
845.39	1384.9
845.825	1391.7
846.261	1393.3
846.696	1402.9
847.131	1385.9
847.566	1387.6
848.002	1392.3
848.437	1385.3
848.872	1388.2
849.307	1390.3
849.742	1397.9
850.177	1390.4
850.613	1396.7
851.048	1388.8
851.483	1383.4
851.918	1398.3
852.353	1394.7
852.788	1398.5
853.223	1388.3
853.657	1388
854.092	1389.7
854.527	1386.3
854.962	1391.9
855.397	1384.9
855.832	1386.3
856.266	1380.6
856.701	1397.8
857.136	1378.5
857.57	1387.1
858.005	1386.5
858.44	1382.9
858.874	1385.5
859.309	1393.4
859.743	1386.4
860.178	1378.5
860.612	1379.1
861.047	1375.6
861.481	1395.2
861.915	1391.9
862.35	1391.7
862.784	1382.8
863.218	1383.2
863.653	1371
864.087	1381.4
864.521	1378.5
864.955	1373.4
865.39	1382.1
865.824	1372.1
866.258	1371.3
866.692	1369.1
867.126	1379.9
867.56	1381.7
867.994	1374.4
868.428	1384.9
868.862	1376.3
869.296	1365
869.73	1384.7
870.164	1372.5
870.598	1366.3
871.031	1358.4
871.465	1368.4
871.899	1356.3
872.333	1354.3
872.766	1366.7
873.2	1357.4
873.634	1373.8
874.067	1365.6
874.501	1363.2
874.935	1357.6
875.368	1358.3
875.802	1355.3
876.235	1348.4
876.669	1361.8
877.102	1358.8
877.535	1337.2
877.969	1347.2
878.402	1355.8
878.836	1331
879.269	1341.2
879.702	1336
880.135	1334.7
880.569	1328.6
881.002	1329.4
881.435	1330.6
881.868	1325.7
882.301	1337.8
882.734	1318.1
883.167	1312.4
883.601	1333.5
884.034	1312.3
884.467	1321.5
884.899	1329.8
885.332	1321.9
885.765	1291.1
886.198	1301.3
886.631	1293.9
887.064	1293.2
887.497	1277.5
887.929	1278.6
888.362	1284.8
888.795	1280.5
889.228	1282.3
889.66	1275.5
890.093	1261.6
890.526	1276.1
890.958	1260.1
891.391	1268.6
891.823	1265.2
892.256	1272.2
892.688	1259
893.121	1252.8
893.553	1241.6
893.985	1244.7
894.418	1240.5
894.85	1236.5
895.282	1235.8
895.715	1223.4
896.147	1224.8
896.579	1215.9
897.011	1213.5
897.444	1214.1
897.876	1201.7
898.308	1212.9
898.74	1207.2
899.172	1209.7
899.604	1203.6
900.036	1198.3
900.468	1185.3
900.9	1192.5
901.332	1175.3
901.764	1167.7
902.196	1183.2
902.628	1157.7
903.06	1155.3
903.491	1167.8
903.923	1160.1
904.355	1152.9
904.787	1147.2
905.218	1138.1
905.65	1145.7
906.082	1132.6
906.513	1134.9
906.945	1140.1
907.376	1131.1
907.808	1128.4
908.239	1126
908.671	1120.5
909.102	1115.2
909.534	1124.6
909.965	1119.1
910.397	1102.8
910.828	1121.2
911.259	1099.2
911.691	1100.5
912.122	1090
912.553	1104.5
912.984	1088.1
913.415	1092.6
913.847	1091.6
914.278	1085.9
914.709	1073.1
915.14	1078.5
915.571	1075.5
916.002	1071.9
916.433	1071.2
916.864	1057.8
917.295	1065.7
917.726	1071.1
918.157	1042.5
918.587	1049.6
919.018	1037.1
919.449	1030.7
919.88	1027.5
920.311	1023.5
920.741	1022.5
921.172	1016.8
921.603	1008.7
922.033	1011.3
922.464	1006.6
922.895	1006.1
923.325	1008.2
923.756	1003.5
924.186	1003.2
924.617	1002.1
925.047	998.3
925.478	1000.6
925.908	998.9
926.338	1002.4
926.769	1000.3
927.199	999.2
927.629	1014.2
928.06	1008.9
928.49	1003.2
928.92	1012.5
929.35	991.3
929.78	1001.9
930.21	1021.6
930.641	997.1
931.071	1007.2
931.501	1004
931.931	1004.1
932.361	1007.8
932.791	992.3
933.221	1002.7
933.651	997.5
934.08	998.5
934.51	982.9
934.94	975.1
935.37	986.3
935.8	983.7
936.229	968.9
936.659	975.7
937.089	980.9
937.519	964.8
937.948	960.6
938.378	957.2
938.807	950.1
939.237	949.9
939.666	938
940.096	935.9
940.525	940.4
940.955	938.6
941.384	916.1
941.814	922.3
942.243	915
942.672	897.5
943.102	906.2
943.531	891.2
943.96	890.2
944.39	888.9
944.819	879.2
945.248	876.5
945.677	871.6
946.106	863.4
946.535	862.4
946.964	862.1
947.393	858.9
947.822	853.9
948.251	841.5
948.68	840.3
949.109	815
949.538	817.2
949.967	810.2
950.396	811.6
950.825	801.4
951.254	793.2
951.682	794.6
952.111	786.1
952.54	774.2
952.969	769.1
953.397	776.4
953.826	757.3
954.254	768.9
954.683	764.6
955.112	750.7
955.54	751.9
955.969	741.5
956.397	730.9
956.826	738
957.254	725.9
957.682	717.5
958.111	710.9
958.539	708.3
958.967	697.2
959.396	687.4
959.824	687.8
960.252	674.4
960.68	677.5
961.109	673.7
961.537	668.3
961.965	659.2
962.393	666.4
962.821	641.7
963.249	650.7
963.677	644
964.105	638.5
964.533	631.1
964.961	627.9
965.389	621.9
965.817	613.5
966.245	608.8
966.672	607.6
967.1	600.9
967.528	589.6
967.956	594.4
968.383	590.9
968.811	580.8
969.239	579.2
969.666	576.8
970.094	566.6
970.522	555.4
970.949	560.6
971.377	550.4
971.804	547.1
972.232	544.4
972.659	536.1
973.087	534.2
973.514	529.7
973.941	536.8
974.369	519.1
974.796	527.8
975.223	523.7
975.651	508.1
976.078	508.2
976.505	503.1
976.932	499.6
977.359	498.4
977.786	498.8
978.214	495.3
978.641	485.6
979.068	480.2
979.495	476.9
979.922	471
980.349	469.1
980.776	457.6
981.202	463.9
981.629	466.3
982.056	464.9
982.483	448.1
982.91	452.2
983.337	445.4
983.763	444.1
984.19	431.3
984.617	433.5
985.043	435.4
985.47	427.7
985.897	422.4
986.323	424.8
986.75	420.8
987.176	403.9
987.603	415.8
988.029	402.9
988.456	408.5
988.882	404.6
989.308	405.2
989.735	395.1
990.161	393.5
990.587	397.6
991.014	391
991.44	384.2
991.866	375.4
992.292	371.2
992.719	372.4
993.145	372.9
993.571	369.5
993.997	368.7
994.423	362.9
994.849	359.4
995.275	353.3
995.701	351.6
996.127	348.5
996.553	350.2
996.979	347.7
997.405	344.3
997.83	339.2
998.256	336.8
998.682	337.1
999.108	328.4
999.534	335.1
999.959	328.9
1000.385	332.8
1000.811	332.6
1001.236	328.8
1001.662	325.9
1002.087	333
1002.513	320.7
1002.938	333.2
1003.364	334.2
1003.789	335.2
1004.215	327.9
1004.64	333
1005.066	329
1005.491	333.3
1005.916	335.1
1006.342	333.2
1006.767	334.6
1007.192	335.3
1007.617	330.9
1008.042	324.5
1008.468	327.6
1008.893	331.3
1009.318	327.5
1009.743	328.6
1010.168	320.3
1010.593	325
1011.018	321.7
1011.443	314.2
1011.868	311.5
1012.293	309.4
1012.718	310.7
1013.143	303.7
1013.567	298.6
1013.992	288.4
1014.417	287.7
1014.842	285.7
1015.267	283.4
1015.691	279.3
1016.116	274.1
1016.541	270
1016.965	269.6
1017.39	269.2
1017.814	265.1
1018.239	258.1
1018.663	257.4
1019.088	253.7
1019.512	252.3
1019.937	246.8
1020.361	240.2
1020.785	240.9
1021.21	238.8
1021.634	242.1
1022.058	232.4
1022.483	233.8
1022.907	229.4
1023.331	222.2
1023.755	219.8
1024.179	220.1
1024.604	221.2
1025.028	212.9
1025.452	214.9
1025.876	210.9
1026.3	214.5
1026.724	212.2
1027.148	214.6
1027.572	204.3
1027.996	206.2
1028.42	203
1028.843	203.1
1029.267	202.6
1029.691	194.9
1030.115	196.4
1030.539	198
1030.962	190.6
1031.386	193.2
1031.81	191.4
1032.233	186.8
1032.657	191.4
1033.08	190.6
1033.504	183.1
1033.927	183.1
1034.351	181.7
1034.774	184.4
1035.198	175.6
1035.621	175.5
1036.045	177.3
1036.468	169.5
1036.891	168.5
1037.315	167
1037.738	174.2
1038.161	175.7
1038.584	171.3
1039.008	172
1039.431	165.1
1039.854	166
1040.277	160.1
1040.7	161
1041.123	161.5
1041.546	165.4
1041.969	168.3
1042.392	157.4
1042.815	158.5
1043.238	154.6
1043.661	155.1
1044.084	153.9
1044.507	154.9
1044.93	149.8
1045.352	149.7
1045.775	155
1046.198	149
1046.621	152
1047.043	146.6
1047.466	145.7
1047.889	151.6
1048.311	144.9
1048.734	145.8
1049.156	140.9
1049.579	145.3
1050.001	138.8
1050.424	144.6
1050.846	137.7
1051.269	144.2
1051.691	143.4
1052.113	135.1
1052.536	130
1052.958	134.9
1053.38	138.4
1053.802	137.2
1054.225	136.3
1054.647	134.9
1055.069	135.3
1055.491	133.3
1055.913	128.8
1056.335	125.8
1056.757	128.3
1057.179	130
1057.601	125.4
1058.023	126.2
1058.445	121.7
1058.867	126.3
1059.289	127.9
1059.711	122.6
1060.133	123.7
1060.555	120.7
1060.976	121.2
1061.398	120
1061.82	121.5
1062.241	124
1062.663	121.8
1063.085	121.4
1063.506	122
1063.928	120
1064.35	116
1064.771	117.6
1065.193	113.1
1065.614	118.9
1066.035	115.9
1066.457	113
1066.878	114.8
1067.3	118.4
1067.721	113.2
1068.142	113.3
1068.564	114
1068.985	113
1069.406	110.5
1069.827	109.9
1070.248	107.9
1070.67	112.2
1071.091	109.3
1071.512	116.5
1071.933	108.5
1072.354	114.1
1072.775	109.9
1073.196	116.7
1073.617	105.5
1074.038	112.1
1074.459	113.6
1074.88	112.8
1075.3	106.5
1075.721	110.5
1076.142	111.1
1076.563	108.7
1076.983	107.4
1077.404	107
1077.825	105
1078.246	108.3
1078.666	108.9
1079.087	113.1
1079.507	110.3
1079.928	111.7
1080.348	111.4
1080.769	103.2
1081.189	112.6
1081.61	108
1082.03	102
1082.451	102.8
1082.871	107.4
1083.291	103.4
1083.711	109.1
1084.132	106.8
1084.552	107.5
1084.972	108.2
1085.392	103.8
1085.813	101.1
1086.233	106.1
1086.653	104
1087.073	102.3
1087.493	107.2
1087.913	102.5
1088.333	101.2
1088.753	104.8
1089.173	98.3
1089.593	100.2
1090.013	98
1090.433	105.4
1090.852	101.9
1091.272	102
1091.692	103.8
1092.112	103.7
1092.531	103.5
1092.951	97.8
1093.371	101.2
1093.79	106.4
1094.21	97.5
1094.63	97.6
1095.049	94.7
1095.469	93.9
1095.888	99
1096.308	94
1096.727	90.4
1097.146	100.8
1097.566	96.8
1097.985	96.4
1098.405	96
1098.824	90.7
1099.243	95.8
1099.662	104
1100.082	94.5
1100.501	98.3
1100.92	96.5
1101.339	95.9
1101.758	92.7
