Data from DH-3PlusCalLight-Background_HRD10391_13-34-12-401.txt Node
Date: Thu Feb 15 13:34:12 EST 2018
User: Ender
Spectrometer: HR+D1039
Trigger mode: 0
Integration Time (sec): 2.730000E-2
Scans to average: 10
Electric dark correction enabled: true
Nonlinearity correction enabled: false
Boxcar width: 0
XAxis mode: Wavelengths
Number of Pixels in Spectrum: 2048
>>>>>Begin Spectral Data<<<<<
187.836	5.43
188.309	5.43
188.782	5.43
189.255	-0.67
189.728	-3.27
190.201	-3.77
190.674	-7.67
191.147	-12.57
191.619	-9.97
192.092	-9.17
192.565	-7.17
193.038	-2.87
193.511	-1.97
193.984	4.33
194.456	6.83
194.929	13.33
195.402	17.33
195.874	11.83
196.347	17.73
196.82	22.13
197.292	25.63
197.765	27.93
198.237	35.13
198.71	37.63
199.182	42.73
199.655	45.43
200.127	48.03
200.6	58.93
201.072	54.23
201.544	59.83
202.017	66.23
202.489	69.03
202.961	61.83
203.433	69.03
203.906	74.33
204.378	74.53
204.85	76.73
205.322	74.73
205.794	76.53
206.266	78.83
206.739	82.23
207.211	82.93
207.683	83.43
208.155	83.33
208.627	83.23
209.099	88.53
209.57	81.03
210.042	84.93
210.514	84.93
210.986	85.53
211.458	87.33
211.93	87.03
212.402	83.93
212.873	79.13
213.345	83.63
213.817	82.83
214.288	82.73
214.76	82.63
215.232	83.53
215.703	79.23
216.175	79.13
216.646	79.63
217.118	77.33
217.589	76.73
218.061	77.43
218.532	76.83
219.004	81.03
219.475	77.73
219.946	79.93
220.418	80.63
220.889	77.83
221.36	76.13
221.832	80.13
222.303	77.83
222.774	74.43
223.245	79.03
223.717	73.03
224.188	77.93
224.659	77.53
225.13	73.83
225.601	76.53
226.072	75.53
226.543	79.83
227.014	78.03
227.485	73.63
227.956	72.63
228.427	72.53
228.898	77.83
229.369	78.23
229.839	76.83
230.31	79.13
230.781	80.83
231.252	80.13
231.722	75.53
232.193	79.73
232.664	76.53
233.135	79.23
233.605	82.43
234.076	76.63
234.546	80.03
235.017	75.43
235.487	77.23
235.958	76.83
236.428	74.53
236.899	84.43
237.369	79.93
237.84	80.13
238.31	81.53
238.78	78.63
239.251	73.63
239.721	78.73
240.191	78.03
240.662	75.43
241.132	78.03
241.602	79.73
242.072	79.93
242.542	76.63
243.013	76.13
243.483	77.03
243.953	81.63
244.423	81.53
244.893	82.63
245.363	83.33
245.833	75.33
246.303	79.03
246.773	80.13
247.243	81.23
247.712	76.43
248.182	80.83
248.652	80.63
249.122	72.33
249.592	79.33
250.061	77.53
250.531	79.23
251.001	74.93
251.471	79.93
251.94	82.53
252.41	78.83
252.879	82.13
253.349	85.03
253.818	87.43
254.288	78.73
254.757	84.43
255.227	79.93
255.696	81.83
256.166	81.13
256.635	78.13
257.105	78.13
257.574	81.83
258.043	84.93
258.513	78.13
258.982	79.83
259.451	83.13
259.92	85.43
260.389	80.73
260.859	81.53
261.328	80.93
261.797	82.83
262.266	84.93
262.735	80.43
263.204	82.13
263.673	84.63
264.142	72.03
264.611	83.43
265.08	87.63
265.549	80.03
266.018	83.33
266.487	83.63
266.955	80.03
267.424	81.23
267.893	81.43
268.362	86.73
268.83	80.63
269.299	83.53
269.768	81.13
270.236	80.43
270.705	78.33
271.174	80.13
271.642	81.03
272.111	82.33
272.579	81.23
273.048	92.13
273.516	81.13
273.985	83.33
274.453	82.43
274.922	83.33
275.39	80.13
275.858	84.43
276.327	77.13
276.795	75.73
277.263	78.03
277.731	84.53
278.2	87.03
278.668	83.03
279.136	84.53
279.604	82.03
280.072	86.43
280.54	85.23
281.008	78.93
281.477	81.03
281.945	84.33
282.413	77.33
282.881	80.53
283.348	82.03
283.816	79.03
284.284	85.53
284.752	82.43
285.22	82.03
285.688	77.83
286.156	83.23
286.623	83.13
287.091	75.73
287.559	81.33
288.026	80.43
288.494	83.03
288.962	82.23
289.429	86.63
289.897	80.23
290.364	75.23
290.832	81.23
291.3	84.53
291.767	79.83
292.234	85.83
292.702	84.83
293.169	83.63
293.637	82.63
294.104	82.33
294.571	86.53
295.039	87.33
295.506	82.53
295.973	81.73
296.44	79.83
296.908	82.13
297.375	85.03
297.842	85.53
298.309	90.63
298.776	81.13
299.243	86.63
299.71	80.73
300.177	86.93
300.644	85.53
301.111	82.73
301.578	85.93
302.045	81.93
302.512	86.13
302.979	77.43
303.446	79.23
303.913	82.53
304.379	84.13
304.846	86.43
305.313	82.33
305.78	90.93
306.246	80.63
306.713	85.43
307.18	86.03
307.646	79.93
308.113	85.73
308.579	88.63
309.046	76.53
309.512	84.63
309.979	85.13
310.445	80.13
310.912	85.03
311.378	82.63
311.845	82.43
312.311	80.53
312.777	79.73
313.244	90.43
313.71	81.73
314.176	81.03
314.642	84.63
315.109	87.23
315.575	81.43
316.041	83.13
316.507	80.83
316.973	88.43
317.439	82.93
317.905	82.53
318.371	81.33
318.837	82.83
319.303	87.23
319.769	84.53
320.235	83.83
320.701	81.63
321.167	85.23
321.633	82.23
322.099	79.73
322.564	84.23
323.03	82.83
323.496	79.83
323.962	84.83
324.427	85.53
324.893	78.93
325.359	79.13
325.824	83.43
326.29	81.43
326.755	84.93
327.221	85.63
327.686	84.33
328.152	85.83
328.617	81.33
329.083	80.13
329.548	83.83
330.014	82.33
330.479	88.23
330.944	84.23
331.41	79.33
331.875	86.63
332.34	83.83
332.805	80.53
333.271	86.53
333.736	83.53
334.201	83.63
334.666	83.83
335.131	84.63
335.596	82.03
336.061	86.93
336.526	83.93
336.991	87.23
337.456	79.93
337.921	82.43
338.386	85.73
338.851	83.73
339.316	84.03
339.781	84.23
340.246	89.63
340.711	81.43
341.175	87.43
341.64	83.03
342.105	84.93
342.569	90.13
343.034	82.93
343.499	87.93
343.963	87.23
344.428	79.93
344.893	85.63
345.357	85.73
345.822	81.13
346.286	84.13
346.751	84.83
347.215	82.73
347.679	85.93
348.144	80.63
348.608	83.03
349.073	84.83
349.537	84.73
350.001	83.23
350.465	81.83
350.93	79.93
351.394	86.73
351.858	83.33
352.322	81.03
352.786	82.63
353.25	82.53
353.715	87.83
354.179	87.73
354.643	85.43
355.107	88.13
355.571	85.13
356.035	81.63
356.498	86.83
356.962	85.93
357.426	89.53
357.89	91.03
358.354	83.53
358.818	80.03
359.281	85.23
359.745	80.83
360.209	85.83
360.673	84.73
361.136	84.13
361.6	85.53
362.064	84.53
362.527	79.23
362.991	83.53
363.454	88.93
363.918	86.03
364.381	83.23
364.845	82.53
365.308	85.33
365.772	88.23
366.235	86.23
366.698	83.83
367.162	80.73
367.625	82.93
368.088	79.93
368.552	84.83
369.015	87.43
369.478	84.23
369.941	85.83
370.404	88.73
370.867	87.93
371.331	89.83
371.794	87.73
372.257	80.83
372.72	86.53
373.183	84.63
373.646	85.83
374.109	86.23
374.572	83.33
375.035	84.33
375.497	85.83
375.96	80.73
376.423	85.93
376.886	87.23
377.349	81.43
377.811	86.93
378.274	80.43
378.737	84.83
379.199	81.23
379.662	84.73
380.125	84.73
380.587	88.43
381.05	86.23
381.512	84.43
381.975	83.33
382.437	88.23
382.9	84.53
383.362	81.83
383.825	84.23
384.287	78.23
384.75	83.73
385.212	88.03
385.674	82.03
386.136	82.63
386.599	88.03
387.061	86.13
387.523	84.93
387.985	81.03
388.447	83.73
388.91	85.83
389.372	87.03
389.834	87.63
390.296	82.73
390.758	83.23
391.22	88.23
391.682	86.33
392.144	85.13
392.606	85.23
393.068	80.23
393.529	87.43
393.991	80.43
394.453	85.23
394.915	82.43
395.377	81.03
395.838	83.03
396.3	81.53
396.762	86.63
397.224	82.43
397.685	84.63
398.147	86.93
398.608	81.03
399.07	86.13
399.531	84.43
399.993	83.03
400.454	78.63
400.916	85.23
401.377	81.73
401.839	91.83
402.3	89.63
402.762	86.53
403.223	83.03
403.684	84.83
404.145	88.43
404.607	80.73
405.068	86.83
405.529	85.23
405.99	81.03
406.451	82.53
406.913	88.33
407.374	81.13
407.835	86.83
408.296	81.03
408.757	84.03
409.218	82.53
409.679	84.43
410.14	84.93
410.601	84.63
411.062	90.13
411.522	84.93
411.983	83.73
412.444	87.23
412.905	82.23
413.366	85.33
413.826	82.33
414.287	79.23
414.748	85.63
415.208	80.73
415.669	81.73
416.13	83.43
416.59	86.23
417.051	84.43
417.511	84.83
417.972	79.03
418.432	79.43
418.893	83.03
419.353	84.13
419.814	83.53
420.274	85.73
420.734	85.23
421.195	86.63
421.655	82.63
422.115	82.83
422.576	83.73
423.036	88.13
423.496	82.13
423.956	80.13
424.416	79.83
424.876	87.33
425.336	83.03
425.797	80.43
426.257	84.13
426.717	87.13
427.177	83.63
427.637	81.33
428.097	83.83
428.556	87.53
429.016	80.73
429.476	84.43
429.936	82.03
430.396	81.93
430.856	85.63
431.315	85.23
431.775	82.33
432.235	82.03
432.694	84.83
433.154	86.23
433.614	82.23
434.073	83.73
434.533	80.53
434.993	81.73
435.452	81.13
435.912	81.93
436.371	84.23
436.83	86.93
437.29	81.33
437.749	80.83
438.209	87.13
438.668	87.83
439.127	81.03
439.587	84.63
440.046	85.13
440.505	87.13
440.964	83.73
441.424	82.83
441.883	85.53
442.342	84.63
442.801	84.93
443.26	79.93
443.719	79.73
444.178	83.13
444.637	80.23
445.096	79.33
445.555	86.03
446.014	83.33
446.473	82.33
446.932	89.03
447.391	88.63
447.849	83.33
448.308	76.63
448.767	86.53
449.226	85.23
449.685	82.13
450.143	81.83
450.602	84.33
451.061	86.83
451.519	79.83
451.978	82.83
452.436	82.93
452.895	88.23
453.353	85.43
453.812	84.73
454.27	83.53
454.729	81.53
455.187	87.93
455.646	83.73
456.104	84.53
456.562	81.43
457.021	81.33
457.479	83.23
457.937	80.33
458.395	86.73
458.854	84.13
459.312	80.33
459.77	86.53
460.228	80.03
460.686	76.33
461.144	77.83
461.602	83.83
462.06	84.33
462.518	83.13
462.976	81.13
463.434	81.33
463.892	83.23
464.35	88.93
464.808	85.73
465.266	86.93
465.724	83.33
466.181	85.63
466.639	84.03
467.097	85.93
467.555	81.23
468.012	83.73
468.47	83.23
468.928	82.63
469.385	80.73
469.843	82.33
470.3	77.83
470.758	79.93
471.215	81.33
471.673	79.03
472.13	81.03
472.588	79.03
473.045	79.33
473.503	84.43
473.96	84.73
474.417	78.93
474.875	83.83
475.332	87.13
475.789	84.93
476.246	82.53
476.704	84.53
477.161	81.13
477.618	79.83
478.075	86.33
478.532	81.33
478.989	82.63
479.446	83.43
479.903	85.73
480.36	80.53
480.817	77.93
481.274	77.33
481.731	81.83
482.188	80.83
482.645	81.83
483.102	83.13
483.558	85.03
484.015	90.53
484.472	83.03
484.929	80.13
485.385	79.43
485.842	80.83
486.299	81.73
486.755	80.43
487.212	76.23
487.668	86.63
488.125	82.83
488.582	79.53
489.038	80.73
489.494	85.73
489.951	85.33
490.407	82.03
490.864	84.33
491.32	83.13
491.776	83.73
492.233	80.83
492.689	82.33
493.145	82.13
493.602	81.03
494.058	82.33
494.514	84.53
494.97	85.03
495.426	87.63
495.882	77.23
496.338	83.73
496.794	85.13
497.251	85.73
497.707	84.73
498.163	84.03
498.618	83.53
499.074	80.43
499.53	83.43
499.986	83.43
500.442	83.03
500.898	86.43
501.354	83.13
501.809	82.53
502.265	78.33
502.721	88.53
503.177	82.63
503.632	88.63
504.088	77.53
504.543	81.13
504.999	82.33
505.455	82.83
505.91	83.83
506.366	87.13
506.821	82.23
507.277	81.93
507.732	88.23
508.187	86.73
508.643	81.43
509.098	77.53
509.553	82.93
510.009	81.23
510.464	85.33
510.919	84.73
511.375	83.33
511.83	84.83
512.285	85.03
512.74	78.33
513.195	81.63
513.65	84.03
514.105	84.03
514.56	82.03
515.015	85.03
515.47	78.33
515.925	84.23
516.38	82.93
516.835	82.13
517.29	81.13
517.745	84.23
518.2	84.73
518.655	82.73
519.109	84.03
519.564	81.13
520.019	80.03
520.474	75.13
520.928	80.03
521.383	81.93
521.838	80.13
522.292	80.53
522.747	78.83
523.201	80.83
523.656	81.23
524.11	87.13
524.565	78.63
525.019	82.83
525.474	81.63
525.928	81.73
526.382	83.93
526.837	83.33
527.291	83.93
527.745	81.63
528.2	87.83
528.654	84.73
529.108	85.03
529.562	80.53
530.016	81.33
530.47	80.93
530.925	80.93
531.379	75.33
531.833	83.03
532.287	82.23
532.741	83.43
533.195	82.13
533.649	84.03
534.103	83.23
534.556	80.33
535.01	87.43
535.464	85.13
535.918	82.73
536.372	79.83
536.826	80.83
537.279	86.13
537.733	86.83
538.187	83.73
538.64	79.33
539.094	80.53
539.548	82.83
540.001	81.33
540.455	87.13
540.908	83.23
541.362	79.33
541.815	83.03
542.269	78.93
542.722	83.53
543.175	79.93
543.629	76.93
544.082	75.53
544.536	79.33
544.989	83.33
545.442	82.33
545.895	77.43
546.349	79.93
546.802	83.93
547.255	80.53
547.708	85.73
548.161	84.33
548.614	82.33
549.067	81.33
549.52	82.43
549.973	78.43
550.426	80.23
550.879	84.23
551.332	80.03
551.785	86.63
552.238	83.73
552.691	83.23
553.144	83.23
553.596	80.73
554.049	85.33
554.502	84.93
554.955	84.23
555.407	80.53
555.86	83.43
556.313	85.23
556.765	81.73
557.218	83.93
557.67	81.43
558.123	81.63
558.576	78.83
559.028	82.03
559.48	77.83
559.933	85.43
560.385	81.03
560.838	81.63
561.29	81.63
561.742	81.43
562.195	87.33
562.647	79.93
563.099	83.53
563.551	78.43
564.004	79.53
564.456	82.13
564.908	80.63
565.36	82.83
565.812	80.23
566.264	83.43
566.716	80.43
567.168	86.83
567.62	82.63
568.072	81.13
568.524	83.33
568.976	77.23
569.428	84.23
569.88	78.93
570.332	74.93
570.784	76.53
571.235	82.53
571.687	76.43
572.139	83.23
572.59	81.33
573.042	78.03
573.494	82.53
573.945	81.93
574.397	77.13
574.849	77.53
575.3	81.43
575.752	82.33
576.203	80.13
576.655	79.13
577.106	80.03
577.557	86.83
578.009	85.13
578.46	79.53
578.912	81.03
579.363	83.83
579.814	81.03
580.265	77.73
580.717	82.23
581.168	79.33
581.619	81.03
582.07	85.53
582.521	84.13
582.972	84.73
583.423	89.33
583.875	82.13
584.326	87.03
584.777	82.93
585.227	83.73
585.678	80.43
586.129	83.13
586.58	83.73
587.031	80.83
587.482	90.63
587.933	82.03
588.384	81.03
588.834	82.53
589.285	85.03
589.736	84.33
590.186	84.33
590.637	90.03
591.088	84.93
591.538	84.93
591.989	84.83
592.439	78.13
592.89	82.73
593.34	85.13
593.791	82.23
594.241	76.13
594.692	91.93
595.142	84.13
595.593	84.93
596.043	84.43
596.493	84.73
596.943	78.93
597.394	82.63
597.844	84.13
598.294	80.43
598.744	80.23
599.195	84.13
599.645	83.13
600.095	81.33
600.545	87.93
600.995	83.43
601.445	87.13
601.895	87.83
602.345	83.63
602.795	87.13
603.245	82.63
603.695	86.33
604.145	82.93
604.594	84.43
605.044	84.13
605.494	78.53
605.944	82.83
606.393	81.93
606.843	82.53
607.293	82.43
607.743	84.43
608.192	82.73
608.642	80.03
609.091	80.33
609.541	77.43
609.99	83.93
610.44	82.03
610.889	85.53
611.339	82.83
611.788	86.53
612.238	86.33
612.687	79.73
613.136	84.43
613.586	85.03
614.035	80.13
614.484	81.23
614.933	80.43
615.383	79.23
615.832	82.23
616.281	83.63
616.73	81.43
617.179	82.03
617.628	81.73
618.077	90.63
618.526	81.23
618.975	83.73
619.424	82.63
619.873	85.23
620.322	78.43
620.771	78.13
621.22	80.93
621.669	81.03
622.118	82.23
622.567	84.33
623.015	81.33
623.464	81.13
623.913	85.53
624.361	84.63
624.81	86.83
625.259	80.83
625.707	84.93
626.156	84.73
626.604	81.23
627.053	82.53
627.501	88.33
627.95	84.73
628.398	87.73
628.847	85.53
629.295	87.23
629.744	82.63
630.192	78.63
630.64	80.13
631.089	88.13
631.537	86.23
631.985	84.83
632.433	82.03
632.881	84.33
633.33	89.73
633.778	80.33
634.226	79.53
634.674	85.43
635.122	85.83
635.57	82.53
636.018	84.83
636.466	83.03
636.914	84.83
637.362	76.93
637.81	80.03
638.258	81.03
638.705	82.33
639.153	81.43
639.601	82.23
640.049	83.63
640.497	84.33
640.944	87.83
641.392	83.93
641.84	84.93
642.287	83.73
642.735	85.23
643.182	86.33
643.63	80.23
644.078	85.43
644.525	81.33
644.973	80.83
645.42	77.53
645.867	82.23
646.315	76.13
646.762	86.23
647.21	78.63
647.657	81.73
648.104	80.63
648.551	82.43
648.999	80.93
649.446	82.53
649.893	82.43
650.34	84.53
650.787	85.13
651.234	82.93
651.682	83.73
652.129	77.83
652.576	85.03
653.023	89.23
653.47	83.33
653.917	83.53
654.363	84.53
654.81	86.93
655.257	80.93
655.704	85.73
656.151	84.23
656.598	83.53
657.044	83.33
657.491	84.63
657.938	78.63
658.385	81.13
658.831	83.63
659.278	81.33
659.724	81.33
660.171	84.63
660.618	85.23
661.064	80.23
661.511	81.03
661.957	82.13
662.404	82.93
662.85	83.13
663.296	84.53
663.743	80.93
664.189	74.83
664.635	84.13
665.082	79.63
665.528	78.03
665.974	81.13
666.42	84.23
666.867	81.13
667.313	79.53
667.759	82.33
668.205	80.53
668.651	84.93
669.097	80.53
669.543	89.03
669.989	81.13
670.435	80.33
670.881	86.13
671.327	85.23
671.773	82.23
672.219	81.03
672.665	84.73
673.11	79.33
673.556	84.83
674.002	84.83
674.448	80.33
674.893	88.93
675.339	80.73
675.785	81.53
676.23	82.13
676.676	85.63
677.122	77.43
677.567	82.83
678.013	85.03
678.458	80.73
678.904	77.33
679.349	82.73
679.794	85.53
680.24	84.13
680.685	90.73
681.131	83.83
681.576	87.53
682.021	85.43
682.466	85.73
682.912	83.33
683.357	79.33
683.802	85.63
684.247	84.53
684.692	85.73
685.137	77.93
685.583	85.63
686.028	82.83
686.473	78.53
686.918	81.93
687.363	78.13
687.807	85.53
688.252	83.73
688.697	79.93
689.142	81.63
689.587	85.63
690.032	88.53
690.477	84.13
690.921	86.33
691.366	81.23
691.811	83.93
692.255	84.43
692.7	80.63
693.145	83.33
693.589	85.93
694.034	86.33
694.478	82.03
694.923	82.83
695.367	80.93
695.812	83.03
696.256	81.63
696.701	83.33
697.145	83.93
697.59	81.03
698.034	82.13
698.478	79.93
698.922	89.23
699.367	75.03
699.811	80.33
700.255	86.73
700.699	86.93
701.143	89.23
701.588	85.33
702.032	81.93
702.476	84.53
702.92	84.73
703.364	82.13
703.808	84.43
704.252	85.93
704.696	82.03
705.14	78.23
705.584	85.43
706.027	81.83
706.471	82.23
706.915	83.33
707.359	82.03
707.803	86.33
708.246	80.63
708.69	84.53
709.134	84.93
709.577	82.53
710.021	90.23
710.465	84.33
710.908	84.13
711.352	86.23
711.795	85.83
712.239	84.73
712.682	85.93
713.126	84.33
713.569	82.43
714.012	87.83
714.456	85.13
714.899	84.53
715.342	84.13
715.786	82.03
716.229	79.43
716.672	81.53
717.115	81.33
717.558	75.93
718.002	80.83
718.445	83.53
718.888	82.03
719.331	78.73
719.774	85.73
720.217	84.13
720.66	88.03
721.103	86.93
721.546	82.03
721.989	81.53
722.432	82.03
722.874	81.33
723.317	81.63
723.76	80.33
724.203	80.23
724.645	86.03
725.088	83.63
725.531	82.83
725.974	86.83
726.416	82.23
726.859	85.83
727.301	85.33
727.744	80.53
728.187	81.23
728.629	83.63
729.071	83.43
729.514	79.53
729.956	89.53
730.399	88.33
730.841	84.13
731.283	84.13
731.726	82.93
732.168	83.53
732.61	84.83
733.053	84.93
733.495	86.33
733.937	90.63
734.379	78.43
734.821	85.23
735.263	85.63
735.705	83.53
736.148	87.73
736.59	87.43
737.032	82.73
737.474	81.13
737.916	81.73
738.357	81.83
738.799	82.93
739.241	80.63
739.683	83.13
740.125	85.93
740.567	81.73
741.008	84.83
741.45	76.13
741.892	85.93
742.334	84.13
742.775	88.43
743.217	89.53
743.658	84.03
744.1	82.13
744.542	82.43
744.983	83.33
745.425	83.93
745.866	86.93
746.307	84.93
746.749	83.73
747.19	83.73
747.632	82.93
748.073	82.03
748.514	86.13
748.956	86.43
749.397	78.53
749.838	86.23
750.279	84.53
750.72	88.03
751.162	86.13
751.603	81.53
752.044	89.83
752.485	80.93
752.926	82.83
753.367	87.03
753.808	86.73
754.249	84.83
754.69	86.33
755.131	86.53
755.572	82.63
756.013	85.03
756.453	81.73
756.894	82.43
757.335	82.23
757.776	85.93
758.216	81.23
758.657	87.03
759.098	81.13
759.538	81.43
759.979	81.13
760.42	83.03
760.86	84.33
761.301	80.73
761.741	82.53
762.182	84.53
762.622	78.53
763.063	82.03
763.503	85.13
763.943	88.73
764.384	82.13
764.824	86.23
765.264	81.73
765.705	83.13
766.145	85.03
766.585	85.03
767.025	85.33
767.465	80.53
767.906	82.63
768.346	81.73
768.786	84.83
769.226	82.93
769.666	82.23
770.106	86.63
770.546	82.73
770.986	80.73
771.426	82.23
771.866	85.33
772.306	85.13
772.745	88.53
773.185	81.53
773.625	86.03
774.065	78.73
774.505	84.43
774.944	81.53
775.384	83.13
775.824	86.93
776.263	82.63
776.703	85.23
777.142	80.03
777.582	82.13
778.021	89.03
778.461	85.93
778.9	86.63
779.34	81.83
779.779	88.73
780.219	79.53
780.658	85.23
781.097	84.33
781.537	82.93
781.976	84.23
782.415	85.33
782.855	90.13
783.294	84.13
783.733	80.23
784.172	81.13
784.611	88.13
785.05	85.53
785.489	87.83
785.928	87.43
786.367	78.53
786.806	87.33
787.245	82.23
787.684	88.13
788.123	89.83
788.562	87.63
789.001	86.33
789.44	83.73
789.879	88.33
790.317	86.33
790.756	87.03
791.195	81.83
791.634	85.13
792.072	80.03
792.511	85.13
792.95	82.23
793.388	85.43
793.827	86.53
794.265	80.63
794.704	82.93
795.142	83.03
795.581	91.73
796.019	89.43
796.458	82.43
796.896	83.73
797.334	82.43
797.773	84.93
798.211	82.53
798.649	84.73
799.087	83.23
799.526	86.13
799.964	88.43
800.402	84.23
800.84	85.13
801.278	87.13
801.716	85.63
802.154	86.43
802.592	88.03
803.03	83.13
803.468	88.53
803.906	89.83
804.344	87.23
804.782	88.23
805.22	87.63
805.658	82.63
806.096	82.23
806.533	87.53
806.971	86.53
807.409	81.83
807.847	86.53
808.284	86.73
808.722	80.63
809.16	83.13
809.597	86.83
810.035	85.43
810.472	86.33
810.91	82.33
811.347	89.33
811.785	84.83
812.222	84.73
812.66	82.83
813.097	79.93
813.535	89.63
813.972	84.83
814.409	86.93
814.846	80.43
815.284	83.23
815.721	84.93
816.158	83.13
816.595	85.23
817.032	84.33
817.47	86.23
817.907	83.43
818.344	84.63
818.781	80.53
819.218	84.03
819.655	86.83
820.092	82.53
820.529	82.23
820.966	82.13
821.403	85.63
821.839	80.73
822.276	83.33
822.713	85.43
823.15	87.83
823.587	83.23
824.023	80.63
824.46	81.23
824.897	82.13
825.333	82.43
825.77	83.73
826.206	85.33
826.643	84.73
827.08	86.23
827.516	85.33
827.953	80.93
828.389	86.53
828.825	87.23
829.262	86.93
829.698	88.43
830.135	82.43
830.571	88.13
831.007	89.43
831.443	87.83
831.88	80.23
832.316	84.13
832.752	81.13
833.188	82.93
833.624	82.13
834.06	85.83
834.497	86.03
834.933	81.43
835.369	81.53
835.805	88.73
836.241	87.23
836.677	82.93
837.112	90.83
837.548	83.43
837.984	90.03
838.42	84.33
838.856	82.33
839.292	79.63
839.727	82.43
840.163	89.53
840.599	80.53
841.034	87.23
841.47	83.73
841.906	84.53
842.341	85.13
842.777	86.23
843.212	83.63
843.648	81.43
844.083	86.63
844.519	75.53
844.954	86.43
845.39	84.23
845.825	89.03
846.261	82.83
846.696	82.73
847.131	86.13
847.566	90.33
848.002	82.63
848.437	83.03
848.872	85.63
849.307	83.53
849.742	85.93
850.177	85.23
850.613	81.93
851.048	83.83
851.483	87.13
851.918	87.43
852.353	81.93
852.788	89.43
853.223	81.13
853.657	84.73
854.092	82.93
854.527	82.83
854.962	90.33
855.397	83.33
855.832	84.03
856.266	86.53
856.701	85.93
857.136	83.33
857.57	83.43
858.005	85.53
858.44	84.33
858.874	80.63
859.309	80.03
859.743	87.63
860.178	85.83
860.612	82.93
861.047	83.53
861.481	86.33
861.915	85.93
862.35	85.53
862.784	88.83
863.218	84.53
863.653	85.53
864.087	83.43
864.521	82.93
864.955	85.63
865.39	82.13
865.824	87.13
866.258	82.53
866.692	84.93
867.126	84.33
867.56	87.23
867.994	86.33
868.428	84.23
868.862	83.43
869.296	81.63
869.73	87.83
870.164	84.73
870.598	86.93
871.031	80.93
871.465	82.33
871.899	83.73
872.333	86.23
872.766	90.53
873.2	83.03
873.634	85.53
874.067	86.03
874.501	84.93
874.935	81.63
875.368	85.83
875.802	83.63
876.235	89.53
876.669	85.03
877.102	84.63
877.535	83.83
877.969	85.33
878.402	84.23
878.836	84.83
879.269	86.23
879.702	83.73
880.135	84.63
880.569	85.43
881.002	83.93
881.435	84.53
881.868	88.33
882.301	83.63
882.734	84.03
883.167	88.73
883.601	81.03
884.034	81.93
884.467	85.53
884.899	82.33
885.332	82.63
885.765	79.83
886.198	85.63
886.631	80.63
887.064	83.83
887.497	82.93
887.929	84.23
888.362	78.83
888.795	84.33
889.228	83.33
889.66	76.93
890.093	89.43
890.526	81.43
890.958	81.03
891.391	88.83
891.823	85.43
892.256	86.43
892.688	81.23
893.121	84.13
893.553	84.33
893.985	81.63
894.418	84.63
894.85	84.13
895.282	87.23
895.715	84.43
896.147	85.53
896.579	85.23
897.011	82.73
897.444	78.03
897.876	84.23
898.308	82.13
898.74	85.23
899.172	80.63
899.604	84.93
900.036	84.33
900.468	81.73
900.9	81.43
901.332	81.03
901.764	82.33
902.196	80.93
902.628	83.53
903.06	79.73
903.491	80.23
903.923	84.73
904.355	82.23
904.787	87.13
905.218	83.63
905.65	86.03
906.082	84.53
906.513	81.73
906.945	84.03
907.376	84.83
907.808	83.23
908.239	81.43
908.671	88.33
909.102	81.03
909.534	86.53
909.965	85.03
910.397	84.83
910.828	80.33
911.259	77.73
911.691	80.93
912.122	84.23
912.553	83.33
912.984	85.13
913.415	83.93
913.847	84.03
914.278	80.93
914.709	80.93
915.14	83.63
915.571	85.63
916.002	85.13
916.433	86.23
916.864	84.03
917.295	83.83
917.726	82.63
918.157	83.93
918.587	83.73
919.018	82.73
919.449	88.53
919.88	85.13
920.311	84.23
920.741	83.23
921.172	85.33
921.603	79.83
922.033	85.83
922.464	84.43
922.895	83.33
923.325	83.53
923.756	77.83
924.186	89.73
924.617	83.33
925.047	81.33
925.478	79.73
925.908	84.23
926.338	84.03
926.769	79.83
927.199	84.73
927.629	84.13
928.06	82.23
928.49	80.53
928.92	81.93
929.35	80.93
929.78	83.53
930.21	83.23
930.641	84.33
931.071	88.53
931.501	80.23
931.931	85.93
932.361	83.43
932.791	85.43
933.221	85.63
933.651	87.03
934.08	82.93
934.51	83.83
934.94	86.63
935.37	82.73
935.8	87.93
936.229	87.63
936.659	80.83
937.089	86.83
937.519	86.93
937.948	86.53
938.378	81.13
938.807	86.23
939.237	88.33
939.666	89.33
940.096	79.13
940.525	85.63
940.955	78.43
941.384	79.83
941.814	85.73
942.243	82.53
942.672	81.23
943.102	81.23
943.531	79.43
943.96	81.43
944.39	83.73
944.819	80.93
945.248	82.73
945.677	85.93
946.106	87.33
946.535	83.13
946.964	78.83
947.393	82.93
947.822	82.53
948.251	82.63
948.68	78.53
949.109	82.63
949.538	84.43
949.967	80.73
950.396	81.63
950.825	79.63
951.254	83.03
951.682	80.93
952.111	81.23
952.54	83.73
952.969	81.83
953.397	84.73
953.826	83.13
954.254	80.03
954.683	81.83
955.112	80.33
955.54	83.53
955.969	82.23
956.397	82.33
956.826	84.73
957.254	86.63
957.682	82.43
958.111	86.23
958.539	85.43
958.967	82.43
959.396	85.63
959.824	88.53
960.252	91.23
960.68	80.43
961.109	86.33
961.537	84.33
961.965	85.33
962.393	85.23
962.821	86.13
963.249	86.83
963.677	79.23
964.105	78.33
964.533	78.63
964.961	85.33
965.389	81.23
965.817	86.23
966.245	80.93
966.672	78.23
967.1	81.93
967.528	80.03
967.956	90.73
968.383	86.43
968.811	83.33
969.239	83.13
969.666	84.33
970.094	81.93
970.522	79.63
970.949	87.13
971.377	87.93
971.804	80.33
972.232	79.63
972.659	84.23
973.087	83.13
973.514	83.83
973.941	77.43
974.369	79.33
974.796	85.43
975.223	86.33
975.651	87.23
976.078	78.83
976.505	82.23
976.932	82.43
977.359	79.23
977.786	82.43
978.214	80.83
978.641	86.03
979.068	82.03
979.495	83.43
979.922	85.23
980.349	86.33
980.776	85.33
981.202	81.63
981.629	85.83
982.056	85.63
982.483	82.83
982.91	78.03
983.337	83.33
983.763	86.43
984.19	83.93
984.617	82.43
985.043	87.03
985.47	82.23
985.897	80.53
986.323	80.43
986.75	81.43
987.176	87.43
987.603	83.23
988.029	80.93
988.456	82.73
988.882	85.23
989.308	83.93
989.735	84.13
990.161	78.63
990.587	79.63
991.014	87.53
991.44	83.63
991.866	86.73
992.292	89.53
992.719	83.53
993.145	81.63
993.571	83.93
993.997	85.23
994.423	87.63
994.849	85.53
995.275	87.73
995.701	83.73
996.127	87.13
996.553	83.53
996.979	81.73
997.405	84.13
997.83	85.43
998.256	81.13
998.682	83.03
999.108	82.13
999.534	81.13
999.959	86.53
1000.385	82.33
1000.811	83.93
1001.236	77.23
1001.662	81.53
1002.087	79.23
1002.513	85.03
1002.938	87.33
1003.364	84.73
1003.789	86.43
1004.215	83.83
1004.64	81.43
1005.066	82.33
1005.491	83.43
1005.916	83.43
1006.342	82.83
1006.767	80.23
1007.192	83.53
1007.617	84.93
1008.042	79.23
1008.468	81.83
1008.893	86.73
1009.318	83.03
1009.743	84.73
1010.168	80.93
1010.593	82.53
1011.018	79.13
1011.443	86.63
1011.868	84.23
1012.293	87.43
1012.718	83.03
1013.143	84.43
1013.567	88.13
1013.992	81.53
1014.417	80.73
1014.842	82.53
1015.267	82.83
1015.691	83.93
1016.116	74.73
1016.541	84.53
1016.965	77.53
1017.39	81.93
1017.814	80.73
1018.239	79.53
1018.663	81.83
1019.088	79.43
1019.512	83.33
1019.937	84.83
1020.361	82.03
1020.785	92.83
1021.21	82.33
1021.634	85.03
1022.058	88.03
1022.483	89.33
1022.907	85.23
1023.331	80.73
1023.755	82.63
1024.179	81.63
1024.604	82.43
1025.028	89.43
1025.452	82.23
1025.876	82.53
1026.3	83.93
1026.724	81.83
1027.148	74.63
1027.572	82.03
1027.996	78.93
1028.42	78.83
1028.843	83.43
1029.267	82.73
1029.691	80.13
1030.115	81.23
1030.539	83.23
1030.962	82.93
1031.386	84.13
1031.81	85.03
1032.233	78.43
1032.657	84.73
1033.08	87.83
1033.504	89.93
1033.927	81.63
1034.351	84.63
1034.774	78.23
1035.198	81.33
1035.621	80.13
1036.045	80.23
1036.468	86.03
1036.891	85.83
1037.315	85.13
1037.738	80.33
1038.161	81.13
1038.584	78.83
1039.008	82.63
1039.431	81.73
1039.854	89.33
1040.277	80.93
1040.7	83.23
1041.123	79.73
1041.546	84.43
1041.969	81.53
1042.392	81.03
1042.815	85.33
1043.238	81.33
1043.661	84.43
1044.084	80.43
1044.507	78.73
1044.93	83.33
1045.352	80.63
1045.775	85.53
1046.198	87.63
1046.621	86.43
1047.043	87.33
1047.466	80.63
1047.889	86.43
1048.311	82.13
1048.734	82.43
1049.156	81.83
1049.579	82.23
1050.001	84.13
1050.424	86.03
1050.846	82.33
1051.269	83.93
1051.691	83.63
1052.113	81.03
1052.536	84.93
1052.958	78.83
1053.38	82.33
1053.802	82.33
1054.225	87.03
1054.647	81.43
1055.069	83.93
1055.491	83.23
1055.913	81.93
1056.335	84.23
1056.757	82.63
1057.179	82.43
1057.601	80.43
1058.023	81.93
1058.445	82.93
1058.867	85.73
1059.289	85.83
1059.711	81.73
1060.133	86.43
1060.555	77.83
1060.976	79.03
1061.398	78.23
1061.82	79.93
1062.241	82.73
1062.663	78.63
1063.085	82.63
1063.506	85.43
1063.928	85.53
1064.35	79.63
1064.771	83.63
1065.193	80.53
1065.614	84.93
1066.035	83.33
1066.457	81.53
1066.878	90.23
1067.3	82.73
1067.721	86.33
1068.142	80.13
1068.564	83.43
1068.985	81.93
1069.406	88.23
1069.827	82.53
1070.248	79.83
1070.67	80.73
1071.091	81.03
1071.512	85.03
1071.933	79.33
1072.354	83.63
1072.775	84.83
1073.196	85.43
1073.617	80.73
1074.038	84.93
1074.459	82.23
1074.88	84.73
1075.3	82.63
1075.721	79.83
1076.142	84.93
1076.563	85.23
1076.983	81.63
1077.404	79.53
1077.825	81.63
1078.246	83.33
1078.666	78.83
1079.087	84.53
1079.507	82.43
1079.928	88.33
1080.348	87.33
1080.769	81.53
1081.189	83.23
1081.61	82.33
1082.03	81.83
1082.451	84.03
1082.871	82.53
1083.291	78.03
1083.711	86.23
1084.132	82.33
1084.552	88.73
1084.972	86.23
1085.392	83.03
1085.813	79.83
1086.233	81.83
1086.653	83.63
1087.073	81.63
1087.493	79.63
1087.913	81.23
1088.333	80.03
1088.753	89.73
1089.173	81.03
1089.593	81.93
1090.013	81.63
1090.433	80.03
1090.852	79.83
1091.272	84.63
1091.692	84.63
1092.112	82.93
1092.531	84.83
1092.951	86.73
1093.371	81.73
1093.79	84.53
1094.21	89.03
1094.63	86.03
1095.049	86.83
1095.469	83.03
1095.888	88.73
1096.308	84.03
1096.727	84.23
1097.146	82.63
1097.566	77.83
1097.985	83.03
1098.405	82.23
1098.824	83.43
1099.243	85.33
1099.662	83.53
1100.082	79.73
1100.501	84.23
1100.92	86.33
1101.339	82.03
1101.758	82.53
