Data from DH-3PlusCalLight-Deuterium_HRD10391_13-35-10-000.txt Node
Date: Thu Feb 15 13:35:10 EST 2018
User: Ender
Spectrometer: HR+D1039
Trigger mode: 0
Integration Time (sec): 2.730000E-2
Scans to average: 10
Electric dark correction enabled: true
Nonlinearity correction enabled: false
Boxcar width: 0
XAxis mode: Wavelengths
Number of Pixels in Spectrum: 2048
>>>>>Begin Spectral Data<<<<<
187.836	3.97
188.309	3.97
188.782	3.97
189.255	0.27
189.728	-7.53
190.201	-4.33
190.674	-13.73
191.147	-9.63
191.619	-6.13
192.092	-3.43
192.565	-5.53
193.038	-4.43
193.511	1.87
193.984	-1.33
194.456	7.47
194.929	9.67
195.402	11.47
195.874	21.37
196.347	19.67
196.82	22.17
197.292	23.57
197.765	37.77
198.237	38.17
198.71	42.47
199.182	42.67
199.655	47.37
200.127	54.37
200.6	56.47
201.072	56.37
201.544	57.57
202.017	60.77
202.489	63.57
202.961	67.27
203.433	70.87
203.906	76.27
204.378	72.57
204.85	79.57
205.322	80.77
205.794	80.07
206.266	79.77
206.739	81.37
207.211	78.87
207.683	81.17
208.155	82.27
208.627	85.17
209.099	88.17
209.57	82.27
210.042	81.97
210.514	91.17
210.986	84.57
211.458	84.57
211.93	88.07
212.402	88.77
212.873	86.17
213.345	83.57
213.817	83.57
214.288	82.67
214.76	86.27
215.232	80.17
215.703	84.07
216.175	82.67
216.646	82.97
217.118	80.97
217.589	84.77
218.061	80.87
218.532	81.07
219.004	82.27
219.475	84.27
219.946	76.37
220.418	81.07
220.889	85.27
221.36	76.07
221.832	85.67
222.303	82.77
222.774	84.97
223.245	81.37
223.717	81.27
224.188	77.67
224.659	83.27
225.13	82.67
225.601	87.07
226.072	88.77
226.543	90.57
227.014	88.27
227.485	89.57
227.956	94.87
228.427	96.57
228.898	92.47
229.369	92.17
229.839	92.27
230.31	103.57
230.781	105.17
231.252	101.47
231.722	102.57
232.193	101.27
232.664	101.07
233.135	96.47
233.605	95.87
234.076	98.27
234.546	95.37
235.017	91.37
235.487	95.37
235.958	95.47
236.428	91.47
236.899	88.47
237.369	86.37
237.84	87.87
238.31	88.47
238.78	85.57
239.251	87.07
239.721	86.77
240.191	80.97
240.662	84.17
241.132	82.17
241.602	81.87
242.072	79.97
242.542	84.77
243.013	87.57
243.483	76.37
243.953	79.37
244.423	84.27
244.893	83.47
245.363	80.67
245.833	84.97
246.303	84.27
246.773	83.17
247.243	80.77
247.712	83.27
248.182	81.67
248.652	82.27
249.122	74.67
249.592	80.47
250.061	83.67
250.531	82.07
251.001	82.47
251.471	83.77
251.94	90.37
252.41	88.17
252.879	83.17
253.349	89.87
253.818	84.37
254.288	84.87
254.757	84.47
255.227	85.27
255.696	96.17
256.166	95.67
256.635	97.77
257.105	97.57
257.574	107.57
258.043	109.47
258.513	111.37
258.982	108.27
259.451	125.57
259.92	126.57
260.389	143.87
260.859	135.27
261.328	143.97
261.797	152.47
262.266	160.87
262.735	164.67
263.204	174.87
263.673	174.67
264.142	179.27
264.611	188.17
265.08	195.07
265.549	194.57
266.018	202.07
266.487	205.17
266.955	218.57
267.424	218.97
267.893	230.07
268.362	220.97
268.83	226.87
269.299	233.17
269.768	241.37
270.236	241.77
270.705	246.27
271.174	243.37
271.642	240.97
272.111	245.57
272.579	251.07
273.048	254.27
273.516	255.07
273.985	247.37
274.453	255.07
274.922	250.87
275.39	253.47
275.858	252.47
276.327	252.47
276.795	254.07
277.263	256.27
277.731	257.97
278.2	251.77
278.668	255.67
279.136	250.37
279.604	255.57
280.072	250.47
280.54	248.17
281.008	247.87
281.477	245.57
281.945	246.97
282.413	244.97
282.881	240.17
283.348	243.47
283.816	241.07
284.284	239.37
284.752	247.77
285.22	239.57
285.688	238.87
286.156	239.97
286.623	237.97
287.091	236.67
287.559	234.87
288.026	234.97
288.494	235.77
288.962	236.87
289.429	234.47
289.897	238.77
290.364	252.57
290.832	249.87
291.3	245.47
291.767	243.67
292.234	252.37
292.702	254.67
293.169	258.57
293.637	270.27
294.104	263.57
294.571	266.47
295.039	267.67
295.506	271.87
295.973	269.87
296.44	274.27
296.908	280.47
297.375	276.67
297.842	277.37
298.309	279.47
298.776	272.57
299.243	280.37
299.71	276.37
300.177	282.47
300.644	277.77
301.111	284.27
301.578	278.57
302.045	284.87
302.512	285.67
302.979	280.77
303.446	276.07
303.913	277.77
304.379	278.27
304.846	268.07
305.313	267.67
305.78	274.97
306.246	274.27
306.713	262.57
307.18	271.57
307.646	270.17
308.113	267.77
308.579	265.57
309.046	265.77
309.512	262.27
309.979	261.67
310.445	263.87
310.912	265.77
311.378	263.97
311.845	270.87
312.311	263.77
312.777	260.37
313.244	264.97
313.71	264.97
314.176	265.17
314.642	258.77
315.109	262.17
315.575	261.47
316.041	263.37
316.507	265.87
316.973	267.37
317.439	273.97
317.905	267.37
318.371	284.97
318.837	278.87
319.303	275.97
319.769	278.17
320.235	279.57
320.701	282.77
321.167	289.47
321.633	281.37
322.099	290.67
322.564	285.17
323.03	283.27
323.496	287.37
323.962	288.67
324.427	284.77
324.893	280.67
325.359	285.07
325.824	281.77
326.29	281.47
326.755	282.27
327.221	287.37
327.686	283.57
328.152	288.37
328.617	281.27
329.083	284.27
329.548	279.77
330.014	286.37
330.479	269.07
330.944	272.87
331.41	269.07
331.875	266.37
332.34	269.17
332.805	267.07
333.271	268.17
333.736	266.57
334.201	269.57
334.666	264.37
335.131	258.57
335.596	260.57
336.061	260.57
336.526	260.47
336.991	251.67
337.456	259.07
337.921	258.17
338.386	251.37
338.851	266.97
339.316	257.67
339.781	262.37
340.246	265.37
340.711	266.47
341.175	270.77
341.64	273.97
342.105	279.67
342.569	276.17
343.034	275.37
343.499	278.37
343.963	287.27
344.428	281.57
344.893	287.57
345.357	289.27
345.822	284.17
346.286	295.37
346.751	300.17
347.215	296.87
347.679	300.27
348.144	297.87
348.608	312.67
349.073	303.07
349.537	310.57
350.001	311.57
350.465	312.67
350.93	302.77
351.394	309.77
351.858	304.37
352.322	307.27
352.786	301.47
353.25	304.67
353.715	308.47
354.179	304.47
354.643	304.77
355.107	308.57
355.571	307.77
356.035	318.87
356.498	302.17
356.962	313.67
357.426	311.27
357.89	306.37
358.354	308.47
358.818	306.07
359.281	313.37
359.745	304.77
360.209	311.27
360.673	305.27
361.136	303.97
361.6	318.67
362.064	306.17
362.527	305.37
362.991	315.87
363.454	305.57
363.918	304.77
364.381	309.97
364.845	311.27
365.308	310.27
365.772	309.67
366.235	313.27
366.698	312.07
367.162	308.77
367.625	309.87
368.088	307.37
368.552	321.77
369.015	307.97
369.478	306.97
369.941	309.67
370.404	316.17
370.867	310.27
371.331	308.07
371.794	313.07
372.257	313.17
372.72	311.87
373.183	310.77
373.646	318.97
374.109	318.17
374.572	316.67
375.035	316.27
375.497	320.97
375.96	324.47
376.423	320.17
376.886	324.97
377.349	327.97
377.811	330.47
378.274	332.37
378.737	333.07
379.199	332.47
379.662	326.57
380.125	325.57
380.587	331.97
381.05	322.97
381.512	338.47
381.975	338.47
382.437	333.17
382.9	330.47
383.362	338.87
383.825	339.97
384.287	334.47
384.75	334.17
385.212	344.07
385.674	340.17
386.136	347.27
386.599	340.37
387.061	348.77
387.523	342.47
387.985	343.07
388.447	338.87
388.91	338.97
389.372	339.37
389.834	346.77
390.296	339.67
390.758	345.37
391.22	351.37
391.682	346.57
392.144	347.57
392.606	339.07
393.068	341.67
393.529	351.77
393.991	342.67
394.453	349.47
394.915	341.37
395.377	337.97
395.838	337.37
396.3	350.87
396.762	353.57
397.224	356.47
397.685	356.77
398.147	346.57
398.608	354.87
399.07	345.27
399.531	338.07
399.993	345.57
400.454	352.67
400.916	344.47
401.377	352.97
401.839	347.97
402.3	339.77
402.762	350.07
403.223	344.77
403.684	348.47
404.145	352.67
404.607	352.97
405.068	342.27
405.529	330.77
405.99	334.57
406.451	327.37
406.913	322.67
407.374	319.27
407.835	334.07
408.296	327.37
408.757	320.47
409.218	323.77
409.679	315.17
410.14	312.47
410.601	314.07
411.062	309.17
411.522	312.17
411.983	308.17
412.444	310.27
412.905	304.07
413.366	302.07
413.826	299.17
414.287	294.87
414.748	284.27
415.208	291.17
415.669	293.07
416.13	288.17
416.59	288.97
417.051	282.87
417.511	286.97
417.972	296.17
418.432	300.77
418.893	299.07
419.353	306.77
419.814	301.77
420.274	305.07
420.734	319.17
421.195	310.67
421.655	301.77
422.115	298.77
422.576	296.17
423.036	286.97
423.496	290.87
423.956	282.27
424.416	281.47
424.876	286.27
425.336	273.87
425.797	273.67
426.257	274.27
426.717	274.67
427.177	272.17
427.637	270.17
428.097	265.87
428.556	274.77
429.016	277.37
429.476	262.97
429.936	255.67
430.396	243.27
430.856	238.17
431.315	230.17
431.775	230.67
432.235	230.07
432.694	244.77
433.154	232.07
433.614	213.67
434.073	220.47
434.533	214.87
434.993	209.47
435.452	212.57
435.912	201.77
436.371	194.67
436.83	189.37
437.29	189.57
437.749	181.17
438.209	189.07
438.668	185.07
439.127	176.17
439.587	170.27
440.046	176.07
440.505	175.57
440.964	166.47
441.424	166.47
441.883	161.07
442.342	163.47
442.801	150.47
443.26	153.57
443.719	146.37
444.178	145.17
444.637	144.47
445.096	136.97
445.555	140.17
446.014	130.27
446.473	125.57
446.932	126.97
447.391	122.97
447.849	124.67
448.308	114.77
448.767	120.37
449.226	116.47
449.685	111.47
450.143	110.17
450.602	114.47
451.061	103.97
451.519	101.57
451.978	105.97
452.436	98.17
452.895	100.27
453.353	102.47
453.812	97.57
454.27	90.47
454.729	91.27
455.187	93.57
455.646	95.47
456.104	92.97
456.562	91.67
457.021	93.77
457.479	89.17
457.937	94.47
458.395	91.57
458.854	91.17
459.312	89.57
459.77	90.67
460.228	90.87
460.686	81.77
461.144	89.17
461.602	89.07
462.06	84.57
462.518	83.07
462.976	87.27
463.434	84.57
463.892	89.87
464.35	86.17
464.808	82.97
465.266	82.97
465.724	76.37
466.181	90.37
466.639	88.37
467.097	86.97
467.555	88.77
468.012	84.87
468.47	89.27
468.928	85.37
469.385	90.87
469.843	83.37
470.3	87.77
470.758	84.37
471.215	82.97
471.673	85.27
472.13	85.27
472.588	85.77
473.045	81.27
473.503	84.07
473.96	82.47
474.417	86.47
474.875	87.37
475.332	92.77
475.789	86.27
476.246	86.17
476.704	85.77
477.161	78.27
477.618	83.77
478.075	90.97
478.532	86.67
478.989	84.77
479.446	85.17
479.903	85.07
480.36	84.87
480.817	88.47
481.274	86.37
481.731	86.67
482.188	83.57
482.645	85.07
483.102	89.37
483.558	87.07
484.015	89.07
484.472	87.87
484.929	86.97
485.385	88.57
485.842	80.27
486.299	85.27
486.755	86.67
487.212	89.37
487.668	80.17
488.125	88.87
488.582	86.67
489.038	90.47
489.494	85.87
489.951	86.57
490.407	86.17
490.864	87.67
491.32	83.57
491.776	82.17
492.233	86.47
492.689	86.07
493.145	83.97
493.602	81.67
494.058	84.37
494.514	87.97
494.97	81.57
495.426	87.77
495.882	87.97
496.338	84.27
496.794	88.97
497.251	84.67
497.707	89.37
498.163	88.07
498.618	89.57
499.074	82.57
499.53	82.67
499.986	83.07
500.442	88.37
500.898	83.67
501.354	87.67
501.809	88.47
502.265	87.87
502.721	84.07
503.177	87.27
503.632	86.57
504.088	87.27
504.543	81.77
504.999	80.27
505.455	86.77
505.91	83.87
506.366	82.57
506.821	87.67
507.277	89.57
507.732	86.57
508.187	81.17
508.643	85.97
509.098	85.57
509.553	85.37
510.009	80.27
510.464	82.17
510.919	87.67
511.375	82.67
511.83	82.47
512.285	84.27
512.74	83.27
513.195	86.77
513.65	88.27
514.105	83.97
514.56	80.77
515.015	86.57
515.47	82.57
515.925	87.27
516.38	81.17
516.835	81.87
517.29	84.87
517.745	84.87
518.2	83.87
518.655	81.37
519.109	83.37
519.564	87.57
520.019	85.37
520.474	86.37
520.928	84.97
521.383	85.67
521.838	81.37
522.292	85.07
522.747	87.27
523.201	83.17
523.656	84.27
524.11	83.37
524.565	84.17
525.019	81.17
525.474	82.77
525.928	86.37
526.382	86.27
526.837	85.87
527.291	83.87
527.745	90.17
528.2	86.37
528.654	81.97
529.108	84.87
529.562	82.87
530.016	79.67
530.47	86.27
530.925	81.87
531.379	89.17
531.833	85.17
532.287	83.37
532.741	92.27
533.195	84.87
533.649	85.37
534.103	81.27
534.556	84.37
535.01	87.77
535.464	85.27
535.918	78.27
536.372	87.27
536.826	85.07
537.279	84.97
537.733	83.57
538.187	86.07
538.64	83.97
539.094	88.57
539.548	81.57
540.001	87.67
540.455	85.87
540.908	82.77
541.362	79.87
541.815	87.47
542.269	84.77
542.722	86.57
543.175	82.47
543.629	86.67
544.082	84.77
544.536	81.17
544.989	86.57
545.442	86.67
545.895	81.37
546.349	87.57
546.802	89.07
547.255	83.97
547.708	84.37
548.161	85.77
548.614	91.57
549.067	87.17
549.52	84.67
549.973	83.57
550.426	87.27
550.879	87.27
551.332	89.37
551.785	86.57
552.238	89.47
552.691	83.57
553.144	86.37
553.596	84.97
554.049	82.17
554.502	90.97
554.955	82.17
555.407	85.27
555.86	82.57
556.313	81.27
556.765	88.37
557.218	82.67
557.67	85.37
558.123	88.87
558.576	86.87
559.028	85.17
559.48	84.97
559.933	83.17
560.385	84.77
560.838	83.67
561.29	84.77
561.742	87.77
562.195	81.27
562.647	86.47
563.099	86.97
563.551	82.67
564.004	88.27
564.456	84.37
564.908	83.77
565.36	88.47
565.812	81.07
566.264	86.57
566.716	79.87
567.168	84.37
567.62	82.57
568.072	88.27
568.524	84.67
568.976	81.17
569.428	80.17
569.88	83.07
570.332	82.47
570.784	83.67
571.235	82.27
571.687	87.87
572.139	85.97
572.59	85.67
573.042	88.37
573.494	88.17
573.945	85.47
574.397	82.17
574.849	85.87
575.3	91.27
575.752	84.67
576.203	89.67
576.655	84.07
577.106	87.77
577.557	86.47
578.009	84.27
578.46	86.37
578.912	87.07
579.363	86.17
579.814	86.97
580.265	90.87
580.717	85.97
581.168	80.97
581.619	89.97
582.07	87.37
582.521	88.97
582.972	82.07
583.423	88.27
583.875	90.97
584.326	84.07
584.777	88.77
585.227	86.37
585.678	89.47
586.129	88.17
586.58	83.17
587.031	86.27
587.482	91.97
587.933	82.67
588.384	87.67
588.834	88.67
589.285	88.97
589.736	85.77
590.186	80.97
590.637	87.07
591.088	83.77
591.538	86.17
591.989	83.37
592.439	84.27
592.89	87.77
593.34	79.27
593.791	88.27
594.241	79.47
594.692	83.77
595.142	88.07
595.593	82.97
596.043	86.57
596.493	83.87
596.943	84.17
597.394	90.47
597.844	89.97
598.294	85.67
598.744	85.47
599.195	86.07
599.645	82.07
600.095	86.37
600.545	87.67
600.995	81.67
601.445	89.17
601.895	84.47
602.345	84.67
602.795	87.17
603.245	82.57
603.695	84.17
604.145	82.67
604.594	87.47
605.044	84.07
605.494	86.37
605.944	88.67
606.393	79.17
606.843	87.07
607.293	82.07
607.743	86.47
608.192	86.27
608.642	81.77
609.091	85.67
609.541	85.17
609.99	80.67
610.44	78.87
610.889	82.27
611.339	89.47
611.788	84.77
612.238	79.27
612.687	77.57
613.136	86.07
613.586	80.07
614.035	86.67
614.484	82.07
614.933	80.67
615.383	84.07
615.832	82.17
616.281	87.47
616.73	89.47
617.179	83.17
617.628	83.47
618.077	84.67
618.526	85.57
618.975	87.87
619.424	82.77
619.873	81.47
620.322	88.37
620.771	84.77
621.22	86.67
621.669	77.27
622.118	83.97
622.567	82.47
623.015	81.07
623.464	82.27
623.913	85.97
624.361	89.07
624.81	80.67
625.259	83.77
625.707	82.27
626.156	84.87
626.604	88.17
627.053	81.77
627.501	86.17
627.95	83.57
628.398	83.47
628.847	82.07
629.295	85.47
629.744	80.47
630.192	85.37
630.64	82.47
631.089	87.77
631.537	92.47
631.985	83.87
632.433	85.07
632.881	85.57
633.33	84.37
633.778	83.67
634.226	79.67
634.674	82.67
635.122	84.97
635.57	84.57
636.018	87.47
636.466	83.77
636.914	87.57
637.362	84.27
637.81	81.97
638.258	84.97
638.705	85.07
639.153	82.87
639.601	84.17
640.049	83.17
640.497	84.37
640.944	83.37
641.392	82.97
641.84	81.67
642.287	83.27
642.735	88.77
643.182	85.67
643.63	85.07
644.078	81.57
644.525	87.17
644.973	81.67
645.42	82.47
645.867	84.47
646.315	84.57
646.762	82.17
647.21	82.97
647.657	85.87
648.104	86.17
648.551	83.87
648.999	80.27
649.446	84.07
649.893	85.87
650.34	82.37
650.787	84.87
651.234	83.97
651.682	82.97
652.129	88.07
652.576	84.67
653.023	81.97
653.47	94.97
653.917	96.17
654.363	103.67
654.81	102.47
655.257	104.77
655.704	92.37
656.151	85.47
656.598	84.97
657.044	86.17
657.491	80.17
657.938	84.67
658.385	83.37
658.831	88.07
659.278	80.17
659.724	85.67
660.171	78.77
660.618	81.47
661.064	86.27
661.511	87.67
661.957	88.67
662.404	79.57
662.85	88.27
663.296	84.87
663.743	85.07
664.189	82.47
664.635	87.67
665.082	83.67
665.528	85.97
665.974	88.07
666.42	85.87
666.867	86.87
667.313	84.37
667.759	84.87
668.205	85.27
668.651	84.37
669.097	80.77
669.543	87.07
669.989	87.27
670.435	80.17
670.881	85.37
671.327	81.37
671.773	84.97
672.219	86.87
672.665	84.17
673.11	85.07
673.556	80.67
674.002	81.97
674.448	83.27
674.893	90.47
675.339	84.07
675.785	86.17
676.23	82.37
676.676	79.97
677.122	84.07
677.567	80.27
678.013	78.47
678.458	83.67
678.904	88.07
679.349	78.37
679.794	86.47
680.24	80.67
680.685	80.07
681.131	84.37
681.576	83.07
682.021	83.47
682.466	84.87
682.912	84.67
683.357	86.57
683.802	86.57
684.247	79.37
684.692	81.57
685.137	90.57
685.583	83.77
686.028	83.87
686.473	81.77
686.918	82.27
687.363	81.17
687.807	85.57
688.252	83.67
688.697	81.77
689.142	83.07
689.587	85.47
690.032	85.07
690.477	84.17
690.921	88.27
691.366	82.77
691.811	86.07
692.255	81.67
692.7	86.07
693.145	87.37
693.589	82.57
694.034	87.67
694.478	82.47
694.923	88.87
695.367	88.27
695.812	82.77
696.256	82.07
696.701	79.97
697.145	84.67
697.59	79.57
698.034	86.67
698.478	81.17
698.922	88.87
699.367	83.47
699.811	84.17
700.255	83.37
700.699	85.47
701.143	83.17
701.588	87.87
702.032	83.77
702.476	85.57
702.92	83.87
703.364	83.37
703.808	80.57
704.252	83.47
704.696	81.97
705.14	82.17
705.584	84.27
706.027	84.47
706.471	88.57
706.915	85.17
707.359	85.97
707.803	83.27
708.246	80.97
708.69	87.07
709.134	84.97
709.577	85.97
710.021	92.07
710.465	81.47
710.908	85.47
711.352	83.27
711.795	81.97
712.239	83.47
712.682	90.47
713.126	83.87
713.569	85.47
714.012	80.37
714.456	83.67
714.899	86.17
715.342	86.77
715.786	84.47
716.229	83.67
716.672	85.87
717.115	87.17
717.558	82.27
718.002	81.47
718.445	83.87
718.888	86.77
719.331	87.87
719.774	79.77
720.217	75.97
720.66	84.97
721.103	84.77
721.546	84.97
721.989	84.47
722.432	82.17
722.874	88.27
723.317	88.57
723.76	84.17
724.203	86.77
724.645	78.57
725.088	83.37
725.531	80.07
725.974	83.97
726.416	85.97
726.859	84.27
727.301	85.27
727.744	81.37
728.187	87.07
728.629	83.17
729.071	88.67
729.514	83.27
729.956	84.47
730.399	84.47
730.841	82.87
731.283	85.17
731.726	87.07
732.168	84.77
732.61	89.17
733.053	86.57
733.495	85.57
733.937	83.27
734.379	83.07
734.821	85.47
735.263	84.67
735.705	86.87
736.148	85.77
736.59	79.67
737.032	85.77
737.474	85.67
737.916	81.87
738.357	83.87
738.799	81.67
739.241	84.27
739.683	87.57
740.125	84.97
740.567	82.47
741.008	85.17
741.45	86.27
741.892	85.97
742.334	84.97
742.775	83.47
743.217	82.27
743.658	86.47
744.1	86.87
744.542	86.37
744.983	82.67
745.425	89.77
745.866	85.67
746.307	88.87
746.749	86.57
747.19	85.17
747.632	77.67
748.073	90.27
748.514	82.87
748.956	82.57
749.397	87.27
749.838	81.37
750.279	85.87
750.72	86.27
751.162	86.17
751.603	85.67
752.044	86.57
752.485	86.87
752.926	79.87
753.367	82.57
753.808	88.57
754.249	85.57
754.69	81.47
755.131	80.17
755.572	83.97
756.013	87.97
756.453	87.47
756.894	88.57
757.335	87.17
757.776	82.97
758.216	86.77
758.657	87.07
759.098	86.87
759.538	83.47
759.979	86.97
760.42	82.87
760.86	81.37
761.301	85.77
761.741	81.87
762.182	87.07
762.622	85.77
763.063	87.07
763.503	85.07
763.943	86.17
764.384	86.67
764.824	85.47
765.264	87.67
765.705	84.57
766.145	85.47
766.585	83.67
767.025	85.57
767.465	80.87
767.906	89.77
768.346	81.97
768.786	86.17
769.226	85.47
769.666	85.57
770.106	87.07
770.546	83.47
770.986	90.27
771.426	85.47
771.866	85.57
772.306	83.87
772.745	81.57
773.185	82.87
773.625	80.57
774.065	92.17
774.505	84.87
774.944	85.17
775.384	85.47
775.824	85.77
776.263	82.67
776.703	85.67
777.142	80.37
777.582	78.17
778.021	87.77
778.461	80.17
778.9	85.27
779.34	81.07
779.779	87.07
780.219	86.87
780.658	87.37
781.097	89.77
781.537	85.57
781.976	79.07
782.415	85.37
782.855	82.57
783.294	84.17
783.733	82.77
784.172	84.17
784.611	88.07
785.05	83.87
785.489	83.97
785.928	86.87
786.367	90.57
786.806	87.87
787.245	82.07
787.684	79.87
788.123	86.27
788.562	83.57
789.001	86.77
789.44	83.57
789.879	84.17
790.317	80.17
790.756	79.87
791.195	84.47
791.634	82.37
792.072	79.87
792.511	82.17
792.95	82.67
793.388	80.67
793.827	89.97
794.265	88.07
794.704	80.77
795.142	80.07
795.581	83.97
796.019	82.27
796.458	84.87
796.896	85.47
797.334	85.57
797.773	85.07
798.211	82.17
798.649	85.27
799.087	82.57
799.526	88.87
799.964	81.87
800.402	83.37
800.84	86.87
801.278	80.37
801.716	84.37
802.154	86.37
802.592	85.47
803.03	81.47
803.468	80.77
803.906	87.27
804.344	81.17
804.782	83.77
805.22	83.47
805.658	83.77
806.096	82.17
806.533	84.07
806.971	84.57
807.409	87.17
807.847	86.17
808.284	88.57
808.722	86.17
809.16	86.77
809.597	81.67
810.035	83.37
810.472	85.47
810.91	85.47
811.347	84.77
811.785	84.17
812.222	82.07
812.66	84.17
813.097	87.97
813.535	86.37
813.972	82.87
814.409	83.27
814.846	87.47
815.284	81.97
815.721	85.77
816.158	85.47
816.595	87.77
817.032	76.47
817.47	78.87
817.907	86.87
818.344	84.47
818.781	84.27
819.218	86.87
819.655	88.47
820.092	82.87
820.529	81.67
820.966	84.97
821.403	88.07
821.839	85.87
822.276	82.37
822.713	85.87
823.15	78.77
823.587	79.27
824.023	79.87
824.46	86.77
824.897	80.37
825.333	82.07
825.77	86.87
826.206	85.87
826.643	81.97
827.08	88.77
827.516	87.17
827.953	84.47
828.389	82.97
828.825	81.17
829.262	83.97
829.698	85.17
830.135	82.67
830.571	80.97
831.007	82.67
831.443	81.57
831.88	86.07
832.316	76.67
832.752	86.67
833.188	80.97
833.624	86.77
834.06	82.27
834.497	84.57
834.933	82.77
835.369	84.87
835.805	82.37
836.241	87.17
836.677	81.57
837.112	89.87
837.548	88.67
837.984	79.77
838.42	79.77
838.856	84.07
839.292	85.37
839.727	87.37
840.163	83.27
840.599	90.57
841.034	76.67
841.47	82.47
841.906	82.27
842.341	88.67
842.777	86.77
843.212	86.77
843.648	84.57
844.083	80.37
844.519	83.87
844.954	84.77
845.39	82.67
845.825	86.17
846.261	84.57
846.696	83.07
847.131	83.67
847.566	86.27
848.002	83.37
848.437	83.67
848.872	77.77
849.307	81.77
849.742	83.07
850.177	80.57
850.613	80.37
851.048	84.07
851.483	81.67
851.918	88.47
852.353	84.07
852.788	87.67
853.223	89.07
853.657	84.97
854.092	90.27
854.527	79.57
854.962	86.87
855.397	83.87
855.832	85.17
856.266	79.47
856.701	82.27
857.136	82.37
857.57	86.07
858.005	80.17
858.44	85.17
858.874	84.97
859.309	86.67
859.743	83.47
860.178	85.47
860.612	79.67
861.047	88.27
861.481	84.67
861.915	85.27
862.35	83.77
862.784	87.57
863.218	85.87
863.653	85.47
864.087	85.07
864.521	81.97
864.955	83.47
865.39	85.07
865.824	86.77
866.258	87.37
866.692	85.57
867.126	81.67
867.56	80.87
867.994	88.57
868.428	78.77
868.862	85.77
869.296	85.67
869.73	81.47
870.164	83.87
870.598	83.67
871.031	84.87
871.465	83.07
871.899	84.77
872.333	77.77
872.766	83.17
873.2	80.77
873.634	86.77
874.067	84.57
874.501	83.37
874.935	81.87
875.368	83.17
875.802	84.67
876.235	75.17
876.669	79.87
877.102	76.67
877.535	84.67
877.969	84.97
878.402	82.27
878.836	87.47
879.269	84.97
879.702	86.37
880.135	80.27
880.569	82.27
881.002	85.47
881.435	75.17
881.868	84.17
882.301	82.27
882.734	87.27
883.167	86.57
883.601	79.07
884.034	81.77
884.467	83.97
884.899	83.57
885.332	83.37
885.765	86.97
886.198	79.07
886.631	82.37
887.064	77.57
887.497	84.67
887.929	84.27
888.362	81.87
888.795	90.77
889.228	81.47
889.66	82.37
890.093	82.97
890.526	80.67
890.958	81.77
891.391	88.17
891.823	84.87
892.256	83.67
892.688	84.07
893.121	85.77
893.553	83.37
893.985	81.57
894.418	86.67
894.85	82.67
895.282	84.47
895.715	85.47
896.147	81.17
896.579	84.97
897.011	84.97
897.444	83.07
897.876	77.47
898.308	84.37
898.74	85.47
899.172	88.07
899.604	85.77
900.036	85.27
900.468	85.77
900.9	82.07
901.332	88.87
901.764	82.27
902.196	81.37
902.628	82.97
903.06	82.57
903.491	80.37
903.923	81.17
904.355	84.87
904.787	87.47
905.218	78.37
905.65	78.77
906.082	82.57
906.513	81.57
906.945	82.37
907.376	86.27
907.808	86.17
908.239	80.87
908.671	79.07
909.102	80.57
909.534	81.57
909.965	82.57
910.397	80.97
910.828	86.47
911.259	80.77
911.691	82.47
912.122	82.17
912.553	86.47
912.984	83.67
913.415	81.07
913.847	85.07
914.278	80.47
914.709	86.07
915.14	79.37
915.571	84.47
916.002	82.17
916.433	82.27
916.864	80.07
917.295	75.77
917.726	79.57
918.157	80.57
918.587	83.87
919.018	79.67
919.449	79.37
919.88	85.87
920.311	82.77
920.741	88.17
921.172	86.47
921.603	75.87
922.033	84.07
922.464	79.87
922.895	87.87
923.325	81.77
923.756	83.87
924.186	80.17
924.617	86.47
925.047	83.97
925.478	83.87
925.908	78.87
926.338	83.07
926.769	80.57
927.199	84.87
927.629	83.37
928.06	85.77
928.49	86.37
928.92	86.67
929.35	76.57
929.78	82.47
930.21	84.87
930.641	89.47
931.071	87.47
931.501	82.37
931.931	79.97
932.361	86.27
932.791	83.47
933.221	80.17
933.651	81.07
934.08	83.97
934.51	84.07
934.94	78.17
935.37	83.87
935.8	78.57
936.229	81.47
936.659	83.87
937.089	81.57
937.519	85.27
937.948	85.07
938.378	82.77
938.807	82.47
939.237	84.77
939.666	82.87
940.096	81.87
940.525	80.77
940.955	86.07
941.384	83.67
941.814	85.67
942.243	82.47
942.672	82.37
943.102	89.27
943.531	83.07
943.96	86.47
944.39	84.47
944.819	84.47
945.248	82.97
945.677	81.07
946.106	82.97
946.535	83.37
946.964	78.57
947.393	81.57
947.822	77.77
948.251	86.17
948.68	82.77
949.109	78.47
949.538	81.67
949.967	81.77
950.396	78.67
950.825	84.07
951.254	81.17
951.682	77.17
952.111	84.97
952.54	78.47
952.969	85.07
953.397	80.47
953.826	85.57
954.254	75.67
954.683	84.27
955.112	80.97
955.54	82.57
955.969	83.17
956.397	88.67
956.826	81.27
957.254	76.27
957.682	82.67
958.111	81.97
958.539	79.97
958.967	80.97
959.396	80.17
959.824	82.67
960.252	80.87
960.68	84.47
961.109	80.67
961.537	85.77
961.965	84.47
962.393	82.37
962.821	82.27
963.249	80.07
963.677	86.27
964.105	79.97
964.533	82.27
964.961	80.67
965.389	87.57
965.817	79.07
966.245	79.87
966.672	83.57
967.1	89.17
967.528	83.97
967.956	84.57
968.383	83.17
968.811	81.07
969.239	82.97
969.666	82.17
970.094	82.77
970.522	86.87
970.949	83.17
971.377	87.27
971.804	77.27
972.232	82.27
972.659	76.27
973.087	81.57
973.514	79.47
973.941	82.67
974.369	81.47
974.796	80.07
975.223	84.17
975.651	83.17
976.078	90.77
976.505	83.57
976.932	83.67
977.359	85.57
977.786	85.17
978.214	84.77
978.641	82.37
979.068	82.47
979.495	77.57
979.922	85.07
980.349	80.27
980.776	83.57
981.202	82.37
981.629	83.67
982.056	80.77
982.483	88.27
982.91	80.67
983.337	80.97
983.763	83.67
984.19	84.97
984.617	79.97
985.043	84.37
985.47	79.87
985.897	82.97
986.323	84.67
986.75	79.57
987.176	85.57
987.603	83.97
988.029	84.87
988.456	84.67
988.882	86.17
989.308	77.27
989.735	87.37
990.161	81.37
990.587	83.67
991.014	85.87
991.44	81.27
991.866	82.47
992.292	82.67
992.719	78.87
993.145	80.67
993.571	82.57
993.997	79.37
994.423	83.27
994.849	81.27
995.275	80.57
995.701	82.57
996.127	82.97
996.553	81.67
996.979	84.97
997.405	85.17
997.83	81.97
998.256	85.07
998.682	81.17
999.108	82.07
999.534	82.67
999.959	81.77
1000.385	80.77
1000.811	86.57
1001.236	80.77
1001.662	83.77
1002.087	89.97
1002.513	83.17
1002.938	82.67
1003.364	84.77
1003.789	83.97
1004.215	84.77
1004.64	85.67
1005.066	86.07
1005.491	82.97
1005.916	82.47
1006.342	77.57
1006.767	84.37
1007.192	85.97
1007.617	80.47
1008.042	82.37
1008.468	76.37
1008.893	81.47
1009.318	79.27
1009.743	84.87
1010.168	82.47
1010.593	82.77
1011.018	84.17
1011.443	86.97
1011.868	81.17
1012.293	79.47
1012.718	85.47
1013.143	75.77
1013.567	84.77
1013.992	77.27
1014.417	80.67
1014.842	81.37
1015.267	85.97
1015.691	87.57
1016.116	79.07
1016.541	86.47
1016.965	83.57
1017.39	86.97
1017.814	79.37
1018.239	82.97
1018.663	85.87
1019.088	82.57
1019.512	88.67
1019.937	83.77
1020.361	80.07
1020.785	81.07
1021.21	84.57
1021.634	84.17
1022.058	79.07
1022.483	82.97
1022.907	81.77
1023.331	84.67
1023.755	81.57
1024.179	84.77
1024.604	83.57
1025.028	76.97
1025.452	78.07
1025.876	80.27
1026.3	84.67
1026.724	85.97
1027.148	85.77
1027.572	84.97
1027.996	83.67
1028.42	86.07
1028.843	86.17
1029.267	76.57
1029.691	83.27
1030.115	86.27
1030.539	83.87
1030.962	82.07
1031.386	81.97
1031.81	85.17
1032.233	86.77
1032.657	90.07
1033.08	82.97
1033.504	82.47
1033.927	84.07
1034.351	82.17
1034.774	83.07
1035.198	86.97
1035.621	79.17
1036.045	79.17
1036.468	80.47
1036.891	84.37
1037.315	83.97
1037.738	81.97
1038.161	84.97
1038.584	84.17
1039.008	81.87
1039.431	80.77
1039.854	84.27
1040.277	83.57
1040.7	82.37
1041.123	81.87
1041.546	84.77
1041.969	86.27
1042.392	84.07
1042.815	81.47
1043.238	79.97
1043.661	84.87
1044.084	81.37
1044.507	92.67
1044.93	79.47
1045.352	79.47
1045.775	82.67
1046.198	79.77
1046.621	82.27
1047.043	83.27
1047.466	85.17
1047.889	85.87
1048.311	81.77
1048.734	82.07
1049.156	83.67
1049.579	81.27
1050.001	83.27
1050.424	85.57
1050.846	84.37
1051.269	79.17
1051.691	83.67
1052.113	86.17
1052.536	84.77
1052.958	83.97
1053.38	84.57
1053.802	85.97
1054.225	85.67
1054.647	83.87
1055.069	82.67
1055.491	77.77
1055.913	85.27
1056.335	84.47
1056.757	78.57
1057.179	76.67
1057.601	83.97
1058.023	87.87
1058.445	86.97
1058.867	81.67
1059.289	76.57
1059.711	81.07
1060.133	82.77
1060.555	87.57
1060.976	86.77
1061.398	84.07
1061.82	79.07
1062.241	83.27
1062.663	78.17
1063.085	85.07
1063.506	84.57
1063.928	77.17
1064.35	82.47
1064.771	87.37
1065.193	84.67
1065.614	83.47
1066.035	82.17
1066.457	84.27
1066.878	81.97
1067.3	79.77
1067.721	82.37
1068.142	85.27
1068.564	80.57
1068.985	81.37
1069.406	87.47
1069.827	78.27
1070.248	86.27
1070.67	79.67
1071.091	80.67
1071.512	81.57
1071.933	75.77
1072.354	76.87
1072.775	78.27
1073.196	86.17
1073.617	84.17
1074.038	84.77
1074.459	82.47
1074.88	89.27
1075.3	76.27
1075.721	79.87
1076.142	80.17
1076.563	84.27
1076.983	82.17
1077.404	82.07
1077.825	83.47
1078.246	81.37
1078.666	79.07
1079.087	83.87
1079.507	85.67
1079.928	81.07
1080.348	77.17
1080.769	84.57
1081.189	80.07
1081.61	82.17
1082.03	84.87
1082.451	76.47
1082.871	83.37
1083.291	82.67
1083.711	82.67
1084.132	81.27
1084.552	86.57
1084.972	82.77
1085.392	84.07
1085.813	83.27
1086.233	87.77
1086.653	85.97
1087.073	85.47
1087.493	78.17
1087.913	84.37
1088.333	79.27
1088.753	84.17
1089.173	85.47
1089.593	84.07
1090.013	77.77
1090.433	83.67
1090.852	79.07
1091.272	79.57
1091.692	79.97
1092.112	87.47
1092.531	81.87
1092.951	82.47
1093.371	82.57
1093.79	81.67
1094.21	80.97
1094.63	84.37
1095.049	83.07
1095.469	82.07
1095.888	83.17
1096.308	82.37
1096.727	81.67
1097.146	85.37
1097.566	83.87
1097.985	78.77
1098.405	84.27
1098.824	88.27
1099.243	80.07
1099.662	86.37
1100.082	88.77
1100.501	85.97
1100.92	82.47
1101.339	80.87
1101.758	84.37
