Data from DH-3PlusCalLight-DeuteriumHalogen_HRD10391_13-38-32-806.txt Node
Date: Thu Feb 15 13:38:32 EST 2018
User: Ender
Spectrometer: HR+D1039
Trigger mode: 0
Integration Time (sec): 2.730000E-2
Scans to average: 10
Electric dark correction enabled: true
Nonlinearity correction enabled: false
Boxcar width: 0
XAxis mode: Wavelengths
Number of Pixels in Spectrum: 2048
>>>>>Begin Spectral Data<<<<<
187.836	0.38
188.309	0.38
188.782	0.38
189.255	-0.03
189.728	-5.33
190.201	-6.73
190.674	-4.53
191.147	-9.73
191.619	-10.03
192.092	-4.62
192.565	-4.53
193.038	-4.23
193.511	-3.83
193.984	4.17
194.456	5.67
194.929	10.88
195.402	12.57
195.874	19.88
196.347	25.17
196.82	21.67
197.292	31.57
197.765	33.77
198.237	38.97
198.71	37.77
199.182	41.88
199.655	50.07
200.127	47.38
200.6	56.88
201.072	59.38
201.544	64.88
202.017	63.77
202.489	65.88
202.961	72.77
203.433	68.38
203.906	77.17
204.378	72.17
204.85	78.67
205.322	76.88
205.794	80.77
206.266	83.97
206.739	84.38
207.211	85.88
207.683	79.57
208.155	85.38
208.627	89.38
209.099	88.07
209.57	82.88
210.042	79.38
210.514	82.57
210.986	84.38
211.458	82.27
211.93	83.88
212.402	87.67
212.873	88.38
213.345	85.67
213.817	86.77
214.288	86.67
214.76	86.57
215.232	81.27
215.703	88.07
216.175	80.27
216.646	81.07
217.118	83.77
217.589	83.17
218.061	81.77
218.532	86.38
219.004	85.47
219.475	79.27
219.946	82.88
220.418	80.77
220.889	85.57
221.36	84.07
221.832	90.77
222.303	84.47
222.774	85.27
223.245	89.27
223.717	88.47
224.188	94.47
224.659	89.97
225.13	90.27
225.601	90.77
226.072	96.57
226.543	98.57
227.014	103.67
227.485	106.67
227.956	109.07
228.427	106.17
228.898	107.67
229.369	114.17
229.839	117.57
230.31	107.97
230.781	110.88
231.252	122.57
231.722	117.88
232.193	116.57
232.664	116.17
233.135	118.38
233.605	114.47
234.076	116.27
234.546	110.88
235.017	110.88
235.487	106.67
235.958	109.67
236.428	106.88
236.899	104.77
237.369	92.77
237.84	96.67
238.31	94.77
238.78	94.17
239.251	91.17
239.721	91.38
240.191	93.88
240.662	89.67
241.132	88.47
241.602	94.07
242.072	87.57
242.542	83.67
243.013	80.67
243.483	85.17
243.953	86.88
244.423	82.38
244.893	86.57
245.363	86.57
245.833	87.47
246.303	84.97
246.773	88.47
247.243	82.17
247.712	89.88
248.182	85.17
248.652	90.07
249.122	88.07
249.592	90.57
250.061	85.38
250.531	94.57
251.001	96.57
251.471	91.88
251.94	87.77
252.41	91.57
252.879	92.57
253.349	92.38
253.818	97.67
254.288	103.97
254.757	101.38
255.227	108.47
255.696	106.38
256.166	111.38
256.635	119.07
257.105	124.57
257.574	127.07
258.043	130.88
258.513	139.77
258.982	149.67
259.451	160.47
259.92	173.77
260.389	173.47
260.859	182.57
261.328	191.38
261.797	198.97
262.266	215.07
262.735	226.38
263.204	230.97
263.673	242.88
264.142	248.38
264.611	260.27
265.08	263.77
265.549	268.47
266.018	279.57
266.487	293.77
266.955	292.67
267.424	306.67
267.893	308.38
268.362	313.97
268.83	316.07
269.299	321.47
269.768	326.57
270.236	337.97
270.705	340.38
271.174	338.88
271.642	342.57
272.111	345.57
272.579	354.67
273.048	361.27
273.516	353.27
273.985	358.58
274.453	358.67
274.922	364.27
275.39	363.77
275.858	357.08
276.327	365.88
276.795	362.17
277.263	365.67
277.731	362.47
278.2	360.97
278.668	361.17
279.136	356.47
279.604	353.67
280.072	357.67
280.54	357.58
281.008	352.38
281.477	350.77
281.945	346.77
282.413	349.57
282.881	349.47
283.348	344.07
283.816	338.07
284.284	341.88
284.752	331.07
285.22	333.67
285.688	330.77
286.156	322.57
286.623	323.67
287.091	325.47
287.559	322.67
288.026	321.57
288.494	323.57
288.962	325.97
289.429	322.67
289.897	326.27
290.364	321.77
290.832	324.77
291.3	328.77
291.767	343.77
292.234	347.88
292.702	345.27
293.169	351.67
293.637	354.27
294.104	360.97
294.571	359.38
295.039	372.17
295.506	367.38
295.973	369.38
296.44	385.17
296.908	378.77
297.375	382.67
297.842	390.58
298.309	389.88
298.776	396.38
299.243	398.47
299.71	394.88
300.177	398.17
300.644	398.17
301.111	392.27
301.578	395.17
302.045	400.77
302.512	399.97
302.979	404.17
303.446	398.47
303.913	401.67
304.379	408.17
304.846	395.77
305.313	401.58
305.78	388.97
306.246	394.38
306.713	383.97
307.18	386.58
307.646	381.47
308.113	385.08
308.579	384.77
309.046	381.27
309.512	379.08
309.979	382.77
310.445	387.58
310.912	383.38
311.378	376.08
311.845	375.67
312.311	380.38
312.777	374.67
313.244	369.17
313.71	379.47
314.176	367.97
314.642	379.67
315.109	373.67
315.575	378.67
316.041	379.58
316.507	378.27
316.973	375.97
317.439	376.97
317.905	374.77
318.371	381.17
318.837	383.17
319.303	386.77
319.769	392.77
320.235	397.17
320.701	396.88
321.167	400.27
321.633	401.67
322.099	398.17
322.564	395.58
323.03	406.38
323.496	407.17
323.962	406.97
324.427	415.58
324.893	410.47
325.359	413.47
325.824	412.67
326.29	409.47
326.755	411.47
327.221	411.58
327.686	403.67
328.152	413.97
328.617	407.08
329.083	405.47
329.548	407.27
330.014	406.08
330.479	405.27
330.944	408.38
331.41	397.47
331.875	392.27
332.34	390.88
332.805	381.58
333.271	382.17
333.736	387.67
334.201	381.67
334.666	380.67
335.131	376.27
335.596	381.58
336.061	373.88
336.526	369.77
336.991	367.08
337.456	359.88
337.921	362.27
338.386	358.58
338.851	367.08
339.316	365.08
339.781	368.38
340.246	375.38
340.711	369.58
341.175	385.47
341.64	392.67
342.105	395.27
342.569	395.97
343.034	395.08
343.499	401.58
343.963	409.67
344.428	409.08
344.893	408.17
345.357	419.47
345.822	413.97
346.286	431.97
346.751	429.77
347.215	440.67
347.679	433.58
348.144	451.17
348.608	449.38
349.073	448.17
349.537	447.67
350.001	453.58
350.465	442.58
350.93	451.27
351.394	453.17
351.858	443.27
352.322	444.38
352.786	454.77
353.25	441.47
353.715	448.08
354.179	443.97
354.643	451.58
355.107	442.77
355.571	444.38
356.035	446.67
356.498	451.97
356.962	452.58
357.426	453.08
357.89	453.47
358.354	453.27
358.818	454.77
359.281	460.58
359.745	454.88
360.209	453.38
360.673	456.97
361.136	447.97
361.6	453.67
362.064	452.08
362.527	458.67
362.991	459.17
363.454	451.38
363.918	447.27
364.381	454.08
364.845	459.17
365.308	455.97
365.772	464.47
366.235	459.97
366.698	458.08
367.162	461.08
367.625	456.58
368.088	455.67
368.552	458.77
369.015	456.88
369.478	448.17
369.941	458.67
370.404	453.47
370.867	448.88
371.331	451.17
371.794	459.88
372.257	455.08
372.72	459.67
373.183	459.58
373.646	463.38
374.109	467.67
374.572	467.47
375.035	474.38
375.497	474.17
375.96	481.47
376.423	474.77
376.886	478.97
377.349	493.27
377.811	494.38
378.274	496.47
378.737	490.58
379.199	489.88
379.662	490.47
380.125	483.38
380.587	500.08
381.05	503.17
381.512	502.88
381.975	495.08
382.437	494.97
382.9	504.47
383.362	505.08
383.825	498.58
384.287	514.08
384.75	504.77
385.212	506.27
385.674	505.88
386.136	520.58
386.599	519.17
387.061	516.67
387.523	525.17
387.985	521.08
388.447	514.08
388.91	518.38
389.372	515.88
389.834	515.97
390.296	525.47
390.758	532.67
391.22	539.38
391.682	544.08
392.144	552.17
392.606	532.67
393.068	531.17
393.529	532.88
393.991	523.58
394.453	526.17
394.915	531.97
395.377	538.88
395.838	533.77
396.3	543.58
396.762	555.47
397.224	554.17
397.685	562.97
398.147	549.27
398.608	543.77
399.07	541.58
399.531	540.88
399.993	542.17
400.454	543.67
400.916	536.27
401.377	543.97
401.839	542.77
402.3	543.27
402.762	546.47
403.223	552.17
403.684	543.97
404.145	571.88
404.607	553.58
405.068	546.67
405.529	545.27
405.99	536.97
406.451	538.77
406.913	544.17
407.374	551.17
407.835	544.67
408.296	544.58
408.757	539.58
409.218	551.27
409.679	543.67
410.14	540.97
410.601	544.88
411.062	548.77
411.522	559.17
411.983	553.58
412.444	561.47
412.905	556.77
413.366	548.17
413.826	553.67
414.287	555.77
414.748	543.97
415.208	566.17
415.669	558.77
416.13	561.77
416.59	561.88
417.051	562.88
417.511	573.58
417.972	586.88
418.432	601.17
418.893	600.77
419.353	599.17
419.814	612.38
420.274	627.67
420.734	636.58
421.195	644.38
421.655	624.88
422.115	633.27
422.576	629.47
423.036	630.47
423.496	638.67
423.956	637.17
424.416	645.38
424.876	659.97
425.336	654.88
425.797	668.67
426.257	683.77
426.717	696.58
427.177	683.47
427.637	711.47
428.097	712.88
428.556	717.88
429.016	744.88
429.476	753.58
429.936	757.58
430.396	752.27
430.856	745.47
431.315	738.17
431.775	778.27
432.235	786.77
432.694	822.08
433.154	819.67
433.614	802.88
434.073	832.58
434.533	836.08
434.993	828.77
435.452	867.38
435.912	854.17
436.371	872.67
436.83	881.38
437.29	885.27
437.749	900.67
438.209	894.47
438.668	913.17
439.127	924.38
439.587	951.77
440.046	945.17
440.505	964.38
440.964	962.67
441.424	981.08
441.883	998.77
442.342	998.97
442.801	1008.27
443.26	1043.27
443.719	1055.47
444.178	1053.77
444.637	1075.08
445.096	1090.77
445.555	1103.58
446.014	1106.58
446.473	1103.17
446.932	1131.88
447.391	1151.27
447.849	1185.38
448.308	1155.88
448.767	1179.88
449.226	1209.97
449.685	1192.67
450.143	1229.08
450.602	1263.58
451.061	1236.67
451.519	1263.77
451.978	1278.88
452.436	1297.17
452.895	1316.67
453.353	1325.58
453.812	1327.27
454.27	1362.58
454.729	1365.67
455.187	1386.27
455.646	1388.98
456.104	1397.27
456.562	1412.27
457.021	1444.17
457.479	1394.17
457.937	1436.87
458.395	1482.87
458.854	1470.37
459.312	1456.27
459.77	1467.58
460.228	1471.08
460.686	1527.08
461.144	1517.77
461.602	1509.67
462.06	1511.17
462.518	1510.98
462.976	1518.77
463.434	1509.87
463.892	1502.67
464.35	1503.48
464.808	1515.48
465.266	1527.58
465.724	1543.67
466.181	1544.08
466.639	1525.58
467.097	1569.17
467.555	1618.48
468.012	1579.58
468.47	1576.27
468.928	1577.67
469.385	1589.08
469.843	1644.77
470.3	1606.08
470.758	1646.17
471.215	1637.98
471.673	1654.48
472.13	1686.87
472.588	1726.87
473.045	1733.08
473.503	1765.08
473.96	1832.48
474.417	1823.58
474.875	1871.48
475.332	1888.08
475.789	1911.08
476.246	1939.58
476.704	1994.98
477.161	2020.48
477.618	2023.58
478.075	2070.98
478.532	2156.38
478.989	2178.68
479.446	2218.07
479.903	2244.18
480.36	2329.57
480.817	2331.48
481.274	2376.27
481.731	2427.18
482.188	2459.77
482.645	2516.48
483.102	2536.88
483.558	2556.88
484.015	2616.68
484.472	2667.38
484.929	2719.57
485.385	2745.98
485.842	2764.68
486.299	2843.88
486.755	2835.07
487.212	2841.98
487.668	2881.27
488.125	2909.98
488.582	2875.98
489.038	2921.57
489.494	2953.18
489.951	2962.48
490.407	2966.77
490.864	2988.68
491.32	3008.27
491.776	3012.98
492.233	3038.48
492.689	3035.98
493.145	3013.48
493.602	3004.48
494.058	3065.88
494.514	3050.88
494.97	3026.48
495.426	3038.57
495.882	3044.98
496.338	3026.27
496.794	3060.48
497.251	3031.68
497.707	3059.98
498.163	3065.88
498.618	3057.98
499.074	3059.07
499.53	3056.07
499.986	3084.57
500.442	3071.18
500.898	3044.88
501.354	3105.77
501.809	3101.88
502.265	3089.27
502.721	3082.68
503.177	3099.27
503.632	3096.88
504.088	3070.48
504.543	3083.18
504.999	3096.98
505.455	3066.18
505.91	3084.27
506.366	3080.27
506.821	3071.77
507.277	3068.98
507.732	3092.48
508.187	3050.98
508.643	3063.38
509.098	3033.38
509.553	3058.18
510.009	3033.27
510.464	3066.77
510.919	3035.27
511.375	3025.68
511.83	2988.68
512.285	2996.27
512.74	3010.88
513.195	2982.77
513.65	2945.68
514.105	2970.88
514.56	2929.57
515.015	2949.48
515.47	2931.38
515.925	2893.07
516.38	2908.57
516.835	2906.68
517.29	2882.48
517.745	2885.48
518.2	2889.27
518.655	2876.18
519.109	2853.48
519.564	2847.07
520.019	2840.27
520.474	2823.68
520.928	2818.57
521.383	2813.07
521.838	2788.98
522.292	2787.07
522.747	2799.07
523.201	2771.57
523.656	2778.98
524.11	2773.07
524.565	2772.48
525.019	2767.98
525.474	2776.98
525.928	2760.88
526.382	2778.57
526.837	2755.18
527.291	2772.98
527.745	2736.18
528.2	2749.57
528.654	2737.57
529.108	2742.57
529.562	2750.38
530.016	2750.57
530.47	2754.68
530.925	2744.57
531.379	2741.07
531.833	2767.27
532.287	2739.38
532.741	2757.48
533.195	2740.77
533.649	2765.07
534.103	2761.38
534.556	2731.38
535.01	2753.48
535.464	2740.07
535.918	2748.88
536.372	2768.38
536.826	2748.18
537.279	2732.77
537.733	2747.98
538.187	2757.07
538.64	2724.27
539.094	2751.68
539.548	2772.98
540.001	2733.18
540.455	2730.27
540.908	2722.48
541.362	2726.88
541.815	2711.98
542.269	2719.88
542.722	2687.27
543.175	2689.68
543.629	2692.18
544.082	2685.27
544.536	2688.98
544.989	2669.57
545.442	2681.98
545.895	2678.88
546.349	2676.18
546.802	2670.77
547.255	2633.27
547.708	2642.07
548.161	2661.57
548.614	2628.57
549.067	2637.98
549.52	2655.68
549.973	2624.88
550.426	2619.27
550.879	2632.48
551.332	2624.27
551.785	2621.98
552.238	2619.18
552.691	2600.48
553.144	2623.07
553.596	2620.98
554.049	2628.27
554.502	2636.88
554.955	2626.38
555.407	2639.77
555.86	2650.77
556.313	2647.98
556.765	2640.18
557.218	2657.48
557.67	2680.98
558.123	2655.07
558.576	2656.77
559.028	2672.98
559.48	2682.68
559.933	2665.88
560.385	2686.98
560.838	2680.68
561.29	2674.27
561.742	2697.18
562.195	2685.07
562.647	2693.18
563.099	2713.48
563.551	2691.48
564.004	2720.18
564.456	2718.27
564.908	2726.07
565.36	2735.07
565.812	2704.38
566.264	2734.27
566.716	2733.68
567.168	2714.68
567.62	2742.68
568.072	2722.77
568.524	2722.57
568.976	2738.77
569.428	2722.38
569.88	2708.18
570.332	2705.77
570.784	2718.88
571.235	2707.98
571.687	2723.77
572.139	2690.18
572.59	2703.18
573.042	2693.98
573.494	2727.07
573.945	2686.27
574.397	2660.18
574.849	2670.38
575.3	2674.07
575.752	2658.57
576.203	2626.77
576.655	2662.27
577.106	2650.57
577.557	2631.68
578.009	2624.38
578.46	2642.57
578.912	2625.88
579.363	2640.68
579.814	2635.68
580.265	2584.98
580.717	2613.48
581.168	2627.88
581.619	2605.07
582.07	2616.68
582.521	2586.88
582.972	2598.88
583.423	2612.98
583.875	2600.98
584.326	2611.38
584.777	2604.57
585.227	2594.57
585.678	2604.48
586.129	2633.38
586.58	2620.88
587.031	2615.27
587.482	2619.27
587.933	2618.77
588.384	2616.48
588.834	2615.07
589.285	2631.07
589.736	2621.57
590.186	2617.07
590.637	2615.48
591.088	2627.77
591.538	2633.18
591.989	2638.48
592.439	2632.98
592.89	2643.98
593.34	2639.27
593.791	2654.98
594.241	2647.68
594.692	2642.88
595.142	2645.77
595.593	2644.07
596.043	2646.38
596.493	2665.07
596.943	2630.18
597.394	2679.07
597.844	2653.07
598.294	2650.07
598.744	2660.48
599.195	2681.07
599.645	2659.68
600.095	2667.77
600.545	2655.88
600.995	2676.48
601.445	2669.27
601.895	2695.77
602.345	2695.98
602.795	2678.57
603.245	2689.18
603.695	2678.18
604.145	2678.88
604.594	2694.18
605.044	2674.68
605.494	2683.07
605.944	2687.77
606.393	2693.68
606.843	2683.48
607.293	2688.07
607.743	2697.48
608.192	2678.57
608.642	2672.07
609.091	2699.27
609.541	2688.68
609.99	2716.48
610.44	2688.38
610.889	2716.77
611.339	2706.48
611.788	2678.57
612.238	2707.98
612.687	2706.07
613.136	2692.88
613.586	2702.68
614.035	2685.07
614.484	2700.48
614.933	2695.48
615.383	2692.88
615.832	2671.27
616.281	2687.18
616.73	2689.98
617.179	2693.38
617.628	2680.88
618.077	2670.77
618.526	2664.48
618.975	2666.38
619.424	2645.27
619.873	2678.48
620.322	2668.07
620.771	2683.77
621.22	2667.57
621.669	2648.57
622.118	2673.88
622.567	2687.07
623.015	2639.38
623.464	2655.38
623.913	2669.88
624.361	2670.88
624.81	2648.57
625.259	2670.98
625.707	2658.68
626.156	2654.18
626.604	2673.18
627.053	2633.18
627.501	2653.68
627.95	2623.88
628.398	2666.98
628.847	2615.88
629.295	2624.57
629.744	2629.68
630.192	2607.88
630.64	2630.07
631.089	2624.18
631.537	2608.27
631.985	2598.48
632.433	2604.07
632.881	2597.88
633.33	2614.48
633.778	2616.57
634.226	2586.98
634.674	2589.68
635.122	2582.88
635.57	2574.88
636.018	2601.57
636.466	2550.18
636.914	2586.07
637.362	2571.07
637.81	2554.77
638.258	2584.38
638.705	2546.68
639.153	2569.77
639.601	2526.68
640.049	2560.38
640.497	2575.38
640.944	2546.77
641.392	2560.88
641.84	2551.68
642.287	2543.27
642.735	2539.98
643.182	2526.68
643.63	2539.98
644.078	2545.18
644.525	2523.88
644.973	2543.68
645.42	2520.48
645.867	2532.07
646.315	2512.38
646.762	2535.48
647.21	2503.18
647.657	2532.38
648.104	2538.98
648.551	2484.38
648.999	2521.68
649.446	2501.88
649.893	2492.68
650.34	2492.38
650.787	2506.07
651.234	2484.38
651.682	2506.27
652.129	2495.27
652.576	2477.38
653.023	2500.38
653.47	2476.77
653.917	2490.68
654.363	2504.77
654.81	2511.88
655.257	2487.88
655.704	2472.57
656.151	2475.18
656.598	2472.48
657.044	2446.48
657.491	2476.77
657.938	2468.77
658.385	2450.77
658.831	2455.27
659.278	2452.38
659.724	2426.48
660.171	2447.88
660.618	2432.77
661.064	2412.68
661.511	2437.38
661.957	2416.98
662.404	2408.48
662.85	2413.27
663.296	2421.18
663.743	2404.38
664.189	2424.77
664.635	2417.98
665.082	2400.77
665.528	2379.38
665.974	2388.48
666.42	2373.48
666.867	2391.48
667.313	2380.38
667.759	2374.77
668.205	2381.38
668.651	2382.48
669.097	2349.48
669.543	2355.18
669.989	2361.18
670.435	2335.27
670.881	2359.38
671.327	2317.57
671.773	2335.07
672.219	2310.98
672.665	2328.77
673.11	2315.68
673.556	2307.68
674.002	2296.27
674.448	2303.07
674.893	2285.38
675.339	2287.18
675.785	2277.38
676.23	2270.48
676.676	2253.27
677.122	2257.38
677.567	2239.48
678.013	2212.27
678.458	2223.48
678.904	2216.38
679.349	2201.07
679.794	2197.68
680.24	2177.68
680.685	2183.18
681.131	2158.38
681.576	2160.27
682.021	2143.57
682.466	2142.77
682.912	2126.07
683.357	2129.38
683.802	2133.07
684.247	2118.77
684.692	2097.77
685.137	2085.07
685.583	2089.68
686.028	2074.38
686.473	2068.27
686.918	2060.68
687.363	2044.27
687.807	2027.27
688.252	2035.98
688.697	2025.98
689.142	2012.77
689.587	2008.67
690.032	1996.67
690.477	2009.58
690.921	1986.58
691.366	1999.17
691.811	1980.87
692.255	1983.48
692.7	1967.37
693.145	1975.27
693.589	1955.17
694.034	1945.58
694.478	1968.17
694.923	1956.08
695.367	1934.77
695.812	1908.98
696.256	1931.48
696.701	1939.77
697.145	1913.67
697.59	1893.17
698.034	1898.98
698.478	1902.77
698.922	1898.48
699.367	1891.48
699.811	1898.48
700.255	1870.37
700.699	1873.87
701.143	1868.17
701.588	1856.77
702.032	1835.67
702.476	1848.17
702.92	1862.48
703.364	1838.67
703.808	1845.17
704.252	1827.27
704.696	1818.67
705.14	1827.58
705.584	1832.98
706.027	1810.98
706.471	1807.27
706.915	1799.37
707.359	1793.48
707.803	1780.98
708.246	1773.37
708.69	1787.48
709.134	1777.98
709.577	1774.98
710.021	1779.17
710.465	1756.27
710.908	1751.37
711.352	1744.27
711.795	1745.08
712.239	1746.37
712.682	1747.08
713.126	1728.37
713.569	1730.67
714.012	1724.48
714.456	1723.08
714.899	1711.98
715.342	1707.77
715.786	1710.27
716.229	1725.77
716.672	1695.17
717.115	1714.37
717.558	1700.08
718.002	1692.77
718.445	1690.17
718.888	1674.67
719.331	1655.67
719.774	1673.58
720.217	1664.17
720.66	1662.17
721.103	1651.27
721.546	1649.98
721.989	1649.37
722.432	1639.87
722.874	1645.87
723.317	1648.27
723.76	1636.17
724.203	1622.17
724.645	1631.48
725.088	1627.77
725.531	1615.98
725.974	1619.17
726.416	1613.58
726.859	1597.87
727.301	1607.67
727.744	1586.77
728.187	1585.58
728.629	1575.77
729.071	1594.77
729.514	1592.08
729.956	1580.77
730.399	1566.67
730.841	1561.27
731.283	1554.87
731.726	1554.58
732.168	1551.37
732.61	1536.27
733.053	1532.67
733.495	1515.98
733.937	1523.58
734.379	1527.87
734.821	1511.27
735.263	1505.58
735.705	1496.17
736.148	1491.77
736.59	1495.48
737.032	1495.58
737.474	1484.27
737.916	1470.77
738.357	1488.87
738.799	1475.48
739.241	1473.08
739.683	1485.08
740.125	1472.17
740.567	1452.48
741.008	1438.27
741.45	1432.77
741.892	1449.58
742.334	1449.67
742.775	1449.67
743.217	1437.08
743.658	1434.27
744.1	1422.87
744.542	1417.58
744.983	1409.48
745.425	1412.17
745.866	1386.17
746.307	1400.08
746.749	1385.27
747.19	1379.98
747.632	1374.67
748.073	1372.58
748.514	1370.77
748.956	1364.88
749.397	1359.67
749.838	1341.38
750.279	1346.27
750.72	1333.38
751.162	1334.08
751.603	1336.08
752.044	1330.27
752.485	1319.47
752.926	1323.47
753.367	1312.27
753.808	1315.08
754.249	1305.77
754.69	1297.27
755.131	1303.38
755.572	1293.88
756.013	1292.58
756.453	1289.47
756.894	1289.47
757.335	1275.67
757.776	1255.47
758.216	1273.08
758.657	1265.97
759.098	1264.27
759.538	1271.88
759.979	1252.88
760.42	1261.88
760.86	1240.47
761.301	1238.58
761.741	1240.77
762.182	1237.27
762.622	1230.58
763.063	1212.88
763.503	1223.88
763.943	1226.08
764.384	1210.67
764.824	1220.67
765.264	1220.67
765.705	1213.67
766.145	1194.17
766.585	1204.27
767.025	1199.27
767.465	1200.47
767.906	1177.58
768.346	1192.47
768.786	1181.88
769.226	1175.67
769.666	1168.17
770.106	1169.58
770.546	1160.17
770.986	1161.88
771.426	1137.47
771.866	1151.47
772.306	1153.88
772.745	1141.58
773.185	1140.77
773.625	1131.38
774.065	1138.47
774.505	1125.38
774.944	1126.67
775.384	1113.77
775.824	1122.08
776.263	1104.08
776.703	1109.58
777.142	1108.47
777.582	1102.58
778.021	1104.67
778.461	1091.47
778.9	1085.38
779.34	1099.27
779.779	1089.27
780.219	1077.08
780.658	1090.58
781.097	1075.47
781.537	1075.47
781.976	1084.17
782.415	1069.38
782.855	1071.08
783.294	1077.17
783.733	1063.67
784.172	1061.58
784.611	1065.97
785.05	1058.77
785.489	1052.88
785.928	1058.67
786.367	1060.67
786.806	1048.27
787.245	1053.27
787.684	1038.38
788.123	1031.08
788.562	1042.58
789.001	1043.67
789.44	1044.08
789.879	1028.58
790.317	1041.27
790.756	1041.17
791.195	1030.47
791.634	1041.38
792.072	1035.08
792.511	1028.88
792.95	1027.17
793.388	1028.08
793.827	1026.58
794.265	1036.97
794.704	1031.58
795.142	1036.77
795.581	1036.17
796.019	1029.88
796.458	1033.08
796.896	1026.17
797.334	1026.88
797.773	1027.17
798.211	1040.47
798.649	1028.67
799.087	1030.38
799.526	1034.67
799.964	1034.17
800.402	1033.77
800.84	1036.47
801.278	1034.38
801.716	1043.17
802.154	1054.38
802.592	1040.58
803.03	1047.08
803.468	1048.08
803.906	1054.67
804.344	1062.97
804.782	1056.67
805.22	1062.17
805.658	1053.17
806.096	1054.47
806.533	1065.88
806.971	1080.08
807.409	1065.17
807.847	1074.08
808.284	1075.67
808.722	1080.38
809.16	1083.47
809.597	1090.58
810.035	1093.17
810.472	1095.27
810.91	1090.97
811.347	1105.97
811.785	1107.08
812.222	1099.38
812.66	1108.67
813.097	1120.58
813.535	1127.27
813.972	1129.27
814.409	1135.77
814.846	1127.47
815.284	1138.77
815.721	1147.08
816.158	1144.97
816.595	1150.38
817.032	1158.17
817.47	1163.88
817.907	1173.88
818.344	1173.58
818.781	1169.67
819.218	1187.27
819.655	1190.88
820.092	1200.88
820.529	1193.67
820.966	1209.27
821.403	1214.77
821.839	1215.27
822.276	1226.77
822.713	1221.97
823.15	1234.97
823.587	1240.77
824.023	1250.27
824.46	1259.17
824.897	1267.67
825.333	1273.17
825.77	1273.58
826.206	1271.77
826.643	1287.88
827.08	1277.77
827.516	1294.88
827.953	1294.97
828.389	1303.88
828.825	1296.77
829.262	1311.38
829.698	1328.67
830.135	1326.58
830.571	1328.47
831.007	1329.08
831.443	1354.08
831.88	1346.27
832.316	1360.17
832.752	1338.08
833.188	1351.47
833.624	1344.27
834.06	1360.38
834.497	1364.67
834.933	1366.67
835.369	1355.38
835.805	1374.08
836.241	1373.17
836.677	1377.08
837.112	1378.58
837.548	1384.27
837.984	1371.97
838.42	1386.48
838.856	1391.67
839.292	1397.48
839.727	1400.17
840.163	1379.27
840.599	1392.48
841.034	1394.08
841.47	1390.58
841.906	1393.37
842.341	1415.87
842.777	1398.67
843.212	1410.17
843.648	1395.08
844.083	1402.67
844.519	1415.58
844.954	1400.58
845.39	1389.67
845.825	1399.77
846.261	1408.98
846.696	1405.98
847.131	1389.08
847.566	1387.08
848.002	1406.77
848.437	1408.77
848.872	1397.58
849.307	1396.08
849.742	1397.87
850.177	1396.98
850.613	1404.08
851.048	1398.48
851.483	1383.67
851.918	1398.87
852.353	1398.37
852.788	1396.48
853.223	1397.67
853.657	1393.98
854.092	1388.67
854.527	1399.27
854.962	1395.48
855.397	1397.67
855.832	1388.77
856.266	1394.98
856.701	1389.17
857.136	1379.58
857.57	1389.77
858.005	1391.17
858.44	1397.48
858.874	1390.48
859.309	1381.48
859.743	1388.67
860.178	1396.37
860.612	1384.48
861.047	1379.48
861.481	1385.77
861.915	1385.27
862.35	1397.77
862.784	1385.17
863.218	1379.58
863.653	1377.58
864.087	1391.77
864.521	1382.37
864.955	1381.77
865.39	1387.08
865.824	1383.27
866.258	1376.17
866.692	1375.67
867.126	1376.47
867.56	1384.17
867.994	1376.97
868.428	1380.08
868.862	1372.58
869.296	1367.67
869.73	1379.08
870.164	1364.17
870.598	1367.47
871.031	1367.88
871.465	1377.38
871.899	1368.27
872.333	1360.27
872.766	1372.47
873.2	1381.08
873.634	1376.47
874.067	1365.17
874.501	1372.08
874.935	1367.77
875.368	1353.08
875.802	1360.17
876.235	1356.67
876.669	1359.08
877.102	1362.47
877.535	1349.67
877.969	1357.38
878.402	1365.67
878.836	1352.77
879.269	1354.47
879.702	1346.77
880.135	1335.97
880.569	1336.77
881.002	1331.38
881.435	1329.77
881.868	1341.17
882.301	1337.17
882.734	1333.27
883.167	1326.17
883.601	1331.38
884.034	1323.58
884.467	1308.67
884.899	1318.97
885.332	1320.67
885.765	1323.58
886.198	1312.58
886.631	1304.08
887.064	1296.88
887.497	1294.67
887.929	1292.97
888.362	1286.67
888.795	1283.58
889.228	1287.27
889.66	1276.47
890.093	1273.67
890.526	1270.58
890.958	1260.77
891.391	1280.38
891.823	1264.77
892.256	1267.27
892.688	1253.17
893.121	1251.08
893.553	1235.77
893.985	1241.17
894.418	1234.47
894.85	1236.08
895.282	1232.58
895.715	1232.38
896.147	1217.38
896.579	1234.08
897.011	1217.88
897.444	1219.08
897.876	1210.38
898.308	1213.67
898.74	1197.47
899.172	1201.97
899.604	1203.97
900.036	1202.17
900.468	1201.97
900.9	1201.88
901.332	1184.17
901.764	1177.97
902.196	1174.08
902.628	1159.97
903.06	1168.27
903.491	1170.67
903.923	1163.58
904.355	1161.47
904.787	1160.08
905.218	1150.88
905.65	1154.08
906.082	1136.08
906.513	1151.38
906.945	1136.27
907.376	1129.67
907.808	1123.27
908.239	1131.27
908.671	1128.58
909.102	1119.38
909.534	1121.27
909.965	1122.17
910.397	1110.27
910.828	1110.77
911.259	1107.97
911.691	1106.97
912.122	1094.77
912.553	1088.97
912.984	1091.17
913.415	1098.77
913.847	1087.97
914.278	1086.27
914.709	1078.08
915.14	1071.97
915.571	1064.58
916.002	1069.08
916.433	1072.88
916.864	1070.08
917.295	1054.58
917.726	1051.67
918.157	1050.97
918.587	1043.08
919.018	1052.88
919.449	1035.08
919.88	1034.58
920.311	1027.58
920.741	1027.58
921.172	1016.27
921.603	1020.77
922.033	1018.97
922.464	1010.08
922.895	1004.58
923.325	1010.67
923.756	1012.67
924.186	1014.97
924.617	1014.88
925.047	1000.47
925.478	985.67
925.908	997.17
926.338	996.47
926.769	1006.67
927.199	998.38
927.629	1003.27
928.06	1008.77
928.49	995.47
928.92	1001.47
929.35	1006.58
929.78	1013.97
930.21	1006.67
930.641	999.38
931.071	1006.47
931.501	999.08
931.931	1007.27
932.361	1011.58
932.791	989.27
933.221	1000.38
933.651	995.27
934.08	999.97
934.51	996.97
934.94	997.58
935.37	990.08
935.8	1003.08
936.229	988.08
936.659	985.08
937.089	983.38
937.519	979.58
937.948	969.67
938.378	965.38
938.807	958.88
939.237	953.77
939.666	945.58
940.096	934.97
940.525	935.38
940.955	934.38
941.384	919.77
941.814	925.08
942.243	920.77
942.672	904.88
943.102	899.58
943.531	894.97
943.96	894.47
944.39	888.08
944.819	881.58
945.248	891.58
945.677	870.88
946.106	866.67
946.535	866.88
946.964	853.38
947.393	852.88
947.822	851.17
948.251	843.08
948.68	832.27
949.109	828.97
949.538	823.67
949.967	818.17
950.396	819.47
950.825	805.17
951.254	803.97
951.682	793.27
952.111	794.27
952.54	771.77
952.969	778.88
953.397	769.27
953.826	770.08
954.254	757.58
954.683	758.38
955.112	748.58
955.54	752.17
955.969	736.58
956.397	735.08
956.826	729.58
957.254	718.58
957.682	716.77
958.111	714.38
958.539	695.88
958.967	698.47
959.396	696.88
959.824	701.88
960.252	691.17
960.68	677.27
961.109	678.27
961.537	672.27
961.965	657.08
962.393	658.27
962.821	660.08
963.249	640.27
963.677	653.58
964.105	635.08
964.533	627.38
964.961	634.97
965.389	628.88
965.817	622.77
966.245	605.77
966.672	608.97
967.1	609.88
967.528	594.08
967.956	592.58
968.383	587.27
968.811	584.47
969.239	576.88
969.666	577.08
970.094	562.77
970.522	564.88
970.949	553.58
971.377	553.17
971.804	561.67
972.232	547.47
972.659	539.97
973.087	546.17
973.514	537.67
973.941	536.38
974.369	528.38
974.796	524.08
975.223	516.77
975.651	507.88
976.078	510.58
976.505	506.88
976.932	502.88
977.359	504.67
977.786	494.38
978.214	488.38
978.641	488.27
979.068	476.97
979.495	481.58
979.922	467.77
980.349	473.77
980.776	470.08
981.202	464.97
981.629	458.77
982.056	454.88
982.483	456.17
982.91	448.67
983.337	441.67
983.763	443.47
984.19	434.67
984.617	434.17
985.043	430.47
985.47	429.58
985.897	431.17
986.323	417.47
986.75	419.08
987.176	418.58
987.603	418.77
988.029	423.08
988.456	406.67
988.882	403.67
989.308	399.47
989.735	397.27
990.161	394.17
990.587	385.97
991.014	387.67
991.44	378.67
991.866	392.08
992.292	377.97
992.719	374.67
993.145	371.67
993.571	367.27
993.997	364.47
994.423	362.08
994.849	360.77
995.275	345.17
995.701	351.47
996.127	346.17
996.553	350.07
996.979	346.17
997.405	343.57
997.83	344.07
998.256	345.88
998.682	344.47
999.108	338.77
999.534	338.77
999.959	343.47
1000.385	336.07
1000.811	337.77
1001.236	332.57
1001.662	325.57
1002.087	333.57
1002.513	329.77
1002.938	326.57
1003.364	333.38
1003.789	331.67
1004.215	326.47
1004.64	338.88
1005.066	334.77
1005.491	338.77
1005.916	332.77
1006.342	337.57
1006.767	332.17
1007.192	334.07
1007.617	336.77
1008.042	338.77
1008.468	332.47
1008.893	340.17
1009.318	332.88
1009.743	323.67
1010.168	329.67
1010.593	319.07
1011.018	326.38
1011.443	322.38
1011.868	305.97
1012.293	309.17
1012.718	308.27
1013.143	306.77
1013.567	299.77
1013.992	294.07
1014.417	298.27
1014.842	287.97
1015.267	288.88
1015.691	275.88
1016.116	276.57
1016.541	270.07
1016.965	273.88
1017.39	270.27
1017.814	261.97
1018.239	266.07
1018.663	256.77
1019.088	255.67
1019.512	260.57
1019.937	256.17
1020.361	247.57
1020.785	240.07
1021.21	243.17
1021.634	236.38
1022.058	239.97
1022.483	232.67
1022.907	229.27
1023.331	234.97
1023.755	235.77
1024.179	223.97
1024.604	220.07
1025.028	218.07
1025.452	219.07
1025.876	221.47
1026.3	218.57
1026.724	216.38
1027.148	210.77
1027.572	216.47
1027.996	213.97
1028.42	205.88
1028.843	206.17
1029.267	197.77
1029.691	199.97
1030.115	201.97
1030.539	201.47
1030.962	198.38
1031.386	199.38
1031.81	191.77
1032.233	197.88
1032.657	194.27
1033.08	183.88
1033.504	188.67
1033.927	182.97
1034.351	180.67
1034.774	179.47
1035.198	180.27
1035.621	182.07
1036.045	176.67
1036.468	177.77
1036.891	179.07
1037.315	178.38
1037.738	167.97
1038.161	163.47
1038.584	166.07
1039.008	166.97
1039.431	169.47
1039.854	163.07
1040.277	163.67
1040.7	162.17
1041.123	159.77
1041.546	158.77
1041.969	155.67
1042.392	155.38
1042.815	159.17
1043.238	154.57
1043.661	161.57
1044.084	152.27
1044.507	157.47
1044.93	148.07
1045.352	152.27
1045.775	149.47
1046.198	146.47
1046.621	154.67
1047.043	157.07
1047.466	151.38
1047.889	146.07
1048.311	149.97
1048.734	144.67
1049.156	141.77
1049.579	146.17
1050.001	141.38
1050.424	138.97
1050.846	138.27
1051.269	139.47
1051.691	139.17
1052.113	138.07
1052.536	143.67
1052.958	131.57
1053.38	134.38
1053.802	132.67
1054.225	134.07
1054.647	132.47
1055.069	133.67
1055.491	134.57
1055.913	130.07
1056.335	124.88
1056.757	127.17
1057.179	123.47
1057.601	126.07
1058.023	128.47
1058.445	132.38
1058.867	124.97
1059.289	124.17
1059.711	127.17
1060.133	131.38
1060.555	128.97
1060.976	117.97
1061.398	126.97
1061.82	119.57
1062.241	125.77
1062.663	117.88
1063.085	125.77
1063.506	118.17
1063.928	120.97
1064.35	117.27
1064.771	121.07
1065.193	115.97
1065.614	115.47
1066.035	117.17
1066.457	116.67
1066.878	118.88
1067.3	108.97
1067.721	109.97
1068.142	110.77
1068.564	116.17
1068.985	117.57
1069.406	113.17
1069.827	109.07
1070.248	110.57
1070.67	111.38
1071.091	113.17
1071.512	110.38
1071.933	113.88
1072.354	110.67
1072.775	114.47
1073.196	110.27
1073.617	110.47
1074.038	106.07
1074.459	111.88
1074.88	112.88
1075.3	111.77
1075.721	111.17
1076.142	106.67
1076.563	108.97
1076.983	105.07
1077.404	112.97
1077.825	103.67
1078.246	104.57
1078.666	105.38
1079.087	109.07
1079.507	111.77
1079.928	106.77
1080.348	111.57
1080.769	107.38
1081.189	105.67
1081.61	106.57
1082.03	103.88
1082.451	103.67
1082.871	107.38
1083.291	109.17
1083.711	103.88
1084.132	106.07
1084.552	109.97
1084.972	111.88
1085.392	104.27
1085.813	106.07
1086.233	107.97
1086.653	106.77
1087.073	101.67
1087.493	105.97
1087.913	104.67
1088.333	96.17
1088.753	100.47
1089.173	101.77
1089.593	101.38
1090.013	102.38
1090.433	99.07
1090.852	103.47
1091.272	101.67
1091.692	106.07
1092.112	101.27
1092.531	98.57
1092.951	100.97
1093.371	100.27
1093.79	103.67
1094.21	99.27
1094.63	106.77
1095.049	100.88
1095.469	102.97
1095.888	98.17
1096.308	96.17
1096.727	99.88
1097.146	99.67
1097.566	100.17
1097.985	91.67
1098.405	96.88
1098.824	95.47
1099.243	94.47
1099.662	98.38
1100.082	100.38
1100.501	94.38
1100.92	95.07
1101.339	97.57
1101.758	100.57
