Data from DH-3PlusCalLight-Halogen_HRD10391_13-39-46-531.txt Node
Date: Thu Feb 15 13:39:46 EST 2018
User: Ender
Spectrometer: HR+D1039
Trigger mode: 0
Integration Time (sec): 2.730000E-2
Scans to average: 10
Electric dark correction enabled: true
Nonlinearity correction enabled: false
Boxcar width: 0
XAxis mode: Wavelengths
Number of Pixels in Spectrum: 2048
>>>>>Begin Spectral Data<<<<<
187.836	-4.03
188.309	-4.03
188.782	-4.03
189.255	-3.73
189.728	-6.53
190.201	-10.33
190.674	-5.73
191.147	-8.93
191.619	-5.33
192.092	-7.63
192.565	-6.63
193.038	-7.83
193.511	2.77
193.984	8.67
194.456	5.07
194.929	15.47
195.402	14.87
195.874	19.77
196.347	21.47
196.82	26.97
197.292	29.47
197.765	34.07
198.237	37.47
198.71	41.07
199.182	45.97
199.655	49.47
200.127	50.87
200.6	52.67
201.072	59.47
201.544	63.87
202.017	63.77
202.489	71.07
202.961	69.27
203.433	73.27
203.906	70.87
204.378	79.77
204.85	77.37
205.322	75.47
205.794	80.77
206.266	86.37
206.739	86.57
207.211	82.37
207.683	83.67
208.155	81.87
208.627	86.97
209.099	85.07
209.57	81.97
210.042	82.77
210.514	88.17
210.986	83.27
211.458	86.97
211.93	86.77
212.402	81.27
212.873	82.57
213.345	84.27
213.817	81.87
214.288	82.47
214.76	80.87
215.232	85.77
215.703	82.47
216.175	83.37
216.646	81.27
217.118	78.17
217.589	78.27
218.061	77.47
218.532	80.77
219.004	79.27
219.475	77.47
219.946	76.27
220.418	79.27
220.889	80.77
221.36	82.87
221.832	82.17
222.303	80.37
222.774	77.27
223.245	69.27
223.717	78.57
224.188	78.97
224.659	75.87
225.13	73.07
225.601	75.57
226.072	78.07
226.543	76.57
227.014	76.77
227.485	74.47
227.956	77.17
228.427	73.07
228.898	77.97
229.369	78.97
229.839	77.47
230.31	78.67
230.781	78.47
231.252	79.27
231.722	79.67
232.193	73.57
232.664	79.37
233.135	76.97
233.605	81.17
234.076	78.37
234.546	76.97
235.017	77.17
235.487	75.17
235.958	79.37
236.428	80.77
236.899	78.27
237.369	74.57
237.84	85.97
238.31	78.47
238.78	80.47
239.251	76.97
239.721	75.97
240.191	78.47
240.662	79.77
241.132	80.47
241.602	82.97
242.072	85.17
242.542	78.37
243.013	84.67
243.483	84.07
243.953	80.57
244.423	84.97
244.893	82.37
245.363	81.77
245.833	82.27
246.303	79.37
246.773	80.27
247.243	79.87
247.712	78.97
248.182	77.67
248.652	80.97
249.122	80.77
249.592	79.07
250.061	78.67
250.531	80.57
251.001	81.87
251.471	81.07
251.94	83.57
252.41	83.87
252.879	78.37
253.349	79.17
253.818	80.67
254.288	84.87
254.757	83.37
255.227	84.47
255.696	88.57
256.166	82.47
256.635	85.77
257.105	85.47
257.574	83.07
258.043	82.27
258.513	83.27
258.982	84.17
259.451	84.37
259.92	76.47
260.389	86.57
260.859	80.17
261.328	85.77
261.797	82.87
262.266	83.17
262.735	83.47
263.204	84.17
263.673	83.07
264.142	80.47
264.611	79.97
265.08	82.77
265.549	85.37
266.018	81.57
266.487	84.67
266.955	87.17
267.424	85.67
267.893	81.97
268.362	76.87
268.83	89.27
269.299	78.37
269.768	88.07
270.236	80.67
270.705	81.27
271.174	80.77
271.642	81.37
272.111	82.57
272.579	79.97
273.048	84.47
273.516	82.77
273.985	85.07
274.453	89.87
274.922	83.87
275.39	84.57
275.858	79.17
276.327	82.57
276.795	80.67
277.263	85.67
277.731	87.07
278.2	90.07
278.668	83.57
279.136	79.97
279.604	84.17
280.072	83.37
280.54	84.47
281.008	86.17
281.477	80.87
281.945	83.27
282.413	83.17
282.881	83.07
283.348	84.07
283.816	82.27
284.284	83.47
284.752	88.47
285.22	84.97
285.688	84.77
286.156	85.97
286.623	85.07
287.091	85.37
287.559	78.77
288.026	81.27
288.494	79.27
288.962	84.57
289.429	77.67
289.897	81.27
290.364	88.27
290.832	85.47
291.3	84.97
291.767	85.87
292.234	81.77
292.702	81.67
293.169	85.07
293.637	86.17
294.104	83.77
294.571	85.17
295.039	81.67
295.506	82.87
295.973	82.67
296.44	85.67
296.908	84.17
297.375	81.27
297.842	83.57
298.309	85.67
298.776	83.77
299.243	82.17
299.71	83.57
300.177	88.27
300.644	91.67
301.111	82.37
301.578	81.57
302.045	90.77
302.512	87.17
302.979	81.87
303.446	90.27
303.913	89.47
304.379	86.77
304.846	84.07
305.313	85.97
305.78	85.77
306.246	84.07
306.713	78.17
307.18	90.37
307.646	82.37
308.113	84.27
308.579	86.87
309.046	87.77
309.512	83.57
309.979	85.97
310.445	86.17
310.912	85.87
311.378	88.47
311.845	87.67
312.311	89.67
312.777	87.97
313.244	80.87
313.71	83.87
314.176	85.17
314.642	82.87
315.109	90.47
315.575	83.27
316.041	84.77
316.507	83.67
316.973	89.67
317.439	83.17
317.905	88.37
318.371	85.67
318.837	86.07
319.303	86.57
319.769	87.57
320.235	90.57
320.701	85.77
321.167	89.67
321.633	83.97
322.099	89.07
322.564	88.47
323.03	87.47
323.496	86.27
323.962	86.27
324.427	84.37
324.893	90.27
325.359	85.87
325.824	90.07
326.29	80.87
326.755	85.87
327.221	85.37
327.686	88.27
328.152	88.17
328.617	88.07
329.083	86.67
329.548	83.57
330.014	90.57
330.479	81.07
330.944	86.67
331.41	90.47
331.875	89.17
332.34	86.27
332.805	85.27
333.271	86.87
333.736	84.27
334.201	88.97
334.666	89.87
335.131	83.57
335.596	88.17
336.061	88.17
336.526	87.27
336.991	82.27
337.456	86.07
337.921	90.47
338.386	87.07
338.851	89.77
339.316	87.97
339.781	89.87
340.246	90.37
340.711	84.57
341.175	87.97
341.64	89.27
342.105	92.17
342.569	87.87
343.034	85.77
343.499	85.97
343.963	90.27
344.428	82.27
344.893	87.77
345.357	82.27
345.822	89.87
346.286	86.37
346.751	87.27
347.215	86.37
347.679	89.67
348.144	85.47
348.608	85.87
349.073	90.67
349.537	86.87
350.001	87.47
350.465	87.97
350.93	88.37
351.394	86.87
351.858	86.67
352.322	87.67
352.786	93.77
353.25	84.67
353.715	88.67
354.179	90.77
354.643	93.07
355.107	86.17
355.571	88.07
356.035	87.07
356.498	85.87
356.962	88.67
357.426	89.47
357.89	90.57
358.354	88.47
358.818	90.87
359.281	91.67
359.745	87.57
360.209	88.67
360.673	89.37
361.136	86.27
361.6	88.37
362.064	92.97
362.527	89.47
362.991	91.47
363.454	93.17
363.918	93.17
364.381	87.77
364.845	86.57
365.308	86.27
365.772	93.77
366.235	88.67
366.698	88.37
367.162	87.97
367.625	91.07
368.088	93.37
368.552	89.37
369.015	89.87
369.478	92.77
369.941	88.77
370.404	91.57
370.867	85.07
371.331	86.57
371.794	86.07
372.257	92.17
372.72	94.57
373.183	96.37
373.646	97.67
374.109	93.27
374.572	92.07
375.035	93.17
375.497	94.67
375.96	100.17
376.423	98.87
376.886	95.67
377.349	97.57
377.811	94.77
378.274	95.97
378.737	97.47
379.199	97.47
379.662	101.57
380.125	99.97
380.587	98.77
381.05	101.17
381.512	99.77
381.975	100.87
382.437	101.27
382.9	102.27
383.362	102.47
383.825	104.67
384.287	103.57
384.75	107.27
385.212	101.87
385.674	103.87
386.136	100.47
386.599	103.47
387.061	105.27
387.523	110.37
387.985	106.17
388.447	108.97
388.91	108.67
389.372	105.77
389.834	102.57
390.296	108.97
390.758	111.37
391.22	114.47
391.682	105.57
392.144	108.17
392.606	116.77
393.068	111.27
393.529	115.27
393.991	118.17
394.453	116.37
394.915	118.37
395.377	120.47
395.838	113.77
396.3	120.17
396.762	119.47
397.224	123.97
397.685	121.07
398.147	123.37
398.608	130.57
399.07	121.47
399.531	120.67
399.993	131.27
400.454	130.77
400.916	128.77
401.377	132.87
401.839	136.37
402.3	129.57
402.762	135.77
403.223	137.87
403.684	133.97
404.145	143.67
404.607	139.17
405.068	144.57
405.529	146.37
405.99	144.67
406.451	153.47
406.913	151.77
407.374	152.57
407.835	155.57
408.296	160.07
408.757	162.47
409.218	166.37
409.679	171.87
410.14	175.47
410.601	174.47
411.062	178.87
411.522	182.37
411.983	178.07
412.444	185.57
412.905	191.77
413.366	202.37
413.826	200.57
414.287	209.07
414.748	208.57
415.208	213.77
415.669	220.37
416.13	222.67
416.59	228.97
417.051	228.07
417.511	235.97
417.972	239.77
418.432	244.37
418.893	254.07
419.353	260.77
419.814	271.87
420.274	271.87
420.734	276.77
421.195	280.77
421.655	290.07
422.115	297.47
422.576	309.07
423.036	314.77
423.496	328.67
423.956	333.97
424.416	338.77
424.876	364.67
425.336	366.27
425.797	374.98
426.257	390.87
426.717	410.57
427.177	411.27
427.637	428.27
428.097	436.17
428.556	441.57
429.016	457.48
429.476	461.57
429.936	494.17
430.396	505.37
430.856	512.48
431.315	528.87
431.775	554.98
432.235	564.48
432.694	587.07
433.154	595.07
433.614	600.87
434.073	633.37
434.533	632.07
434.993	655.67
435.452	682.77
435.912	687.17
436.371	698.27
436.83	705.98
437.29	722.87
437.749	746.37
438.209	759.17
438.668	780.57
439.127	810.17
439.587	805.17
440.046	816.57
440.505	853.17
440.964	858.07
441.424	876.98
441.883	902.27
442.342	910.87
442.801	920.77
443.26	960.17
443.719	977.37
444.178	988.37
444.637	1007.87
445.096	1031.78
445.555	1051.38
446.014	1043.88
446.473	1057.28
446.932	1086.57
447.391	1107.78
447.849	1133.88
448.308	1120.97
448.767	1139.78
449.226	1162.97
449.685	1166.47
450.143	1197.17
450.602	1243.17
451.061	1229.47
451.519	1249.67
451.978	1266.38
452.436	1263.07
452.895	1290.28
453.353	1292.88
453.812	1308.38
454.27	1347.67
454.729	1335.78
455.187	1366.57
455.646	1369.67
456.104	1391.17
456.562	1392.38
457.021	1415.47
457.479	1376.97
457.937	1431.57
458.395	1454.77
458.854	1448.17
459.312	1436.17
459.77	1455.57
460.228	1459.47
460.686	1491.38
461.144	1482.77
461.602	1476.07
462.06	1472.17
462.518	1482.97
462.976	1476.38
463.434	1469.57
463.892	1465.27
464.35	1473.77
464.808	1469.47
465.266	1496.77
465.724	1486.38
466.181	1503.67
466.639	1487.07
467.097	1522.38
467.555	1542.77
468.012	1522.07
468.47	1514.77
468.928	1539.97
469.385	1537.27
469.843	1569.07
470.3	1566.07
470.758	1608.17
471.215	1586.07
471.673	1605.47
472.13	1647.77
472.588	1669.67
473.045	1679.97
473.503	1718.07
473.96	1768.77
474.417	1774.07
474.875	1794.47
475.332	1810.97
475.789	1832.97
476.246	1880.07
476.704	1912.97
477.161	1956.77
477.618	1965.77
478.075	1988.88
478.532	2065.57
478.989	2083.67
479.446	2118.77
479.903	2146.67
480.36	2236.07
480.817	2237.57
481.274	2283.88
481.731	2335.07
482.188	2360.97
482.645	2427.88
483.102	2444.97
483.558	2468.97
484.015	2523.07
484.472	2565.38
484.929	2607.77
485.385	2652.47
485.842	2669.57
486.299	2719.47
486.755	2732.77
487.212	2748.27
487.668	2795.07
488.125	2814.88
488.582	2797.17
489.038	2832.07
489.494	2835.17
489.951	2859.07
490.407	2882.38
490.864	2899.88
491.32	2907.47
491.776	2907.38
492.233	2925.97
492.689	2919.47
493.145	2926.57
493.602	2905.57
494.058	2945.27
494.514	2934.97
494.97	2936.67
495.426	2939.38
495.882	2931.67
496.338	2901.47
496.794	2954.67
497.251	2936.88
497.707	2959.77
498.163	2958.27
498.618	2956.88
499.074	2954.38
499.53	2964.27
499.986	2956.57
500.442	2970.57
500.898	2945.38
501.354	2986.57
501.809	2979.17
502.265	2968.07
502.721	2955.67
503.177	2969.27
503.632	2989.67
504.088	2965.88
504.543	2978.97
504.999	2986.27
505.455	2969.57
505.91	2978.07
506.366	2979.77
506.821	2970.77
507.277	2964.88
507.732	2997.97
508.187	2960.17
508.643	2963.97
509.098	2948.27
509.553	2951.67
510.009	2960.27
510.464	2951.67
510.919	2934.57
511.375	2942.38
511.83	2900.38
512.285	2889.88
512.74	2898.77
513.195	2892.77
513.65	2870.97
514.105	2856.38
514.56	2845.38
515.015	2840.27
515.47	2843.67
515.925	2830.57
516.38	2837.38
516.835	2820.38
517.29	2788.47
517.745	2807.67
518.2	2787.38
518.655	2771.57
519.109	2749.97
519.564	2748.17
520.019	2745.17
520.474	2726.57
520.928	2735.67
521.383	2711.47
521.838	2716.88
522.292	2700.07
522.747	2701.67
523.201	2703.77
523.656	2686.97
524.11	2672.67
524.565	2688.27
525.019	2697.67
525.474	2688.88
525.928	2666.57
526.382	2667.47
526.837	2655.38
527.291	2675.67
527.745	2661.07
528.2	2670.27
528.654	2640.67
529.108	2663.97
529.562	2660.07
530.016	2656.07
530.47	2676.47
530.925	2662.07
531.379	2664.27
531.833	2685.47
532.287	2674.07
532.741	2673.27
533.195	2658.88
533.649	2687.47
534.103	2679.27
534.556	2648.57
535.01	2671.57
535.464	2660.27
535.918	2680.27
536.372	2687.97
536.826	2673.57
537.279	2651.38
537.733	2676.88
538.187	2677.38
538.64	2645.67
539.094	2672.27
539.548	2682.27
540.001	2655.38
540.455	2648.97
540.908	2637.67
541.362	2631.77
541.815	2644.77
542.269	2641.47
542.722	2616.07
543.175	2629.07
543.629	2602.88
544.082	2604.97
544.536	2600.77
544.989	2578.38
545.442	2589.27
545.895	2568.97
546.349	2566.77
546.802	2579.27
547.255	2540.38
547.708	2550.88
548.161	2556.17
548.614	2554.88
549.067	2557.47
549.52	2553.88
549.973	2546.88
550.426	2545.77
550.879	2556.07
551.332	2544.97
551.785	2523.47
552.238	2530.77
552.691	2542.07
553.144	2537.77
553.596	2544.17
554.049	2542.17
554.502	2567.88
554.955	2570.67
555.407	2562.88
555.86	2568.47
556.313	2575.38
556.765	2565.97
557.218	2577.57
557.67	2591.47
558.123	2611.77
558.576	2573.67
559.028	2597.47
559.48	2607.97
559.933	2621.97
560.385	2604.27
560.838	2611.57
561.29	2610.97
561.742	2636.38
562.195	2612.97
562.647	2639.47
563.099	2643.17
563.551	2623.27
564.004	2649.77
564.456	2643.97
564.908	2656.88
565.36	2650.88
565.812	2647.17
566.264	2657.57
566.716	2654.47
567.168	2656.38
567.62	2668.57
568.072	2659.57
568.524	2649.88
568.976	2659.47
569.428	2631.07
569.88	2633.47
570.332	2646.88
570.784	2664.07
571.235	2635.27
571.687	2646.27
572.139	2628.77
572.59	2632.38
573.042	2633.88
573.494	2632.77
573.945	2609.97
574.397	2591.38
574.849	2605.17
575.3	2605.17
575.752	2584.57
576.203	2575.47
576.655	2587.88
577.106	2583.27
577.557	2557.67
578.009	2546.97
578.46	2571.97
578.912	2553.97
579.363	2569.97
579.814	2547.97
580.265	2537.17
580.717	2546.27
581.168	2538.27
581.619	2537.88
582.07	2550.67
582.521	2524.27
582.972	2524.27
583.423	2540.88
583.875	2556.57
584.326	2538.17
584.777	2547.67
585.227	2521.27
585.678	2541.17
586.129	2537.17
586.58	2542.88
587.031	2536.77
587.482	2536.17
587.933	2533.67
588.384	2544.57
588.834	2549.38
589.285	2554.17
589.736	2563.07
590.186	2546.88
590.637	2536.67
591.088	2558.67
591.538	2575.88
591.989	2556.57
592.439	2571.17
592.89	2574.47
593.34	2577.47
593.791	2574.38
594.241	2565.27
594.692	2576.38
595.142	2595.67
595.593	2588.27
596.043	2582.67
596.493	2595.88
596.943	2570.67
597.394	2602.47
597.844	2594.67
598.294	2599.38
598.744	2588.38
599.195	2589.77
599.645	2595.07
600.095	2597.27
600.545	2604.88
600.995	2614.27
601.445	2605.88
601.895	2641.97
602.345	2618.38
602.795	2613.07
603.245	2638.07
603.695	2596.38
604.145	2627.57
604.594	2623.88
605.044	2619.07
605.494	2613.97
605.944	2622.88
606.393	2625.67
606.843	2628.38
607.293	2646.77
607.743	2631.77
608.192	2640.67
608.642	2625.88
609.091	2617.17
609.541	2613.88
609.99	2640.38
610.44	2617.38
610.889	2647.88
611.339	2640.88
611.788	2620.27
612.238	2637.88
612.687	2632.47
613.136	2636.77
613.586	2628.97
614.035	2603.77
614.484	2629.38
614.933	2633.77
615.383	2612.27
615.832	2611.57
616.281	2627.77
616.73	2621.38
617.179	2611.97
617.628	2601.77
618.077	2612.77
618.526	2598.88
618.975	2617.67
619.424	2596.67
619.873	2607.88
620.322	2595.17
620.771	2601.27
621.22	2606.47
621.669	2597.27
622.118	2605.67
622.567	2611.47
623.015	2584.77
623.464	2602.47
623.913	2592.17
624.361	2597.27
624.81	2595.57
625.259	2615.27
625.707	2595.27
626.156	2602.88
626.604	2624.47
627.053	2594.27
627.501	2582.77
627.95	2581.57
628.398	2621.97
628.847	2569.27
629.295	2578.07
629.744	2577.07
630.192	2553.38
630.64	2567.97
631.089	2576.47
631.537	2563.67
631.985	2541.47
632.433	2549.47
632.881	2557.77
633.33	2559.47
633.778	2532.47
634.226	2532.27
634.674	2532.77
635.122	2535.27
635.57	2535.47
636.018	2526.97
636.466	2504.57
636.914	2505.88
637.362	2517.38
637.81	2502.47
638.258	2515.27
638.705	2485.97
639.153	2498.27
639.601	2486.38
640.049	2498.88
640.497	2495.97
640.944	2490.17
641.392	2481.47
641.84	2474.67
642.287	2484.97
642.735	2487.47
643.182	2480.27
643.63	2482.67
644.078	2487.77
644.525	2479.38
644.973	2478.47
645.42	2480.07
645.867	2491.47
646.315	2445.38
646.762	2456.27
647.21	2446.27
647.657	2462.07
648.104	2465.57
648.551	2425.57
648.999	2447.07
649.446	2463.57
649.893	2433.97
650.34	2431.27
650.787	2450.07
651.234	2438.88
651.682	2438.17
652.129	2435.77
652.576	2416.38
653.023	2438.27
653.47	2422.97
653.917	2423.07
654.363	2402.67
654.81	2435.67
655.257	2420.77
655.704	2409.57
656.151	2408.77
656.598	2422.07
657.044	2404.77
657.491	2408.88
657.938	2420.07
658.385	2380.57
658.831	2405.07
659.278	2398.17
659.724	2379.57
660.171	2389.67
660.618	2362.07
661.064	2365.88
661.511	2367.77
661.957	2366.77
662.404	2350.17
662.85	2367.57
663.296	2370.17
663.743	2339.67
664.189	2353.07
664.635	2353.88
665.082	2336.67
665.528	2343.67
665.974	2333.57
666.42	2336.27
666.867	2347.67
667.313	2319.67
667.759	2317.67
668.205	2320.07
668.651	2333.17
669.097	2305.38
669.543	2309.97
669.989	2309.88
670.435	2291.17
670.881	2299.07
671.327	2255.67
671.773	2298.27
672.219	2262.38
672.665	2269.27
673.11	2258.38
673.556	2263.47
674.002	2250.27
674.448	2239.57
674.893	2216.47
675.339	2228.88
675.785	2214.77
676.23	2214.07
676.676	2195.27
677.122	2200.77
677.567	2204.77
678.013	2175.17
678.458	2177.27
678.904	2179.38
679.349	2157.17
679.794	2150.47
680.24	2145.47
680.685	2125.47
681.131	2114.47
681.576	2134.77
682.021	2110.57
682.466	2099.17
682.912	2074.27
683.357	2090.57
683.802	2078.17
684.247	2065.57
684.692	2042.77
685.137	2034.97
685.583	2041.07
686.028	2027.67
686.473	2022.77
686.918	2011.17
687.363	2023.27
687.807	1998.97
688.252	1986.17
688.697	1976.67
689.142	1978.07
689.587	1967.38
690.032	1964.57
690.477	1965.07
690.921	1943.77
691.366	1938.77
691.811	1941.97
692.255	1930.17
692.7	1915.88
693.145	1921.57
693.589	1911.67
694.034	1906.88
694.478	1893.97
694.923	1907.47
695.367	1889.07
695.812	1890.57
696.256	1889.47
696.701	1873.57
697.145	1878.97
697.59	1865.67
698.034	1857.88
698.478	1856.38
698.922	1860.07
699.367	1849.77
699.811	1841.47
700.255	1843.27
700.699	1816.77
701.143	1818.27
701.588	1808.57
702.032	1804.38
702.476	1802.27
702.92	1807.77
703.364	1788.07
703.808	1782.07
704.252	1794.97
704.696	1776.47
705.14	1775.57
705.584	1770.97
706.027	1763.57
706.471	1771.88
706.915	1771.17
707.359	1763.27
707.803	1727.38
708.246	1741.47
708.69	1739.07
709.134	1741.47
709.577	1731.97
710.021	1719.17
710.465	1720.47
710.908	1708.97
711.352	1713.47
711.795	1698.47
712.239	1702.47
712.682	1691.97
713.126	1691.67
713.569	1685.47
714.012	1676.07
714.456	1683.77
714.899	1664.77
715.342	1676.07
715.786	1670.88
716.229	1666.47
716.672	1664.88
717.115	1653.17
717.558	1656.88
718.002	1648.38
718.445	1649.67
718.888	1645.57
719.331	1639.07
719.774	1633.97
720.217	1620.97
720.66	1620.27
721.103	1618.38
721.546	1617.17
721.989	1613.47
722.432	1603.27
722.874	1597.67
723.317	1586.07
723.76	1595.88
724.203	1592.47
724.645	1589.47
725.088	1587.17
725.531	1592.47
725.974	1561.77
726.416	1570.97
726.859	1575.17
727.301	1558.77
727.744	1542.07
728.187	1557.38
728.629	1548.77
729.071	1551.88
729.514	1547.77
729.956	1539.38
730.399	1529.47
730.841	1522.07
731.283	1532.07
731.726	1514.38
732.168	1498.38
732.61	1502.38
733.053	1482.88
733.495	1499.97
733.937	1484.97
734.379	1481.77
734.821	1479.07
735.263	1471.97
735.705	1470.07
736.148	1459.77
736.59	1453.88
737.032	1460.27
737.474	1449.57
737.916	1443.67
738.357	1465.38
738.799	1442.17
739.241	1439.17
739.683	1445.57
740.125	1432.07
740.567	1417.57
741.008	1420.27
741.45	1413.67
741.892	1413.17
742.334	1410.57
742.775	1419.07
743.217	1392.27
743.658	1394.38
744.1	1384.77
744.542	1386.07
744.983	1365.38
745.425	1382.78
745.866	1358.17
746.307	1363.88
746.749	1350.07
747.19	1357.97
747.632	1348.07
748.073	1344.67
748.514	1343.28
748.956	1345.47
749.397	1328.17
749.838	1315.88
750.279	1306.88
750.72	1299.47
751.162	1309.38
751.603	1307.38
752.044	1294.88
752.485	1280.88
752.926	1293.28
753.367	1286.17
753.808	1274.28
754.249	1276.78
754.69	1277.47
755.131	1259.47
755.572	1252.07
756.013	1254.28
756.453	1258.17
756.894	1252.47
757.335	1252.78
757.776	1233.78
758.216	1239.97
758.657	1238.97
759.098	1225.38
759.538	1233.67
759.979	1225.17
760.42	1224.67
760.86	1216.38
761.301	1211.67
761.741	1215.57
762.182	1208.38
762.622	1209.28
763.063	1186.88
763.503	1193.38
763.943	1182.67
764.384	1189.38
764.824	1178.57
765.264	1176.47
765.705	1182.38
766.145	1164.47
766.585	1173.78
767.025	1160.17
767.465	1157.17
767.906	1158.57
768.346	1158.07
768.786	1146.97
769.226	1134.28
769.666	1134.97
770.106	1133.38
770.546	1136.38
770.986	1117.28
771.426	1124.78
771.866	1113.88
772.306	1107.47
772.745	1109.78
773.185	1116.47
773.625	1104.47
774.065	1089.97
774.505	1096.78
774.944	1097.28
775.384	1077.67
775.824	1086.38
776.263	1085.47
776.703	1075.07
777.142	1077.38
777.582	1074.67
778.021	1081.47
778.461	1070.97
778.9	1064.17
779.34	1057.97
779.779	1053.28
780.219	1046.57
780.658	1055.07
781.097	1048.28
781.537	1046.47
781.976	1057.38
782.415	1043.97
782.855	1040.07
783.294	1044.17
783.733	1035.17
784.172	1047.67
784.611	1027.78
785.05	1031.57
785.489	1033.88
785.928	1018.48
786.367	1017.37
786.806	1008.77
787.245	1021.87
787.684	1020.87
788.123	1007.07
788.562	1014.77
789.001	1012.27
789.44	1012.98
789.879	1010.07
790.317	1014.87
790.756	1023.77
791.195	1019.67
791.634	999.27
792.072	992.37
792.511	1001.77
792.95	1009.98
793.388	1002.98
793.827	1006.37
794.265	999.87
794.704	993.57
795.142	1001.57
795.581	1004.98
796.019	999.27
796.458	1000.77
796.896	1002.67
797.334	990.67
797.773	993.87
798.211	999.77
798.649	1007.17
799.087	1000.57
799.526	1004.98
799.964	1001.17
800.402	1002.77
800.84	1007.57
801.278	1007.67
801.716	1012.48
802.154	1013.27
802.592	1012.17
803.03	1019.77
803.468	1012.37
803.906	1019.17
804.344	1024.17
804.782	1005.57
805.22	1014.37
805.658	1030.28
806.096	1015.07
806.533	1031.28
806.971	1047.17
807.409	1035.38
807.847	1044.38
808.284	1036.67
808.722	1036.97
809.16	1050.57
809.597	1066.07
810.035	1062.97
810.472	1063.57
810.91	1057.88
811.347	1065.57
811.785	1071.47
812.222	1069.67
812.66	1082.47
813.097	1074.78
813.535	1083.88
813.972	1088.57
814.409	1098.78
814.846	1101.57
815.284	1122.67
815.721	1130.47
816.158	1108.78
816.595	1111.57
817.032	1124.88
817.47	1128.57
817.907	1136.17
818.344	1147.67
818.781	1146.38
819.218	1161.17
819.655	1147.88
820.092	1162.07
820.529	1158.47
820.966	1173.78
821.403	1191.38
821.839	1178.47
822.276	1191.07
822.713	1196.38
823.15	1206.07
823.587	1213.97
824.023	1219.88
824.46	1216.07
824.897	1229.28
825.333	1225.78
825.77	1236.78
826.206	1239.97
826.643	1243.47
827.08	1261.47
827.516	1262.17
827.953	1259.07
828.389	1282.28
828.825	1269.57
829.262	1291.57
829.698	1285.97
830.135	1292.67
830.571	1295.78
831.007	1299.97
831.443	1299.78
831.88	1297.97
832.316	1314.67
832.752	1321.47
833.188	1319.47
833.624	1324.07
834.06	1333.57
834.497	1314.88
834.933	1346.78
835.369	1332.67
835.805	1335.78
836.241	1339.07
836.677	1350.38
837.112	1344.88
837.548	1348.57
837.984	1357.88
838.42	1356.88
838.856	1363.97
839.292	1367.57
839.727	1371.47
840.163	1352.07
840.599	1358.88
841.034	1352.38
841.47	1352.38
841.906	1367.88
842.341	1369.78
842.777	1362.97
843.212	1366.38
843.648	1366.38
844.083	1364.57
844.519	1353.07
844.954	1362.38
845.39	1364.97
845.825	1363.28
846.261	1371.17
846.696	1365.17
847.131	1359.88
847.566	1372.07
848.002	1366.97
848.437	1374.07
848.872	1371.47
849.307	1381.57
849.742	1371.88
850.177	1360.47
850.613	1366.38
851.048	1350.07
851.483	1372.67
851.918	1366.78
852.353	1360.78
852.788	1367.88
853.223	1348.88
853.657	1372.28
854.092	1370.47
854.527	1344.88
854.962	1359.97
855.397	1347.67
855.832	1348.97
856.266	1348.38
856.701	1374.07
857.136	1354.17
857.57	1358.67
858.005	1360.97
858.44	1357.07
858.874	1359.67
859.309	1360.47
859.743	1337.38
860.178	1351.67
860.612	1353.28
861.047	1364.57
861.481	1356.38
861.915	1363.67
862.35	1352.88
862.784	1347.38
863.218	1344.07
863.653	1347.57
864.087	1353.17
864.521	1336.88
864.955	1341.38
865.39	1345.38
865.824	1345.38
866.258	1345.47
866.692	1347.28
867.126	1353.07
867.56	1351.47
867.994	1358.17
868.428	1348.67
868.862	1342.88
869.296	1331.38
869.73	1354.17
870.164	1343.88
870.598	1332.88
871.031	1350.07
871.465	1335.88
871.899	1341.57
872.333	1340.47
872.766	1329.28
873.2	1347.57
873.634	1348.47
874.067	1343.47
874.501	1336.07
874.935	1332.88
875.368	1328.78
875.802	1327.67
876.235	1323.78
876.669	1333.28
877.102	1324.67
877.535	1314.67
877.969	1324.88
878.402	1332.07
878.836	1319.17
879.269	1332.38
879.702	1312.57
880.135	1312.17
880.569	1298.67
881.002	1311.78
881.435	1309.78
881.868	1300.17
882.301	1303.38
882.734	1298.97
883.167	1296.38
883.601	1298.57
884.034	1285.28
884.467	1286.28
884.899	1282.78
885.332	1280.57
885.765	1270.28
886.198	1275.67
886.631	1276.47
887.064	1273.78
887.497	1264.38
887.929	1264.67
888.362	1253.47
888.795	1254.07
889.228	1264.17
889.66	1253.88
890.093	1234.67
890.526	1250.17
890.958	1237.97
891.391	1236.07
891.823	1237.17
892.256	1249.67
892.688	1229.78
893.121	1226.78
893.553	1215.88
893.985	1217.88
894.418	1219.17
894.85	1205.57
895.282	1206.47
895.715	1202.78
896.147	1187.47
896.579	1198.07
897.011	1194.97
897.444	1195.07
897.876	1177.28
898.308	1187.78
898.74	1174.57
899.172	1172.88
899.604	1172.28
900.036	1167.28
900.468	1167.88
900.9	1169.67
901.332	1158.88
901.764	1156.38
902.196	1155.88
902.628	1139.97
903.06	1150.28
903.491	1148.97
903.923	1142.38
904.355	1137.28
904.787	1135.57
905.218	1132.57
905.65	1129.88
906.082	1109.07
906.513	1113.78
906.945	1118.57
907.376	1115.57
907.808	1110.57
908.239	1114.47
908.671	1101.97
909.102	1106.97
909.534	1097.67
909.965	1087.57
910.397	1085.38
910.828	1099.07
911.259	1079.57
911.691	1086.28
912.122	1087.57
912.553	1074.88
912.984	1074.88
913.415	1068.28
913.847	1071.97
914.278	1060.07
914.709	1054.47
915.14	1055.28
915.571	1046.97
916.002	1047.88
916.433	1045.17
916.864	1037.88
917.295	1040.07
917.726	1036.17
918.157	1029.88
918.587	1037.57
919.018	1031.28
919.449	1020.37
919.88	1004.67
920.311	1005.07
920.741	1000.27
921.172	1001.57
921.603	998.07
922.033	1001.77
922.464	996.48
922.895	992.87
923.325	983.98
923.756	992.57
924.186	983.87
924.617	983.17
925.047	981.27
925.478	980.87
925.908	986.57
926.338	977.17
926.769	975.17
927.199	973.67
927.629	977.57
928.06	979.37
928.49	989.77
928.92	1001.77
929.35	986.07
929.78	987.77
930.21	984.27
930.641	985.67
931.071	989.98
931.501	993.57
931.931	996.98
932.361	974.87
932.791	985.17
933.221	982.07
933.651	984.37
934.08	982.07
934.51	961.57
934.94	977.37
935.37	972.17
935.8	969.87
936.229	960.48
936.659	961.98
937.089	958.98
937.519	948.87
937.948	947.67
938.378	941.37
938.807	937.48
939.237	927.57
939.666	929.77
940.096	922.98
940.525	915.87
940.955	923.67
941.384	897.07
941.814	896.07
942.243	896.48
942.672	886.07
943.102	892.67
943.531	880.48
943.96	878.27
944.39	873.67
944.819	864.87
945.248	857.27
945.677	849.48
946.106	848.17
946.535	851.07
946.964	843.48
947.393	830.37
947.822	835.98
948.251	826.48
948.68	826.17
949.109	817.48
949.538	802.77
949.967	809.57
950.396	813.48
950.825	795.37
951.254	782.77
951.682	768.48
952.111	769.67
952.54	771.77
952.969	757.37
953.397	756.87
953.826	753.57
954.254	741.98
954.683	735.77
955.112	730.17
955.54	734.57
955.969	731.17
956.397	725.57
956.826	717.17
957.254	703.37
957.682	712.87
958.111	710.57
958.539	693.07
958.967	691.27
959.396	677.98
959.824	680.17
960.252	675.07
960.68	656.87
961.109	665.98
961.537	655.98
961.965	659.27
962.393	650.37
962.821	651.48
963.249	628.48
963.677	636.27
964.105	632.77
964.533	617.27
964.961	619.27
965.389	603.07
965.817	609.87
966.245	590.77
966.672	600.37
967.1	595.67
967.528	570.57
967.956	582.98
968.383	578.67
968.811	572.57
969.239	575.57
969.666	562.48
970.094	566.67
970.522	548.67
970.949	534.87
971.377	547.07
971.804	544.17
972.232	532.37
972.659	530.98
973.087	523.17
973.514	521.37
973.941	521.17
974.369	518.87
974.796	499.87
975.223	503.48
975.651	506.87
976.078	497.67
976.505	494.98
976.932	495.07
977.359	487.87
977.786	493.07
978.214	484.98
978.641	483.87
979.068	477.07
979.495	467.87
979.922	465.37
980.349	467.48
980.776	461.98
981.202	460.17
981.629	445.37
982.056	451.17
982.483	447.87
982.91	446.37
983.337	447.17
983.763	441.07
984.19	438.48
984.617	440.98
985.043	433.98
985.47	425.37
985.897	426.37
986.323	419.37
986.75	408.67
987.176	410.17
987.603	405.57
988.029	405.17
988.456	400.27
988.882	392.67
989.308	393.98
989.735	390.77
990.161	386.27
990.587	389.27
991.014	380.98
991.44	384.67
991.866	371.37
992.292	374.17
992.719	367.77
993.145	363.17
993.571	363.17
993.997	354.87
994.423	359.77
994.849	347.07
995.275	347.37
995.701	354.97
996.127	353.57
996.553	345.37
996.979	345.07
997.405	340.97
997.83	330.37
998.256	341.97
998.682	331.77
999.108	331.67
999.534	330.67
999.959	331.47
1000.385	331.17
1000.811	326.27
1001.236	331.57
1001.662	325.57
1002.087	331.47
1002.513	332.07
1002.938	320.27
1003.364	336.87
1003.789	326.77
1004.215	325.97
1004.64	327.07
1005.066	322.87
1005.491	337.17
1005.916	329.67
1006.342	326.77
1006.767	332.67
1007.192	326.47
1007.617	323.77
1008.042	330.27
1008.468	320.87
1008.893	331.47
1009.318	325.77
1009.743	323.87
1010.168	320.37
1010.593	321.07
1011.018	310.37
1011.443	307.07
1011.868	308.77
1012.293	299.87
1012.718	301.77
1013.143	297.87
1013.567	292.97
1013.992	291.57
1014.417	289.27
1014.842	287.77
1015.267	282.57
1015.691	275.47
1016.116	273.07
1016.541	271.27
1016.965	269.57
1017.39	255.87
1017.814	260.87
1018.239	262.87
1018.663	250.07
1019.088	247.87
1019.512	245.57
1019.937	243.67
1020.361	239.07
1020.785	243.97
1021.21	240.27
1021.634	234.47
1022.058	231.87
1022.483	236.17
1022.907	226.67
1023.331	230.67
1023.755	227.67
1024.179	227.57
1024.604	219.97
1025.028	223.27
1025.452	216.87
1025.876	204.87
1026.3	212.57
1026.724	208.17
1027.148	206.27
1027.572	209.67
1027.996	202.17
1028.42	203.47
1028.843	201.97
1029.267	198.57
1029.691	201.67
1030.115	187.57
1030.539	192.97
1030.962	194.57
1031.386	182.57
1031.81	190.27
1032.233	188.57
1032.657	191.67
1033.08	183.67
1033.504	177.47
1033.927	181.67
1034.351	179.77
1034.774	179.57
1035.198	186.07
1035.621	180.67
1036.045	169.77
1036.468	172.27
1036.891	173.07
1037.315	167.07
1037.738	168.77
1038.161	169.27
1038.584	170.17
1039.008	167.07
1039.431	169.77
1039.854	167.57
1040.277	162.17
1040.7	161.97
1041.123	163.87
1041.546	155.97
1041.969	159.67
1042.392	152.97
1042.815	154.07
1043.238	161.07
1043.661	158.07
1044.084	153.77
1044.507	154.07
1044.93	154.77
1045.352	150.87
1045.775	153.27
1046.198	150.87
1046.621	149.67
1047.043	151.27
1047.466	144.77
1047.889	144.97
1048.311	147.87
1048.734	142.37
1049.156	140.67
1049.579	138.07
1050.001	136.37
1050.424	139.67
1050.846	134.47
1051.269	140.07
1051.691	136.97
1052.113	137.27
1052.536	134.67
1052.958	133.47
1053.38	137.97
1053.802	135.47
1054.225	131.17
1054.647	130.37
1055.069	130.47
1055.491	133.57
1055.913	127.57
1056.335	129.77
1056.757	131.37
1057.179	125.97
1057.601	127.77
1058.023	128.77
1058.445	126.17
1058.867	121.87
1059.289	126.07
1059.711	121.57
1060.133	126.77
1060.555	120.67
1060.976	117.47
1061.398	120.77
1061.82	116.87
1062.241	115.67
1062.663	117.57
1063.085	120.67
1063.506	120.37
1063.928	122.67
1064.35	116.47
1064.771	118.37
1065.193	113.57
1065.614	110.67
1066.035	113.27
1066.457	111.37
1066.878	111.77
1067.3	113.27
1067.721	115.27
1068.142	111.67
1068.564	108.97
1068.985	111.87
1069.406	112.37
1069.827	118.27
1070.248	111.27
1070.67	113.67
1071.091	108.47
1071.512	113.57
1071.933	107.07
1072.354	108.87
1072.775	107.77
1073.196	112.47
1073.617	106.37
1074.038	103.77
1074.459	113.17
1074.88	108.57
1075.3	102.77
1075.721	105.77
1076.142	106.17
1076.563	105.97
1076.983	111.27
1077.404	111.67
1077.825	113.37
1078.246	106.57
1078.666	111.17
1079.087	110.67
1079.507	111.27
1079.928	112.17
1080.348	108.67
1080.769	105.37
1081.189	112.17
1081.61	103.67
1082.03	106.87
1082.451	106.17
1082.871	109.37
1083.291	105.17
1083.711	105.57
1084.132	108.27
1084.552	109.47
1084.972	106.17
1085.392	102.47
1085.813	104.37
1086.233	100.57
1086.653	105.37
1087.073	101.17
1087.493	106.57
1087.913	104.17
1088.333	103.37
1088.753	99.27
1089.173	107.07
1089.593	100.87
1090.013	100.87
1090.433	100.57
1090.852	99.87
1091.272	98.57
1091.692	103.87
1092.112	97.87
1092.531	101.97
1092.951	99.57
1093.371	96.57
1093.79	95.47
1094.21	94.77
1094.63	102.17
1095.049	101.57
1095.469	94.97
1095.888	92.07
1096.308	96.37
1096.727	99.57
1097.146	94.77
1097.566	97.27
1097.985	95.57
1098.405	96.37
1098.824	94.27
1099.243	95.37
1099.662	95.27
1100.082	93.37
1100.501	95.67
1100.92	95.17
1101.339	93.57
1101.758	94.97
