Data from DH-3PlusCalLight-Background_HRD10391_13-34-12-128.txt Node
Date: Thu Feb 15 13:34:12 EST 2018
User: Ender
Spectrometer: HR+D1039
Trigger mode: 0
Integration Time (sec): 2.730000E-2
Scans to average: 10
Electric dark correction enabled: true
Nonlinearity correction enabled: false
Boxcar width: 0
XAxis mode: Wavelengths
Number of Pixels in Spectrum: 2048
>>>>>Begin Spectral Data<<<<<
187.836	2.86
188.309	2.86
188.782	2.86
189.255	1.66
189.728	-3.64
190.201	-7.14
190.674	-9.24
191.147	-7.54
191.619	-6.94
192.092	-9.84
192.565	-1.34
193.038	-6.64
193.511	-0.64
193.984	-2.04
194.456	7.06
194.929	9.86
195.402	13.86
195.874	19.66
196.347	20.86
196.82	22.26
197.292	26.76
197.765	31.66
198.237	38.76
198.71	38.36
199.182	49.56
199.655	49.96
200.127	52.26
200.6	58.16
201.072	57.86
201.544	59.06
202.017	66.56
202.489	64.16
202.961	70.06
203.433	73.86
203.906	70.56
204.378	75.76
204.85	77.36
205.322	80.96
205.794	81.86
206.266	82.06
206.739	80.56
207.211	82.16
207.683	82.36
208.155	86.36
208.627	85.66
209.099	86.56
209.57	91.96
210.042	83.26
210.514	85.66
210.986	86.86
211.458	84.46
211.93	85.56
212.402	81.76
212.873	81.76
213.345	84.86
213.817	86.06
214.288	86.46
214.76	79.46
215.232	88.06
215.703	85.26
216.175	86.66
216.646	79.16
217.118	84.96
217.589	82.66
218.061	81.46
218.532	84.56
219.004	79.06
219.475	83.96
219.946	77.46
220.418	70.86
220.889	77.86
221.36	79.06
221.832	73.76
222.303	78.36
222.774	74.06
223.245	77.06
223.717	75.36
224.188	79.76
224.659	79.36
225.13	80.56
225.601	82.56
226.072	80.06
226.543	77.26
227.014	73.56
227.485	76.96
227.956	80.96
228.427	75.36
228.898	82.76
229.369	72.16
229.839	74.76
230.31	75.76
230.781	79.96
231.252	79.86
231.722	77.26
232.193	81.36
232.664	78.86
233.135	79.16
233.605	80.26
234.076	77.36
234.546	77.36
235.017	79.26
235.487	79.46
235.958	76.26
236.428	81.56
236.899	78.56
237.369	83.76
237.84	80.86
238.31	84.26
238.78	81.76
239.251	76.46
239.721	82.16
240.191	83.06
240.662	84.26
241.132	77.76
241.602	83.16
242.072	84.96
242.542	77.46
243.013	79.56
243.483	81.76
243.953	79.66
244.423	82.16
244.893	81.36
245.363	81.66
245.833	78.66
246.303	75.66
246.773	78.76
247.243	82.06
247.712	79.86
248.182	81.96
248.652	84.66
249.122	83.06
249.592	81.26
250.061	83.76
250.531	75.66
251.001	78.06
251.471	83.06
251.94	84.86
252.41	83.76
252.879	79.66
253.349	84.96
253.818	78.56
254.288	84.86
254.757	80.96
255.227	80.66
255.696	77.96
256.166	86.66
256.635	85.86
257.105	87.06
257.574	86.86
258.043	84.46
258.513	82.36
258.982	86.16
259.451	84.66
259.92	84.76
260.389	77.16
260.859	81.86
261.328	81.86
261.797	80.16
262.266	81.56
262.735	81.36
263.204	83.76
263.673	83.06
264.142	81.06
264.611	81.46
265.08	81.66
265.549	82.56
266.018	81.86
266.487	81.46
266.955	83.96
267.424	81.26
267.893	78.96
268.362	81.76
268.83	78.96
269.299	86.36
269.768	85.96
270.236	82.36
270.705	85.86
271.174	83.66
271.642	84.56
272.111	83.16
272.579	86.36
273.048	85.16
273.516	85.46
273.985	80.86
274.453	83.26
274.922	82.96
275.39	87.46
275.858	83.16
276.327	81.06
276.795	83.46
277.263	85.86
277.731	80.86
278.2	80.16
278.668	84.76
279.136	85.96
279.604	81.16
280.072	85.06
280.54	81.86
281.008	82.56
281.477	83.56
281.945	83.36
282.413	82.36
282.881	84.46
283.348	86.36
283.816	85.56
284.284	82.86
284.752	81.96
285.22	82.26
285.688	85.56
286.156	82.36
286.623	84.66
287.091	82.06
287.559	87.56
288.026	82.96
288.494	82.86
288.962	85.06
289.429	87.16
289.897	79.86
290.364	82.26
290.832	84.66
291.3	87.16
291.767	85.46
292.234	83.76
292.702	87.36
293.169	77.56
293.637	86.66
294.104	84.06
294.571	80.96
295.039	81.06
295.506	79.96
295.973	84.66
296.44	85.56
296.908	88.66
297.375	84.36
297.842	90.16
298.309	85.36
298.776	85.96
299.243	78.16
299.71	89.16
300.177	82.26
300.644	79.46
301.111	82.26
301.578	82.26
302.045	88.26
302.512	84.06
302.979	85.46
303.446	83.66
303.913	84.96
304.379	84.96
304.846	87.36
305.313	88.56
305.78	82.86
306.246	86.76
306.713	84.66
307.18	86.16
307.646	80.86
308.113	83.76
308.579	85.16
309.046	85.36
309.512	84.86
309.979	85.16
310.445	82.96
310.912	89.36
311.378	87.66
311.845	85.06
312.311	84.06
312.777	86.06
313.244	84.66
313.71	87.56
314.176	81.86
314.642	86.16
315.109	82.46
315.575	88.36
316.041	79.86
316.507	86.46
316.973	84.26
317.439	85.36
317.905	82.56
318.371	80.06
318.837	80.66
319.303	88.96
319.769	89.46
320.235	89.76
320.701	83.46
321.167	86.36
321.633	86.16
322.099	83.36
322.564	84.36
323.03	84.46
323.496	81.96
323.962	80.86
324.427	85.36
324.893	79.66
325.359	86.46
325.824	79.76
326.29	86.76
326.755	84.86
327.221	83.86
327.686	82.46
328.152	86.46
328.617	86.06
329.083	84.56
329.548	89.86
330.014	85.26
330.479	87.06
330.944	86.36
331.41	89.46
331.875	83.76
332.34	83.36
332.805	84.06
333.271	85.36
333.736	86.36
334.201	82.16
334.666	84.66
335.131	81.76
335.596	85.26
336.061	90.46
336.526	83.06
336.991	90.96
337.456	84.66
337.921	81.76
338.386	85.96
338.851	88.16
339.316	84.06
339.781	90.56
340.246	89.96
340.711	82.06
341.175	84.46
341.64	91.06
342.105	88.16
342.569	80.56
343.034	86.06
343.499	87.26
343.963	89.26
344.428	90.66
344.893	92.06
345.357	84.36
345.822	79.96
346.286	87.46
346.751	83.16
347.215	86.66
347.679	83.66
348.144	87.66
348.608	81.46
349.073	81.36
349.537	83.86
350.001	89.86
350.465	89.36
350.93	85.16
351.394	85.26
351.858	84.26
352.322	85.16
352.786	86.26
353.25	89.06
353.715	85.56
354.179	88.86
354.643	89.16
355.107	87.76
355.571	84.36
356.035	86.06
356.498	90.56
356.962	81.36
357.426	82.76
357.89	88.26
358.354	83.16
358.818	83.96
359.281	82.26
359.745	83.36
360.209	86.66
360.673	84.66
361.136	84.56
361.6	80.86
362.064	85.96
362.527	86.66
362.991	84.76
363.454	78.66
363.918	83.66
364.381	89.06
364.845	89.06
365.308	83.56
365.772	84.56
366.235	90.36
366.698	88.46
367.162	88.26
367.625	83.46
368.088	85.46
368.552	90.06
369.015	81.96
369.478	85.76
369.941	85.26
370.404	91.16
370.867	87.66
371.331	84.96
371.794	86.96
372.257	86.96
372.72	92.96
373.183	86.76
373.646	83.86
374.109	81.86
374.572	85.46
375.035	87.56
375.497	88.56
375.96	85.26
376.423	90.56
376.886	85.56
377.349	88.36
377.811	86.86
378.274	87.06
378.737	84.66
379.199	83.36
379.662	87.76
380.125	84.96
380.587	84.96
381.05	85.96
381.512	81.26
381.975	82.26
382.437	81.16
382.9	86.16
383.362	86.86
383.825	85.56
384.287	87.56
384.75	85.46
385.212	86.36
385.674	85.26
386.136	86.16
386.599	83.86
387.061	85.66
387.523	85.06
387.985	86.46
388.447	89.96
388.91	85.76
389.372	86.46
389.834	88.56
390.296	91.56
390.758	92.26
391.22	86.96
391.682	85.36
392.144	87.56
392.606	83.06
393.068	82.76
393.529	91.56
393.991	87.26
394.453	86.16
394.915	86.36
395.377	86.26
395.838	87.76
396.3	85.46
396.762	86.36
397.224	84.26
397.685	82.16
398.147	84.86
398.608	88.76
399.07	83.96
399.531	88.56
399.993	83.66
400.454	82.26
400.916	83.56
401.377	86.06
401.839	89.26
402.3	85.96
402.762	82.06
403.223	82.46
403.684	87.76
404.145	86.26
404.607	85.66
405.068	84.46
405.529	84.86
405.99	83.36
406.451	82.16
406.913	85.06
407.374	82.66
407.835	84.46
408.296	86.86
408.757	82.26
409.218	87.06
409.679	83.86
410.14	84.16
410.601	85.86
411.062	87.46
411.522	85.16
411.983	86.46
412.444	81.96
412.905	85.66
413.366	87.66
413.826	86.26
414.287	89.66
414.748	88.76
415.208	91.86
415.669	85.66
416.13	85.76
416.59	83.76
417.051	83.36
417.511	83.76
417.972	79.76
418.432	87.66
418.893	86.76
419.353	86.66
419.814	82.76
420.274	85.56
420.734	84.16
421.195	85.66
421.655	83.86
422.115	85.26
422.576	86.26
423.036	87.56
423.496	83.56
423.956	86.36
424.416	82.86
424.876	85.26
425.336	86.96
425.797	87.16
426.257	85.16
426.717	84.76
427.177	84.86
427.637	84.26
428.097	85.66
428.556	85.86
429.016	89.36
429.476	86.66
429.936	91.76
430.396	84.96
430.856	79.96
431.315	83.16
431.775	83.86
432.235	86.36
432.694	91.36
433.154	86.56
433.614	88.26
434.073	87.06
434.533	85.76
434.993	82.16
435.452	87.86
435.912	86.36
436.371	84.56
436.83	85.66
437.29	81.46
437.749	79.26
438.209	88.36
438.668	83.86
439.127	80.86
439.587	85.46
440.046	79.96
440.505	80.66
440.964	83.26
441.424	84.96
441.883	85.66
442.342	86.56
442.801	78.56
443.26	87.46
443.719	85.86
444.178	80.46
444.637	84.96
445.096	87.36
445.555	85.86
446.014	88.46
446.473	86.66
446.932	82.16
447.391	85.26
447.849	85.06
448.308	83.26
448.767	84.86
449.226	80.86
449.685	81.46
450.143	83.16
450.602	86.76
451.061	83.16
451.519	84.06
451.978	80.66
452.436	85.76
452.895	80.86
453.353	82.96
453.812	85.76
454.27	79.56
454.729	80.96
455.187	83.36
455.646	87.16
456.104	83.16
456.562	84.86
457.021	82.76
457.479	84.86
457.937	86.76
458.395	83.26
458.854	82.76
459.312	80.06
459.77	83.76
460.228	82.96
460.686	87.46
461.144	87.56
461.602	88.36
462.06	83.46
462.518	83.06
462.976	86.36
463.434	82.76
463.892	87.36
464.35	82.66
464.808	85.26
465.266	87.66
465.724	81.56
466.181	86.16
466.639	82.46
467.097	87.16
467.555	84.96
468.012	84.76
468.47	88.86
468.928	87.06
469.385	83.96
469.843	76.76
470.3	87.46
470.758	83.16
471.215	86.36
471.673	85.66
472.13	84.96
472.588	82.06
473.045	84.26
473.503	85.36
473.96	81.56
474.417	78.36
474.875	82.96
475.332	85.96
475.789	83.56
476.246	76.56
476.704	78.76
477.161	80.56
477.618	86.36
478.075	85.56
478.532	89.76
478.989	85.76
479.446	86.96
479.903	86.86
480.36	83.06
480.817	85.86
481.274	82.46
481.731	83.76
482.188	87.66
482.645	83.36
483.102	81.56
483.558	83.16
484.015	79.46
484.472	87.66
484.929	87.16
485.385	85.76
485.842	82.06
486.299	83.66
486.755	80.16
487.212	83.06
487.668	91.06
488.125	83.36
488.582	83.06
489.038	82.76
489.494	80.66
489.951	81.06
490.407	82.16
490.864	80.06
491.32	81.66
491.776	81.96
492.233	83.66
492.689	81.26
493.145	83.16
493.602	84.06
494.058	82.66
494.514	81.76
494.97	86.16
495.426	80.36
495.882	89.16
496.338	86.26
496.794	88.26
497.251	88.36
497.707	84.36
498.163	85.96
498.618	80.16
499.074	84.76
499.53	80.06
499.986	85.36
500.442	82.36
500.898	83.96
501.354	82.56
501.809	82.66
502.265	83.86
502.721	86.16
503.177	84.06
503.632	86.26
504.088	83.16
504.543	84.96
504.999	82.26
505.455	83.26
505.91	83.06
506.366	85.66
506.821	78.16
507.277	84.76
507.732	86.66
508.187	85.26
508.643	82.06
509.098	83.56
509.553	82.86
510.009	79.86
510.464	82.96
510.919	85.86
511.375	85.06
511.83	80.76
512.285	85.16
512.74	80.36
513.195	85.36
513.65	82.36
514.105	85.86
514.56	87.76
515.015	82.96
515.47	88.56
515.925	86.96
516.38	85.26
516.835	84.26
517.29	76.66
517.745	77.56
518.2	78.16
518.655	84.16
519.109	85.06
519.564	87.46
520.019	84.56
520.474	81.26
520.928	82.06
521.383	82.66
521.838	84.26
522.292	81.96
522.747	83.96
523.201	84.96
523.656	82.86
524.11	87.26
524.565	81.16
525.019	81.16
525.474	79.56
525.928	79.36
526.382	81.96
526.837	84.46
527.291	78.16
527.745	80.06
528.2	80.36
528.654	84.36
529.108	81.16
529.562	86.76
530.016	84.36
530.47	82.36
530.925	85.56
531.379	84.56
531.833	84.76
532.287	81.86
532.741	76.96
533.195	81.66
533.649	88.26
534.103	86.36
534.556	86.46
535.01	89.66
535.464	82.36
535.918	78.16
536.372	83.46
536.826	81.16
537.279	84.16
537.733	81.16
538.187	88.06
538.64	78.96
539.094	86.16
539.548	83.46
540.001	84.16
540.455	85.36
540.908	80.06
541.362	82.06
541.815	83.96
542.269	82.36
542.722	83.86
543.175	85.26
543.629	80.86
544.082	86.86
544.536	81.46
544.989	87.86
545.442	83.66
545.895	84.16
546.349	85.66
546.802	83.86
547.255	85.46
547.708	82.86
548.161	81.86
548.614	83.36
549.067	81.56
549.52	80.66
549.973	84.56
550.426	81.96
550.879	84.86
551.332	81.76
551.785	81.26
552.238	85.16
552.691	83.86
553.144	80.56
553.596	79.96
554.049	79.36
554.502	80.76
554.955	82.26
555.407	82.86
555.86	78.16
556.313	84.96
556.765	85.06
557.218	86.66
557.67	86.16
558.123	81.96
558.576	85.16
559.028	83.96
559.48	82.06
559.933	84.56
560.385	84.16
560.838	80.86
561.29	84.36
561.742	84.16
562.195	84.96
562.647	79.66
563.099	77.86
563.551	80.96
564.004	81.96
564.456	77.16
564.908	85.56
565.36	83.36
565.812	86.86
566.264	84.56
566.716	84.86
567.168	73.36
567.62	82.86
568.072	83.16
568.524	77.06
568.976	83.36
569.428	82.66
569.88	86.96
570.332	79.66
570.784	82.06
571.235	77.86
571.687	83.56
572.139	81.86
572.59	87.36
573.042	82.46
573.494	82.56
573.945	89.06
574.397	80.46
574.849	80.76
575.3	85.66
575.752	79.26
576.203	82.76
576.655	81.36
577.106	81.46
577.557	81.36
578.009	80.86
578.46	77.96
578.912	81.66
579.363	86.06
579.814	82.16
580.265	84.06
580.717	81.86
581.168	82.76
581.619	83.46
582.07	83.96
582.521	78.66
582.972	83.26
583.423	82.86
583.875	83.56
584.326	80.66
584.777	80.76
585.227	86.16
585.678	82.36
586.129	82.46
586.58	81.16
587.031	82.06
587.482	83.06
587.933	83.56
588.384	82.76
588.834	85.46
589.285	80.26
589.736	77.66
590.186	80.66
590.637	80.96
591.088	84.86
591.538	82.46
591.989	83.16
592.439	85.06
592.89	85.26
593.34	80.46
593.791	83.86
594.241	87.16
594.692	78.46
595.142	82.56
595.593	84.66
596.043	81.26
596.493	86.36
596.943	80.86
597.394	88.06
597.844	81.16
598.294	82.46
598.744	85.26
599.195	86.36
599.645	83.26
600.095	76.66
600.545	85.86
600.995	85.86
601.445	86.86
601.895	81.76
602.345	85.46
602.795	80.56
603.245	84.56
603.695	85.86
604.145	87.26
604.594	85.06
605.044	85.96
605.494	88.46
605.944	82.36
606.393	87.26
606.843	86.46
607.293	83.96
607.743	92.26
608.192	83.66
608.642	84.06
609.091	79.36
609.541	86.46
609.99	84.46
610.44	84.06
610.889	83.96
611.339	78.76
611.788	87.56
612.238	80.26
612.687	80.56
613.136	82.06
613.586	84.06
614.035	84.36
614.484	84.96
614.933	84.06
615.383	80.06
615.832	82.16
616.281	80.86
616.73	87.86
617.179	83.26
617.628	87.76
618.077	81.66
618.526	82.46
618.975	81.96
619.424	85.26
619.873	86.56
620.322	84.16
620.771	85.86
621.22	86.66
621.669	87.86
622.118	84.46
622.567	85.06
623.015	83.66
623.464	83.16
623.913	85.46
624.361	84.26
624.81	81.96
625.259	88.46
625.707	85.56
626.156	89.26
626.604	87.36
627.053	83.96
627.501	85.56
627.95	86.36
628.398	85.16
628.847	82.06
629.295	83.56
629.744	85.46
630.192	85.76
630.64	83.56
631.089	85.36
631.537	87.36
631.985	80.16
632.433	83.66
632.881	89.36
633.33	83.06
633.778	85.26
634.226	84.36
634.674	85.56
635.122	85.66
635.57	85.66
636.018	85.26
636.466	83.96
636.914	84.26
637.362	81.76
637.81	81.86
638.258	83.66
638.705	83.36
639.153	79.36
639.601	78.76
640.049	78.66
640.497	79.66
640.944	89.36
641.392	80.66
641.84	86.46
642.287	79.36
642.735	80.96
643.182	82.66
643.63	86.56
644.078	85.26
644.525	82.86
644.973	89.26
645.42	84.36
645.867	89.76
646.315	82.66
646.762	81.56
647.21	85.26
647.657	87.76
648.104	87.86
648.551	84.56
648.999	84.96
649.446	83.86
649.893	83.46
650.34	84.26
650.787	80.06
651.234	84.36
651.682	85.76
652.129	84.46
652.576	83.06
653.023	88.66
653.47	84.26
653.917	85.76
654.363	84.36
654.81	77.56
655.257	87.16
655.704	84.86
656.151	86.36
656.598	87.36
657.044	84.36
657.491	81.36
657.938	85.26
658.385	86.86
658.831	82.46
659.278	87.76
659.724	86.16
660.171	87.06
660.618	81.16
661.064	81.26
661.511	80.36
661.957	89.56
662.404	86.46
662.85	85.96
663.296	88.26
663.743	77.16
664.189	86.26
664.635	85.56
665.082	87.76
665.528	82.56
665.974	86.46
666.42	82.76
666.867	80.76
667.313	85.86
667.759	87.36
668.205	85.66
668.651	81.96
669.097	89.86
669.543	81.06
669.989	82.46
670.435	85.26
670.881	88.36
671.327	88.76
671.773	81.96
672.219	80.06
672.665	82.96
673.11	87.76
673.556	83.86
674.002	81.06
674.448	83.96
674.893	80.06
675.339	86.16
675.785	82.26
676.23	88.26
676.676	82.06
677.122	82.26
677.567	78.06
678.013	83.46
678.458	82.96
678.904	86.26
679.349	87.96
679.794	79.56
680.24	84.56
680.685	84.26
681.131	82.56
681.576	84.86
682.021	84.36
682.466	83.56
682.912	81.76
683.357	84.36
683.802	85.16
684.247	86.26
684.692	88.26
685.137	83.96
685.583	90.56
686.028	79.36
686.473	90.16
686.918	83.86
687.363	81.46
687.807	83.46
688.252	85.86
688.697	86.76
689.142	86.86
689.587	83.16
690.032	82.06
690.477	83.06
690.921	82.56
691.366	91.56
691.811	79.26
692.255	86.96
692.7	87.06
693.145	86.66
693.589	85.76
694.034	80.06
694.478	79.46
694.923	82.96
695.367	84.56
695.812	80.66
696.256	84.96
696.701	84.86
697.145	82.96
697.59	84.76
698.034	86.76
698.478	85.76
698.922	83.56
699.367	83.36
699.811	84.86
700.255	87.16
700.699	85.26
701.143	81.76
701.588	78.76
702.032	86.06
702.476	86.46
702.92	90.66
703.364	84.66
703.808	82.46
704.252	87.96
704.696	85.06
705.14	83.56
705.584	86.26
706.027	89.26
706.471	84.86
706.915	83.86
707.359	83.96
707.803	84.76
708.246	80.36
708.69	85.06
709.134	82.66
709.577	81.46
710.021	88.36
710.465	90.76
710.908	81.66
711.352	84.96
711.795	88.96
712.239	83.76
712.682	87.86
713.126	86.06
713.569	88.36
714.012	85.06
714.456	86.56
714.899	87.86
715.342	84.86
715.786	88.96
716.229	82.06
716.672	83.16
717.115	83.96
717.558	90.66
718.002	86.16
718.445	87.36
718.888	84.36
719.331	84.56
719.774	85.86
720.217	87.36
720.66	87.86
721.103	83.56
721.546	83.46
721.989	86.66
722.432	87.86
722.874	88.36
723.317	89.36
723.76	88.16
724.203	85.76
724.645	86.16
725.088	85.66
725.531	88.96
725.974	86.36
726.416	89.56
726.859	88.06
727.301	88.96
727.744	86.06
728.187	79.86
728.629	87.86
729.071	80.36
729.514	89.96
729.956	84.16
730.399	86.86
730.841	88.16
731.283	85.76
731.726	88.76
732.168	85.06
732.61	88.16
733.053	85.56
733.495	87.96
733.937	86.16
734.379	82.26
734.821	88.16
735.263	87.66
735.705	84.26
736.148	83.36
736.59	93.06
737.032	89.56
737.474	86.26
737.916	86.56
738.357	89.86
738.799	89.56
739.241	89.06
739.683	86.36
740.125	85.56
740.567	88.86
741.008	88.66
741.45	85.46
741.892	82.86
742.334	83.06
742.775	87.36
743.217	89.46
743.658	82.56
744.1	82.26
744.542	88.56
744.983	81.86
745.425	89.26
745.866	88.16
746.307	80.76
746.749	84.16
747.19	81.26
747.632	80.16
748.073	78.16
748.514	82.16
748.956	83.86
749.397	89.76
749.838	84.26
750.279	85.26
750.72	85.16
751.162	85.26
751.603	84.26
752.044	84.96
752.485	82.06
752.926	91.26
753.367	86.56
753.808	85.46
754.249	86.06
754.69	87.66
755.131	90.86
755.572	86.06
756.013	81.06
756.453	84.96
756.894	81.16
757.335	87.16
757.776	88.36
758.216	83.16
758.657	82.16
759.098	88.56
759.538	84.76
759.979	84.06
760.42	85.56
760.86	85.16
761.301	83.96
761.741	85.06
762.182	89.26
762.622	86.96
763.063	93.26
763.503	89.06
763.943	89.46
764.384	84.06
764.824	87.26
765.264	88.46
765.705	83.36
766.145	84.06
766.585	86.76
767.025	83.06
767.465	86.96
767.906	82.86
768.346	84.06
768.786	84.26
769.226	89.36
769.666	84.46
770.106	85.06
770.546	85.76
770.986	81.66
771.426	83.66
771.866	84.26
772.306	85.76
772.745	89.56
773.185	85.26
773.625	92.96
774.065	85.36
774.505	88.26
774.944	86.46
775.384	83.96
775.824	85.76
776.263	87.66
776.703	83.16
777.142	85.16
777.582	89.06
778.021	82.86
778.461	90.36
778.9	84.36
779.34	87.46
779.779	89.66
780.219	86.76
780.658	86.06
781.097	82.76
781.537	87.86
781.976	85.96
782.415	86.56
782.855	85.96
783.294	84.16
783.733	84.96
784.172	88.06
784.611	88.46
785.05	87.06
785.489	85.56
785.928	85.26
786.367	85.36
786.806	85.96
787.245	85.36
787.684	85.06
788.123	90.06
788.562	85.16
789.001	85.96
789.44	88.06
789.879	83.46
790.317	89.76
790.756	85.56
791.195	88.06
791.634	88.66
792.072	87.46
792.511	90.76
792.95	85.36
793.388	87.76
793.827	86.66
794.265	80.26
794.704	79.56
795.142	85.26
795.581	82.76
796.019	89.56
796.458	88.36
796.896	86.16
797.334	94.36
797.773	82.26
798.211	85.76
798.649	81.86
799.087	87.86
799.526	83.56
799.964	89.26
800.402	81.96
800.84	81.46
801.278	87.66
801.716	84.46
802.154	82.76
802.592	81.76
803.03	88.66
803.468	88.16
803.906	88.66
804.344	83.36
804.782	86.56
805.22	90.66
805.658	87.76
806.096	87.06
806.533	84.36
806.971	84.96
807.409	86.36
807.847	88.36
808.284	88.86
808.722	83.36
809.16	87.56
809.597	78.76
810.035	88.06
810.472	85.46
810.91	88.26
811.347	87.06
811.785	87.46
812.222	88.56
812.66	79.76
813.097	83.76
813.535	85.06
813.972	87.96
814.409	82.36
814.846	89.16
815.284	85.96
815.721	83.66
816.158	84.06
816.595	83.56
817.032	85.46
817.47	88.96
817.907	86.96
818.344	87.76
818.781	82.06
819.218	88.56
819.655	89.76
820.092	86.06
820.529	85.36
820.966	90.36
821.403	84.56
821.839	83.76
822.276	83.36
822.713	84.96
823.15	86.06
823.587	87.16
824.023	86.16
824.46	88.96
824.897	86.66
825.333	82.06
825.77	86.86
826.206	89.66
826.643	85.26
827.08	85.76
827.516	88.96
827.953	81.36
828.389	83.76
828.825	83.36
829.262	82.46
829.698	91.96
830.135	85.66
830.571	82.16
831.007	85.56
831.443	84.26
831.88	86.96
832.316	82.86
832.752	89.56
833.188	82.96
833.624	87.46
834.06	82.16
834.497	82.66
834.933	85.06
835.369	84.36
835.805	90.46
836.241	84.26
836.677	89.06
837.112	86.16
837.548	86.56
837.984	82.66
838.42	88.86
838.856	87.26
839.292	83.26
839.727	83.76
840.163	87.66
840.599	84.56
841.034	84.56
841.47	88.36
841.906	86.06
842.341	84.76
842.777	86.16
843.212	84.56
843.648	89.86
844.083	83.86
844.519	80.36
844.954	84.86
845.39	89.56
845.825	87.16
846.261	83.46
846.696	85.96
847.131	83.26
847.566	82.46
848.002	80.86
848.437	90.26
848.872	83.96
849.307	87.76
849.742	84.66
850.177	85.46
850.613	89.16
851.048	86.26
851.483	87.46
851.918	82.66
852.353	87.06
852.788	82.76
853.223	87.76
853.657	86.06
854.092	84.06
854.527	86.06
854.962	88.76
855.397	82.86
855.832	85.16
856.266	85.66
856.701	84.06
857.136	85.06
857.57	89.96
858.005	83.66
858.44	86.86
858.874	83.26
859.309	86.26
859.743	80.06
860.178	86.56
860.612	86.06
861.047	85.46
861.481	88.26
861.915	86.66
862.35	84.86
862.784	83.26
863.218	85.26
863.653	88.06
864.087	87.16
864.521	87.96
864.955	84.96
865.39	86.96
865.824	82.76
866.258	90.06
866.692	80.56
867.126	88.26
867.56	87.56
867.994	84.06
868.428	83.06
868.862	82.16
869.296	89.06
869.73	83.06
870.164	81.36
870.598	84.76
871.031	91.06
871.465	87.26
871.899	79.86
872.333	84.36
872.766	86.06
873.2	82.46
873.634	84.86
874.067	90.56
874.501	89.36
874.935	87.76
875.368	84.66
875.802	83.36
876.235	84.26
876.669	86.26
877.102	85.36
877.535	78.56
877.969	84.66
878.402	84.16
878.836	84.76
879.269	85.96
879.702	85.36
880.135	87.86
880.569	86.06
881.002	85.86
881.435	82.16
881.868	85.06
882.301	83.16
882.734	89.56
883.167	84.16
883.601	81.56
884.034	85.46
884.467	83.96
884.899	87.06
885.332	82.06
885.765	91.06
886.198	83.06
886.631	81.86
887.064	84.56
887.497	85.26
887.929	83.26
888.362	83.36
888.795	90.06
889.228	80.56
889.66	87.46
890.093	85.86
890.526	82.66
890.958	85.86
891.391	85.36
891.823	86.56
892.256	85.46
892.688	85.36
893.121	86.76
893.553	83.96
893.985	86.46
894.418	81.56
894.85	86.26
895.282	83.76
895.715	82.26
896.147	86.26
896.579	91.26
897.011	84.66
897.444	85.66
897.876	88.06
898.308	83.16
898.74	84.76
899.172	85.36
899.604	84.16
900.036	86.26
900.468	85.26
900.9	82.36
901.332	81.76
901.764	87.86
902.196	82.66
902.628	83.86
903.06	83.76
903.491	81.96
903.923	85.06
904.355	82.76
904.787	85.16
905.218	83.06
905.65	86.56
906.082	86.46
906.513	89.46
906.945	85.36
907.376	90.86
907.808	84.36
908.239	87.66
908.671	89.76
909.102	88.86
909.534	92.56
909.965	83.66
910.397	78.86
910.828	83.96
911.259	84.46
911.691	85.86
912.122	83.66
912.553	83.96
912.984	90.36
913.415	89.96
913.847	82.16
914.278	85.86
914.709	85.86
915.14	84.16
915.571	80.36
916.002	83.16
916.433	86.26
916.864	81.86
917.295	83.96
917.726	84.36
918.157	82.06
918.587	84.66
919.018	86.16
919.449	88.46
919.88	85.36
920.311	81.46
920.741	88.26
921.172	82.06
921.603	85.66
922.033	85.56
922.464	82.86
922.895	83.76
923.325	88.26
923.756	84.56
924.186	87.06
924.617	86.86
925.047	87.66
925.478	84.36
925.908	86.16
926.338	82.06
926.769	84.36
927.199	81.86
927.629	86.76
928.06	87.26
928.49	79.66
928.92	85.36
929.35	83.06
929.78	79.36
930.21	82.86
930.641	82.86
931.071	83.96
931.501	85.16
931.931	79.46
932.361	81.46
932.791	83.36
933.221	81.46
933.651	85.76
934.08	81.46
934.51	84.56
934.94	81.56
935.37	88.86
935.8	86.06
936.229	87.86
936.659	87.26
937.089	80.36
937.519	83.86
937.948	88.06
938.378	88.36
938.807	83.36
939.237	86.66
939.666	81.26
940.096	82.36
940.525	82.06
940.955	80.66
941.384	89.66
941.814	87.06
942.243	84.46
942.672	84.86
943.102	85.66
943.531	86.26
943.96	88.36
944.39	87.26
944.819	82.56
945.248	87.36
945.677	84.96
946.106	84.36
946.535	81.16
946.964	84.76
947.393	84.16
947.822	82.26
948.251	89.56
948.68	83.26
949.109	86.56
949.538	83.86
949.967	86.66
950.396	83.46
950.825	82.06
951.254	85.96
951.682	83.86
952.111	84.06
952.54	85.36
952.969	88.76
953.397	86.26
953.826	86.16
954.254	83.26
954.683	81.76
955.112	84.86
955.54	83.66
955.969	87.46
956.397	81.76
956.826	86.86
957.254	84.26
957.682	84.76
958.111	83.46
958.539	83.16
958.967	87.36
959.396	85.16
959.824	88.26
960.252	82.76
960.68	84.66
961.109	85.76
961.537	87.06
961.965	84.86
962.393	85.36
962.821	87.46
963.249	78.66
963.677	83.96
964.105	85.66
964.533	83.86
964.961	81.06
965.389	82.96
965.817	79.26
966.245	88.76
966.672	86.56
967.1	83.96
967.528	82.46
967.956	79.26
968.383	79.76
968.811	88.26
969.239	84.96
969.666	89.16
970.094	81.96
970.522	85.56
970.949	82.06
971.377	88.86
971.804	80.36
972.232	79.86
972.659	84.96
973.087	83.36
973.514	84.76
973.941	88.86
974.369	89.56
974.796	82.96
975.223	86.36
975.651	90.66
976.078	85.06
976.505	82.66
976.932	82.36
977.359	83.66
977.786	84.16
978.214	81.46
978.641	84.96
979.068	82.76
979.495	75.26
979.922	87.36
980.349	83.66
980.776	81.26
981.202	80.16
981.629	86.16
982.056	83.06
982.483	86.16
982.91	80.76
983.337	81.26
983.763	83.46
984.19	81.16
984.617	79.26
985.043	85.26
985.47	90.46
985.897	85.66
986.323	84.56
986.75	86.96
987.176	86.96
987.603	87.36
988.029	82.36
988.456	84.26
988.882	84.86
989.308	80.26
989.735	84.96
990.161	82.46
990.587	90.56
991.014	83.36
991.44	80.76
991.866	84.56
992.292	80.46
992.719	83.36
993.145	82.16
993.571	82.06
993.997	83.36
994.423	81.86
994.849	80.66
995.275	82.96
995.701	82.16
996.127	86.26
996.553	90.16
996.979	81.76
997.405	83.36
997.83	81.96
998.256	84.76
998.682	79.36
999.108	82.16
999.534	84.96
999.959	83.56
1000.385	85.26
1000.811	87.86
1001.236	89.56
1001.662	89.36
1002.087	85.86
1002.513	85.46
1002.938	87.96
1003.364	85.26
1003.789	88.46
1004.215	88.06
1004.64	80.16
1005.066	80.26
1005.491	81.16
1005.916	82.66
1006.342	81.36
1006.767	87.76
1007.192	85.76
1007.617	83.36
1008.042	82.06
1008.468	89.36
1008.893	83.36
1009.318	80.16
1009.743	83.46
1010.168	79.36
1010.593	85.46
1011.018	86.76
1011.443	85.86
1011.868	84.26
1012.293	81.16
1012.718	84.76
1013.143	87.16
1013.567	83.76
1013.992	78.76
1014.417	79.36
1014.842	85.86
1015.267	81.56
1015.691	85.76
1016.116	80.76
1016.541	83.66
1016.965	84.56
1017.39	88.46
1017.814	87.26
1018.239	83.16
1018.663	88.66
1019.088	86.86
1019.512	86.66
1019.937	83.56
1020.361	84.36
1020.785	80.56
1021.21	85.26
1021.634	85.56
1022.058	81.46
1022.483	85.36
1022.907	83.46
1023.331	83.06
1023.755	86.76
1024.179	85.56
1024.604	84.46
1025.028	76.36
1025.452	85.16
1025.876	83.96
1026.3	89.26
1026.724	82.96
1027.148	88.56
1027.572	85.06
1027.996	86.66
1028.42	82.86
1028.843	80.16
1029.267	83.36
1029.691	85.66
1030.115	83.56
1030.539	83.86
1030.962	87.16
1031.386	78.46
1031.81	84.66
1032.233	89.26
1032.657	88.66
1033.08	85.56
1033.504	85.36
1033.927	82.76
1034.351	76.66
1034.774	84.76
1035.198	83.86
1035.621	86.66
1036.045	79.76
1036.468	80.96
1036.891	82.46
1037.315	81.76
1037.738	86.26
1038.161	87.66
1038.584	80.56
1039.008	85.56
1039.431	84.96
1039.854	88.46
1040.277	80.96
1040.7	83.96
1041.123	84.96
1041.546	83.56
1041.969	84.66
1042.392	87.76
1042.815	81.46
1043.238	87.36
1043.661	91.76
1044.084	84.96
1044.507	89.66
1044.93	86.66
1045.352	79.76
1045.775	84.96
1046.198	79.06
1046.621	80.76
1047.043	81.46
1047.466	78.66
1047.889	83.46
1048.311	80.26
1048.734	85.66
1049.156	85.76
1049.579	84.96
1050.001	81.26
1050.424	83.96
1050.846	84.36
1051.269	83.16
1051.691	82.16
1052.113	88.76
1052.536	82.46
1052.958	87.56
1053.38	79.36
1053.802	88.66
1054.225	86.06
1054.647	82.16
1055.069	81.66
1055.491	79.86
1055.913	84.56
1056.335	85.26
1056.757	89.36
1057.179	87.96
1057.601	83.96
1058.023	87.96
1058.445	87.86
1058.867	83.06
1059.289	80.46
1059.711	83.56
1060.133	84.16
1060.555	84.36
1060.976	81.06
1061.398	86.56
1061.82	84.96
1062.241	79.06
1062.663	88.86
1063.085	85.96
1063.506	85.76
1063.928	80.96
1064.35	79.06
1064.771	85.06
1065.193	83.86
1065.614	81.86
1066.035	79.56
1066.457	87.56
1066.878	82.86
1067.3	80.56
1067.721	80.46
1068.142	85.66
1068.564	89.76
1068.985	86.96
1069.406	78.56
1069.827	83.46
1070.248	86.86
1070.67	81.96
1071.091	82.86
1071.512	76.86
1071.933	85.26
1072.354	82.06
1072.775	88.66
1073.196	84.36
1073.617	79.46
1074.038	86.26
1074.459	82.66
1074.88	84.36
1075.3	78.76
1075.721	83.16
1076.142	84.56
1076.563	81.56
1076.983	80.96
1077.404	82.76
1077.825	84.36
1078.246	86.26
1078.666	80.66
1079.087	85.56
1079.507	86.86
1079.928	83.46
1080.348	88.36
1080.769	83.06
1081.189	86.36
1081.61	88.26
1082.03	85.26
1082.451	89.46
1082.871	87.96
1083.291	84.36
1083.711	83.36
1084.132	85.56
1084.552	87.56
1084.972	83.86
1085.392	83.36
1085.813	81.96
1086.233	87.36
1086.653	85.66
1087.073	86.46
1087.493	83.96
1087.913	80.86
1088.333	84.56
1088.753	77.96
1089.173	84.86
1089.593	82.56
1090.013	87.46
1090.433	83.46
1090.852	81.96
1091.272	87.96
1091.692	78.26
1092.112	85.86
1092.531	83.16
1092.951	86.36
1093.371	84.36
1093.79	86.86
1094.21	87.86
1094.63	78.56
1095.049	81.56
1095.469	84.16
1095.888	82.06
1096.308	82.36
1096.727	85.86
1097.146	80.56
1097.566	86.46
1097.985	83.76
1098.405	81.06
1098.824	87.06
1099.243	84.86
1099.662	82.06
1100.082	80.56
1100.501	82.26
1100.92	80.96
1101.339	83.26
1101.758	85.26
