Data from DH-3PlusCalLight-Deuterium_HRD10391_13-35-08-362.txt Node
Date: Thu Feb 15 13:35:08 EST 2018
User: Ender
Spectrometer: HR+D1039
Trigger mode: 0
Integration Time (sec): 2.730000E-2
Scans to average: 10
Electric dark correction enabled: true
Nonlinearity correction enabled: false
Boxcar width: 0
XAxis mode: Wavelengths
Number of Pixels in Spectrum: 2048
>>>>>Begin Spectral Data<<<<<
187.836	3.57
188.309	3.57
188.782	3.57
189.255	-1.03
189.728	-4.33
190.201	-6.83
190.674	-9.03
191.147	-7.73
191.619	-3.43
192.092	-10.53
192.565	-6.73
193.038	-0.33
193.511	0.57
193.984	5.97
194.456	6.17
194.929	7.27
195.402	12.07
195.874	14.37
196.347	17.07
196.82	23.37
197.292	26.27
197.765	31.67
198.237	38.07
198.71	37.67
199.182	43.27
199.655	49.67
200.127	51.87
200.6	54.17
201.072	58.77
201.544	66.17
202.017	65.27
202.489	74.47
202.961	68.57
203.433	73.47
203.906	75.97
204.378	79.37
204.85	82.67
205.322	77.17
205.794	81.07
206.266	85.67
206.739	86.57
207.211	84.67
207.683	83.27
208.155	88.37
208.627	83.57
209.099	82.37
209.57	84.37
210.042	86.77
210.514	88.77
210.986	88.67
211.458	87.97
211.93	79.67
212.402	81.37
212.873	84.07
213.345	89.47
213.817	96.37
214.288	80.97
214.76	87.97
215.232	89.17
215.703	90.37
216.175	88.67
216.646	84.57
217.118	83.67
217.589	80.17
218.061	82.37
218.532	81.27
219.004	80.47
219.475	84.17
219.946	85.87
220.418	85.77
220.889	85.57
221.36	85.07
221.832	82.57
222.303	84.67
222.774	86.27
223.245	82.47
223.717	87.17
224.188	87.47
224.659	77.97
225.13	84.87
225.601	88.77
226.072	89.87
226.543	91.37
227.014	96.57
227.485	96.37
227.956	99.47
228.427	96.07
228.898	95.27
229.369	108.47
229.839	100.87
230.31	103.87
230.781	101.07
231.252	106.47
231.722	104.57
232.193	105.87
232.664	109.27
233.135	101.07
233.605	100.67
234.076	102.17
234.546	95.17
235.017	94.37
235.487	97.87
235.958	93.67
236.428	97.17
236.899	91.67
237.369	92.67
237.84	94.37
238.31	86.77
238.78	89.17
239.251	85.17
239.721	84.07
240.191	84.57
240.662	89.77
241.132	82.07
241.602	80.47
242.072	79.57
242.542	79.77
243.013	87.77
243.483	85.97
243.953	85.57
244.423	83.37
244.893	88.37
245.363	81.27
245.833	82.77
246.303	82.27
246.773	82.07
247.243	83.07
247.712	84.07
248.182	86.97
248.652	81.27
249.122	85.97
249.592	85.27
250.061	80.37
250.531	87.27
251.001	89.77
251.471	90.87
251.94	83.77
252.41	87.87
252.879	85.57
253.349	90.07
253.818	93.67
254.288	89.27
254.757	92.87
255.227	94.17
255.696	97.47
256.166	96.47
256.635	108.07
257.105	102.27
257.574	107.97
258.043	115.77
258.513	113.97
258.982	117.37
259.451	122.77
259.92	131.27
260.389	136.47
260.859	141.87
261.328	152.77
261.797	159.57
262.266	161.97
262.735	172.37
263.204	171.87
263.673	183.47
264.142	190.77
264.611	191.77
265.08	191.77
265.549	202.07
266.018	212.97
266.487	217.57
266.955	217.77
267.424	222.47
267.893	231.07
268.362	240.67
268.83	238.07
269.299	240.77
269.768	244.27
270.236	243.97
270.705	254.07
271.174	252.37
271.642	250.27
272.111	257.87
272.579	263.87
273.048	258.47
273.516	260.17
273.985	260.97
274.453	259.67
274.922	261.67
275.39	266.67
275.858	257.47
276.327	262.97
276.795	260.07
277.263	262.97
277.731	261.47
278.2	259.97
278.668	257.17
279.136	256.27
279.604	257.87
280.072	261.67
280.54	255.17
281.008	261.37
281.477	256.27
281.945	251.77
282.413	256.27
282.881	251.87
283.348	248.47
283.816	251.77
284.284	243.57
284.752	239.37
285.22	247.07
285.688	242.47
286.156	234.17
286.623	240.17
287.091	241.17
287.559	242.87
288.026	240.27
288.494	245.57
288.962	243.67
289.429	249.87
289.897	248.67
290.364	248.17
290.832	252.57
291.3	260.57
291.767	264.17
292.234	259.07
292.702	268.27
293.169	269.97
293.637	271.77
294.104	277.97
294.571	266.87
295.039	275.77
295.506	277.27
295.973	283.07
296.44	279.07
296.908	281.57
297.375	288.37
297.842	285.17
298.309	283.27
298.776	291.07
299.243	287.57
299.71	283.77
300.177	290.07
300.644	291.17
301.111	291.37
301.578	288.57
302.045	287.67
302.512	285.97
302.979	291.67
303.446	290.47
303.913	280.67
304.379	289.27
304.846	281.67
305.313	285.77
305.78	278.07
306.246	282.27
306.713	278.57
307.18	275.97
307.646	279.07
308.113	280.57
308.579	277.37
309.046	282.87
309.512	275.67
309.979	269.47
310.445	275.37
310.912	272.47
311.378	268.57
311.845	272.17
312.311	272.67
312.777	260.07
313.244	263.87
313.71	276.17
314.176	261.57
314.642	271.67
315.109	263.07
315.575	267.07
316.041	270.37
316.507	282.57
316.973	280.77
317.439	277.97
317.905	276.57
318.371	281.47
318.837	281.97
319.303	286.77
319.769	290.67
320.235	286.07
320.701	290.07
321.167	294.87
321.633	293.67
322.099	293.67
322.564	298.87
323.03	293.27
323.496	294.57
323.962	293.87
324.427	296.17
324.893	301.07
325.359	302.17
325.824	292.07
326.29	292.47
326.755	294.97
327.221	298.57
327.686	293.87
328.152	296.07
328.617	287.37
329.083	286.87
329.548	285.57
330.014	280.37
330.479	288.27
330.944	288.57
331.41	287.77
331.875	292.07
332.34	273.27
332.805	282.17
333.271	271.77
333.736	272.47
334.201	273.37
334.666	274.47
335.131	267.37
335.596	264.57
336.061	270.97
336.526	267.27
336.991	264.27
337.456	260.47
337.921	263.97
338.386	263.97
338.851	261.87
339.316	261.37
339.781	268.07
340.246	267.47
340.711	278.77
341.175	282.57
341.64	289.07
342.105	281.57
342.569	285.77
343.034	291.47
343.499	282.37
343.963	293.67
344.428	297.07
344.893	295.97
345.357	300.27
345.822	295.17
346.286	304.67
346.751	307.07
347.215	313.27
347.679	314.37
348.144	314.37
348.608	318.47
349.073	321.67
349.537	321.97
350.001	327.27
350.465	307.37
350.93	313.77
351.394	320.47
351.858	316.67
352.322	312.27
352.786	316.67
353.25	320.07
353.715	313.87
354.179	314.47
354.643	320.37
355.107	319.37
355.571	321.77
356.035	323.07
356.498	319.17
356.962	312.97
357.426	324.47
357.89	317.37
358.354	319.77
358.818	317.57
359.281	320.97
359.745	328.27
360.209	323.27
360.673	312.07
361.136	320.57
361.6	320.67
362.064	324.37
362.527	320.27
362.991	321.77
363.454	317.17
363.918	311.37
364.381	319.77
364.845	321.17
365.308	329.07
365.772	319.47
366.235	317.57
366.698	321.47
367.162	324.27
367.625	329.47
368.088	319.57
368.552	328.57
369.015	322.37
369.478	319.77
369.941	320.27
370.404	325.77
370.867	320.87
371.331	321.87
371.794	320.57
372.257	312.57
372.72	326.87
373.183	323.17
373.646	315.67
374.109	332.17
374.572	336.87
375.035	333.27
375.497	335.17
375.96	333.67
376.423	333.57
376.886	334.27
377.349	339.67
377.811	334.67
378.274	351.87
378.737	346.27
379.199	344.87
379.662	351.67
380.125	343.37
380.587	339.77
381.05	344.27
381.512	342.27
381.975	347.47
382.437	342.47
382.9	342.47
383.362	348.37
383.825	354.07
384.287	350.57
384.75	348.97
385.212	354.47
385.674	354.47
386.136	352.17
386.599	355.57
387.061	357.17
387.523	361.67
387.985	355.27
388.447	348.37
388.91	349.77
389.372	348.97
389.834	348.17
390.296	346.87
390.758	353.67
391.22	360.37
391.682	362.17
392.144	359.77
392.606	354.17
393.068	351.47
393.529	357.37
393.991	351.87
394.453	354.77
394.915	356.97
395.377	357.97
395.838	361.27
396.3	361.17
396.762	364.37
397.224	374.77
397.685	374.47
398.147	360.27
398.608	361.47
399.07	355.27
399.531	350.97
399.993	359.57
400.454	358.87
400.916	359.07
401.377	358.17
401.839	350.77
402.3	362.37
402.762	359.07
403.223	361.07
403.684	361.87
404.145	362.17
404.607	361.77
405.068	359.27
405.529	346.07
405.99	346.17
406.451	342.57
406.913	344.27
407.374	341.67
407.835	344.87
408.296	334.47
408.757	331.97
409.218	336.47
409.679	328.57
410.14	321.67
410.601	320.67
411.062	318.77
411.522	328.97
411.983	309.87
412.444	327.57
412.905	310.37
413.366	316.37
413.826	307.87
414.287	306.47
414.748	306.17
415.208	311.57
415.669	304.17
416.13	300.97
416.59	310.57
417.051	293.67
417.511	302.47
417.972	306.67
418.432	316.17
418.893	318.27
419.353	312.57
419.814	315.47
420.274	312.17
420.734	315.57
421.195	320.47
421.655	310.77
422.115	309.57
422.576	308.87
423.036	299.97
423.496	297.77
423.956	297.07
424.416	289.87
424.876	285.87
425.336	283.67
425.797	289.57
426.257	292.57
426.717	288.87
427.177	272.47
427.637	280.37
428.097	280.77
428.556	283.27
429.016	286.07
429.476	272.37
429.936	267.37
430.396	262.67
430.856	251.37
431.315	249.47
431.775	237.57
432.235	238.17
432.694	249.27
433.154	239.47
433.614	223.77
434.073	228.77
434.533	227.17
434.993	213.47
435.452	222.57
435.912	212.67
436.371	208.57
436.83	195.77
437.29	202.47
437.749	193.57
438.209	190.17
438.668	188.77
439.127	187.97
439.587	182.97
440.046	178.07
440.505	181.87
440.964	173.47
441.424	168.77
441.883	169.97
442.342	166.57
442.801	165.17
443.26	159.37
443.719	152.97
444.178	145.07
444.637	151.87
445.096	146.97
445.555	147.17
446.014	135.57
446.473	134.37
446.932	135.97
447.391	128.97
447.849	130.57
448.308	123.27
448.767	121.57
449.226	114.57
449.685	109.67
450.143	109.37
450.602	109.37
451.061	112.47
451.519	113.07
451.978	107.87
452.436	102.67
452.895	109.77
453.353	107.47
453.812	100.97
454.27	99.47
454.729	98.57
455.187	100.97
455.646	98.97
456.104	108.27
456.562	97.97
457.021	92.77
457.479	95.57
457.937	91.97
458.395	91.97
458.854	93.37
459.312	93.17
459.77	93.07
460.228	92.37
460.686	91.07
461.144	87.07
461.602	85.67
462.06	88.57
462.518	91.27
462.976	83.77
463.434	91.87
463.892	89.77
464.35	92.87
464.808	86.87
465.266	91.77
465.724	85.37
466.181	95.17
466.639	90.37
467.097	91.77
467.555	92.87
468.012	88.67
468.47	86.87
468.928	92.87
469.385	95.97
469.843	85.67
470.3	89.17
470.758	86.47
471.215	92.87
471.673	88.97
472.13	88.97
472.588	88.27
473.045	85.67
473.503	90.47
473.96	84.97
474.417	86.57
474.875	92.47
475.332	84.57
475.789	90.17
476.246	87.37
476.704	85.67
477.161	85.37
477.618	88.77
478.075	90.47
478.532	89.17
478.989	88.27
479.446	90.47
479.903	89.67
480.36	89.87
480.817	88.77
481.274	92.67
481.731	91.17
482.188	86.27
482.645	93.97
483.102	89.07
483.558	86.97
484.015	93.17
484.472	97.87
484.929	91.77
485.385	87.27
485.842	83.97
486.299	85.87
486.755	89.87
487.212	90.07
487.668	88.27
488.125	90.77
488.582	90.37
489.038	89.37
489.494	86.27
489.951	90.17
490.407	86.97
490.864	90.57
491.32	87.97
491.776	82.37
492.233	90.37
492.689	91.07
493.145	86.27
493.602	87.17
494.058	86.77
494.514	91.57
494.97	86.87
495.426	92.37
495.882	88.17
496.338	88.37
496.794	93.67
497.251	92.77
497.707	89.27
498.163	90.07
498.618	93.37
499.074	90.77
499.53	87.47
499.986	85.57
500.442	87.87
500.898	85.97
501.354	88.47
501.809	84.07
502.265	87.27
502.721	91.67
503.177	85.27
503.632	90.37
504.088	92.37
504.543	87.97
504.999	88.67
505.455	84.67
505.91	91.67
506.366	90.77
506.821	86.37
507.277	94.07
507.732	94.17
508.187	85.97
508.643	86.67
509.098	91.77
509.553	85.67
510.009	89.67
510.464	84.97
510.919	88.47
511.375	89.57
511.83	91.77
512.285	85.27
512.74	90.07
513.195	86.77
513.65	87.57
514.105	88.57
514.56	93.27
515.015	87.97
515.47	89.27
515.925	86.77
516.38	90.37
516.835	89.07
517.29	89.57
517.745	89.97
518.2	88.67
518.655	84.47
519.109	85.97
519.564	87.07
520.019	90.27
520.474	90.47
520.928	87.77
521.383	85.47
521.838	89.57
522.292	88.97
522.747	79.87
523.201	86.97
523.656	89.97
524.11	88.27
524.565	87.77
525.019	93.57
525.474	91.27
525.928	87.87
526.382	89.17
526.837	86.87
527.291	91.27
527.745	89.87
528.2	83.77
528.654	91.97
529.108	87.57
529.562	86.07
530.016	90.17
530.47	90.27
530.925	84.17
531.379	89.97
531.833	92.97
532.287	84.57
532.741	85.67
533.195	86.97
533.649	83.87
534.103	88.37
534.556	86.97
535.01	87.67
535.464	87.57
535.918	86.67
536.372	85.57
536.826	88.27
537.279	88.87
537.733	88.07
538.187	87.37
538.64	87.57
539.094	85.57
539.548	85.37
540.001	88.37
540.455	90.37
540.908	90.27
541.362	85.37
541.815	89.77
542.269	89.97
542.722	87.17
543.175	86.87
543.629	85.77
544.082	85.57
544.536	84.37
544.989	83.77
545.442	84.77
545.895	87.57
546.349	81.77
546.802	87.97
547.255	89.57
547.708	85.37
548.161	84.27
548.614	90.47
549.067	86.97
549.52	86.27
549.973	87.27
550.426	91.87
550.879	93.77
551.332	88.07
551.785	88.87
552.238	93.97
552.691	95.07
553.144	89.07
553.596	88.07
554.049	86.27
554.502	91.47
554.955	91.77
555.407	88.77
555.86	93.57
556.313	89.57
556.765	89.37
557.218	84.37
557.67	90.17
558.123	85.77
558.576	85.17
559.028	88.87
559.48	86.27
559.933	88.37
560.385	92.27
560.838	89.57
561.29	90.47
561.742	84.07
562.195	94.37
562.647	93.57
563.099	85.97
563.551	90.87
564.004	88.47
564.456	90.47
564.908	89.47
565.36	87.47
565.812	86.07
566.264	87.37
566.716	85.97
567.168	87.67
567.62	84.07
568.072	89.27
568.524	88.67
568.976	90.67
569.428	93.77
569.88	89.47
570.332	87.77
570.784	87.47
571.235	85.57
571.687	88.67
572.139	92.97
572.59	89.67
573.042	85.27
573.494	86.37
573.945	89.37
574.397	93.97
574.849	87.87
575.3	83.97
575.752	93.27
576.203	89.37
576.655	92.17
577.106	87.97
577.557	84.07
578.009	87.97
578.46	86.97
578.912	90.17
579.363	87.17
579.814	86.37
580.265	88.07
580.717	91.17
581.168	85.57
581.619	89.17
582.07	91.07
582.521	86.47
582.972	87.87
583.423	82.77
583.875	86.47
584.326	86.77
584.777	94.87
585.227	86.37
585.678	85.97
586.129	91.47
586.58	87.27
587.031	87.27
587.482	88.97
587.933	86.87
588.384	88.47
588.834	85.87
589.285	88.27
589.736	89.87
590.186	86.07
590.637	90.97
591.088	89.87
591.538	88.57
591.989	92.07
592.439	86.67
592.89	86.47
593.34	90.57
593.791	86.87
594.241	88.67
594.692	92.77
595.142	88.47
595.593	85.17
596.043	90.87
596.493	88.57
596.943	87.87
597.394	90.47
597.844	86.37
598.294	86.77
598.744	87.07
599.195	92.27
599.645	92.87
600.095	91.07
600.545	85.37
600.995	91.97
601.445	92.17
601.895	83.07
602.345	87.17
602.795	83.47
603.245	91.07
603.695	86.97
604.145	87.97
604.594	83.67
605.044	88.87
605.494	86.47
605.944	88.97
606.393	86.07
606.843	93.37
607.293	92.77
607.743	92.07
608.192	86.37
608.642	85.17
609.091	88.97
609.541	89.17
609.99	88.07
610.44	89.07
610.889	87.17
611.339	86.07
611.788	85.97
612.238	91.17
612.687	86.27
613.136	85.27
613.586	83.67
614.035	86.97
614.484	90.17
614.933	90.27
615.383	89.57
615.832	86.17
616.281	87.07
616.73	83.97
617.179	88.17
617.628	94.57
618.077	88.87
618.526	84.97
618.975	84.97
619.424	85.97
619.873	88.37
620.322	93.27
620.771	88.47
621.22	83.67
621.669	82.87
622.118	88.87
622.567	87.87
623.015	88.37
623.464	87.27
623.913	85.47
624.361	89.57
624.81	88.97
625.259	82.37
625.707	85.87
626.156	91.47
626.604	88.07
627.053	84.87
627.501	87.57
627.95	89.27
628.398	88.37
628.847	90.27
629.295	87.87
629.744	89.27
630.192	86.27
630.64	88.67
631.089	84.17
631.537	89.47
631.985	90.87
632.433	86.67
632.881	90.87
633.33	84.27
633.778	83.37
634.226	84.27
634.674	87.57
635.122	86.77
635.57	89.87
636.018	87.87
636.466	82.87
636.914	84.17
637.362	88.47
637.81	88.17
638.258	86.47
638.705	89.27
639.153	86.27
639.601	90.97
640.049	88.07
640.497	84.07
640.944	89.47
641.392	86.27
641.84	87.67
642.287	87.37
642.735	85.37
643.182	85.87
643.63	81.47
644.078	82.57
644.525	87.57
644.973	81.97
645.42	88.67
645.867	87.77
646.315	84.67
646.762	88.07
647.21	82.47
647.657	86.77
648.104	86.57
648.551	82.57
648.999	83.87
649.446	84.47
649.893	88.07
650.34	89.07
650.787	88.37
651.234	86.87
651.682	89.47
652.129	90.87
652.576	89.07
653.023	91.17
653.47	100.37
653.917	89.17
654.363	98.07
654.81	110.87
655.257	109.47
655.704	89.17
656.151	91.57
656.598	87.47
657.044	91.27
657.491	87.07
657.938	87.87
658.385	82.77
658.831	81.37
659.278	83.37
659.724	88.67
660.171	87.17
660.618	84.37
661.064	85.57
661.511	83.77
661.957	86.17
662.404	86.87
662.85	86.37
663.296	86.77
663.743	83.97
664.189	85.87
664.635	86.97
665.082	89.07
665.528	85.27
665.974	89.37
666.42	88.87
666.867	90.17
667.313	84.97
667.759	90.27
668.205	93.67
668.651	87.67
669.097	85.67
669.543	80.27
669.989	89.27
670.435	87.87
670.881	86.07
671.327	86.17
671.773	86.97
672.219	84.37
672.665	81.17
673.11	90.07
673.556	86.77
674.002	89.07
674.448	85.37
674.893	88.87
675.339	85.57
675.785	88.27
676.23	85.57
676.676	88.67
677.122	90.07
677.567	86.27
678.013	86.87
678.458	89.07
678.904	85.17
679.349	87.07
679.794	84.07
680.24	84.27
680.685	83.37
681.131	87.37
681.576	85.77
682.021	91.07
682.466	82.17
682.912	82.87
683.357	90.87
683.802	85.37
684.247	91.57
684.692	88.57
685.137	84.17
685.583	89.57
686.028	84.07
686.473	89.57
686.918	89.47
687.363	87.27
687.807	85.87
688.252	84.77
688.697	83.97
689.142	84.87
689.587	84.17
690.032	86.37
690.477	83.37
690.921	86.47
691.366	91.77
691.811	87.47
692.255	85.17
692.7	87.07
693.145	91.67
693.589	87.97
694.034	88.67
694.478	89.17
694.923	84.57
695.367	82.07
695.812	85.87
696.256	91.27
696.701	85.47
697.145	84.97
697.59	88.67
698.034	89.87
698.478	83.87
698.922	85.57
699.367	85.57
699.811	83.27
700.255	85.37
700.699	86.27
701.143	89.77
701.588	92.07
702.032	85.97
702.476	87.87
702.92	84.87
703.364	86.07
703.808	91.17
704.252	89.37
704.696	88.77
705.14	84.87
705.584	89.27
706.027	86.07
706.471	88.07
706.915	86.07
707.359	86.77
707.803	85.77
708.246	91.67
708.69	87.87
709.134	84.07
709.577	86.27
710.021	82.67
710.465	82.07
710.908	85.57
711.352	85.57
711.795	92.47
712.239	84.77
712.682	87.67
713.126	89.27
713.569	91.77
714.012	89.37
714.456	89.87
714.899	86.07
715.342	87.27
715.786	85.87
716.229	85.77
716.672	84.17
717.115	85.27
717.558	91.17
718.002	87.07
718.445	91.17
718.888	85.47
719.331	82.17
719.774	86.97
720.217	83.47
720.66	85.37
721.103	86.87
721.546	85.67
721.989	88.67
722.432	90.77
722.874	84.87
723.317	83.87
723.76	85.07
724.203	92.87
724.645	93.87
725.088	84.47
725.531	84.97
725.974	87.07
726.416	89.07
726.859	90.57
727.301	91.27
727.744	88.67
728.187	86.47
728.629	85.67
729.071	81.57
729.514	87.47
729.956	84.47
730.399	85.67
730.841	84.77
731.283	88.17
731.726	83.47
732.168	87.67
732.61	90.37
733.053	81.77
733.495	90.47
733.937	85.07
734.379	91.27
734.821	86.77
735.263	87.07
735.705	88.57
736.148	87.87
736.59	90.77
737.032	88.47
737.474	87.27
737.916	86.97
738.357	88.47
738.799	91.57
739.241	87.17
739.683	90.37
740.125	86.27
740.567	87.57
741.008	88.97
741.45	86.97
741.892	83.87
742.334	87.97
742.775	86.97
743.217	89.07
743.658	88.47
744.1	90.47
744.542	91.07
744.983	85.47
745.425	84.17
745.866	89.67
746.307	91.87
746.749	88.77
747.19	83.37
747.632	84.77
748.073	87.67
748.514	87.77
748.956	91.27
749.397	85.27
749.838	91.17
750.279	88.27
750.72	86.67
751.162	88.87
751.603	88.27
752.044	90.47
752.485	88.17
752.926	87.87
753.367	86.17
753.808	88.97
754.249	89.37
754.69	93.37
755.131	88.47
755.572	81.17
756.013	87.57
756.453	87.97
756.894	82.17
757.335	90.37
757.776	88.87
758.216	87.27
758.657	86.87
759.098	83.37
759.538	94.07
759.979	92.07
760.42	88.37
760.86	86.27
761.301	89.17
761.741	89.37
762.182	85.67
762.622	88.67
763.063	84.77
763.503	85.47
763.943	87.07
764.384	89.97
764.824	93.67
765.264	91.77
765.705	78.07
766.145	89.77
766.585	87.17
767.025	90.57
767.465	87.17
767.906	92.77
768.346	83.17
768.786	85.07
769.226	88.77
769.666	88.77
770.106	84.17
770.546	85.87
770.986	86.37
771.426	81.57
771.866	84.67
772.306	92.47
772.745	82.17
773.185	88.97
773.625	84.77
774.065	86.67
774.505	85.07
774.944	82.87
775.384	83.27
775.824	87.57
776.263	90.37
776.703	85.77
777.142	84.27
777.582	88.07
778.021	81.77
778.461	89.37
778.9	86.37
779.34	84.77
779.779	86.87
780.219	88.07
780.658	85.77
781.097	92.57
781.537	84.37
781.976	82.67
782.415	91.17
782.855	88.47
783.294	84.97
783.733	84.17
784.172	88.27
784.611	83.37
785.05	88.87
785.489	88.77
785.928	84.17
786.367	84.07
786.806	83.87
787.245	86.17
787.684	81.07
788.123	89.67
788.562	86.37
789.001	84.17
789.44	88.67
789.879	93.67
790.317	91.57
790.756	88.97
791.195	90.27
791.634	84.07
792.072	84.97
792.511	86.97
792.95	86.77
793.388	87.87
793.827	87.87
794.265	88.27
794.704	86.77
795.142	91.47
795.581	85.87
796.019	88.17
796.458	82.67
796.896	86.57
797.334	83.17
797.773	86.97
798.211	93.57
798.649	86.57
799.087	88.27
799.526	82.87
799.964	84.07
800.402	90.37
800.84	87.47
801.278	90.67
801.716	89.07
802.154	87.47
802.592	88.57
803.03	82.87
803.468	85.57
803.906	86.87
804.344	82.57
804.782	88.57
805.22	93.67
805.658	87.47
806.096	88.07
806.533	88.17
806.971	85.97
807.409	85.57
807.847	86.17
808.284	85.57
808.722	89.97
809.16	90.87
809.597	85.37
810.035	91.47
810.472	88.57
810.91	92.07
811.347	84.47
811.785	86.77
812.222	81.27
812.66	83.47
813.097	85.57
813.535	89.17
813.972	88.17
814.409	82.67
814.846	87.57
815.284	82.77
815.721	87.87
816.158	88.37
816.595	91.77
817.032	86.67
817.47	82.77
817.907	91.87
818.344	83.87
818.781	83.07
819.218	88.77
819.655	90.87
820.092	93.67
820.529	83.87
820.966	86.77
821.403	83.17
821.839	87.27
822.276	84.77
822.713	87.07
823.15	86.37
823.587	81.07
824.023	87.47
824.46	85.57
824.897	89.17
825.333	85.97
825.77	86.67
826.206	85.87
826.643	88.77
827.08	87.07
827.516	87.17
827.953	88.17
828.389	84.27
828.825	89.17
829.262	84.77
829.698	82.77
830.135	83.87
830.571	90.67
831.007	86.47
831.443	88.67
831.88	89.87
832.316	82.37
832.752	90.37
833.188	83.57
833.624	85.47
834.06	84.37
834.497	90.77
834.933	87.97
835.369	89.07
835.805	88.67
836.241	84.37
836.677	87.17
837.112	83.87
837.548	87.17
837.984	85.77
838.42	88.77
838.856	91.67
839.292	89.77
839.727	87.07
840.163	86.77
840.599	88.77
841.034	86.17
841.47	88.77
841.906	87.37
842.341	86.97
842.777	87.97
843.212	87.87
843.648	87.57
844.083	84.67
844.519	88.87
844.954	86.27
845.39	89.97
845.825	81.37
846.261	87.37
846.696	87.77
847.131	82.57
847.566	87.27
848.002	82.47
848.437	90.07
848.872	84.77
849.307	88.77
849.742	88.87
850.177	84.37
850.613	87.37
851.048	86.77
851.483	87.17
851.918	85.47
852.353	88.57
852.788	86.87
853.223	91.27
853.657	86.07
854.092	90.17
854.527	92.17
854.962	85.87
855.397	86.97
855.832	88.57
856.266	86.37
856.701	82.67
857.136	83.77
857.57	83.97
858.005	89.97
858.44	87.47
858.874	88.77
859.309	90.17
859.743	83.47
860.178	86.57
860.612	84.47
861.047	87.17
861.481	92.37
861.915	85.97
862.35	85.57
862.784	84.97
863.218	88.37
863.653	79.17
864.087	83.57
864.521	84.67
864.955	83.57
865.39	87.07
865.824	82.77
866.258	86.87
866.692	84.87
867.126	87.07
867.56	86.17
867.994	82.87
868.428	85.97
868.862	82.67
869.296	83.87
869.73	87.57
870.164	85.97
870.598	91.37
871.031	89.97
871.465	86.07
871.899	92.67
872.333	84.77
872.766	86.87
873.2	85.57
873.634	85.77
874.067	89.37
874.501	84.37
874.935	90.07
875.368	88.57
875.802	88.77
876.235	87.57
876.669	90.07
877.102	87.17
877.535	86.67
877.969	83.07
878.402	84.67
878.836	90.17
879.269	87.37
879.702	85.27
880.135	84.57
880.569	84.07
881.002	89.17
881.435	87.57
881.868	86.77
882.301	85.67
882.734	85.37
883.167	89.27
883.601	89.87
884.034	86.97
884.467	83.47
884.899	88.17
885.332	88.17
885.765	90.47
886.198	89.37
886.631	88.67
887.064	88.07
887.497	83.07
887.929	81.47
888.362	87.87
888.795	86.67
889.228	87.27
889.66	85.97
890.093	83.37
890.526	85.47
890.958	84.77
891.391	89.47
891.823	83.47
892.256	86.57
892.688	88.87
893.121	84.17
893.553	87.87
893.985	87.37
894.418	82.57
894.85	90.97
895.282	88.07
895.715	87.07
896.147	86.07
896.579	88.37
897.011	89.47
897.444	80.77
897.876	82.17
898.308	91.67
898.74	85.07
899.172	88.07
899.604	85.57
900.036	83.87
900.468	91.77
900.9	87.17
901.332	89.87
901.764	88.67
902.196	86.97
902.628	83.17
903.06	77.17
903.491	83.97
903.923	84.77
904.355	86.07
904.787	86.17
905.218	91.47
905.65	83.27
906.082	78.17
906.513	82.57
906.945	89.57
907.376	88.17
907.808	89.57
908.239	81.37
908.671	83.77
909.102	83.27
909.534	86.77
909.965	84.67
910.397	84.87
910.828	88.77
911.259	88.87
911.691	85.07
912.122	84.97
912.553	87.67
912.984	86.27
913.415	85.37
913.847	89.57
914.278	85.07
914.709	83.77
915.14	90.77
915.571	84.67
916.002	89.37
916.433	83.17
916.864	84.67
917.295	91.57
917.726	91.07
918.157	85.77
918.587	89.47
919.018	89.17
919.449	84.47
919.88	87.77
920.311	86.27
920.741	84.77
921.172	83.97
921.603	86.67
922.033	91.47
922.464	84.07
922.895	84.97
923.325	84.37
923.756	85.27
924.186	86.37
924.617	86.37
925.047	86.37
925.478	83.27
925.908	83.37
926.338	82.57
926.769	86.87
927.199	89.87
927.629	82.47
928.06	87.37
928.49	87.67
928.92	87.97
929.35	86.57
929.78	86.87
930.21	82.87
930.641	87.07
931.071	85.57
931.501	83.57
931.931	85.07
932.361	81.87
932.791	85.17
933.221	83.77
933.651	90.17
934.08	85.17
934.51	83.17
934.94	87.77
935.37	88.27
935.8	86.97
936.229	84.87
936.659	84.67
937.089	86.77
937.519	89.57
937.948	83.57
938.378	85.87
938.807	84.67
939.237	84.47
939.666	84.67
940.096	87.07
940.525	84.57
940.955	88.97
941.384	87.27
941.814	87.97
942.243	87.87
942.672	90.77
943.102	85.97
943.531	89.77
943.96	82.97
944.39	83.67
944.819	88.37
945.248	83.27
945.677	83.97
946.106	86.77
946.535	85.27
946.964	82.87
947.393	84.47
947.822	84.87
948.251	85.27
948.68	85.97
949.109	89.47
949.538	85.07
949.967	87.07
950.396	84.67
950.825	88.17
951.254	86.37
951.682	84.67
952.111	91.07
952.54	83.77
952.969	88.47
953.397	89.17
953.826	86.57
954.254	80.97
954.683	85.27
955.112	84.67
955.54	81.97
955.969	88.07
956.397	85.77
956.826	88.17
957.254	84.67
957.682	87.17
958.111	87.97
958.539	82.27
958.967	85.67
959.396	86.57
959.824	88.57
960.252	87.07
960.68	86.07
961.109	89.17
961.537	84.37
961.965	82.07
962.393	87.37
962.821	93.27
963.249	82.27
963.677	86.37
964.105	81.17
964.533	81.97
964.961	88.17
965.389	85.77
965.817	92.67
966.245	84.97
966.672	79.77
967.1	83.87
967.528	90.47
967.956	87.07
968.383	85.57
968.811	84.57
969.239	87.07
969.666	92.27
970.094	85.77
970.522	87.57
970.949	84.07
971.377	86.47
971.804	84.47
972.232	81.67
972.659	86.17
973.087	84.57
973.514	90.57
973.941	82.57
974.369	85.47
974.796	87.17
975.223	86.67
975.651	86.77
976.078	86.07
976.505	85.17
976.932	84.27
977.359	87.07
977.786	88.47
978.214	89.37
978.641	82.47
979.068	85.67
979.495	81.37
979.922	80.17
980.349	87.77
980.776	84.67
981.202	85.87
981.629	86.47
982.056	83.67
982.483	84.77
982.91	90.27
983.337	89.07
983.763	82.47
984.19	87.17
984.617	82.67
985.043	88.07
985.47	79.57
985.897	87.77
986.323	85.87
986.75	84.07
987.176	82.57
987.603	84.17
988.029	85.87
988.456	83.17
988.882	81.47
989.308	91.47
989.735	88.77
990.161	82.27
990.587	84.87
991.014	86.67
991.44	84.57
991.866	81.27
992.292	84.27
992.719	87.17
993.145	85.37
993.571	88.57
993.997	84.97
994.423	86.17
994.849	83.17
995.275	81.57
995.701	87.87
996.127	84.67
996.553	84.07
996.979	85.07
997.405	82.67
997.83	86.47
998.256	82.57
998.682	89.87
999.108	87.17
999.534	81.17
999.959	85.87
1000.385	85.17
1000.811	86.27
1001.236	83.07
1001.662	86.57
1002.087	91.37
1002.513	88.57
1002.938	82.27
1003.364	86.57
1003.789	84.57
1004.215	88.47
1004.64	89.57
1005.066	81.87
1005.491	83.77
1005.916	83.87
1006.342	93.77
1006.767	90.67
1007.192	87.37
1007.617	84.47
1008.042	88.77
1008.468	82.37
1008.893	84.77
1009.318	88.07
1009.743	91.27
1010.168	81.97
1010.593	85.87
1011.018	86.27
1011.443	80.17
1011.868	88.57
1012.293	87.07
1012.718	90.77
1013.143	84.07
1013.567	83.37
1013.992	78.37
1014.417	85.37
1014.842	91.17
1015.267	83.07
1015.691	82.47
1016.116	83.57
1016.541	83.67
1016.965	88.67
1017.39	85.97
1017.814	85.37
1018.239	81.67
1018.663	88.07
1019.088	82.87
1019.512	90.67
1019.937	87.47
1020.361	85.37
1020.785	87.97
1021.21	89.47
1021.634	85.37
1022.058	85.77
1022.483	85.77
1022.907	83.07
1023.331	86.87
1023.755	83.97
1024.179	84.97
1024.604	83.67
1025.028	87.27
1025.452	82.67
1025.876	83.67
1026.3	83.67
1026.724	87.47
1027.148	81.27
1027.572	81.97
1027.996	84.07
1028.42	88.97
1028.843	86.27
1029.267	87.17
1029.691	89.07
1030.115	83.47
1030.539	82.37
1030.962	84.97
1031.386	84.57
1031.81	83.37
1032.233	88.17
1032.657	87.67
1033.08	89.77
1033.504	86.97
1033.927	84.97
1034.351	85.77
1034.774	80.87
1035.198	88.17
1035.621	87.37
1036.045	87.67
1036.468	82.87
1036.891	83.07
1037.315	88.77
1037.738	85.37
1038.161	87.67
1038.584	82.97
1039.008	85.57
1039.431	84.07
1039.854	84.87
1040.277	86.67
1040.7	82.67
1041.123	81.57
1041.546	82.37
1041.969	86.07
1042.392	84.37
1042.815	82.67
1043.238	82.77
1043.661	83.57
1044.084	83.27
1044.507	87.77
1044.93	80.77
1045.352	83.17
1045.775	90.47
1046.198	86.77
1046.621	84.07
1047.043	86.57
1047.466	87.27
1047.889	86.37
1048.311	88.37
1048.734	84.97
1049.156	90.07
1049.579	83.37
1050.001	88.87
1050.424	81.97
1050.846	88.77
1051.269	89.07
1051.691	84.77
1052.113	82.37
1052.536	86.37
1052.958	84.57
1053.38	89.97
1053.802	87.27
1054.225	91.37
1054.647	84.47
1055.069	90.17
1055.491	85.97
1055.913	88.97
1056.335	87.77
1056.757	91.27
1057.179	84.47
1057.601	86.17
1058.023	92.07
1058.445	83.77
1058.867	91.47
1059.289	83.37
1059.711	89.77
1060.133	84.97
1060.555	89.27
1060.976	85.47
1061.398	83.57
1061.82	86.77
1062.241	82.37
1062.663	93.67
1063.085	87.97
1063.506	82.07
1063.928	88.77
1064.35	84.47
1064.771	87.47
1065.193	87.47
1065.614	85.27
1066.035	85.37
1066.457	86.57
1066.878	84.77
1067.3	86.47
1067.721	85.07
1068.142	81.77
1068.564	85.47
1068.985	82.97
1069.406	87.07
1069.827	90.37
1070.248	88.87
1070.67	86.57
1071.091	85.47
1071.512	84.47
1071.933	90.37
1072.354	87.27
1072.775	85.67
1073.196	85.67
1073.617	81.87
1074.038	83.07
1074.459	87.27
1074.88	86.57
1075.3	92.27
1075.721	84.57
1076.142	86.57
1076.563	78.97
1076.983	91.17
1077.404	85.87
1077.825	89.77
1078.246	89.57
1078.666	84.37
1079.087	85.07
1079.507	86.37
1079.928	85.67
1080.348	85.97
1080.769	81.67
1081.189	85.77
1081.61	84.17
1082.03	86.07
1082.451	83.67
1082.871	89.97
1083.291	83.37
1083.711	84.67
1084.132	84.87
1084.552	85.27
1084.972	85.77
1085.392	85.17
1085.813	84.07
1086.233	89.27
1086.653	86.67
1087.073	87.17
1087.493	85.87
1087.913	90.67
1088.333	86.07
1088.753	83.67
1089.173	85.07
1089.593	87.97
1090.013	88.87
1090.433	84.07
1090.852	87.57
1091.272	86.37
1091.692	86.87
1092.112	88.97
1092.531	81.57
1092.951	89.07
1093.371	83.57
1093.79	81.67
1094.21	88.77
1094.63	81.07
1095.049	87.37
1095.469	81.87
1095.888	80.87
1096.308	85.77
1096.727	85.87
1097.146	87.87
1097.566	85.77
1097.985	83.77
1098.405	85.27
1098.824	89.77
1099.243	86.07
1099.662	87.77
1100.082	87.87
1100.501	88.57
1100.92	87.17
1101.339	84.27
1101.758	86.97
