Data from DH-3PlusCalLight-Background_HRD10391_13-34-14-585.txt Node
Date: Thu Feb 15 13:34:14 EST 2018
User: Ender
Spectrometer: HR+D1039
Trigger mode: 0
Integration Time (sec): 2.730000E-2
Scans to average: 10
Electric dark correction enabled: true
Nonlinearity correction enabled: false
Boxcar width: 0
XAxis mode: Wavelengths
Number of Pixels in Spectrum: 2048
>>>>>Begin Spectral Data<<<<<
187.836	2.42
188.309	2.42
188.782	2.42
189.255	-3.77
189.728	-2.48
190.201	-9.67
190.674	-9.27
191.147	-9.08
191.619	-10.08
192.092	-5.77
192.565	-5.58
193.038	-2.98
193.511	-0.27
193.984	5.12
194.456	5.62
194.929	15.23
195.402	14.52
195.874	16.02
196.347	22.52
196.82	29.92
197.292	26.52
197.765	29.73
198.237	32.62
198.71	38.83
199.182	42.83
199.655	49.12
200.127	54.42
200.6	49.42
201.072	64.62
201.544	64.33
202.017	59.33
202.489	66.42
202.961	68.73
203.433	73.52
203.906	73.52
204.378	75.33
204.85	78.83
205.322	75.73
205.794	79.92
206.266	77.12
206.739	81.83
207.211	78.83
207.683	82.52
208.155	85.62
208.627	83.92
209.099	80.33
209.57	83.83
210.042	86.62
210.514	81.73
210.986	88.92
211.458	81.42
211.93	87.52
212.402	82.62
212.873	84.73
213.345	85.02
213.817	83.12
214.288	82.12
214.76	81.52
215.232	84.42
215.703	82.42
216.175	82.02
216.646	80.02
217.118	80.12
217.589	84.02
218.061	81.23
218.532	82.83
219.004	75.73
219.475	81.02
219.946	77.52
220.418	72.33
220.889	77.12
221.36	77.33
221.832	78.62
222.303	80.83
222.774	75.62
223.245	76.73
223.717	82.52
224.188	80.23
224.659	77.83
225.13	78.62
225.601	75.42
226.072	71.02
226.543	73.73
227.014	75.33
227.485	77.12
227.956	78.52
228.427	77.12
228.898	76.92
229.369	75.73
229.839	76.02
230.31	80.42
230.781	74.02
231.252	73.12
231.722	73.52
232.193	71.62
232.664	74.73
233.135	75.12
233.605	76.92
234.076	78.92
234.546	77.42
235.017	81.83
235.487	75.33
235.958	75.92
236.428	80.02
236.899	80.02
237.369	78.62
237.84	73.33
238.31	73.73
238.78	81.02
239.251	79.83
239.721	81.42
240.191	77.92
240.662	79.62
241.132	81.33
241.602	81.52
242.072	82.62
242.542	80.52
243.013	82.52
243.483	82.42
243.953	82.02
244.423	77.92
244.893	76.02
245.363	78.23
245.833	82.02
246.303	77.92
246.773	79.02
247.243	84.23
247.712	81.02
248.182	75.73
248.652	78.23
249.122	82.52
249.592	83.62
250.061	79.23
250.531	79.02
251.001	84.02
251.471	82.33
251.94	83.02
252.41	81.52
252.879	86.73
253.349	83.12
253.818	80.92
254.288	79.12
254.757	82.42
255.227	82.62
255.696	81.02
256.166	81.33
256.635	80.52
257.105	79.42
257.574	79.33
258.043	82.42
258.513	83.62
258.982	81.73
259.451	85.33
259.92	87.42
260.389	80.62
260.859	77.42
261.328	75.42
261.797	78.33
262.266	79.73
262.735	82.42
263.204	79.73
263.673	82.02
264.142	78.42
264.611	77.33
265.08	83.23
265.549	77.52
266.018	82.42
266.487	82.83
266.955	82.33
267.424	85.33
267.893	78.02
268.362	81.12
268.83	81.92
269.299	79.73
269.768	80.62
270.236	83.33
270.705	77.12
271.174	87.23
271.642	84.83
272.111	79.42
272.579	86.02
273.048	77.42
273.516	84.33
273.985	77.83
274.453	80.02
274.922	84.52
275.39	79.83
275.858	85.92
276.327	79.12
276.795	81.33
277.263	82.83
277.731	85.23
278.2	81.62
278.668	85.83
279.136	82.23
279.604	81.23
280.072	81.92
280.54	85.02
281.008	82.62
281.477	79.12
281.945	83.73
282.413	81.83
282.881	82.42
283.348	85.62
283.816	87.23
284.284	84.12
284.752	81.52
285.22	81.23
285.688	80.83
286.156	84.83
286.623	81.62
287.091	81.83
287.559	85.12
288.026	81.73
288.494	83.73
288.962	85.62
289.429	84.62
289.897	82.62
290.364	88.62
290.832	82.92
291.3	85.02
291.767	86.23
292.234	89.23
292.702	84.73
293.169	81.23
293.637	84.62
294.104	82.42
294.571	86.33
295.039	84.52
295.506	83.73
295.973	87.12
296.44	82.62
296.908	80.12
297.375	81.12
297.842	80.62
298.309	85.02
298.776	79.83
299.243	85.83
299.71	84.33
300.177	74.92
300.644	85.12
301.111	86.73
301.578	83.92
302.045	84.83
302.512	86.42
302.979	86.52
303.446	85.62
303.913	82.12
304.379	85.73
304.846	87.12
305.313	85.92
305.78	84.33
306.246	85.33
306.713	87.02
307.18	86.23
307.646	82.62
308.113	87.73
308.579	82.83
309.046	80.62
309.512	88.02
309.979	80.33
310.445	81.92
310.912	81.12
311.378	81.73
311.845	85.23
312.311	86.83
312.777	85.33
313.244	81.12
313.71	86.23
314.176	87.52
314.642	86.02
315.109	86.62
315.575	87.33
316.041	86.83
316.507	84.62
316.973	84.62
317.439	83.92
317.905	86.62
318.371	84.42
318.837	83.73
319.303	81.52
319.769	82.52
320.235	83.23
320.701	85.02
321.167	87.62
321.633	83.73
322.099	83.83
322.564	84.02
323.03	87.83
323.496	83.02
323.962	80.12
324.427	85.12
324.893	82.83
325.359	83.73
325.824	86.83
326.29	90.73
326.755	84.92
327.221	85.62
327.686	84.23
328.152	84.42
328.617	80.92
329.083	86.42
329.548	84.92
330.014	80.92
330.479	79.83
330.944	84.02
331.41	86.23
331.875	87.33
332.34	82.23
332.805	81.62
333.271	85.62
333.736	86.52
334.201	86.12
334.666	84.73
335.131	87.92
335.596	88.02
336.061	83.62
336.526	81.73
336.991	82.83
337.456	79.12
337.921	86.83
338.386	85.33
338.851	82.83
339.316	83.12
339.781	83.12
340.246	82.52
340.711	86.12
341.175	85.83
341.64	87.42
342.105	88.52
342.569	86.42
343.034	88.33
343.499	86.33
343.963	85.42
344.428	83.62
344.893	85.23
345.357	88.02
345.822	84.83
346.286	87.83
346.751	81.42
347.215	84.52
347.679	88.42
348.144	84.42
348.608	82.73
349.073	83.52
349.537	85.83
350.001	81.73
350.465	88.02
350.93	83.83
351.394	90.73
351.858	86.62
352.322	85.73
352.786	86.52
353.25	83.23
353.715	88.52
354.179	87.62
354.643	89.73
355.107	87.52
355.571	86.73
356.035	83.62
356.498	86.23
356.962	88.92
357.426	86.92
357.89	87.52
358.354	84.12
358.818	82.62
359.281	84.42
359.745	88.42
360.209	86.23
360.673	88.12
361.136	84.83
361.6	83.52
362.064	90.42
362.527	87.42
362.991	86.33
363.454	89.83
363.918	84.62
364.381	85.62
364.845	82.12
365.308	87.33
365.772	82.62
366.235	88.92
366.698	83.33
367.162	89.42
367.625	79.33
368.088	88.42
368.552	86.62
369.015	85.52
369.478	84.23
369.941	84.42
370.404	87.02
370.867	86.02
371.331	89.23
371.794	82.02
372.257	84.12
372.72	82.02
373.183	80.73
373.646	84.92
374.109	84.73
374.572	85.42
375.035	82.73
375.497	87.33
375.96	87.12
376.423	87.52
376.886	86.73
377.349	82.42
377.811	87.02
378.274	86.62
378.737	86.33
379.199	85.83
379.662	85.42
380.125	84.92
380.587	83.23
381.05	81.92
381.512	83.12
381.975	87.23
382.437	87.02
382.9	88.33
383.362	89.02
383.825	93.62
384.287	86.92
384.75	82.52
385.212	87.83
385.674	92.92
386.136	88.33
386.599	80.92
387.061	83.33
387.523	80.92
387.985	90.73
388.447	89.52
388.91	88.52
389.372	88.62
389.834	81.23
390.296	85.12
390.758	85.33
391.22	85.92
391.682	88.42
392.144	83.52
392.606	88.23
393.068	86.42
393.529	83.73
393.991	79.23
394.453	90.62
394.915	85.62
395.377	83.62
395.838	88.62
396.3	83.33
396.762	81.23
397.224	82.73
397.685	85.42
398.147	81.62
398.608	84.92
399.07	85.62
399.531	82.33
399.993	86.73
400.454	84.92
400.916	84.92
401.377	87.02
401.839	84.62
402.3	83.02
402.762	87.42
403.223	82.42
403.684	84.42
404.145	82.33
404.607	87.52
405.068	85.62
405.529	84.52
405.99	85.62
406.451	83.33
406.913	83.92
407.374	83.83
407.835	83.23
408.296	87.12
408.757	82.83
409.218	81.92
409.679	87.02
410.14	86.02
410.601	83.23
411.062	85.23
411.522	83.52
411.983	83.92
412.444	85.83
412.905	84.62
413.366	88.23
413.826	86.83
414.287	85.83
414.748	88.12
415.208	87.33
415.669	85.52
416.13	83.83
416.59	85.62
417.051	88.12
417.511	87.52
417.972	82.73
418.432	84.33
418.893	79.12
419.353	85.12
419.814	88.12
420.274	87.73
420.734	87.83
421.195	83.42
421.655	89.12
422.115	81.02
422.576	84.23
423.036	83.52
423.496	82.12
423.956	85.73
424.416	85.83
424.876	86.92
425.336	83.23
425.797	86.12
426.257	82.12
426.717	90.33
427.177	83.92
427.637	85.23
428.097	87.62
428.556	85.33
429.016	86.83
429.476	82.83
429.936	87.12
430.396	84.83
430.856	89.33
431.315	83.73
431.775	85.73
432.235	83.12
432.694	88.42
433.154	85.23
433.614	81.42
434.073	82.42
434.533	80.23
434.993	86.73
435.452	83.52
435.912	85.23
436.371	81.42
436.83	88.02
437.29	84.73
437.749	84.92
438.209	86.62
438.668	80.33
439.127	84.62
439.587	85.02
440.046	83.02
440.505	86.73
440.964	83.33
441.424	84.42
441.883	84.42
442.342	88.73
442.801	82.83
443.26	85.83
443.719	80.42
444.178	82.23
444.637	85.42
445.096	86.02
445.555	93.42
446.014	85.23
446.473	87.23
446.932	80.92
447.391	76.52
447.849	85.12
448.308	89.23
448.767	85.42
449.226	82.23
449.685	87.73
450.143	84.02
450.602	85.62
451.061	82.83
451.519	85.12
451.978	81.62
452.436	82.73
452.895	81.12
453.353	85.02
453.812	85.62
454.27	82.23
454.729	85.33
455.187	85.33
455.646	84.23
456.104	79.62
456.562	83.02
457.021	84.42
457.479	82.42
457.937	82.73
458.395	85.52
458.854	82.62
459.312	81.23
459.77	84.12
460.228	80.52
460.686	82.52
461.144	85.23
461.602	82.92
462.06	80.42
462.518	84.73
462.976	83.23
463.434	83.12
463.892	82.92
464.35	84.73
464.808	83.92
465.266	87.62
465.724	85.23
466.181	80.42
466.639	85.42
467.097	86.62
467.555	83.52
468.012	86.52
468.47	80.92
468.928	81.83
469.385	86.33
469.843	81.02
470.3	81.52
470.758	83.02
471.215	83.42
471.673	78.02
472.13	82.92
472.588	85.52
473.045	84.62
473.503	86.23
473.96	83.92
474.417	79.42
474.875	82.33
475.332	79.52
475.789	86.33
476.246	83.52
476.704	84.12
477.161	83.12
477.618	86.62
478.075	87.02
478.532	79.92
478.989	80.33
479.446	90.83
479.903	84.92
480.36	84.83
480.817	82.12
481.274	79.92
481.731	83.12
482.188	87.33
482.645	84.23
483.102	84.52
483.558	85.92
484.015	82.02
484.472	80.92
484.929	86.42
485.385	79.52
485.842	84.73
486.299	81.52
486.755	80.92
487.212	79.02
487.668	78.42
488.125	80.62
488.582	85.42
489.038	83.23
489.494	79.52
489.951	80.23
490.407	83.42
490.864	84.83
491.32	81.92
491.776	80.42
492.233	90.73
492.689	88.12
493.145	86.23
493.602	82.73
494.058	82.52
494.514	83.92
494.97	82.62
495.426	83.73
495.882	85.02
496.338	82.33
496.794	83.02
497.251	83.23
497.707	83.62
498.163	84.33
498.618	81.83
499.074	86.33
499.53	81.33
499.986	87.73
500.442	84.92
500.898	85.23
501.354	88.52
501.809	84.62
502.265	84.62
502.721	84.83
503.177	89.02
503.632	85.33
504.088	81.02
504.543	82.52
504.999	85.92
505.455	83.33
505.91	82.92
506.366	81.12
506.821	80.92
507.277	81.12
507.732	82.83
508.187	82.23
508.643	80.83
509.098	79.92
509.553	85.02
510.009	83.62
510.464	88.33
510.919	82.02
511.375	85.92
511.83	82.33
512.285	80.92
512.74	83.42
513.195	80.92
513.65	83.92
514.105	84.42
514.56	81.83
515.015	79.83
515.47	83.33
515.925	85.92
516.38	79.62
516.835	84.23
517.29	89.02
517.745	82.42
518.2	78.52
518.655	82.73
519.109	79.02
519.564	83.12
520.019	90.62
520.474	84.92
520.928	84.73
521.383	83.42
521.838	85.02
522.292	84.73
522.747	83.02
523.201	80.12
523.656	83.83
524.11	84.02
524.565	83.92
525.019	82.92
525.474	80.33
525.928	83.62
526.382	82.02
526.837	82.33
527.291	78.83
527.745	85.33
528.2	84.83
528.654	76.33
529.108	81.42
529.562	85.52
530.016	81.23
530.47	83.02
530.925	86.12
531.379	83.33
531.833	85.12
532.287	85.83
532.741	84.52
533.195	83.12
533.649	81.12
534.103	82.12
534.556	83.23
535.01	85.92
535.464	85.42
535.918	82.83
536.372	83.92
536.826	81.73
537.279	86.52
537.733	91.23
538.187	81.92
538.64	85.23
539.094	87.83
539.548	78.52
540.001	86.12
540.455	82.42
540.908	81.62
541.362	84.83
541.815	75.12
542.269	86.02
542.722	80.12
543.175	78.23
543.629	80.73
544.082	80.33
544.536	84.92
544.989	86.23
545.442	86.83
545.895	81.92
546.349	82.33
546.802	84.92
547.255	81.23
547.708	81.92
548.161	82.83
548.614	82.02
549.067	84.73
549.52	83.52
549.973	84.52
550.426	81.02
550.879	87.33
551.332	84.92
551.785	82.52
552.238	82.42
552.691	87.73
553.144	87.73
553.596	85.62
554.049	86.73
554.502	85.83
554.955	85.02
555.407	80.73
555.86	81.92
556.313	87.42
556.765	90.02
557.218	81.33
557.67	83.23
558.123	83.62
558.576	85.83
559.028	88.52
559.48	85.73
559.933	84.02
560.385	87.02
560.838	86.92
561.29	83.02
561.742	85.92
562.195	81.92
562.647	82.83
563.099	85.33
563.551	85.23
564.004	82.23
564.456	85.73
564.908	80.92
565.36	80.92
565.812	82.23
566.264	81.92
566.716	88.02
567.168	82.12
567.62	84.73
568.072	84.23
568.524	82.92
568.976	83.73
569.428	83.23
569.88	90.73
570.332	82.83
570.784	80.83
571.235	79.83
571.687	79.62
572.139	82.83
572.59	85.42
573.042	83.92
573.494	82.83
573.945	84.33
574.397	84.23
574.849	84.23
575.3	87.02
575.752	83.73
576.203	89.12
576.655	84.73
577.106	83.83
577.557	83.23
578.009	80.92
578.46	84.92
578.912	86.23
579.363	78.92
579.814	79.92
580.265	84.83
580.717	83.12
581.168	80.02
581.619	79.42
582.07	82.92
582.521	82.12
582.972	81.23
583.423	81.83
583.875	79.33
584.326	87.52
584.777	87.12
585.227	85.12
585.678	86.83
586.129	82.62
586.58	82.12
587.031	82.83
587.482	82.92
587.933	83.23
588.384	85.33
588.834	79.92
589.285	85.23
589.736	81.33
590.186	79.52
590.637	76.23
591.088	83.33
591.538	83.62
591.989	80.12
592.439	84.12
592.89	84.12
593.34	81.83
593.791	78.92
594.241	85.92
594.692	84.92
595.142	84.73
595.593	82.83
596.043	83.92
596.493	84.92
596.943	77.52
597.394	83.23
597.844	82.02
598.294	83.02
598.744	86.73
599.195	82.62
599.645	83.73
600.095	83.02
600.545	79.73
600.995	82.23
601.445	82.42
601.895	77.42
602.345	80.12
602.795	83.02
603.245	81.62
603.695	84.92
604.145	82.62
604.594	83.83
605.044	82.83
605.494	85.42
605.944	83.73
606.393	85.42
606.843	82.62
607.293	85.02
607.743	82.52
608.192	80.02
608.642	81.52
609.091	82.62
609.541	83.73
609.99	83.83
610.44	84.42
610.889	86.23
611.339	82.33
611.788	86.52
612.238	82.73
612.687	83.33
613.136	83.92
613.586	81.52
614.035	88.12
614.484	84.92
614.933	80.83
615.383	79.83
615.832	85.23
616.281	87.92
616.73	82.52
617.179	82.42
617.628	82.33
618.077	80.73
618.526	78.73
618.975	86.62
619.424	86.73
619.873	78.12
620.322	82.73
620.771	80.83
621.22	77.83
621.669	84.42
622.118	85.23
622.567	83.12
623.015	84.23
623.464	81.33
623.913	86.12
624.361	81.12
624.81	81.42
625.259	78.83
625.707	84.52
626.156	83.73
626.604	85.42
627.053	85.83
627.501	79.52
627.95	80.33
628.398	81.83
628.847	83.73
629.295	85.73
629.744	85.83
630.192	84.42
630.64	79.73
631.089	82.62
631.537	82.12
631.985	82.33
632.433	80.12
632.881	83.62
633.33	80.12
633.778	81.83
634.226	86.83
634.674	82.73
635.122	81.42
635.57	84.23
636.018	83.33
636.466	87.12
636.914	89.02
637.362	79.73
637.81	84.33
638.258	89.92
638.705	82.52
639.153	87.23
639.601	79.02
640.049	85.23
640.497	82.42
640.944	85.33
641.392	85.12
641.84	81.62
642.287	83.12
642.735	85.73
643.182	82.83
643.63	78.92
644.078	82.12
644.525	85.92
644.973	90.92
645.42	85.12
645.867	85.42
646.315	84.52
646.762	82.73
647.21	86.12
647.657	83.23
648.104	84.33
648.551	86.12
648.999	86.42
649.446	86.33
649.893	89.83
650.34	85.42
650.787	84.73
651.234	79.83
651.682	80.62
652.129	81.62
652.576	85.42
653.023	86.62
653.47	91.33
653.917	84.52
654.363	84.52
654.81	81.62
655.257	89.02
655.704	84.62
656.151	84.02
656.598	85.73
657.044	81.73
657.491	80.62
657.938	81.73
658.385	90.02
658.831	84.33
659.278	82.62
659.724	81.23
660.171	82.92
660.618	84.12
661.064	81.02
661.511	85.52
661.957	81.42
662.404	85.62
662.85	88.33
663.296	82.52
663.743	83.23
664.189	86.83
664.635	82.42
665.082	80.42
665.528	84.33
665.974	81.92
666.42	81.52
666.867	88.33
667.313	83.62
667.759	83.12
668.205	82.23
668.651	89.12
669.097	79.12
669.543	86.23
669.989	81.73
670.435	86.73
670.881	84.62
671.327	85.52
671.773	81.83
672.219	81.12
672.665	82.42
673.11	81.02
673.556	88.62
674.002	84.42
674.448	83.52
674.893	87.92
675.339	89.92
675.785	84.02
676.23	82.02
676.676	87.12
677.122	84.92
677.567	81.42
678.013	82.52
678.458	86.83
678.904	82.02
679.349	85.23
679.794	89.62
680.24	81.33
680.685	87.12
681.131	82.42
681.576	82.83
682.021	86.52
682.466	82.92
682.912	82.73
683.357	85.33
683.802	81.23
684.247	83.23
684.692	80.42
685.137	87.62
685.583	88.33
686.028	85.02
686.473	84.33
686.918	83.23
687.363	85.52
687.807	80.23
688.252	79.62
688.697	87.83
689.142	81.42
689.587	86.33
690.032	87.33
690.477	86.42
690.921	84.92
691.366	84.12
691.811	93.92
692.255	86.62
692.7	83.23
693.145	79.92
693.589	81.23
694.034	84.62
694.478	89.02
694.923	81.02
695.367	80.62
695.812	88.23
696.256	83.52
696.701	89.33
697.145	86.23
697.59	84.52
698.034	83.52
698.478	90.92
698.922	83.62
699.367	83.62
699.811	85.52
700.255	87.02
700.699	88.33
701.143	82.23
701.588	87.73
702.032	81.12
702.476	87.42
702.92	80.33
703.364	84.62
703.808	85.12
704.252	88.52
704.696	84.62
705.14	84.33
705.584	85.73
706.027	86.02
706.471	84.83
706.915	82.33
707.359	81.12
707.803	91.83
708.246	85.62
708.69	82.23
709.134	82.42
709.577	90.12
710.021	83.83
710.465	86.73
710.908	83.33
711.352	83.33
711.795	86.42
712.239	79.73
712.682	84.62
713.126	83.52
713.569	84.33
714.012	81.52
714.456	83.73
714.899	83.83
715.342	81.12
715.786	84.73
716.229	81.73
716.672	83.42
717.115	80.33
717.558	85.52
718.002	82.73
718.445	89.42
718.888	86.33
719.331	82.62
719.774	83.33
720.217	83.42
720.66	85.02
721.103	84.02
721.546	89.23
721.989	87.62
722.432	88.23
722.874	83.52
723.317	83.83
723.76	87.12
724.203	83.12
724.645	82.42
725.088	85.73
725.531	82.12
725.974	83.83
726.416	83.73
726.859	89.52
727.301	79.52
727.744	87.33
728.187	85.02
728.629	81.83
729.071	80.23
729.514	84.23
729.956	78.83
730.399	85.52
730.841	83.42
731.283	78.83
731.726	86.23
732.168	88.62
732.61	87.52
733.053	88.52
733.495	86.83
733.937	86.92
734.379	81.23
734.821	86.62
735.263	84.12
735.705	87.02
736.148	82.73
736.59	85.52
737.032	85.42
737.474	87.92
737.916	87.62
738.357	85.73
738.799	84.42
739.241	81.23
739.683	82.92
740.125	83.73
740.567	84.12
741.008	86.33
741.45	80.33
741.892	87.23
742.334	81.42
742.775	84.23
743.217	82.23
743.658	87.23
744.1	81.83
744.542	90.62
744.983	88.83
745.425	80.92
745.866	79.12
746.307	80.33
746.749	86.02
747.19	85.02
747.632	91.12
748.073	82.92
748.514	80.12
748.956	85.42
749.397	85.42
749.838	89.42
750.279	89.12
750.72	87.42
751.162	83.83
751.603	84.23
752.044	77.83
752.485	88.02
752.926	82.62
753.367	89.23
753.808	83.83
754.249	83.73
754.69	86.52
755.131	83.42
755.572	91.02
756.013	87.83
756.453	90.02
756.894	82.52
757.335	85.52
757.776	87.73
758.216	85.02
758.657	90.62
759.098	83.42
759.538	86.42
759.979	89.12
760.42	88.92
760.86	90.12
761.301	89.92
761.741	80.52
762.182	84.02
762.622	85.23
763.063	85.52
763.503	84.12
763.943	82.42
764.384	82.33
764.824	82.12
765.264	88.52
765.705	84.73
766.145	86.02
766.585	89.12
767.025	91.33
767.465	88.42
767.906	88.73
768.346	88.23
768.786	82.92
769.226	85.92
769.666	86.62
770.106	88.52
770.546	90.52
770.986	83.92
771.426	82.02
771.866	88.73
772.306	86.52
772.745	85.23
773.185	84.52
773.625	85.62
774.065	88.12
774.505	86.12
774.944	86.83
775.384	84.33
775.824	78.83
776.263	79.23
776.703	87.23
777.142	86.52
777.582	85.92
778.021	81.92
778.461	82.92
778.9	81.12
779.34	85.83
779.779	88.92
780.219	88.73
780.658	90.12
781.097	79.42
781.537	88.42
781.976	82.33
782.415	86.23
782.855	85.12
783.294	85.73
783.733	84.92
784.172	82.92
784.611	80.42
785.05	86.02
785.489	86.83
785.928	84.12
786.367	88.12
786.806	86.62
787.245	84.23
787.684	88.83
788.123	89.02
788.562	87.42
789.001	81.62
789.44	81.23
789.879	80.62
790.317	84.23
790.756	84.02
791.195	84.83
791.634	85.52
792.072	86.33
792.511	83.23
792.95	82.23
793.388	88.02
793.827	86.62
794.265	87.52
794.704	86.62
795.142	86.12
795.581	85.52
796.019	83.73
796.458	80.73
796.896	79.73
797.334	86.23
797.773	86.73
798.211	79.52
798.649	85.83
799.087	84.02
799.526	88.62
799.964	84.73
800.402	83.12
800.84	83.73
801.278	83.92
801.716	84.02
802.154	88.02
802.592	89.73
803.03	82.92
803.468	84.02
803.906	81.33
804.344	88.23
804.782	85.23
805.22	84.62
805.658	81.23
806.096	84.02
806.533	84.12
806.971	83.33
807.409	82.02
807.847	87.33
808.284	86.33
808.722	81.12
809.16	84.83
809.597	80.23
810.035	85.52
810.472	87.92
810.91	82.33
811.347	85.23
811.785	88.12
812.222	82.02
812.66	86.12
813.097	84.62
813.535	85.92
813.972	85.23
814.409	88.02
814.846	86.92
815.284	88.23
815.721	86.33
816.158	86.33
816.595	86.42
817.032	87.83
817.47	85.12
817.907	80.62
818.344	80.52
818.781	86.62
819.218	87.12
819.655	89.52
820.092	88.42
820.529	82.02
820.966	84.73
821.403	84.42
821.839	81.33
822.276	84.83
822.713	85.83
823.15	84.02
823.587	85.92
824.023	80.42
824.46	79.62
824.897	87.33
825.333	85.62
825.77	83.42
826.206	91.52
826.643	87.42
827.08	87.33
827.516	86.62
827.953	85.92
828.389	84.52
828.825	83.12
829.262	83.23
829.698	81.23
830.135	84.52
830.571	85.73
831.007	84.92
831.443	85.52
831.88	85.83
832.316	82.12
832.752	93.62
833.188	81.62
833.624	82.42
834.06	87.92
834.497	84.62
834.933	84.42
835.369	85.02
835.805	85.52
836.241	79.83
836.677	86.83
837.112	86.83
837.548	83.02
837.984	88.12
838.42	89.33
838.856	84.83
839.292	79.62
839.727	88.42
840.163	83.33
840.599	86.12
841.034	85.12
841.47	86.33
841.906	88.23
842.341	86.73
842.777	87.12
843.212	80.33
843.648	83.52
844.083	86.42
844.519	88.02
844.954	82.62
845.39	82.83
845.825	83.83
846.261	81.52
846.696	84.42
847.131	82.33
847.566	85.02
848.002	86.23
848.437	86.23
848.872	86.52
849.307	84.73
849.742	89.42
850.177	88.33
850.613	87.62
851.048	81.73
851.483	83.62
851.918	83.92
852.353	87.02
852.788	86.23
853.223	79.92
853.657	84.52
854.092	82.52
854.527	86.02
854.962	81.42
855.397	84.92
855.832	88.52
856.266	83.33
856.701	84.62
857.136	86.92
857.57	85.83
858.005	87.52
858.44	88.02
858.874	81.23
859.309	80.42
859.743	85.23
860.178	84.12
860.612	83.02
861.047	86.42
861.481	85.33
861.915	85.23
862.35	85.33
862.784	87.02
863.218	87.52
863.653	82.62
864.087	80.83
864.521	85.33
864.955	84.42
865.39	88.73
865.824	82.73
866.258	87.12
866.692	89.83
867.126	84.02
867.56	88.73
867.994	82.62
868.428	83.42
868.862	86.02
869.296	84.33
869.73	81.02
870.164	85.33
870.598	86.62
871.031	86.52
871.465	88.83
871.899	87.83
872.333	88.23
872.766	81.52
873.2	85.92
873.634	84.23
874.067	81.83
874.501	82.62
874.935	86.33
875.368	85.73
875.802	85.62
876.235	85.23
876.669	88.52
877.102	80.42
877.535	85.92
877.969	85.73
878.402	85.62
878.836	88.92
879.269	87.23
879.702	86.83
880.135	89.33
880.569	84.52
881.002	87.12
881.435	83.73
881.868	83.02
882.301	85.92
882.734	84.92
883.167	83.73
883.601	86.92
884.034	80.52
884.467	87.83
884.899	87.12
885.332	83.62
885.765	84.92
886.198	84.52
886.631	82.62
887.064	85.73
887.497	83.12
887.929	82.62
888.362	85.52
888.795	87.23
889.228	84.92
889.66	85.52
890.093	82.23
890.526	84.42
890.958	83.42
891.391	83.12
891.823	89.12
892.256	85.52
892.688	85.92
893.121	88.83
893.553	80.92
893.985	85.52
894.418	85.42
894.85	88.33
895.282	85.12
895.715	86.02
896.147	82.92
896.579	87.02
897.011	83.52
897.444	89.12
897.876	84.73
898.308	82.12
898.74	86.42
899.172	82.52
899.604	80.92
900.036	83.73
900.468	85.02
900.9	86.42
901.332	83.42
901.764	87.33
902.196	85.02
902.628	88.83
903.06	87.83
903.491	88.12
903.923	86.92
904.355	85.62
904.787	84.23
905.218	82.52
905.65	83.62
906.082	81.12
906.513	82.52
906.945	83.62
907.376	83.02
907.808	81.73
908.239	88.62
908.671	86.83
909.102	85.73
909.534	81.02
909.965	89.23
910.397	85.83
910.828	82.42
911.259	86.83
911.691	85.33
912.122	82.92
912.553	82.83
912.984	84.42
913.415	86.33
913.847	83.02
914.278	86.73
914.709	81.83
915.14	86.62
915.571	85.33
916.002	83.23
916.433	84.33
916.864	84.42
917.295	82.33
917.726	84.23
918.157	86.92
918.587	81.02
919.018	81.62
919.449	84.33
919.88	87.52
920.311	87.23
920.741	79.33
921.172	82.33
921.603	88.73
922.033	84.83
922.464	85.42
922.895	87.33
923.325	81.23
923.756	88.02
924.186	86.92
924.617	80.02
925.047	82.12
925.478	84.52
925.908	83.23
926.338	83.62
926.769	82.62
927.199	84.73
927.629	85.02
928.06	83.73
928.49	84.62
928.92	87.42
929.35	89.12
929.78	87.62
930.21	85.02
930.641	89.52
931.071	83.23
931.501	80.73
931.931	86.23
932.361	82.42
932.791	84.33
933.221	85.23
933.651	84.23
934.08	85.83
934.51	82.83
934.94	82.62
935.37	81.73
935.8	87.33
936.229	85.42
936.659	85.42
937.089	84.83
937.519	85.52
937.948	88.12
938.378	87.52
938.807	81.52
939.237	87.52
939.666	84.12
940.096	82.02
940.525	86.42
940.955	81.02
941.384	89.12
941.814	86.33
942.243	86.42
942.672	81.23
943.102	87.62
943.531	85.62
943.96	79.73
944.39	85.42
944.819	83.92
945.248	88.23
945.677	84.83
946.106	81.23
946.535	84.02
946.964	82.23
947.393	87.02
947.822	84.23
948.251	86.52
948.68	80.92
949.109	84.73
949.538	87.52
949.967	82.52
950.396	85.62
950.825	86.92
951.254	84.42
951.682	84.42
952.111	85.52
952.54	82.73
952.969	85.92
953.397	83.52
953.826	84.83
954.254	83.23
954.683	84.62
955.112	90.42
955.54	88.83
955.969	83.73
956.397	80.42
956.826	82.52
957.254	81.73
957.682	86.42
958.111	88.52
958.539	83.73
958.967	86.92
959.396	81.92
959.824	83.42
960.252	86.33
960.68	84.92
961.109	90.12
961.537	82.33
961.965	87.42
962.393	80.23
962.821	82.12
963.249	83.33
963.677	85.92
964.105	83.83
964.533	82.02
964.961	86.23
965.389	79.62
965.817	90.42
966.245	84.33
966.672	89.23
967.1	85.62
967.528	82.52
967.956	84.62
968.383	84.23
968.811	84.23
969.239	79.02
969.666	82.12
970.094	87.92
970.522	92.73
970.949	86.42
971.377	85.42
971.804	85.23
972.232	79.83
972.659	77.73
973.087	82.83
973.514	87.33
973.941	88.33
974.369	84.83
974.796	84.92
975.223	80.73
975.651	84.12
976.078	82.83
976.505	86.33
976.932	85.33
977.359	85.52
977.786	85.73
978.214	82.12
978.641	82.02
979.068	86.83
979.495	80.42
979.922	87.62
980.349	80.42
980.776	80.73
981.202	83.02
981.629	85.12
982.056	86.92
982.483	86.42
982.91	84.52
983.337	80.42
983.763	79.12
984.19	82.42
984.617	79.73
985.043	91.42
985.47	88.52
985.897	84.83
986.323	85.12
986.75	89.23
987.176	80.92
987.603	80.33
988.029	86.83
988.456	84.42
988.882	82.23
989.308	84.42
989.735	83.83
990.161	79.42
990.587	89.23
991.014	83.92
991.44	83.73
991.866	84.52
992.292	81.62
992.719	83.52
993.145	84.02
993.571	88.02
993.997	86.02
994.423	85.62
994.849	88.23
995.275	83.83
995.701	86.12
996.127	86.83
996.553	85.33
996.979	82.12
997.405	87.02
997.83	82.42
998.256	77.23
998.682	86.52
999.108	85.02
999.534	86.12
999.959	80.02
1000.385	88.73
1000.811	87.23
1001.236	81.23
1001.662	89.33
1002.087	81.92
1002.513	85.12
1002.938	84.02
1003.364	83.52
1003.789	81.33
1004.215	82.02
1004.64	81.92
1005.066	82.73
1005.491	85.92
1005.916	86.23
1006.342	81.73
1006.767	78.83
1007.192	78.62
1007.617	84.62
1008.042	82.23
1008.468	83.02
1008.893	85.62
1009.318	84.73
1009.743	79.83
1010.168	83.23
1010.593	83.02
1011.018	77.73
1011.443	80.92
1011.868	79.73
1012.293	82.92
1012.718	81.52
1013.143	83.52
1013.567	83.73
1013.992	84.52
1014.417	85.33
1014.842	83.83
1015.267	83.23
1015.691	83.92
1016.116	80.02
1016.541	82.02
1016.965	87.83
1017.39	81.52
1017.814	80.62
1018.239	82.23
1018.663	84.33
1019.088	83.73
1019.512	85.23
1019.937	82.23
1020.361	80.92
1020.785	88.83
1021.21	84.42
1021.634	81.02
1022.058	86.12
1022.483	81.92
1022.907	79.12
1023.331	84.62
1023.755	85.33
1024.179	78.42
1024.604	84.83
1025.028	78.52
1025.452	89.52
1025.876	81.83
1026.3	87.12
1026.724	79.92
1027.148	82.12
1027.572	86.62
1027.996	88.33
1028.42	79.33
1028.843	78.73
1029.267	81.92
1029.691	86.33
1030.115	79.33
1030.539	81.33
1030.962	86.62
1031.386	84.23
1031.81	80.92
1032.233	88.42
1032.657	90.12
1033.08	84.83
1033.504	80.62
1033.927	83.02
1034.351	84.33
1034.774	81.83
1035.198	82.73
1035.621	86.02
1036.045	81.62
1036.468	84.83
1036.891	81.73
1037.315	86.62
1037.738	88.33
1038.161	84.52
1038.584	86.52
1039.008	84.62
1039.431	80.92
1039.854	82.52
1040.277	78.02
1040.7	85.23
1041.123	85.12
1041.546	81.33
1041.969	82.62
1042.392	83.02
1042.815	86.12
1043.238	82.73
1043.661	82.83
1044.084	79.12
1044.507	80.23
1044.93	84.02
1045.352	81.12
1045.775	84.02
1046.198	87.23
1046.621	84.42
1047.043	78.83
1047.466	88.83
1047.889	86.52
1048.311	88.12
1048.734	80.92
1049.156	87.33
1049.579	86.62
1050.001	82.12
1050.424	84.52
1050.846	79.62
1051.269	86.73
1051.691	81.02
1052.113	85.02
1052.536	80.33
1052.958	82.02
1053.38	90.23
1053.802	90.62
1054.225	85.42
1054.647	81.23
1055.069	84.73
1055.491	82.23
1055.913	81.83
1056.335	83.52
1056.757	85.83
1057.179	85.42
1057.601	84.12
1058.023	77.42
1058.445	83.62
1058.867	82.62
1059.289	85.73
1059.711	84.02
1060.133	82.02
1060.555	81.12
1060.976	83.12
1061.398	87.33
1061.82	86.33
1062.241	84.02
1062.663	85.62
1063.085	85.02
1063.506	84.62
1063.928	85.92
1064.35	83.23
1064.771	87.23
1065.193	87.73
1065.614	86.12
1066.035	79.23
1066.457	88.42
1066.878	86.23
1067.3	85.62
1067.721	82.12
1068.142	79.73
1068.564	84.33
1068.985	82.23
1069.406	87.92
1069.827	82.12
1070.248	84.12
1070.67	83.83
1071.091	84.73
1071.512	87.02
1071.933	84.23
1072.354	83.52
1072.775	83.52
1073.196	82.02
1073.617	78.62
1074.038	83.02
1074.459	82.23
1074.88	84.92
1075.3	85.42
1075.721	84.33
1076.142	88.83
1076.563	79.92
1076.983	85.92
1077.404	85.73
1077.825	84.83
1078.246	84.42
1078.666	83.42
1079.087	78.23
1079.507	83.42
1079.928	88.92
1080.348	85.83
1080.769	88.42
1081.189	83.42
1081.61	84.92
1082.03	84.73
1082.451	83.33
1082.871	83.73
1083.291	89.12
1083.711	82.52
1084.132	81.83
1084.552	84.33
1084.972	82.52
1085.392	87.92
1085.813	78.23
1086.233	83.52
1086.653	85.02
1087.073	82.33
1087.493	85.33
1087.913	83.12
1088.333	85.52
1088.753	80.33
1089.173	85.73
1089.593	86.02
1090.013	84.33
1090.433	86.02
1090.852	81.52
1091.272	85.33
1091.692	81.23
1092.112	85.73
1092.531	88.02
1092.951	83.02
1093.371	80.33
1093.79	87.02
1094.21	82.73
1094.63	84.23
1095.049	90.02
1095.469	83.83
1095.888	82.83
1096.308	86.83
1096.727	85.42
1097.146	88.62
1097.566	83.52
1097.985	84.33
1098.405	82.33
1098.824	84.52
1099.243	81.92
1099.662	88.33
1100.082	84.52
1100.501	80.12
1100.92	82.52
1101.339	83.42
1101.758	85.12
