Data from DH-3PlusCalLight-Deuterium_HRD10391_13-35-11-092.txt Node
Date: Thu Feb 15 13:35:11 EST 2018
User: Ender
Spectrometer: HR+D1039
Trigger mode: 0
Integration Time (sec): 2.730000E-2
Scans to average: 10
Electric dark correction enabled: true
Nonlinearity correction enabled: false
Boxcar width: 0
XAxis mode: Wavelengths
Number of Pixels in Spectrum: 2048
>>>>>Begin Spectral Data<<<<<
187.836	3.39
188.309	3.39
188.782	3.39
189.255	-7.11
189.728	-4.71
190.201	-5.01
190.674	-11.31
191.147	-9.21
191.619	-6.71
192.092	-9.81
192.565	1.19
193.038	-1.81
193.511	-5.31
193.984	5.09
194.456	5.19
194.929	10.49
195.402	20.29
195.874	15.29
196.347	18.39
196.82	27.29
197.292	27.99
197.765	31.99
198.237	35.39
198.71	40.59
199.182	43.49
199.655	46.79
200.127	53.69
200.6	59.29
201.072	54.99
201.544	57.29
202.017	66.29
202.489	64.39
202.961	64.79
203.433	69.39
203.906	71.49
204.378	76.19
204.85	78.59
205.322	81.89
205.794	78.89
206.266	79.69
206.739	80.89
207.211	86.19
207.683	83.19
208.155	78.49
208.627	80.49
209.099	86.59
209.57	90.39
210.042	88.99
210.514	85.19
210.986	85.59
211.458	80.09
211.93	80.39
212.402	81.09
212.873	86.09
213.345	86.99
213.817	78.19
214.288	86.49
214.76	85.59
215.232	85.79
215.703	81.59
216.175	84.89
216.646	77.59
217.118	81.59
217.589	83.09
218.061	73.69
218.532	87.79
219.004	83.89
219.475	82.39
219.946	74.59
220.418	80.29
220.889	86.09
221.36	84.09
221.832	82.59
222.303	78.59
222.774	86.69
223.245	78.29
223.717	85.19
224.188	85.19
224.659	85.39
225.13	89.09
225.601	86.69
226.072	91.39
226.543	89.39
227.014	93.69
227.485	91.09
227.956	91.49
228.427	91.79
228.898	94.79
229.369	99.29
229.839	97.29
230.31	107.09
230.781	99.99
231.252	105.09
231.722	103.89
232.193	98.79
232.664	100.39
233.135	105.49
233.605	99.99
234.076	98.59
234.546	99.99
235.017	94.49
235.487	94.09
235.958	94.99
236.428	88.29
236.899	89.79
237.369	88.19
237.84	87.69
238.31	85.19
238.78	91.09
239.251	86.29
239.721	82.49
240.191	81.29
240.662	85.69
241.132	87.59
241.602	79.49
242.072	84.19
242.542	80.59
243.013	90.19
243.483	87.59
243.953	83.09
244.423	84.59
244.893	84.29
245.363	83.09
245.833	82.79
246.303	82.49
246.773	82.89
247.243	80.99
247.712	82.59
248.182	82.19
248.652	81.29
249.122	85.39
249.592	82.49
250.061	84.69
250.531	86.39
251.001	83.39
251.471	85.09
251.94	83.39
252.41	80.99
252.879	86.09
253.349	92.09
253.818	88.19
254.288	93.09
254.757	90.79
255.227	91.49
255.696	88.89
256.166	97.09
256.635	103.29
257.105	98.39
257.574	105.69
258.043	107.59
258.513	114.39
258.982	115.59
259.451	119.59
259.92	121.09
260.389	133.19
260.859	142.19
261.328	148.49
261.797	153.19
262.266	161.59
262.735	162.79
263.204	165.49
263.673	170.89
264.142	180.69
264.611	188.09
265.08	193.09
265.549	192.49
266.018	202.39
266.487	206.79
266.955	211.19
267.424	222.09
267.893	221.59
268.362	225.79
268.83	232.39
269.299	227.59
269.768	233.89
270.236	237.79
270.705	242.09
271.174	236.89
271.642	233.39
272.111	239.39
272.579	261.39
273.048	251.49
273.516	247.99
273.985	250.29
274.453	248.69
274.922	254.79
275.39	251.39
275.858	249.79
276.327	246.19
276.795	249.19
277.263	248.09
277.731	251.59
278.2	250.59
278.668	246.99
279.136	248.49
279.604	243.59
280.072	247.29
280.54	248.39
281.008	250.09
281.477	246.79
281.945	244.19
282.413	237.59
282.881	237.89
283.348	234.79
283.816	237.09
284.284	227.99
284.752	235.19
285.22	234.49
285.688	238.99
286.156	228.19
286.623	230.79
287.091	231.09
287.559	231.39
288.026	235.99
288.494	235.09
288.962	236.39
289.429	234.69
289.897	235.99
290.364	241.79
290.832	243.69
291.3	245.19
291.767	247.69
292.234	250.19
292.702	251.59
293.169	259.49
293.637	258.09
294.104	263.49
294.571	261.49
295.039	262.99
295.506	264.99
295.973	271.09
296.44	271.99
296.908	269.69
297.375	271.89
297.842	278.09
298.309	278.99
298.776	269.69
299.243	273.39
299.71	272.89
300.177	273.59
300.644	270.99
301.111	271.99
301.578	284.69
302.045	273.29
302.512	276.69
302.979	268.39
303.446	272.39
303.913	274.09
304.379	268.89
304.846	270.89
305.313	270.39
305.78	269.39
306.246	265.09
306.713	272.69
307.18	263.39
307.646	266.59
308.113	257.59
308.579	266.79
309.046	259.49
309.512	266.99
309.979	259.59
310.445	261.49
310.912	259.79
311.378	258.49
311.845	256.59
312.311	254.29
312.777	253.29
313.244	262.49
313.71	256.99
314.176	257.49
314.642	262.39
315.109	260.29
315.575	259.99
316.041	256.69
316.507	266.59
316.973	266.19
317.439	262.59
317.905	271.39
318.371	272.39
318.837	262.89
319.303	279.29
319.769	274.39
320.235	278.89
320.701	282.59
321.167	279.89
321.633	285.89
322.099	282.09
322.564	276.29
323.03	284.49
323.496	279.59
323.962	281.59
324.427	281.09
324.893	283.89
325.359	280.89
325.824	280.49
326.29	277.99
326.755	283.99
327.221	279.79
327.686	284.89
328.152	275.59
328.617	270.79
329.083	277.89
329.548	275.99
330.014	277.49
330.479	270.79
330.944	274.59
331.41	273.89
331.875	266.39
332.34	253.39
332.805	260.79
333.271	258.49
333.736	249.59
334.201	259.79
334.666	256.79
335.131	251.29
335.596	253.59
336.061	256.09
336.526	256.29
336.991	259.19
337.456	248.29
337.921	244.19
338.386	254.89
338.851	255.19
339.316	259.09
339.781	256.19
340.246	260.39
340.711	263.29
341.175	258.49
341.64	269.99
342.105	270.59
342.569	278.09
343.034	279.99
343.499	277.19
343.963	276.89
344.428	285.79
344.893	282.69
345.357	280.59
345.822	278.79
346.286	284.49
346.751	294.79
347.215	299.89
347.679	298.99
348.144	290.59
348.608	295.99
349.073	305.39
349.537	304.49
350.001	311.29
350.465	303.29
350.93	302.59
351.394	297.69
351.858	298.09
352.322	302.19
352.786	299.99
353.25	306.19
353.715	304.09
354.179	307.49
354.643	303.59
355.107	302.49
355.571	306.39
356.035	304.49
356.498	301.79
356.962	307.49
357.426	305.79
357.89	299.59
358.354	306.29
358.818	301.59
359.281	300.09
359.745	299.99
360.209	304.19
360.673	299.59
361.136	300.89
361.6	300.69
362.064	305.99
362.527	299.39
362.991	308.09
363.454	301.89
363.918	304.39
364.381	307.09
364.845	301.39
365.308	315.59
365.772	314.49
366.235	306.99
366.698	311.49
367.162	305.59
367.625	313.69
368.088	310.19
368.552	301.19
369.015	303.89
369.478	304.29
369.941	304.39
370.404	311.99
370.867	307.59
371.331	301.99
371.794	305.19
372.257	307.89
372.72	304.49
373.183	306.29
373.646	305.99
374.109	316.39
374.572	319.29
375.035	311.59
375.497	314.19
375.96	315.09
376.423	315.49
376.886	313.59
377.349	322.29
377.811	315.79
378.274	331.99
378.737	325.49
379.199	323.69
379.662	317.69
380.125	324.59
380.587	331.69
381.05	322.19
381.512	329.79
381.975	331.09
382.437	327.29
382.9	332.19
383.362	328.99
383.825	324.49
384.287	329.29
384.75	324.49
385.212	326.39
385.674	338.59
386.136	334.79
386.599	337.19
387.061	338.29
387.523	343.39
387.985	329.29
388.447	333.89
388.91	330.59
389.372	337.59
389.834	337.89
390.296	331.59
390.758	338.49
391.22	342.89
391.682	346.99
392.144	341.09
392.606	336.79
393.068	337.99
393.529	333.39
393.991	334.29
394.453	330.09
394.915	323.39
395.377	335.89
395.838	338.89
396.3	334.49
396.762	350.99
397.224	351.49
397.685	350.69
398.147	348.29
398.608	345.69
399.07	341.69
399.531	343.29
399.993	344.69
400.454	338.89
400.916	337.89
401.377	341.59
401.839	341.09
402.3	347.19
402.762	341.79
403.223	342.99
403.684	343.29
404.145	340.09
404.607	344.89
405.068	332.79
405.529	330.39
405.99	322.09
406.451	326.49
406.913	321.79
407.374	316.99
407.835	324.19
408.296	318.69
408.757	317.69
409.218	323.79
409.679	316.99
410.14	306.09
410.601	301.29
411.062	297.29
411.522	304.69
411.983	306.39
412.444	307.49
412.905	302.49
413.366	292.19
413.826	296.39
414.287	291.69
414.748	287.39
415.208	291.89
415.669	287.09
416.13	284.49
416.59	281.29
417.051	287.89
417.511	280.19
417.972	295.89
418.432	299.39
418.893	292.69
419.353	299.19
419.814	300.49
420.274	304.39
420.734	304.09
421.195	309.79
421.655	292.29
422.115	294.19
422.576	282.99
423.036	280.49
423.496	285.79
423.956	279.79
424.416	278.59
424.876	277.09
425.336	268.99
425.797	261.99
426.257	272.09
426.717	278.09
427.177	260.49
427.637	264.89
428.097	268.79
428.556	264.39
429.016	268.29
429.476	264.89
429.936	264.99
430.396	241.09
430.856	233.59
431.315	229.79
431.775	230.69
432.235	232.79
432.694	234.29
433.154	226.09
433.614	213.59
434.073	218.49
434.533	212.49
434.993	209.79
435.452	211.49
435.912	196.59
436.371	193.89
436.83	193.19
437.29	193.69
437.749	190.99
438.209	187.29
438.668	180.29
439.127	174.99
439.587	175.39
440.046	172.39
440.505	178.29
440.964	167.69
441.424	164.39
441.883	162.39
442.342	163.89
442.801	157.69
443.26	154.79
443.719	150.09
444.178	142.59
444.637	138.39
445.096	137.09
445.555	135.89
446.014	134.19
446.473	130.19
446.932	124.49
447.391	126.09
447.849	126.19
448.308	120.69
448.767	120.39
449.226	115.19
449.685	113.49
450.143	111.29
450.602	108.59
451.061	108.09
451.519	104.69
451.978	104.69
452.436	103.49
452.895	103.39
453.353	100.89
453.812	93.09
454.27	101.19
454.729	97.39
455.187	100.69
455.646	96.79
456.104	96.89
456.562	88.49
457.021	94.69
457.479	85.59
457.937	95.89
458.395	97.19
458.854	93.79
459.312	95.69
459.77	93.69
460.228	84.89
460.686	92.89
461.144	87.39
461.602	85.39
462.06	87.59
462.518	84.99
462.976	88.99
463.434	88.59
463.892	86.09
464.35	88.49
464.808	87.99
465.266	88.69
465.724	85.79
466.181	81.79
466.639	89.39
467.097	87.89
467.555	89.79
468.012	86.99
468.47	87.99
468.928	88.09
469.385	88.29
469.843	88.99
470.3	86.59
470.758	90.09
471.215	88.69
471.673	87.89
472.13	92.09
472.588	87.19
473.045	84.39
473.503	83.69
473.96	90.59
474.417	87.99
474.875	88.19
475.332	84.59
475.789	84.49
476.246	89.09
476.704	88.89
477.161	83.99
477.618	92.79
478.075	85.79
478.532	91.79
478.989	91.09
479.446	82.89
479.903	84.49
480.36	84.59
480.817	87.89
481.274	85.09
481.731	87.29
482.188	84.69
482.645	90.79
483.102	86.29
483.558	90.39
484.015	82.79
484.472	84.59
484.929	87.99
485.385	90.39
485.842	88.79
486.299	87.49
486.755	87.69
487.212	86.59
487.668	85.39
488.125	84.19
488.582	84.19
489.038	90.09
489.494	85.39
489.951	82.49
490.407	86.09
490.864	88.19
491.32	87.89
491.776	84.99
492.233	87.39
492.689	86.69
493.145	86.89
493.602	93.99
494.058	85.89
494.514	89.79
494.97	89.29
495.426	92.49
495.882	91.29
496.338	86.29
496.794	84.29
497.251	88.49
497.707	91.19
498.163	90.79
498.618	90.29
499.074	86.09
499.53	88.49
499.986	88.59
500.442	87.59
500.898	89.09
501.354	82.59
501.809	86.19
502.265	87.49
502.721	78.69
503.177	86.19
503.632	84.49
504.088	87.39
504.543	85.89
504.999	84.49
505.455	84.19
505.91	88.59
506.366	89.89
506.821	84.99
507.277	84.99
507.732	87.49
508.187	86.19
508.643	87.09
509.098	83.39
509.553	84.99
510.009	85.79
510.464	86.99
510.919	87.89
511.375	88.59
511.83	86.09
512.285	87.09
512.74	87.79
513.195	87.99
513.65	84.79
514.105	86.49
514.56	85.99
515.015	90.69
515.47	92.29
515.925	83.39
516.38	88.89
516.835	86.69
517.29	89.59
517.745	84.59
518.2	90.19
518.655	85.49
519.109	88.79
519.564	83.39
520.019	89.89
520.474	87.59
520.928	85.39
521.383	86.39
521.838	89.19
522.292	84.89
522.747	87.49
523.201	89.89
523.656	90.99
524.11	82.99
524.565	85.29
525.019	83.79
525.474	85.99
525.928	83.29
526.382	85.69
526.837	83.59
527.291	84.59
527.745	85.49
528.2	80.69
528.654	86.79
529.108	83.89
529.562	87.59
530.016	84.69
530.47	83.99
530.925	90.19
531.379	91.09
531.833	84.19
532.287	85.19
532.741	87.59
533.195	84.59
533.649	89.19
534.103	81.19
534.556	89.09
535.01	89.79
535.464	84.19
535.918	85.29
536.372	88.69
536.826	87.89
537.279	89.79
537.733	81.99
538.187	84.59
538.64	83.79
539.094	85.39
539.548	86.49
540.001	88.69
540.455	86.39
540.908	82.99
541.362	86.19
541.815	91.39
542.269	86.39
542.722	85.79
543.175	91.09
543.629	83.19
544.082	87.19
544.536	86.09
544.989	83.19
545.442	84.49
545.895	82.09
546.349	83.29
546.802	88.59
547.255	82.09
547.708	84.09
548.161	88.49
548.614	79.49
549.067	81.09
549.52	84.49
549.973	87.89
550.426	84.69
550.879	89.09
551.332	83.19
551.785	81.79
552.238	84.99
552.691	83.79
553.144	84.19
553.596	87.19
554.049	84.69
554.502	90.29
554.955	85.69
555.407	84.99
555.86	80.09
556.313	89.59
556.765	81.89
557.218	84.99
557.67	86.39
558.123	82.69
558.576	83.29
559.028	84.59
559.48	84.49
559.933	78.89
560.385	84.09
560.838	86.79
561.29	84.99
561.742	91.09
562.195	82.89
562.647	85.19
563.099	84.39
563.551	87.89
564.004	79.59
564.456	88.69
564.908	87.79
565.36	90.49
565.812	85.39
566.264	78.99
566.716	89.69
567.168	80.59
567.62	81.79
568.072	87.89
568.524	81.79
568.976	79.69
569.428	83.19
569.88	79.09
570.332	82.59
570.784	86.09
571.235	86.79
571.687	82.59
572.139	85.99
572.59	88.19
573.042	83.69
573.494	89.09
573.945	85.19
574.397	87.19
574.849	88.39
575.3	86.49
575.752	87.99
576.203	83.69
576.655	92.19
577.106	89.09
577.557	87.29
578.009	90.49
578.46	86.99
578.912	88.89
579.363	86.19
579.814	89.99
580.265	84.89
580.717	86.19
581.168	83.99
581.619	82.29
582.07	88.09
582.521	92.39
582.972	85.89
583.423	86.59
583.875	86.09
584.326	88.69
584.777	89.29
585.227	91.49
585.678	87.89
586.129	89.69
586.58	87.09
587.031	89.69
587.482	83.89
587.933	90.09
588.384	84.89
588.834	83.69
589.285	84.29
589.736	87.99
590.186	88.59
590.637	87.39
591.088	88.49
591.538	86.49
591.989	82.29
592.439	87.29
592.89	86.19
593.34	84.39
593.791	87.09
594.241	88.99
594.692	84.19
595.142	84.39
595.593	83.89
596.043	86.89
596.493	87.59
596.943	86.59
597.394	84.69
597.844	88.59
598.294	88.29
598.744	87.09
599.195	85.59
599.645	85.49
600.095	88.09
600.545	85.89
600.995	84.49
601.445	87.59
601.895	87.79
602.345	91.59
602.795	86.69
603.245	86.19
603.695	82.99
604.145	87.89
604.594	85.69
605.044	84.49
605.494	84.19
605.944	82.29
606.393	85.19
606.843	82.69
607.293	87.09
607.743	87.59
608.192	89.09
608.642	84.99
609.091	84.99
609.541	82.79
609.99	86.69
610.44	82.29
610.889	83.19
611.339	88.39
611.788	88.39
612.238	81.29
612.687	83.99
613.136	83.19
613.586	87.09
614.035	86.49
614.484	89.09
614.933	85.49
615.383	86.69
615.832	84.59
616.281	80.99
616.73	86.79
617.179	83.09
617.628	85.69
618.077	84.29
618.526	86.09
618.975	82.89
619.424	83.19
619.873	87.19
620.322	83.29
620.771	81.69
621.22	92.09
621.669	86.69
622.118	87.19
622.567	83.89
623.015	82.79
623.464	90.39
623.913	86.79
624.361	84.89
624.81	88.49
625.259	85.99
625.707	88.49
626.156	81.69
626.604	84.39
627.053	79.29
627.501	87.39
627.95	85.79
628.398	82.79
628.847	87.99
629.295	79.69
629.744	83.99
630.192	79.99
630.64	84.49
631.089	86.19
631.537	86.79
631.985	84.49
632.433	82.39
632.881	80.89
633.33	80.09
633.778	89.19
634.226	81.99
634.674	90.19
635.122	86.49
635.57	84.29
636.018	88.49
636.466	82.89
636.914	87.69
637.362	88.89
637.81	92.09
638.258	82.99
638.705	87.39
639.153	85.19
639.601	83.09
640.049	85.59
640.497	86.29
640.944	87.59
641.392	86.99
641.84	86.59
642.287	77.79
642.735	84.09
643.182	85.79
643.63	79.69
644.078	84.09
644.525	85.99
644.973	83.99
645.42	85.29
645.867	87.99
646.315	80.99
646.762	82.49
647.21	83.59
647.657	85.39
648.104	85.79
648.551	79.29
648.999	82.09
649.446	80.89
649.893	89.59
650.34	87.49
650.787	84.09
651.234	84.39
651.682	84.89
652.129	88.79
652.576	86.79
653.023	91.49
653.47	95.09
653.917	98.49
654.363	100.29
654.81	109.49
655.257	102.29
655.704	88.39
656.151	84.29
656.598	86.09
657.044	86.49
657.491	87.79
657.938	81.99
658.385	84.99
658.831	88.69
659.278	88.29
659.724	84.99
660.171	87.19
660.618	85.39
661.064	89.49
661.511	85.09
661.957	86.99
662.404	84.79
662.85	87.19
663.296	81.19
663.743	85.39
664.189	82.59
664.635	86.99
665.082	88.09
665.528	85.59
665.974	85.09
666.42	86.59
666.867	81.69
667.313	80.59
667.759	84.89
668.205	88.59
668.651	88.89
669.097	86.19
669.543	89.49
669.989	88.99
670.435	81.59
670.881	83.09
671.327	84.59
671.773	82.89
672.219	86.39
672.665	80.49
673.11	87.59
673.556	84.39
674.002	83.89
674.448	90.29
674.893	81.49
675.339	82.99
675.785	83.69
676.23	90.79
676.676	86.89
677.122	82.39
677.567	82.69
678.013	90.59
678.458	86.89
678.904	86.59
679.349	86.29
679.794	79.29
680.24	83.09
680.685	83.89
681.131	84.99
681.576	80.19
682.021	81.79
682.466	88.99
682.912	81.69
683.357	85.59
683.802	83.99
684.247	79.49
684.692	88.39
685.137	81.39
685.583	82.19
686.028	83.49
686.473	86.09
686.918	82.09
687.363	83.59
687.807	84.79
688.252	88.69
688.697	85.79
689.142	86.39
689.587	82.89
690.032	86.09
690.477	84.69
690.921	82.69
691.366	84.09
691.811	87.19
692.255	85.89
692.7	90.19
693.145	81.79
693.589	87.49
694.034	81.79
694.478	84.89
694.923	83.39
695.367	87.09
695.812	84.79
696.256	86.79
696.701	92.69
697.145	87.19
697.59	84.59
698.034	77.29
698.478	83.49
698.922	86.99
699.367	90.49
699.811	86.19
700.255	84.99
700.699	85.59
701.143	85.19
701.588	88.29
702.032	89.89
702.476	87.99
702.92	87.89
703.364	85.09
703.808	85.89
704.252	83.59
704.696	87.49
705.14	80.89
705.584	83.19
706.027	81.09
706.471	84.89
706.915	82.49
707.359	85.79
707.803	88.89
708.246	86.59
708.69	87.99
709.134	83.39
709.577	85.79
710.021	81.99
710.465	82.29
710.908	84.39
711.352	85.89
711.795	85.29
712.239	84.99
712.682	85.89
713.126	83.49
713.569	85.99
714.012	86.69
714.456	87.09
714.899	84.59
715.342	85.49
715.786	89.89
716.229	87.19
716.672	85.79
717.115	77.99
717.558	82.89
718.002	87.79
718.445	85.39
718.888	82.09
719.331	85.49
719.774	83.79
720.217	86.69
720.66	86.29
721.103	87.79
721.546	86.59
721.989	87.69
722.432	83.39
722.874	88.19
723.317	80.59
723.76	86.19
724.203	83.49
724.645	84.39
725.088	80.79
725.531	84.99
725.974	83.89
726.416	86.09
726.859	86.09
727.301	86.29
727.744	88.59
728.187	84.39
728.629	85.99
729.071	86.79
729.514	87.79
729.956	87.89
730.399	86.79
730.841	89.29
731.283	87.59
731.726	79.29
732.168	78.99
732.61	86.89
733.053	85.09
733.495	92.29
733.937	79.39
734.379	86.39
734.821	85.19
735.263	83.89
735.705	86.19
736.148	88.09
736.59	87.39
737.032	80.49
737.474	88.59
737.916	85.69
738.357	87.69
738.799	78.89
739.241	83.19
739.683	85.49
740.125	85.09
740.567	85.79
741.008	87.69
741.45	87.09
741.892	83.09
742.334	84.89
742.775	83.79
743.217	85.59
743.658	86.59
744.1	80.29
744.542	84.69
744.983	81.89
745.425	81.19
745.866	83.69
746.307	89.29
746.749	87.29
747.19	85.69
747.632	86.59
748.073	90.69
748.514	83.49
748.956	85.79
749.397	82.79
749.838	83.79
750.279	89.79
750.72	84.89
751.162	84.09
751.603	91.19
752.044	76.99
752.485	87.39
752.926	82.49
753.367	84.59
753.808	86.39
754.249	83.69
754.69	83.49
755.131	89.39
755.572	85.29
756.013	87.19
756.453	89.39
756.894	88.79
757.335	88.69
757.776	85.09
758.216	90.69
758.657	82.19
759.098	80.49
759.538	88.49
759.979	85.79
760.42	87.99
760.86	88.59
761.301	87.59
761.741	86.59
762.182	92.29
762.622	89.49
763.063	86.99
763.503	90.69
763.943	81.69
764.384	87.69
764.824	83.49
765.264	86.39
765.705	88.79
766.145	89.79
766.585	89.79
767.025	87.99
767.465	87.29
767.906	85.89
768.346	89.69
768.786	83.79
769.226	82.59
769.666	88.29
770.106	85.49
770.546	89.09
770.986	80.79
771.426	90.79
771.866	89.89
772.306	85.69
772.745	90.59
773.185	86.89
773.625	85.39
774.065	86.79
774.505	90.09
774.944	88.89
775.384	90.19
775.824	82.09
776.263	83.49
776.703	83.89
777.142	82.19
777.582	85.49
778.021	88.59
778.461	89.19
778.9	87.59
779.34	81.59
779.779	83.99
780.219	79.79
780.658	81.29
781.097	89.39
781.537	86.59
781.976	93.39
782.415	87.79
782.855	88.79
783.294	83.69
783.733	86.89
784.172	88.49
784.611	89.39
785.05	86.19
785.489	83.69
785.928	80.69
786.367	87.39
786.806	88.59
787.245	86.59
787.684	81.79
788.123	81.59
788.562	88.29
789.001	86.29
789.44	80.99
789.879	84.89
790.317	87.29
790.756	83.29
791.195	86.39
791.634	86.19
792.072	84.29
792.511	82.29
792.95	82.19
793.388	88.29
793.827	87.59
794.265	90.79
794.704	83.79
795.142	90.59
795.581	83.29
796.019	87.59
796.458	86.29
796.896	82.49
797.334	82.79
797.773	85.89
798.211	92.39
798.649	81.09
799.087	79.39
799.526	84.29
799.964	83.09
800.402	79.29
800.84	79.99
801.278	84.49
801.716	90.59
802.154	88.59
802.592	88.29
803.03	84.09
803.468	83.19
803.906	79.79
804.344	86.99
804.782	91.39
805.22	87.89
805.658	84.19
806.096	82.69
806.533	85.99
806.971	83.49
807.409	88.99
807.847	82.89
808.284	86.49
808.722	82.49
809.16	84.69
809.597	87.49
810.035	84.89
810.472	82.19
810.91	87.49
811.347	84.99
811.785	84.99
812.222	88.49
812.66	85.79
813.097	88.79
813.535	83.39
813.972	78.79
814.409	85.59
814.846	92.49
815.284	83.29
815.721	86.89
816.158	84.89
816.595	83.19
817.032	89.29
817.47	83.89
817.907	80.79
818.344	89.19
818.781	85.29
819.218	87.49
819.655	85.39
820.092	85.69
820.529	81.69
820.966	87.69
821.403	87.69
821.839	85.99
822.276	84.79
822.713	85.29
823.15	91.89
823.587	84.39
824.023	92.49
824.46	85.69
824.897	87.29
825.333	88.69
825.77	93.29
826.206	89.09
826.643	87.59
827.08	86.59
827.516	84.29
827.953	90.39
828.389	79.49
828.825	87.29
829.262	91.99
829.698	85.19
830.135	84.79
830.571	86.79
831.007	82.89
831.443	83.49
831.88	88.39
832.316	85.59
832.752	87.69
833.188	81.89
833.624	79.99
834.06	85.19
834.497	85.89
834.933	83.19
835.369	85.19
835.805	86.99
836.241	82.39
836.677	85.59
837.112	90.49
837.548	85.29
837.984	86.99
838.42	87.59
838.856	84.69
839.292	85.49
839.727	87.89
840.163	82.69
840.599	83.99
841.034	82.99
841.47	82.69
841.906	84.79
842.341	79.59
842.777	86.19
843.212	86.49
843.648	88.79
844.083	87.79
844.519	86.59
844.954	88.99
845.39	87.19
845.825	93.59
846.261	86.79
846.696	89.69
847.131	90.59
847.566	90.49
848.002	86.79
848.437	81.99
848.872	85.19
849.307	80.89
849.742	82.69
850.177	85.39
850.613	88.29
851.048	93.49
851.483	86.89
851.918	83.69
852.353	87.69
852.788	87.99
853.223	88.19
853.657	87.49
854.092	85.39
854.527	88.49
854.962	84.29
855.397	81.19
855.832	84.09
856.266	83.19
856.701	88.59
857.136	85.59
857.57	88.69
858.005	86.59
858.44	83.79
858.874	85.49
859.309	86.79
859.743	86.29
860.178	88.19
860.612	86.29
861.047	86.49
861.481	89.79
861.915	84.49
862.35	85.19
862.784	80.99
863.218	86.89
863.653	87.39
864.087	89.19
864.521	82.79
864.955	85.79
865.39	84.59
865.824	84.89
866.258	86.59
866.692	81.09
867.126	80.19
867.56	89.49
867.994	85.09
868.428	88.49
868.862	79.69
869.296	86.19
869.73	84.99
870.164	84.49
870.598	87.89
871.031	87.69
871.465	88.59
871.899	85.49
872.333	85.39
872.766	85.59
873.2	81.09
873.634	81.89
874.067	84.39
874.501	89.39
874.935	90.29
875.368	88.19
875.802	81.19
876.235	89.19
876.669	79.19
877.102	83.99
877.535	90.09
877.969	87.19
878.402	88.89
878.836	88.99
879.269	89.19
879.702	86.59
880.135	82.79
880.569	82.79
881.002	85.79
881.435	84.49
881.868	83.49
882.301	81.69
882.734	83.49
883.167	85.29
883.601	81.29
884.034	88.59
884.467	86.49
884.899	85.29
885.332	87.89
885.765	86.59
886.198	86.39
886.631	85.79
887.064	93.49
887.497	89.39
887.929	81.59
888.362	82.89
888.795	87.79
889.228	87.59
889.66	78.49
890.093	87.39
890.526	88.79
890.958	88.09
891.391	86.29
891.823	86.89
892.256	88.19
892.688	89.09
893.121	89.29
893.553	85.99
893.985	86.69
894.418	83.49
894.85	84.29
895.282	83.59
895.715	83.69
896.147	83.09
896.579	83.59
897.011	87.69
897.444	89.29
897.876	86.39
898.308	85.59
898.74	85.59
899.172	88.69
899.604	88.79
900.036	87.89
900.468	87.19
900.9	85.69
901.332	87.29
901.764	84.19
902.196	84.09
902.628	91.29
903.06	90.89
903.491	86.49
903.923	83.89
904.355	87.59
904.787	88.79
905.218	80.79
905.65	88.59
906.082	86.39
906.513	82.69
906.945	87.89
907.376	90.89
907.808	87.49
908.239	86.49
908.671	82.19
909.102	86.49
909.534	86.79
909.965	84.89
910.397	84.39
910.828	82.29
911.259	87.19
911.691	85.39
912.122	84.99
912.553	85.39
912.984	87.19
913.415	90.49
913.847	86.09
914.278	86.49
914.709	87.79
915.14	82.89
915.571	82.29
916.002	86.59
916.433	85.69
916.864	83.89
917.295	90.29
917.726	85.29
918.157	83.99
918.587	85.29
919.018	84.69
919.449	86.49
919.88	83.29
920.311	89.29
920.741	86.09
921.172	86.39
921.603	82.79
922.033	84.59
922.464	88.29
922.895	86.09
923.325	86.59
923.756	83.89
924.186	89.49
924.617	85.39
925.047	86.99
925.478	84.69
925.908	86.69
926.338	86.39
926.769	82.99
927.199	84.79
927.629	83.39
928.06	82.39
928.49	86.39
928.92	88.09
929.35	84.19
929.78	85.79
930.21	86.39
930.641	87.29
931.071	88.69
931.501	80.69
931.931	82.79
932.361	84.49
932.791	81.89
933.221	81.89
933.651	88.99
934.08	81.89
934.51	80.99
934.94	90.89
935.37	79.79
935.8	86.49
936.229	87.89
936.659	81.69
937.089	85.79
937.519	87.69
937.948	90.69
938.378	82.99
938.807	87.89
939.237	87.19
939.666	81.19
940.096	82.99
940.525	88.29
940.955	84.09
941.384	86.59
941.814	85.29
942.243	83.39
942.672	86.39
943.102	85.99
943.531	86.89
943.96	79.29
944.39	83.79
944.819	89.09
945.248	84.29
945.677	85.79
946.106	86.09
946.535	86.59
946.964	86.39
947.393	88.39
947.822	81.69
948.251	79.49
948.68	82.89
949.109	87.59
949.538	85.29
949.967	79.69
950.396	83.49
950.825	87.39
951.254	87.79
951.682	84.79
952.111	84.59
952.54	79.89
952.969	85.29
953.397	86.59
953.826	84.69
954.254	85.89
954.683	81.99
955.112	85.79
955.54	82.99
955.969	84.29
956.397	86.29
956.826	86.29
957.254	84.69
957.682	82.09
958.111	87.49
958.539	83.79
958.967	83.99
959.396	89.79
959.824	83.79
960.252	85.89
960.68	82.49
961.109	82.09
961.537	83.59
961.965	87.19
962.393	83.69
962.821	82.09
963.249	85.79
963.677	84.59
964.105	86.69
964.533	84.29
964.961	82.49
965.389	86.29
965.817	82.89
966.245	81.29
966.672	82.69
967.1	86.39
967.528	81.79
967.956	79.29
968.383	79.79
968.811	86.19
969.239	83.39
969.666	87.89
970.094	82.19
970.522	89.39
970.949	80.09
971.377	81.79
971.804	85.09
972.232	86.29
972.659	84.09
973.087	88.09
973.514	88.39
973.941	83.59
974.369	88.29
974.796	81.39
975.223	84.39
975.651	82.19
976.078	85.79
976.505	87.59
976.932	80.69
977.359	87.69
977.786	84.49
978.214	81.99
978.641	81.79
979.068	84.29
979.495	86.89
979.922	81.49
980.349	83.49
980.776	87.09
981.202	87.49
981.629	85.69
982.056	86.99
982.483	87.79
982.91	80.39
983.337	88.99
983.763	79.29
984.19	80.99
984.617	84.09
985.043	82.99
985.47	85.89
985.897	84.89
986.323	87.69
986.75	83.59
987.176	83.99
987.603	85.79
988.029	87.19
988.456	87.09
988.882	83.99
989.308	84.39
989.735	82.79
990.161	83.79
990.587	79.79
991.014	81.99
991.44	83.79
991.866	84.69
992.292	84.59
992.719	84.29
993.145	81.69
993.571	83.59
993.997	81.19
994.423	80.09
994.849	85.39
995.275	83.49
995.701	83.99
996.127	86.99
996.553	85.29
996.979	86.29
997.405	86.49
997.83	81.99
998.256	84.39
998.682	83.89
999.108	86.39
999.534	80.09
999.959	84.89
1000.385	80.29
1000.811	83.49
1001.236	86.79
1001.662	88.29
1002.087	86.79
1002.513	80.89
1002.938	82.79
1003.364	88.19
1003.789	85.39
1004.215	84.69
1004.64	86.89
1005.066	81.99
1005.491	84.09
1005.916	81.19
1006.342	76.69
1006.767	80.89
1007.192	85.49
1007.617	84.49
1008.042	86.19
1008.468	85.49
1008.893	86.19
1009.318	84.69
1009.743	81.89
1010.168	83.79
1010.593	83.39
1011.018	88.19
1011.443	82.19
1011.868	83.79
1012.293	78.89
1012.718	83.39
1013.143	86.39
1013.567	83.99
1013.992	86.09
1014.417	84.39
1014.842	83.59
1015.267	86.99
1015.691	79.69
1016.116	84.09
1016.541	85.19
1016.965	88.19
1017.39	84.69
1017.814	82.69
1018.239	79.89
1018.663	83.49
1019.088	90.19
1019.512	82.99
1019.937	87.49
1020.361	82.99
1020.785	85.49
1021.21	85.09
1021.634	82.99
1022.058	79.49
1022.483	85.09
1022.907	85.99
1023.331	79.69
1023.755	83.19
1024.179	88.09
1024.604	87.99
1025.028	84.19
1025.452	80.79
1025.876	82.39
1026.3	87.69
1026.724	86.39
1027.148	84.49
1027.572	91.09
1027.996	79.79
1028.42	87.19
1028.843	81.69
1029.267	84.99
1029.691	85.89
1030.115	80.59
1030.539	85.79
1030.962	83.39
1031.386	82.09
1031.81	84.59
1032.233	87.99
1032.657	86.49
1033.08	89.09
1033.504	87.19
1033.927	79.79
1034.351	80.99
1034.774	83.99
1035.198	84.69
1035.621	84.59
1036.045	80.79
1036.468	81.29
1036.891	83.99
1037.315	90.59
1037.738	85.79
1038.161	84.09
1038.584	85.49
1039.008	89.59
1039.431	84.39
1039.854	77.79
1040.277	86.09
1040.7	87.49
1041.123	81.09
1041.546	85.79
1041.969	87.29
1042.392	79.59
1042.815	88.69
1043.238	85.59
1043.661	83.09
1044.084	84.29
1044.507	81.79
1044.93	88.19
1045.352	84.99
1045.775	88.39
1046.198	83.39
1046.621	84.29
1047.043	84.59
1047.466	85.19
1047.889	83.99
1048.311	81.39
1048.734	88.89
1049.156	83.09
1049.579	86.79
1050.001	78.99
1050.424	81.89
1050.846	81.69
1051.269	83.69
1051.691	82.49
1052.113	86.89
1052.536	85.29
1052.958	84.09
1053.38	84.29
1053.802	83.89
1054.225	84.79
1054.647	80.89
1055.069	82.19
1055.491	87.59
1055.913	84.09
1056.335	89.19
1056.757	83.29
1057.179	80.09
1057.601	83.09
1058.023	85.19
1058.445	84.79
1058.867	88.19
1059.289	85.79
1059.711	79.79
1060.133	84.69
1060.555	86.89
1060.976	84.89
1061.398	88.89
1061.82	84.79
1062.241	80.59
1062.663	84.19
1063.085	80.79
1063.506	89.39
1063.928	83.39
1064.35	82.89
1064.771	85.39
1065.193	83.79
1065.614	84.69
1066.035	86.19
1066.457	85.69
1066.878	85.19
1067.3	81.19
1067.721	79.49
1068.142	81.59
1068.564	86.39
1068.985	85.49
1069.406	82.69
1069.827	83.79
1070.248	80.99
1070.67	81.39
1071.091	82.79
1071.512	81.99
1071.933	82.99
1072.354	82.69
1072.775	82.99
1073.196	83.89
1073.617	82.99
1074.038	83.29
1074.459	81.29
1074.88	82.99
1075.3	84.09
1075.721	81.69
1076.142	79.29
1076.563	82.49
1076.983	80.69
1077.404	88.99
1077.825	79.89
1078.246	88.89
1078.666	83.79
1079.087	83.39
1079.507	81.29
1079.928	82.19
1080.348	79.49
1080.769	82.19
1081.189	85.39
1081.61	81.09
1082.03	88.89
1082.451	82.69
1082.871	85.89
1083.291	81.69
1083.711	84.79
1084.132	80.29
1084.552	87.99
1084.972	85.39
1085.392	83.29
1085.813	83.69
1086.233	86.49
1086.653	83.89
1087.073	86.09
1087.493	86.69
1087.913	82.99
1088.333	85.39
1088.753	84.69
1089.173	78.69
1089.593	88.39
1090.013	81.89
1090.433	82.19
1090.852	81.19
1091.272	83.79
1091.692	77.59
1092.112	84.99
1092.531	89.69
1092.951	84.19
1093.371	81.99
1093.79	83.09
1094.21	87.29
1094.63	91.29
1095.049	90.09
1095.469	87.49
1095.888	86.99
1096.308	88.39
1096.727	81.19
1097.146	85.29
1097.566	85.59
1097.985	82.39
1098.405	80.69
1098.824	78.99
1099.243	87.69
1099.662	86.39
1100.082	85.89
1100.501	85.59
1100.92	86.19
1101.339	86.29
1101.758	82.99
