Data from DH-3PlusCalLight-Halogen_HRD10391_13-39-47-067.txt Node
Date: Thu Feb 15 13:39:47 EST 2018
User: Ender
Spectrometer: HR+D1039
Trigger mode: 0
Integration Time (sec): 2.730000E-2
Scans to average: 10
Electric dark correction enabled: true
Nonlinearity correction enabled: false
Boxcar width: 0
XAxis mode: Wavelengths
Number of Pixels in Spectrum: 2048
>>>>>Begin Spectral Data<<<<<
187.836	1.99
188.309	1.99
188.782	1.99
189.255	-5.51
189.728	-7.91
190.201	-5.31
190.674	-7.61
191.147	-11.91
191.619	-8.81
192.092	-5.01
192.565	-7.01
193.038	0.29
193.511	4.09
193.984	6.89
194.456	8.29
194.929	8.69
195.402	13.39
195.874	15.39
196.347	20.49
196.82	19.39
197.292	31.19
197.765	35.79
198.237	36.69
198.71	40.59
199.182	43.09
199.655	50.19
200.127	54.79
200.6	54.89
201.072	57.29
201.544	65.49
202.017	63.39
202.489	63.09
202.961	69.79
203.433	68.59
203.906	75.79
204.378	73.69
204.85	83.29
205.322	79.69
205.794	80.59
206.266	81.29
206.739	85.39
207.211	80.29
207.683	82.59
208.155	84.39
208.627	85.99
209.099	87.19
209.57	89.49
210.042	84.29
210.514	84.79
210.986	83.89
211.458	84.59
211.93	87.29
212.402	92.29
212.873	75.89
213.345	84.69
213.817	82.89
214.288	82.59
214.76	83.29
215.232	82.19
215.703	81.69
216.175	82.19
216.646	87.39
217.118	81.59
217.589	78.09
218.061	79.99
218.532	81.69
219.004	82.19
219.475	79.89
219.946	80.89
220.418	79.79
220.889	81.29
221.36	78.09
221.832	78.39
222.303	76.99
222.774	78.29
223.245	80.49
223.717	81.19
224.188	75.29
224.659	71.79
225.13	81.39
225.601	78.29
226.072	72.19
226.543	78.09
227.014	80.79
227.485	75.99
227.956	76.49
228.427	78.19
228.898	81.09
229.369	80.79
229.839	76.69
230.31	78.69
230.781	78.59
231.252	75.79
231.722	78.59
232.193	77.29
232.664	72.09
233.135	76.09
233.605	74.99
234.076	79.99
234.546	79.79
235.017	82.69
235.487	75.99
235.958	78.89
236.428	80.59
236.899	81.09
237.369	82.99
237.84	81.89
238.31	84.59
238.78	84.29
239.251	84.19
239.721	78.99
240.191	83.09
240.662	80.89
241.132	83.59
241.602	79.29
242.072	79.89
242.542	82.59
243.013	85.99
243.483	81.19
243.953	81.89
244.423	82.69
244.893	82.89
245.363	74.19
245.833	80.79
246.303	72.59
246.773	81.89
247.243	81.39
247.712	86.79
248.182	81.79
248.652	80.49
249.122	82.89
249.592	82.89
250.061	82.19
250.531	80.89
251.001	79.59
251.471	81.29
251.94	79.89
252.41	81.89
252.879	81.99
253.349	77.79
253.818	83.09
254.288	81.89
254.757	83.69
255.227	81.09
255.696	81.59
256.166	79.29
256.635	81.29
257.105	85.69
257.574	86.99
258.043	84.59
258.513	82.99
258.982	81.99
259.451	83.99
259.92	83.19
260.389	82.69
260.859	84.19
261.328	84.19
261.797	82.89
262.266	79.19
262.735	81.39
263.204	83.79
263.673	80.79
264.142	80.89
264.611	82.09
265.08	84.69
265.549	83.29
266.018	85.09
266.487	81.59
266.955	77.89
267.424	82.89
267.893	83.39
268.362	83.39
268.83	82.09
269.299	80.39
269.768	80.99
270.236	87.49
270.705	79.79
271.174	86.99
271.642	81.49
272.111	86.99
272.579	82.49
273.048	85.79
273.516	85.19
273.985	83.49
274.453	84.49
274.922	84.79
275.39	84.79
275.858	88.69
276.327	82.99
276.795	82.39
277.263	83.19
277.731	85.39
278.2	86.39
278.668	81.19
279.136	88.79
279.604	83.29
280.072	83.89
280.54	81.49
281.008	86.79
281.477	90.19
281.945	89.29
282.413	82.49
282.881	82.09
283.348	83.19
283.816	84.89
284.284	82.69
284.752	85.39
285.22	85.99
285.688	84.19
286.156	86.19
286.623	80.49
287.091	87.89
287.559	90.59
288.026	82.89
288.494	86.19
288.962	86.09
289.429	85.49
289.897	84.89
290.364	86.09
290.832	87.59
291.3	83.99
291.767	87.49
292.234	88.39
292.702	85.49
293.169	82.19
293.637	88.39
294.104	86.49
294.571	84.69
295.039	86.69
295.506	90.99
295.973	87.49
296.44	86.49
296.908	86.79
297.375	83.39
297.842	86.29
298.309	86.59
298.776	89.09
299.243	90.39
299.71	86.09
300.177	86.39
300.644	83.39
301.111	87.79
301.578	85.19
302.045	82.39
302.512	80.69
302.979	82.09
303.446	84.99
303.913	84.09
304.379	90.09
304.846	88.19
305.313	90.89
305.78	84.59
306.246	86.19
306.713	85.59
307.18	85.69
307.646	84.99
308.113	85.39
308.579	91.59
309.046	85.19
309.512	87.59
309.979	80.19
310.445	83.39
310.912	88.39
311.378	87.99
311.845	91.19
312.311	86.19
312.777	85.69
313.244	86.19
313.71	85.39
314.176	83.79
314.642	86.69
315.109	84.09
315.575	89.59
316.041	85.49
316.507	86.29
316.973	84.29
317.439	87.19
317.905	89.79
318.371	87.39
318.837	83.59
319.303	85.59
319.769	87.39
320.235	86.69
320.701	85.69
321.167	89.49
321.633	82.49
322.099	84.69
322.564	93.49
323.03	88.59
323.496	84.99
323.962	81.39
324.427	87.59
324.893	87.99
325.359	84.19
325.824	87.19
326.29	86.79
326.755	83.09
327.221	82.89
327.686	87.19
328.152	83.09
328.617	87.59
329.083	87.29
329.548	90.29
330.014	85.99
330.479	88.29
330.944	85.89
331.41	87.19
331.875	84.79
332.34	88.79
332.805	88.19
333.271	89.09
333.736	87.69
334.201	87.59
334.666	88.59
335.131	90.59
335.596	90.29
336.061	91.09
336.526	92.19
336.991	90.89
337.456	87.99
337.921	88.39
338.386	88.79
338.851	82.19
339.316	87.59
339.781	86.89
340.246	88.79
340.711	87.59
341.175	89.69
341.64	80.69
342.105	90.39
342.569	90.59
343.034	86.99
343.499	90.49
343.963	86.39
344.428	87.19
344.893	90.89
345.357	90.69
345.822	88.49
346.286	91.99
346.751	89.69
347.215	90.29
347.679	90.79
348.144	88.69
348.608	87.39
349.073	90.69
349.537	86.39
350.001	84.39
350.465	90.09
350.93	90.49
351.394	86.89
351.858	89.69
352.322	82.69
352.786	89.39
353.25	84.39
353.715	91.09
354.179	87.29
354.643	86.89
355.107	87.59
355.571	87.19
356.035	87.79
356.498	86.79
356.962	92.49
357.426	88.59
357.89	86.79
358.354	86.49
358.818	90.79
359.281	82.89
359.745	83.39
360.209	83.99
360.673	87.49
361.136	88.99
361.6	88.29
362.064	87.69
362.527	88.99
362.991	89.19
363.454	90.49
363.918	88.29
364.381	88.59
364.845	90.59
365.308	88.59
365.772	88.49
366.235	87.39
366.698	88.69
367.162	87.19
367.625	91.29
368.088	88.79
368.552	92.39
369.015	91.09
369.478	95.89
369.941	90.59
370.404	91.99
370.867	91.99
371.331	92.29
371.794	92.59
372.257	99.69
372.72	90.49
373.183	91.19
373.646	91.09
374.109	95.39
374.572	93.19
375.035	93.69
375.497	98.99
375.96	90.49
376.423	92.99
376.886	96.09
377.349	98.49
377.811	99.09
378.274	101.79
378.737	96.99
379.199	104.69
379.662	93.89
380.125	99.49
380.587	96.59
381.05	101.09
381.512	103.99
381.975	99.29
382.437	101.59
382.9	102.09
383.362	100.19
383.825	102.49
384.287	104.39
384.75	102.59
385.212	101.59
385.674	106.79
386.136	106.19
386.599	109.39
387.061	105.09
387.523	105.59
387.985	109.49
388.447	111.19
388.91	108.79
389.372	106.49
389.834	108.99
390.296	110.89
390.758	110.09
391.22	109.49
391.682	112.39
392.144	107.09
392.606	114.29
393.068	116.59
393.529	113.89
393.991	111.99
394.453	115.39
394.915	113.79
395.377	117.59
395.838	122.69
396.3	119.29
396.762	115.39
397.224	125.29
397.685	122.89
398.147	124.19
398.608	126.19
399.07	131.69
399.531	130.09
399.993	124.19
400.454	136.59
400.916	123.09
401.377	129.49
401.839	129.69
402.3	141.09
402.762	134.49
403.223	138.09
403.684	133.79
404.145	140.59
404.607	139.19
405.068	143.09
405.529	147.39
405.99	142.99
406.451	149.19
406.913	155.89
407.374	151.69
407.835	159.79
408.296	153.69
408.757	163.89
409.218	165.49
409.679	166.99
410.14	164.59
410.601	171.59
411.062	174.29
411.522	179.99
411.983	184.49
412.444	189.39
412.905	194.59
413.366	198.99
413.826	196.39
414.287	203.09
414.748	211.39
415.208	211.29
415.669	221.09
416.13	227.29
416.59	230.29
417.051	231.69
417.511	240.49
417.972	242.69
418.432	249.09
418.893	257.19
419.353	257.19
419.814	261.49
420.274	273.69
420.734	276.49
421.195	287.89
421.655	288.79
422.115	292.49
422.576	309.09
423.036	310.29
423.496	323.49
423.956	334.19
424.416	343.39
424.876	361.59
425.336	366.79
425.797	374.19
426.257	381.19
426.717	410.19
427.177	414.59
427.637	419.29
428.097	438.69
428.556	449.59
429.016	460.59
429.476	474.19
429.936	485.69
430.396	505.99
430.856	515.59
431.315	521.79
431.775	550.59
432.235	560.79
432.694	579.39
433.154	588.79
433.614	610.89
434.073	634.19
434.533	638.39
434.993	649.99
435.452	669.19
435.912	682.69
436.371	697.29
436.83	700.19
437.29	725.49
437.749	744.39
438.209	755.59
438.668	783.69
439.127	787.29
439.587	820.19
440.046	820.59
440.505	832.99
440.964	850.99
441.424	878.79
441.883	907.29
442.342	899.29
442.801	920.29
443.26	951.39
443.719	968.09
444.178	990.59
444.637	1013.09
445.096	1025.19
445.555	1039.89
446.014	1046.49
446.473	1051.09
446.932	1081.59
447.391	1101.79
447.849	1132.49
448.308	1115.69
448.767	1132.19
449.226	1166.49
449.685	1176.79
450.143	1200.79
450.602	1224.29
451.061	1221.29
451.519	1254.69
451.978	1266.99
452.436	1263.09
452.895	1295.69
453.353	1300.09
453.812	1308.49
454.27	1340.59
454.729	1352.79
455.187	1365.99
455.646	1364.09
456.104	1378.09
456.562	1407.19
457.021	1424.09
457.479	1378.49
457.937	1411.99
458.395	1453.29
458.854	1451.29
459.312	1444.39
459.77	1449.39
460.228	1443.69
460.686	1491.69
461.144	1480.89
461.602	1471.99
462.06	1458.49
462.518	1479.89
462.976	1480.89
463.434	1479.49
463.892	1463.69
464.35	1456.59
464.808	1469.79
465.266	1480.29
465.724	1492.69
466.181	1491.79
466.639	1476.39
467.097	1520.19
467.555	1554.29
468.012	1511.09
468.47	1521.09
468.928	1527.99
469.385	1542.79
469.843	1574.19
470.3	1554.49
470.758	1590.19
471.215	1592.09
471.673	1614.29
472.13	1631.89
472.588	1661.79
473.045	1680.29
473.503	1712.29
473.96	1754.99
474.417	1759.39
474.875	1801.19
475.332	1800.39
475.789	1835.89
476.246	1884.89
476.704	1907.09
477.161	1939.39
477.618	1967.79
478.075	1983.89
478.532	2067.79
478.989	2098.59
479.446	2123.99
479.903	2144.39
480.36	2252.39
480.817	2240.59
481.274	2295.19
481.731	2341.29
482.188	2366.09
482.645	2420.89
483.102	2429.59
483.558	2468.19
484.015	2525.79
484.472	2557.49
484.929	2608.59
485.385	2627.59
485.842	2675.39
486.299	2718.29
486.755	2735.89
487.212	2751.29
487.668	2779.59
488.125	2820.89
488.582	2767.49
489.038	2806.99
489.494	2826.49
489.951	2842.09
490.407	2863.79
490.864	2871.89
491.32	2903.59
491.776	2918.59
492.233	2916.59
492.689	2915.89
493.145	2924.49
493.602	2898.19
494.058	2923.69
494.514	2923.19
494.97	2936.19
495.426	2937.69
495.882	2950.39
496.338	2905.99
496.794	2943.79
497.251	2931.99
497.707	2957.69
498.163	2954.29
498.618	2940.69
499.074	2948.99
499.53	2953.69
499.986	2969.29
500.442	2954.69
500.898	2940.69
501.354	2979.09
501.809	2961.79
502.265	2944.09
502.721	2954.99
503.177	2962.79
503.632	2965.59
504.088	2969.19
504.543	2973.39
504.999	2976.59
505.455	2960.69
505.91	2964.19
506.366	2965.09
506.821	2981.19
507.277	2966.79
507.732	2977.69
508.187	2946.39
508.643	2955.49
509.098	2942.29
509.553	2952.89
510.009	2943.79
510.464	2952.49
510.919	2934.89
511.375	2920.49
511.83	2885.39
512.285	2894.69
512.74	2898.89
513.195	2868.79
513.65	2862.09
514.105	2869.29
514.56	2821.69
515.015	2842.79
515.47	2829.69
515.925	2818.09
516.38	2825.59
516.835	2808.79
517.29	2783.49
517.745	2783.99
518.2	2793.49
518.655	2757.09
519.109	2743.99
519.564	2731.29
520.019	2743.79
520.474	2714.09
520.928	2741.69
521.383	2707.59
521.838	2701.59
522.292	2677.09
522.747	2693.19
523.201	2697.09
523.656	2684.89
524.11	2671.99
524.565	2667.29
525.019	2663.39
525.474	2664.69
525.928	2671.99
526.382	2668.29
526.837	2661.29
527.291	2668.69
527.745	2657.59
528.2	2670.99
528.654	2648.19
529.108	2642.89
529.562	2652.19
530.016	2651.59
530.47	2656.29
530.925	2653.59
531.379	2661.19
531.833	2682.99
532.287	2676.39
532.741	2657.59
533.195	2666.59
533.649	2677.89
534.103	2687.59
534.556	2654.59
535.01	2665.99
535.464	2656.49
535.918	2686.69
536.372	2689.29
536.826	2665.99
537.279	2637.49
537.733	2658.09
538.187	2666.89
538.64	2656.19
539.094	2663.19
539.548	2681.29
540.001	2651.39
540.455	2649.99
540.908	2637.49
541.362	2619.69
541.815	2619.69
542.269	2642.19
542.722	2617.39
543.175	2632.29
543.629	2597.79
544.082	2613.79
544.536	2568.49
544.989	2568.59
545.442	2566.29
545.895	2581.89
546.349	2564.39
546.802	2560.99
547.255	2552.79
547.708	2555.09
548.161	2553.49
548.614	2544.89
549.067	2556.39
549.52	2538.89
549.973	2547.69
550.426	2531.79
550.879	2527.49
551.332	2528.49
551.785	2533.79
552.238	2542.09
552.691	2522.19
553.144	2553.69
553.596	2545.89
554.049	2554.19
554.502	2555.79
554.955	2545.99
555.407	2554.79
555.86	2579.29
556.313	2559.69
556.765	2580.99
557.218	2576.99
557.67	2600.69
558.123	2584.89
558.576	2581.79
559.028	2593.79
559.48	2599.39
559.933	2611.79
560.385	2614.09
560.838	2599.69
561.29	2606.89
561.742	2631.29
562.195	2623.69
562.647	2656.39
563.099	2638.49
563.551	2625.09
564.004	2649.59
564.456	2655.19
564.908	2660.59
565.36	2660.99
565.812	2651.89
566.264	2657.59
566.716	2650.79
567.168	2630.19
567.62	2663.39
568.072	2641.19
568.524	2657.89
568.976	2660.09
569.428	2648.69
569.88	2638.69
570.332	2654.99
570.784	2637.59
571.235	2623.79
571.687	2653.69
572.139	2622.99
572.59	2635.99
573.042	2619.09
573.494	2636.89
573.945	2615.09
574.397	2569.59
574.849	2592.69
575.3	2600.09
575.752	2572.69
576.203	2558.19
576.655	2584.99
577.106	2565.49
577.557	2545.59
578.009	2547.69
578.46	2557.99
578.912	2526.09
579.363	2547.09
579.814	2551.39
580.265	2532.69
580.717	2547.29
581.168	2525.79
581.619	2551.89
582.07	2538.39
582.521	2506.99
582.972	2526.09
583.423	2538.39
583.875	2551.19
584.326	2540.69
584.777	2538.49
585.227	2522.19
585.678	2532.49
586.129	2523.69
586.58	2540.29
587.031	2539.99
587.482	2542.89
587.933	2553.89
588.384	2544.69
588.834	2540.39
589.285	2545.29
589.736	2561.49
590.186	2545.59
590.637	2552.29
591.088	2546.49
591.538	2553.39
591.989	2559.59
592.439	2545.49
592.89	2564.59
593.34	2571.39
593.791	2580.89
594.241	2572.89
594.692	2577.89
595.142	2588.69
595.593	2576.29
596.043	2579.59
596.493	2593.39
596.943	2577.29
597.394	2598.09
597.844	2586.49
598.294	2562.99
598.744	2588.79
599.195	2580.59
599.645	2611.89
600.095	2585.09
600.545	2600.59
600.995	2598.69
601.445	2597.09
601.895	2611.29
602.345	2602.19
602.795	2607.59
603.245	2608.49
603.695	2590.79
604.145	2616.09
604.594	2624.59
605.044	2616.89
605.494	2601.79
605.944	2606.39
606.393	2640.59
606.843	2612.29
607.293	2628.69
607.743	2623.39
608.192	2629.99
608.642	2617.79
609.091	2626.99
609.541	2620.09
609.99	2621.79
610.44	2601.79
610.889	2634.79
611.339	2627.19
611.788	2610.59
612.238	2620.19
612.687	2613.19
613.136	2613.69
613.586	2618.49
614.035	2607.19
614.484	2620.39
614.933	2608.59
615.383	2606.19
615.832	2602.49
616.281	2637.49
616.73	2616.59
617.179	2615.29
617.628	2605.59
618.077	2607.09
618.526	2594.99
618.975	2596.49
619.424	2590.29
619.873	2601.09
620.322	2598.69
620.771	2602.69
621.22	2589.29
621.669	2593.39
622.118	2611.39
622.567	2598.09
623.015	2566.89
623.464	2584.79
623.913	2598.49
624.361	2590.59
624.81	2597.29
625.259	2601.49
625.707	2567.79
626.156	2580.29
626.604	2599.49
627.053	2598.99
627.501	2578.29
627.95	2581.69
628.398	2601.19
628.847	2570.79
629.295	2574.99
629.744	2571.69
630.192	2522.89
630.64	2572.99
631.089	2562.89
631.537	2565.39
631.985	2542.99
632.433	2531.49
632.881	2559.69
633.33	2562.49
633.778	2538.59
634.226	2531.09
634.674	2546.69
635.122	2524.39
635.57	2529.39
636.018	2524.69
636.466	2511.19
636.914	2493.79
637.362	2509.19
637.81	2498.19
638.258	2516.29
638.705	2477.19
639.153	2500.99
639.601	2489.79
640.049	2495.79
640.497	2483.19
640.944	2485.29
641.392	2478.89
641.84	2475.89
642.287	2467.79
642.735	2488.29
643.182	2474.09
643.63	2472.39
644.078	2485.09
644.525	2457.69
644.973	2470.59
645.42	2467.19
645.867	2482.69
646.315	2443.79
646.762	2459.59
647.21	2449.59
647.657	2447.19
648.104	2445.59
648.551	2400.69
648.999	2457.09
649.446	2459.99
649.893	2429.19
650.34	2425.89
650.787	2450.99
651.234	2426.09
651.682	2431.79
652.129	2428.69
652.576	2405.79
653.023	2433.69
653.47	2400.39
653.917	2419.19
654.363	2426.49
654.81	2425.29
655.257	2407.89
655.704	2403.39
656.151	2411.59
656.598	2401.29
657.044	2385.49
657.491	2395.19
657.938	2382.59
658.385	2385.89
658.831	2395.99
659.278	2389.79
659.724	2383.89
660.171	2393.29
660.618	2370.29
661.064	2359.29
661.511	2373.89
661.957	2356.69
662.404	2351.79
662.85	2371.59
663.296	2355.49
663.743	2355.39
664.189	2353.49
664.635	2344.19
665.082	2338.29
665.528	2324.59
665.974	2337.09
666.42	2332.39
666.867	2318.69
667.313	2316.69
667.759	2328.99
668.205	2310.59
668.651	2330.29
669.097	2298.89
669.543	2315.69
669.989	2304.99
670.435	2308.09
670.881	2276.09
671.327	2252.19
671.773	2290.49
672.219	2260.89
672.665	2268.19
673.11	2252.29
673.556	2244.39
674.002	2233.49
674.448	2245.69
674.893	2232.69
675.339	2240.89
675.785	2215.59
676.23	2207.59
676.676	2212.19
677.122	2199.19
677.567	2182.69
678.013	2179.99
678.458	2188.19
678.904	2162.49
679.349	2142.89
679.794	2152.59
680.24	2140.39
680.685	2132.69
681.131	2113.19
681.576	2115.99
682.021	2112.19
682.466	2093.59
682.912	2076.19
683.357	2082.99
683.802	2082.39
684.247	2059.29
684.692	2048.29
685.137	2040.69
685.583	2016.69
686.028	2008.79
686.473	2021.79
686.918	2016.79
687.363	1992.29
687.807	1991.69
688.252	1990.59
688.697	1977.69
689.142	1960.69
689.587	1969.69
690.032	1973.89
690.477	1950.69
690.921	1943.79
691.366	1945.89
691.811	1933.49
692.255	1931.09
692.7	1934.69
693.145	1923.19
693.589	1917.89
694.034	1906.79
694.478	1917.19
694.923	1890.59
695.367	1893.29
695.812	1880.99
696.256	1875.89
696.701	1860.89
697.145	1859.89
697.59	1858.69
698.034	1844.39
698.478	1850.89
698.922	1840.69
699.367	1840.29
699.811	1840.59
700.255	1833.39
700.699	1832.29
701.143	1811.19
701.588	1810.79
702.032	1796.79
702.476	1810.99
702.92	1815.39
703.364	1784.29
703.808	1804.39
704.252	1775.69
704.696	1768.79
705.14	1752.79
705.584	1772.79
706.027	1762.79
706.471	1776.69
706.915	1748.19
707.359	1752.49
707.803	1740.99
708.246	1744.09
708.69	1742.39
709.134	1726.09
709.577	1724.59
710.021	1719.19
710.465	1709.19
710.908	1705.69
711.352	1707.29
711.795	1704.19
712.239	1701.29
712.682	1703.59
713.126	1696.19
713.569	1696.49
714.012	1682.99
714.456	1674.49
714.899	1665.29
715.342	1677.19
715.786	1656.69
716.229	1662.59
716.672	1650.59
717.115	1655.09
717.558	1653.79
718.002	1645.79
718.445	1649.99
718.888	1630.89
719.331	1623.69
719.774	1631.59
720.217	1631.99
720.66	1617.89
721.103	1617.19
721.546	1610.19
721.989	1614.69
722.432	1589.09
722.874	1606.69
723.317	1605.79
723.76	1600.99
724.203	1575.69
724.645	1590.19
725.088	1584.39
725.531	1589.19
725.974	1562.39
726.416	1567.39
726.859	1560.59
727.301	1551.09
727.744	1554.09
728.187	1562.59
728.629	1542.69
729.071	1544.09
729.514	1537.59
729.956	1530.19
730.399	1522.79
730.841	1526.29
731.283	1533.39
731.726	1504.99
732.168	1495.29
732.61	1502.29
733.053	1489.29
733.495	1493.69
733.937	1492.79
734.379	1481.79
734.821	1469.59
735.263	1471.99
735.705	1452.89
736.148	1459.29
736.59	1458.19
737.032	1441.19
737.474	1450.19
737.916	1429.19
738.357	1444.29
738.799	1424.09
739.241	1444.29
739.683	1436.09
740.125	1427.99
740.567	1422.39
741.008	1424.29
741.45	1405.39
741.892	1402.29
742.334	1399.69
742.775	1411.99
743.217	1375.69
743.658	1396.49
744.1	1378.49
744.542	1376.29
744.983	1375.79
745.425	1363.09
745.866	1355.69
746.307	1359.39
746.749	1345.59
747.19	1360.29
747.632	1341.69
748.073	1340.59
748.514	1335.69
748.956	1337.59
749.397	1313.49
749.838	1315.79
750.279	1310.59
750.72	1293.79
751.162	1302.59
751.603	1298.19
752.044	1284.49
752.485	1276.59
752.926	1285.79
753.367	1277.99
753.808	1270.99
754.249	1276.69
754.69	1277.49
755.131	1261.49
755.572	1250.49
756.013	1254.19
756.453	1244.89
756.894	1238.09
757.335	1225.89
757.776	1226.69
758.216	1240.89
758.657	1234.19
759.098	1229.59
759.538	1234.09
759.979	1214.89
760.42	1207.79
760.86	1210.79
761.301	1214.79
761.741	1210.39
762.182	1205.19
762.622	1202.99
763.063	1201.49
763.503	1196.99
763.943	1189.39
764.384	1187.19
764.824	1181.59
765.264	1178.09
765.705	1172.69
766.145	1164.89
766.585	1166.99
767.025	1162.89
767.465	1149.99
767.906	1155.69
768.346	1157.09
768.786	1132.89
769.226	1143.49
769.666	1123.09
770.106	1143.99
770.546	1123.49
770.986	1121.99
771.426	1126.09
771.866	1115.39
772.306	1121.69
772.745	1120.29
773.185	1111.89
773.625	1098.69
774.065	1099.59
774.505	1095.29
774.944	1096.99
775.384	1089.39
775.824	1091.49
776.263	1073.59
776.703	1075.69
777.142	1077.89
777.582	1071.49
778.021	1072.69
778.461	1065.29
778.9	1052.59
779.34	1051.59
779.779	1050.19
780.219	1045.39
780.658	1064.99
781.097	1046.59
781.537	1044.99
781.976	1047.69
782.415	1041.59
782.855	1039.29
783.294	1044.79
783.733	1035.49
784.172	1027.39
784.611	1029.69
785.05	1027.49
785.489	1018.39
785.928	1014.19
786.367	1019.89
786.806	1021.29
787.245	1020.79
787.684	1004.89
788.123	1008.19
788.562	1028.49
789.001	1009.29
789.44	1005.69
789.879	1005.29
790.317	1006.59
790.756	1011.79
791.195	1003.09
791.634	1003.89
792.072	1006.19
792.511	1008.79
792.95	1001.09
793.388	999.09
793.827	999.09
794.265	1004.39
794.704	993.89
795.142	1001.39
795.581	1005.79
796.019	995.99
796.458	1000.29
796.896	986.79
797.334	994.99
797.773	990.79
798.211	997.49
798.649	999.39
799.087	1001.49
799.526	1000.79
799.964	1012.89
800.402	1006.99
800.84	1005.99
801.278	1000.19
801.716	1012.69
802.154	1008.69
802.592	1002.89
803.03	1012.79
803.468	1009.39
803.906	1017.99
804.344	1026.39
804.782	1016.49
805.22	1013.59
805.658	1027.49
806.096	1019.89
806.533	1024.29
806.971	1041.89
807.409	1037.89
807.847	1034.59
808.284	1041.09
808.722	1052.99
809.16	1051.59
809.597	1045.59
810.035	1065.99
810.472	1054.69
810.91	1064.79
811.347	1067.49
811.785	1058.79
812.222	1074.49
812.66	1083.49
813.097	1083.49
813.535	1088.89
813.972	1094.59
814.409	1099.69
814.846	1101.89
815.284	1107.89
815.721	1121.09
816.158	1117.99
816.595	1133.59
817.032	1124.29
817.47	1127.09
817.907	1132.09
818.344	1137.49
818.781	1137.79
819.218	1144.59
819.655	1159.49
820.092	1158.19
820.529	1171.69
820.966	1177.59
821.403	1178.99
821.839	1178.99
822.276	1183.29
822.713	1198.29
823.15	1202.89
823.587	1207.89
824.023	1221.89
824.46	1224.89
824.897	1225.29
825.333	1216.69
825.77	1229.09
826.206	1229.49
826.643	1243.79
827.08	1260.09
827.516	1257.79
827.953	1278.29
828.389	1270.99
828.825	1285.29
829.262	1283.39
829.698	1280.89
830.135	1289.39
830.571	1287.19
831.007	1298.49
831.443	1304.29
831.88	1296.09
832.316	1318.69
832.752	1311.69
833.188	1326.69
833.624	1311.69
834.06	1316.79
834.497	1319.19
834.933	1334.39
835.369	1326.79
835.805	1329.29
836.241	1335.39
836.677	1341.89
837.112	1346.69
837.548	1349.39
837.984	1342.89
838.42	1349.39
838.856	1357.59
839.292	1354.69
839.727	1371.19
840.163	1344.59
840.599	1350.69
841.034	1357.39
841.47	1352.59
841.906	1367.59
842.341	1357.09
842.777	1367.99
843.212	1354.99
843.648	1362.89
844.083	1352.99
844.519	1358.09
844.954	1358.09
845.39	1359.69
845.825	1361.19
846.261	1366.89
846.696	1367.39
847.131	1366.19
847.566	1372.39
848.002	1372.19
848.437	1352.39
848.872	1357.29
849.307	1366.39
849.742	1357.39
850.177	1359.09
850.613	1368.69
851.048	1360.29
851.483	1361.29
851.918	1382.39
852.353	1360.89
852.788	1356.59
853.223	1360.79
853.657	1362.79
854.092	1365.29
854.527	1354.39
854.962	1363.99
855.397	1359.69
855.832	1353.69
856.266	1350.09
856.701	1367.29
857.136	1352.49
857.57	1344.99
858.005	1360.29
858.44	1349.69
858.874	1351.99
859.309	1355.99
859.743	1356.89
860.178	1349.49
860.612	1351.89
861.047	1358.49
861.481	1347.19
861.915	1349.69
862.35	1353.19
862.784	1351.89
863.218	1347.09
863.653	1343.99
864.087	1354.59
864.521	1348.69
864.955	1349.89
865.39	1347.99
865.824	1345.79
866.258	1361.89
866.692	1347.79
867.126	1342.99
867.56	1344.09
867.994	1342.59
868.428	1346.29
868.862	1349.29
869.296	1338.89
869.73	1342.99
870.164	1342.59
870.598	1344.09
871.031	1330.09
871.465	1341.99
871.899	1347.59
872.333	1336.49
872.766	1323.19
873.2	1334.09
873.634	1347.89
874.067	1332.09
874.501	1318.49
874.935	1324.89
875.368	1318.49
875.802	1341.69
876.235	1323.29
876.669	1326.19
877.102	1336.29
877.535	1318.19
877.969	1311.79
878.402	1311.89
878.836	1304.79
879.269	1315.29
879.702	1316.49
880.135	1299.29
880.569	1302.99
881.002	1294.99
881.435	1312.29
881.868	1301.79
882.301	1302.19
882.734	1291.29
883.167	1293.69
883.601	1297.29
884.034	1294.99
884.467	1288.89
884.899	1287.79
885.332	1294.69
885.765	1276.79
886.198	1266.59
886.631	1259.29
887.064	1275.89
887.497	1250.19
887.929	1273.69
888.362	1261.09
888.795	1249.59
889.228	1255.09
889.66	1251.29
890.093	1246.59
890.526	1247.69
890.958	1231.89
891.391	1229.09
891.823	1243.39
892.256	1247.99
892.688	1238.79
893.121	1224.89
893.553	1213.69
893.985	1222.29
894.418	1207.99
894.85	1203.79
895.282	1204.29
895.715	1206.69
896.147	1200.29
896.579	1206.79
897.011	1184.39
897.444	1185.19
897.876	1175.79
898.308	1177.39
898.74	1172.39
899.172	1175.19
899.604	1180.89
900.036	1167.09
900.468	1164.59
900.9	1162.09
901.332	1148.59
901.764	1156.29
902.196	1147.89
902.628	1147.59
903.06	1160.39
903.491	1146.99
903.923	1135.79
904.355	1139.19
904.787	1132.89
905.218	1128.59
905.65	1131.49
906.082	1114.19
906.513	1121.89
906.945	1121.49
907.376	1108.79
907.808	1101.09
908.239	1111.99
908.671	1098.19
909.102	1095.69
909.534	1100.39
909.965	1087.29
910.397	1084.09
910.828	1091.49
911.259	1085.49
911.691	1077.39
912.122	1073.79
912.553	1073.99
912.984	1063.89
913.415	1067.19
913.847	1053.69
914.278	1058.69
914.709	1048.89
915.14	1062.19
915.571	1047.09
916.002	1048.89
916.433	1035.89
916.864	1046.09
917.295	1043.19
917.726	1030.69
918.157	1031.99
918.587	1027.49
919.018	1022.89
919.449	1012.19
919.88	999.99
920.311	1006.19
920.741	999.59
921.172	991.29
921.603	992.59
922.033	992.39
922.464	990.49
922.895	998.79
923.325	983.99
923.756	990.69
924.186	981.19
924.617	983.29
925.047	981.29
925.478	981.49
925.908	974.79
926.338	974.09
926.769	990.79
927.199	987.09
927.629	973.09
928.06	972.69
928.49	977.69
928.92	982.59
929.35	991.59
929.78	978.69
930.21	981.69
930.641	977.39
931.071	983.99
931.501	988.49
931.931	989.49
932.361	984.09
932.791	991.39
933.221	978.59
933.651	976.19
934.08	976.79
934.51	968.79
934.94	968.09
935.37	965.29
935.8	971.79
936.229	963.69
936.659	966.09
937.089	966.39
937.519	947.09
937.948	940.69
938.378	953.79
938.807	935.59
939.237	923.99
939.666	923.89
940.096	921.09
940.525	920.09
940.955	912.49
941.384	903.59
941.814	894.29
942.243	902.29
942.672	894.79
943.102	885.09
943.531	876.29
943.96	869.79
944.39	875.79
944.819	866.79
945.248	868.69
945.677	853.69
946.106	846.19
946.535	848.09
946.964	854.19
947.393	831.79
947.822	828.89
948.251	836.69
948.68	819.89
949.109	815.39
949.538	807.89
949.967	810.29
950.396	802.49
950.825	791.09
951.254	783.89
951.682	773.69
952.111	779.99
952.54	764.89
952.969	760.29
953.397	763.49
953.826	752.49
954.254	751.29
954.683	745.69
955.112	725.49
955.54	727.59
955.969	716.59
956.397	726.39
956.826	715.79
957.254	711.49
957.682	715.29
958.111	703.79
958.539	699.29
958.967	686.69
959.396	684.59
959.824	685.29
960.252	671.89
960.68	655.59
961.109	665.89
961.537	656.79
961.965	649.39
962.393	646.69
962.821	650.39
963.249	630.69
963.677	633.29
964.105	618.69
964.533	622.59
964.961	613.49
965.389	613.19
965.817	608.39
966.245	600.69
966.672	591.79
967.1	586.29
967.528	585.69
967.956	576.59
968.383	581.49
968.811	577.49
969.239	567.49
969.666	555.69
970.094	562.09
970.522	551.09
970.949	550.29
971.377	552.39
971.804	541.19
972.232	544.99
972.659	531.69
973.087	531.99
973.514	518.09
973.941	513.99
974.369	509.79
974.796	513.19
975.223	507.19
975.651	505.29
976.078	502.89
976.505	494.29
976.932	495.09
977.359	482.09
977.786	482.09
978.214	481.29
978.641	477.99
979.068	477.59
979.495	471.79
979.922	466.39
980.349	471.69
980.776	457.49
981.202	455.89
981.629	456.99
982.056	452.09
982.483	439.59
982.91	443.59
983.337	440.79
983.763	436.19
984.19	434.09
984.617	423.29
985.043	426.19
985.47	420.59
985.897	426.39
986.323	413.99
986.75	413.29
987.176	407.79
987.603	407.89
988.029	401.29
988.456	403.49
988.882	404.49
989.308	393.89
989.735	391.19
990.161	380.99
990.587	378.69
991.014	379.19
991.44	382.99
991.866	381.69
992.292	374.09
992.719	366.19
993.145	367.09
993.571	362.99
993.997	359.89
994.423	350.99
994.849	346.19
995.275	348.59
995.701	349.79
996.127	348.29
996.553	331.79
996.979	341.49
997.405	336.79
997.83	348.19
998.256	337.09
998.682	332.59
999.108	337.69
999.534	325.59
999.959	338.29
1000.385	330.49
1000.811	334.99
1001.236	327.69
1001.662	330.09
1002.087	323.09
1002.513	335.09
1002.938	322.59
1003.364	330.09
1003.789	328.49
1004.215	329.19
1004.64	331.59
1005.066	336.59
1005.491	327.19
1005.916	325.59
1006.342	330.29
1006.767	330.69
1007.192	335.49
1007.617	332.79
1008.042	334.69
1008.468	332.89
1008.893	325.09
1009.318	319.39
1009.743	322.19
1010.168	312.99
1010.593	321.09
1011.018	313.99
1011.443	313.69
1011.868	312.49
1012.293	301.69
1012.718	303.59
1013.143	289.99
1013.567	293.49
1013.992	294.39
1014.417	294.69
1014.842	286.09
1015.267	276.69
1015.691	279.89
1016.116	273.29
1016.541	264.49
1016.965	271.09
1017.39	261.09
1017.814	263.09
1018.239	254.19
1018.663	256.49
1019.088	254.29
1019.512	247.29
1019.937	249.59
1020.361	240.09
1020.785	239.79
1021.21	237.09
1021.634	238.09
1022.058	237.79
1022.483	225.29
1022.907	229.99
1023.331	227.39
1023.755	229.29
1024.179	227.39
1024.604	215.09
1025.028	216.39
1025.452	210.29
1025.876	209.99
1026.3	213.59
1026.724	205.29
1027.148	203.49
1027.572	206.49
1027.996	202.79
1028.42	211.09
1028.843	206.69
1029.267	202.19
1029.691	183.99
1030.115	192.09
1030.539	192.79
1030.962	189.09
1031.386	190.99
1031.81	190.99
1032.233	186.59
1032.657	191.59
1033.08	193.39
1033.504	187.99
1033.927	178.99
1034.351	176.69
1034.774	174.49
1035.198	174.39
1035.621	181.49
1036.045	174.39
1036.468	170.39
1036.891	178.19
1037.315	170.49
1037.738	168.09
1038.161	170.89
1038.584	171.99
1039.008	173.79
1039.431	163.29
1039.854	162.89
1040.277	165.99
1040.7	162.09
1041.123	157.39
1041.546	156.19
1041.969	154.59
1042.392	155.49
1042.815	152.89
1043.238	156.09
1043.661	152.99
1044.084	154.69
1044.507	149.79
1044.93	150.39
1045.352	150.19
1045.775	145.79
1046.198	148.69
1046.621	145.09
1047.043	150.99
1047.466	148.29
1047.889	140.69
1048.311	145.39
1048.734	149.49
1049.156	139.39
1049.579	141.59
1050.001	142.09
1050.424	138.09
1050.846	137.29
1051.269	141.49
1051.691	134.39
1052.113	136.09
1052.536	138.59
1052.958	134.39
1053.38	133.89
1053.802	135.59
1054.225	131.49
1054.647	134.99
1055.069	131.89
1055.491	128.99
1055.913	127.39
1056.335	127.79
1056.757	128.09
1057.179	130.99
1057.601	128.19
1058.023	125.59
1058.445	129.69
1058.867	125.99
1059.289	130.19
1059.711	125.19
1060.133	125.19
1060.555	122.89
1060.976	121.19
1061.398	121.59
1061.82	123.19
1062.241	117.29
1062.663	116.49
1063.085	120.19
1063.506	112.19
1063.928	114.99
1064.35	117.49
1064.771	124.59
1065.193	116.49
1065.614	114.89
1066.035	117.99
1066.457	117.89
1066.878	116.59
1067.3	112.49
1067.721	111.09
1068.142	120.89
1068.564	115.19
1068.985	111.69
1069.406	113.79
1069.827	115.79
1070.248	113.89
1070.67	114.79
1071.091	110.69
1071.512	113.59
1071.933	119.39
1072.354	114.19
1072.775	108.99
1073.196	103.99
1073.617	113.49
1074.038	111.69
1074.459	104.59
1074.88	112.69
1075.3	106.89
1075.721	111.89
1076.142	111.29
1076.563	111.99
1076.983	106.29
1077.404	106.89
1077.825	114.69
1078.246	112.49
1078.666	109.49
1079.087	106.99
1079.507	112.19
1079.928	105.39
1080.348	106.09
1080.769	106.19
1081.189	110.59
1081.61	103.69
1082.03	106.69
1082.451	105.89
1082.871	106.49
1083.291	103.69
1083.711	103.29
1084.132	104.79
1084.552	101.99
1084.972	100.79
1085.392	103.89
1085.813	103.19
1086.233	101.59
1086.653	100.79
1087.073	104.19
1087.493	101.19
1087.913	104.79
1088.333	102.79
1088.753	102.89
1089.173	107.39
1089.593	103.69
1090.013	104.89
1090.433	101.49
1090.852	102.99
1091.272	97.99
1091.692	99.19
1092.112	98.19
1092.531	96.29
1092.951	101.49
1093.371	96.69
1093.79	103.19
1094.21	104.09
1094.63	94.59
1095.049	93.19
1095.469	99.79
1095.888	97.09
1096.308	102.09
1096.727	96.59
1097.146	96.19
1097.566	100.29
1097.985	97.49
1098.405	99.49
1098.824	93.09
1099.243	95.69
1099.662	90.79
1100.082	99.39
1100.501	93.99
1100.92	88.99
1101.339	93.99
1101.758	93.59
