Data from DH-3PlusCalLight-DeuteriumHalogen_HRD10391_13-38-36-628.txt Node
Date: Thu Feb 15 13:38:36 EST 2018
User: Ender
Spectrometer: HR+D1039
Trigger mode: 0
Integration Time (sec): 2.730000E-2
Scans to average: 10
Electric dark correction enabled: true
Nonlinearity correction enabled: false
Boxcar width: 0
XAxis mode: Wavelengths
Number of Pixels in Spectrum: 2048
>>>>>Begin Spectral Data<<<<<
187.836	-0.27
188.309	-0.27
188.782	-0.27
189.255	-1.37
189.728	-4.37
190.201	-9.37
190.674	-9.27
191.147	-7.37
191.619	-6.07
192.092	-2.57
192.565	-6.27
193.038	-3.27
193.511	0.43
193.984	1.73
194.456	3.53
194.929	13.53
195.402	14.53
195.874	16.43
196.347	22.93
196.82	22.83
197.292	31.03
197.765	35.13
198.237	37.03
198.71	38.93
199.182	40.13
199.655	48.13
200.127	52.53
200.6	55.73
201.072	54.53
201.544	62.73
202.017	63.43
202.489	68.53
202.961	73.43
203.433	69.73
203.906	72.63
204.378	75.53
204.85	81.73
205.322	82.73
205.794	85.33
206.266	82.83
206.739	83.83
207.211	81.93
207.683	85.53
208.155	85.73
208.627	84.83
209.099	83.33
209.57	89.83
210.042	85.93
210.514	87.13
210.986	84.63
211.458	87.43
211.93	86.13
212.402	87.83
212.873	82.93
213.345	82.03
213.817	81.53
214.288	81.23
214.76	87.53
215.232	85.73
215.703	85.33
216.175	83.93
216.646	84.43
217.118	82.03
217.589	84.43
218.061	87.43
218.532	83.53
219.004	84.63
219.475	81.73
219.946	82.13
220.418	81.63
220.889	85.43
221.36	78.23
221.832	86.73
222.303	82.63
222.774	77.23
223.245	85.73
223.717	89.03
224.188	87.23
224.659	97.13
225.13	94.93
225.601	95.63
226.072	90.43
226.543	98.13
227.014	100.13
227.485	98.73
227.956	101.23
228.427	109.63
228.898	107.03
229.369	111.93
229.839	117.73
230.31	114.23
230.781	121.33
231.252	116.73
231.722	119.23
232.193	118.73
232.664	113.93
233.135	116.93
233.605	116.93
234.076	117.93
234.546	112.83
235.017	113.03
235.487	110.43
235.958	103.63
236.428	109.83
236.899	100.73
237.369	94.93
237.84	97.93
238.31	99.23
238.78	87.53
239.251	94.13
239.721	87.83
240.191	90.33
240.662	86.53
241.132	86.03
241.602	89.53
242.072	82.73
242.542	84.43
243.013	85.13
243.483	83.63
243.953	84.83
244.423	80.23
244.893	83.73
245.363	85.03
245.833	90.53
246.303	80.13
246.773	86.43
247.243	87.03
247.712	86.33
248.182	85.53
248.652	85.03
249.122	87.43
249.592	85.23
250.061	88.23
250.531	84.93
251.001	88.03
251.471	88.93
251.94	93.83
252.41	95.33
252.879	93.73
253.349	93.23
253.818	94.33
254.288	99.43
254.757	104.93
255.227	103.73
255.696	108.93
256.166	111.13
256.635	112.83
257.105	120.93
257.574	130.03
258.043	133.13
258.513	143.13
258.982	151.53
259.451	163.23
259.92	164.33
260.389	177.13
260.859	184.83
261.328	189.63
261.797	198.23
262.266	209.03
262.735	219.83
263.204	225.73
263.673	242.23
264.142	243.23
264.611	253.93
265.08	262.23
265.549	262.23
266.018	280.83
266.487	285.03
266.955	297.23
267.424	300.23
267.893	302.23
268.362	309.43
268.83	318.93
269.299	320.73
269.768	322.23
270.236	329.83
270.705	331.93
271.174	340.03
271.642	336.83
272.111	343.83
272.579	355.73
273.048	342.73
273.516	360.73
273.985	357.43
274.453	355.53
274.922	351.83
275.39	355.93
275.858	357.43
276.327	359.93
276.795	359.03
277.263	357.73
277.731	357.23
278.2	353.23
278.668	359.53
279.136	344.23
279.604	353.53
280.072	358.93
280.54	347.63
281.008	349.83
281.477	340.83
281.945	341.33
282.413	341.33
282.881	336.33
283.348	334.83
283.816	332.03
284.284	332.23
284.752	323.83
285.22	325.23
285.688	323.73
286.156	323.93
286.623	312.73
287.091	312.43
287.559	320.13
288.026	320.23
288.494	316.83
288.962	321.03
289.429	314.23
289.897	315.63
290.364	322.23
290.832	325.23
291.3	331.73
291.767	333.93
292.234	332.23
292.702	342.83
293.169	343.43
293.637	354.23
294.104	357.83
294.571	362.13
295.039	357.43
295.506	364.73
295.973	365.03
296.44	370.23
296.908	375.33
297.375	376.43
297.842	382.73
298.309	381.53
298.776	387.53
299.243	391.43
299.71	386.83
300.177	388.93
300.644	390.73
301.111	384.53
301.578	384.43
302.045	389.03
302.512	390.93
302.979	387.13
303.446	388.13
303.913	383.23
304.379	390.73
304.846	377.33
305.313	387.53
305.78	385.43
306.246	382.43
306.713	379.23
307.18	389.83
307.646	376.33
308.113	372.83
308.579	374.13
309.046	379.73
309.512	379.43
309.979	368.83
310.445	373.43
310.912	373.13
311.378	370.33
311.845	369.23
312.311	367.93
312.777	365.73
313.244	363.53
313.71	361.43
314.176	364.33
314.642	370.13
315.109	368.23
315.575	367.53
316.041	360.43
316.507	366.43
316.973	373.93
317.439	369.73
317.905	370.93
318.371	373.03
318.837	380.23
319.303	377.03
319.769	385.53
320.235	389.03
320.701	392.33
321.167	396.33
321.633	398.63
322.099	405.33
322.564	391.33
323.03	400.83
323.496	400.83
323.962	403.73
324.427	400.33
324.893	399.83
325.359	404.33
325.824	402.03
326.29	403.13
326.755	406.33
327.221	400.83
327.686	403.53
328.152	401.13
328.617	396.53
329.083	397.63
329.548	401.83
330.014	397.73
330.479	383.73
330.944	393.73
331.41	396.33
331.875	382.63
332.34	376.03
332.805	383.63
333.271	375.53
333.736	375.73
334.201	366.43
334.666	363.73
335.131	365.43
335.596	366.73
336.061	362.53
336.526	362.03
336.991	356.43
337.456	354.03
337.921	351.13
338.386	349.93
338.851	352.23
339.316	356.73
339.781	358.33
340.246	370.73
340.711	364.53
341.175	373.13
341.64	376.73
342.105	384.03
342.569	386.23
343.034	384.43
343.499	397.63
343.963	400.83
344.428	403.43
344.893	396.33
345.357	407.23
345.822	409.73
346.286	412.53
346.751	423.43
347.215	430.03
347.679	430.53
348.144	429.63
348.608	434.73
349.073	433.83
349.537	445.33
350.001	435.93
350.465	439.33
350.93	437.73
351.394	448.03
351.858	435.13
352.322	437.83
352.786	444.53
353.25	430.93
353.715	438.03
354.179	433.53
354.643	444.13
355.107	440.33
355.571	431.03
356.035	444.23
356.498	447.83
356.962	435.23
357.426	441.43
357.89	455.63
358.354	447.73
358.818	452.23
359.281	445.43
359.745	434.13
360.209	446.23
360.673	443.53
361.136	449.73
361.6	444.73
362.064	444.53
362.527	442.83
362.991	439.23
363.454	439.93
363.918	440.53
364.381	438.43
364.845	452.13
365.308	445.53
365.772	437.73
366.235	445.43
366.698	446.23
367.162	440.23
367.625	457.63
368.088	453.53
368.552	451.63
369.015	444.03
369.478	448.33
369.941	440.33
370.404	447.33
370.867	441.53
371.331	446.73
371.794	449.33
372.257	442.43
372.72	453.23
373.183	451.13
373.646	446.13
374.109	458.93
374.572	470.23
375.035	472.13
375.497	470.13
375.96	472.73
376.423	463.33
376.886	477.93
377.349	477.43
377.811	486.63
378.274	493.63
378.737	479.13
379.199	484.23
379.662	480.93
380.125	486.43
380.587	475.43
381.05	487.43
381.512	482.63
381.975	491.03
382.437	487.43
382.9	492.93
383.362	488.03
383.825	491.23
384.287	503.23
384.75	485.53
385.212	502.83
385.674	505.53
386.136	506.43
386.599	516.73
387.061	520.33
387.523	513.13
387.985	503.63
388.447	506.23
388.91	497.83
389.372	505.63
389.834	507.23
390.296	505.03
390.758	510.93
391.22	526.23
391.682	532.83
392.144	538.13
392.606	527.73
393.068	520.63
393.529	523.53
393.991	522.23
394.453	517.73
394.915	526.03
395.377	531.03
395.838	527.33
396.3	531.43
396.762	544.23
397.224	551.43
397.685	551.93
398.147	542.13
398.608	536.93
399.07	532.23
399.531	530.53
399.993	536.63
400.454	535.33
400.916	526.53
401.377	533.03
401.839	538.03
402.3	531.63
402.762	546.63
403.223	554.73
403.684	549.93
404.145	556.43
404.607	550.63
405.068	548.13
405.529	537.73
405.99	529.83
406.451	536.53
406.913	527.13
407.374	539.93
407.835	547.23
408.296	547.83
408.757	544.53
409.218	545.23
409.679	530.73
410.14	534.03
410.601	538.93
411.062	540.63
411.522	543.13
411.983	547.43
412.444	551.53
412.905	542.93
413.366	553.83
413.826	547.63
414.287	538.13
414.748	549.33
415.208	552.23
415.669	551.53
416.13	554.53
416.59	552.43
417.051	554.13
417.511	558.23
417.972	584.23
418.432	588.53
418.893	592.93
419.353	607.33
419.814	613.93
420.274	620.43
420.734	630.13
421.195	640.03
421.655	616.13
422.115	618.73
422.576	628.53
423.036	632.03
423.496	635.73
423.956	642.33
424.416	645.33
424.876	664.83
425.336	653.43
425.797	666.33
426.257	681.03
426.717	691.23
427.177	688.73
427.637	700.13
428.097	708.73
428.556	721.83
429.016	734.93
429.476	744.43
429.936	755.13
430.396	745.73
430.856	745.13
431.315	746.83
431.775	779.73
432.235	781.43
432.694	818.83
433.154	818.63
433.614	799.93
434.073	827.03
434.533	834.33
434.993	835.93
435.452	870.53
435.912	861.93
436.371	870.73
436.83	879.63
437.29	894.83
437.749	900.73
438.209	900.23
438.668	923.33
439.127	922.33
439.587	946.83
440.046	953.13
440.505	963.43
440.964	968.63
441.424	993.33
441.883	1013.63
442.342	1010.73
442.801	1020.23
443.26	1035.33
443.719	1055.83
444.178	1064.33
444.637	1084.33
445.096	1104.53
445.555	1123.43
446.014	1114.13
446.473	1112.03
446.932	1133.33
447.391	1144.73
447.849	1187.23
448.308	1157.93
448.767	1184.53
449.226	1216.63
449.685	1206.83
450.143	1243.03
450.602	1263.33
451.061	1244.53
451.519	1271.63
451.978	1294.23
452.436	1303.53
452.895	1308.33
453.353	1327.13
453.812	1330.53
454.27	1377.03
454.729	1364.63
455.187	1387.13
455.646	1382.83
456.104	1417.63
456.562	1427.43
457.021	1445.03
457.479	1409.13
457.937	1443.03
458.395	1485.03
458.854	1471.63
459.312	1455.83
459.77	1467.13
460.228	1487.23
460.686	1533.03
461.144	1511.83
461.602	1513.03
462.06	1503.53
462.518	1519.03
462.976	1524.03
463.434	1521.03
463.892	1511.83
464.35	1506.83
464.808	1521.13
465.266	1524.13
465.724	1544.63
466.181	1542.73
466.639	1518.23
467.097	1569.23
467.555	1607.33
468.012	1569.63
468.47	1562.83
468.928	1584.23
469.385	1593.53
469.843	1623.13
470.3	1603.73
470.758	1643.13
471.215	1631.73
471.673	1659.03
472.13	1698.03
472.588	1714.43
473.045	1733.13
473.503	1773.03
473.96	1837.33
474.417	1841.33
474.875	1858.23
475.332	1888.93
475.789	1897.33
476.246	1953.13
476.704	1985.83
477.161	1999.43
477.618	2031.03
478.075	2064.13
478.532	2141.73
478.989	2176.33
479.446	2198.13
479.903	2197.43
480.36	2327.83
480.817	2326.83
481.274	2367.23
481.731	2415.13
482.188	2446.53
482.645	2508.53
483.102	2514.73
483.558	2546.23
484.015	2604.83
484.472	2666.63
484.929	2710.03
485.385	2738.73
485.842	2747.03
486.299	2815.03
486.755	2809.23
487.212	2831.03
487.668	2864.93
488.125	2916.63
488.582	2887.43
489.038	2911.83
489.494	2945.53
489.951	2954.73
490.407	2981.23
490.864	2988.13
491.32	3002.73
491.776	2989.23
492.233	3016.23
492.689	3013.43
493.145	3005.63
493.602	3007.33
494.058	3028.83
494.514	3015.33
494.97	3012.43
495.426	3027.63
495.882	3038.63
496.338	3019.43
496.794	3046.73
497.251	3039.13
497.707	3058.03
498.163	3055.83
498.618	3067.93
499.074	3041.53
499.53	3060.13
499.986	3057.13
500.442	3094.73
500.898	3035.63
501.354	3080.83
501.809	3104.73
502.265	3048.43
502.721	3065.73
503.177	3071.03
503.632	3067.73
504.088	3058.83
504.543	3066.13
504.999	3081.83
505.455	3069.43
505.91	3066.73
506.366	3070.73
506.821	3065.23
507.277	3070.93
507.732	3076.03
508.187	3038.63
508.643	3050.23
509.098	3038.43
509.553	3046.83
510.009	3023.73
510.464	3037.13
510.919	3026.83
511.375	3026.23
511.83	3002.03
512.285	2987.53
512.74	3001.93
513.195	2956.93
513.65	2963.63
514.105	2955.93
514.56	2918.03
515.015	2924.63
515.47	2933.73
515.925	2906.13
516.38	2902.03
516.835	2911.73
517.29	2870.23
517.745	2876.43
518.2	2851.93
518.655	2859.43
519.109	2866.13
519.564	2842.13
520.019	2827.43
520.474	2810.33
520.928	2813.33
521.383	2801.23
521.838	2788.03
522.292	2788.53
522.747	2784.23
523.201	2789.43
523.656	2769.13
524.11	2763.53
524.565	2747.53
525.019	2746.83
525.474	2755.33
525.928	2750.33
526.382	2744.13
526.837	2737.43
527.291	2765.13
527.745	2737.23
528.2	2751.33
528.654	2732.33
529.108	2728.43
529.562	2740.23
530.016	2732.83
530.47	2733.43
530.925	2723.33
531.379	2740.43
531.833	2762.63
532.287	2748.83
532.741	2714.83
533.195	2763.33
533.649	2749.43
534.103	2750.53
534.556	2724.63
535.01	2737.23
535.464	2728.63
535.918	2755.53
536.372	2778.43
536.826	2717.13
537.279	2737.73
537.733	2732.13
538.187	2752.83
538.64	2728.73
539.094	2728.83
539.548	2757.03
540.001	2735.93
540.455	2711.23
540.908	2716.93
541.362	2715.83
541.815	2699.83
542.269	2726.93
542.722	2692.73
543.175	2688.33
543.629	2689.73
544.082	2670.83
544.536	2687.73
544.989	2667.43
545.442	2668.33
545.895	2668.63
546.349	2650.03
546.802	2633.53
547.255	2632.43
547.708	2644.53
548.161	2646.33
548.614	2622.73
549.067	2625.33
549.52	2633.33
549.973	2621.43
550.426	2601.93
550.879	2611.73
551.332	2640.73
551.785	2643.43
552.238	2615.53
552.691	2616.03
553.144	2617.53
553.596	2621.03
554.049	2630.13
554.502	2634.63
554.955	2628.53
555.407	2629.33
555.86	2643.03
556.313	2633.33
556.765	2658.63
557.218	2638.03
557.67	2673.13
558.123	2669.23
558.576	2664.43
559.028	2648.53
559.48	2660.33
559.933	2665.23
560.385	2684.73
560.838	2698.03
561.29	2675.43
561.742	2691.73
562.195	2695.13
562.647	2695.83
563.099	2697.83
563.551	2663.13
564.004	2705.63
564.456	2708.13
564.908	2737.33
565.36	2743.73
565.812	2695.13
566.264	2711.23
566.716	2719.53
567.168	2725.23
567.62	2725.23
568.072	2723.03
568.524	2733.23
568.976	2726.53
569.428	2719.03
569.88	2701.43
570.332	2714.13
570.784	2694.63
571.235	2704.93
571.687	2711.33
572.139	2690.83
572.59	2703.33
573.042	2679.53
573.494	2680.23
573.945	2688.63
574.397	2659.73
574.849	2662.63
575.3	2672.63
575.752	2653.23
576.203	2638.83
576.655	2663.53
577.106	2636.63
577.557	2618.63
578.009	2628.53
578.46	2634.13
578.912	2615.93
579.363	2611.73
579.814	2614.53
580.265	2595.33
580.717	2612.03
581.168	2601.33
581.619	2613.13
582.07	2609.63
582.521	2606.73
582.972	2593.53
583.423	2617.63
583.875	2618.83
584.326	2600.93
584.777	2617.13
585.227	2598.83
585.678	2588.33
586.129	2617.33
586.58	2598.43
587.031	2612.33
587.482	2606.63
587.933	2584.63
588.384	2603.83
588.834	2593.73
589.285	2608.03
589.736	2629.33
590.186	2602.03
590.637	2619.63
591.088	2618.03
591.538	2639.63
591.989	2645.93
592.439	2627.43
592.89	2628.23
593.34	2630.63
593.791	2641.13
594.241	2640.83
594.692	2640.23
595.142	2645.83
595.593	2638.73
596.043	2643.63
596.493	2678.33
596.943	2629.03
597.394	2671.73
597.844	2651.83
598.294	2670.93
598.744	2671.83
599.195	2673.23
599.645	2679.03
600.095	2676.73
600.545	2663.03
600.995	2680.93
601.445	2655.43
601.895	2678.03
602.345	2683.03
602.795	2668.93
603.245	2673.73
603.695	2674.23
604.145	2680.83
604.594	2686.83
605.044	2684.73
605.494	2667.93
605.944	2681.03
606.393	2715.83
606.843	2696.43
607.293	2697.83
607.743	2695.03
608.192	2715.03
608.642	2685.53
609.091	2692.93
609.541	2690.43
609.99	2729.73
610.44	2668.33
610.889	2713.53
611.339	2707.53
611.788	2684.13
612.238	2713.73
612.687	2678.43
613.136	2684.63
613.586	2702.53
614.035	2682.73
614.484	2680.73
614.933	2689.93
615.383	2691.43
615.832	2680.83
616.281	2698.33
616.73	2674.33
617.179	2688.63
617.628	2675.83
618.077	2667.03
618.526	2682.63
618.975	2684.83
619.424	2642.03
619.873	2675.13
620.322	2649.13
620.771	2672.63
621.22	2658.23
621.669	2658.93
622.118	2686.33
622.567	2677.03
623.015	2646.73
623.464	2654.03
623.913	2657.73
624.361	2659.03
624.81	2661.83
625.259	2649.83
625.707	2628.73
626.156	2657.03
626.604	2663.33
627.053	2646.03
627.501	2642.43
627.95	2638.33
628.398	2662.23
628.847	2619.23
629.295	2631.53
629.744	2628.53
630.192	2604.83
630.64	2638.33
631.089	2619.13
631.537	2622.43
631.985	2601.43
632.433	2610.63
632.881	2590.63
633.33	2602.03
633.778	2594.63
634.226	2589.43
634.674	2592.13
635.122	2582.53
635.57	2563.23
636.018	2594.33
636.466	2553.53
636.914	2566.33
637.362	2583.83
637.81	2549.93
638.258	2564.23
638.705	2542.93
639.153	2562.93
639.601	2533.63
640.049	2547.53
640.497	2552.13
640.944	2542.73
641.392	2536.93
641.84	2564.13
642.287	2540.53
642.735	2563.23
643.182	2525.63
643.63	2533.23
644.078	2533.03
644.525	2524.83
644.973	2510.43
645.42	2524.93
645.867	2540.93
646.315	2504.23
646.762	2519.73
647.21	2490.53
647.657	2514.93
648.104	2521.43
648.551	2483.63
648.999	2535.53
649.446	2505.53
649.893	2483.23
650.34	2483.73
650.787	2497.83
651.234	2488.03
651.682	2515.63
652.129	2475.03
652.576	2481.23
653.023	2498.83
653.47	2499.83
653.917	2487.13
654.363	2485.23
654.81	2503.53
655.257	2488.63
655.704	2474.33
656.151	2486.43
656.598	2458.63
657.044	2450.23
657.491	2452.13
657.938	2444.73
658.385	2453.43
658.831	2457.33
659.278	2452.53
659.724	2429.63
660.171	2451.43
660.618	2417.83
661.064	2420.53
661.511	2428.03
661.957	2441.03
662.404	2410.73
662.85	2423.23
663.296	2417.13
663.743	2400.73
664.189	2410.63
664.635	2395.73
665.082	2403.33
665.528	2386.73
665.974	2388.63
666.42	2395.03
666.867	2389.53
667.313	2375.03
667.759	2371.23
668.205	2368.03
668.651	2363.93
669.097	2347.53
669.543	2372.83
669.989	2342.63
670.435	2347.23
670.881	2343.43
671.327	2321.73
671.773	2338.13
672.219	2311.43
672.665	2331.03
673.11	2327.03
673.556	2306.03
674.002	2287.03
674.448	2290.33
674.893	2280.93
675.339	2289.13
675.785	2273.43
676.23	2256.63
676.676	2239.43
677.122	2245.53
677.567	2240.53
678.013	2215.83
678.458	2221.63
678.904	2221.53
679.349	2188.33
679.794	2180.23
680.24	2188.83
680.685	2161.63
681.131	2159.83
681.576	2154.23
682.021	2154.03
682.466	2136.53
682.912	2123.13
683.357	2129.53
683.802	2115.13
684.247	2110.53
684.692	2104.03
685.137	2089.63
685.583	2089.03
686.028	2069.83
686.473	2062.13
686.918	2056.63
687.363	2038.13
687.807	2027.03
688.252	2022.33
688.697	2018.03
689.142	2012.23
689.587	2020.23
690.032	1999.13
690.477	1998.23
690.921	1973.43
691.366	1984.93
691.811	1968.73
692.255	1972.83
692.7	1966.73
693.145	1966.93
693.589	1962.03
694.034	1946.03
694.478	1959.73
694.923	1941.83
695.367	1947.23
695.812	1919.23
696.256	1918.53
696.701	1916.43
697.145	1912.73
697.59	1903.63
698.034	1894.03
698.478	1887.23
698.922	1886.13
699.367	1903.43
699.811	1874.23
700.255	1892.03
700.699	1870.53
701.143	1854.13
701.588	1853.73
702.032	1848.43
702.476	1855.73
702.92	1839.73
703.364	1844.73
703.808	1829.33
704.252	1814.33
704.696	1824.33
705.14	1816.83
705.584	1824.33
706.027	1798.33
706.471	1812.43
706.915	1797.03
707.359	1792.43
707.803	1771.93
708.246	1797.13
708.69	1782.93
709.134	1784.23
709.577	1780.43
710.021	1767.23
710.465	1756.93
710.908	1752.23
711.352	1735.23
711.795	1752.03
712.239	1740.73
712.682	1743.03
713.126	1735.33
713.569	1727.73
714.012	1738.13
714.456	1715.13
714.899	1711.03
715.342	1709.13
715.786	1707.93
716.229	1699.93
716.672	1697.53
717.115	1703.13
717.558	1692.13
718.002	1680.03
718.445	1689.23
718.888	1685.13
719.331	1678.23
719.774	1679.93
720.217	1665.93
720.66	1657.33
721.103	1651.23
721.546	1648.43
721.989	1649.63
722.432	1639.13
722.874	1635.93
723.317	1626.33
723.76	1635.33
724.203	1619.23
724.645	1636.23
725.088	1611.83
725.531	1612.93
725.974	1607.83
726.416	1617.73
726.859	1604.13
727.301	1597.63
727.744	1576.53
728.187	1588.53
728.629	1587.83
729.071	1582.23
729.514	1580.43
729.956	1576.73
730.399	1566.43
730.841	1554.43
731.283	1565.13
731.726	1541.53
732.168	1537.13
732.61	1546.53
733.053	1531.43
733.495	1518.43
733.937	1522.73
734.379	1518.83
734.821	1513.03
735.263	1510.13
735.705	1492.93
736.148	1499.13
736.59	1487.53
737.032	1493.63
737.474	1474.93
737.916	1473.63
738.357	1490.33
738.799	1485.73
739.241	1457.33
739.683	1469.93
740.125	1457.93
740.567	1444.43
741.008	1443.33
741.45	1447.73
741.892	1457.03
742.334	1432.03
742.775	1449.03
743.217	1434.53
743.658	1436.73
744.1	1417.03
744.542	1406.63
744.983	1413.03
745.425	1388.63
745.866	1396.63
746.307	1397.13
746.749	1386.43
747.19	1379.23
747.632	1381.63
748.073	1369.23
748.514	1363.63
748.956	1354.63
749.397	1349.63
749.838	1354.03
750.279	1350.23
750.72	1348.33
751.162	1323.13
751.603	1328.93
752.044	1321.53
752.485	1308.23
752.926	1311.73
753.367	1319.63
753.808	1299.43
754.249	1295.73
754.69	1303.53
755.131	1290.63
755.572	1294.73
756.013	1283.83
756.453	1272.73
756.894	1287.73
757.335	1282.53
757.776	1261.33
758.216	1275.93
758.657	1272.93
759.098	1269.73
759.538	1260.13
759.979	1258.43
760.42	1247.73
760.86	1240.53
761.301	1248.03
761.741	1240.83
762.182	1240.03
762.622	1233.43
763.063	1217.43
763.503	1221.13
763.943	1226.13
764.384	1209.33
764.824	1212.43
765.264	1204.03
765.705	1204.93
766.145	1192.63
766.585	1201.13
767.025	1193.53
767.465	1190.53
767.906	1189.83
768.346	1171.83
768.786	1174.33
769.226	1167.93
769.666	1163.23
770.106	1161.93
770.546	1163.13
770.986	1152.03
771.426	1149.23
771.866	1148.73
772.306	1146.23
772.745	1142.23
773.185	1139.13
773.625	1133.33
774.065	1131.83
774.505	1130.93
774.944	1123.43
775.384	1113.33
775.824	1114.63
776.263	1107.83
776.703	1115.03
777.142	1098.43
777.582	1104.33
778.021	1097.53
778.461	1089.43
778.9	1086.13
779.34	1080.63
779.779	1089.33
780.219	1085.13
780.658	1082.83
781.097	1068.93
781.537	1080.63
781.976	1076.53
782.415	1071.93
782.855	1076.73
783.294	1065.33
783.733	1065.03
784.172	1056.43
784.611	1068.73
785.05	1054.43
785.489	1046.13
785.928	1051.53
786.367	1054.33
786.806	1054.33
787.245	1056.53
787.684	1044.93
788.123	1034.23
788.562	1047.43
789.001	1034.33
789.44	1037.63
789.879	1029.93
790.317	1042.43
790.756	1051.33
791.195	1024.23
791.634	1039.33
792.072	1029.93
792.511	1032.63
792.95	1023.13
793.388	1024.13
793.827	1025.83
794.265	1028.33
794.704	1026.33
795.142	1033.73
795.581	1040.23
796.019	1022.13
796.458	1025.83
796.896	1023.63
797.334	1022.23
797.773	1028.03
798.211	1024.03
798.649	1037.73
799.087	1036.93
799.526	1028.83
799.964	1026.43
800.402	1035.23
800.84	1039.43
801.278	1041.23
801.716	1039.03
802.154	1056.03
802.592	1041.13
803.03	1036.33
803.468	1041.23
803.906	1042.83
804.344	1059.23
804.782	1043.43
805.22	1046.23
805.658	1055.23
806.096	1057.43
806.533	1064.43
806.971	1059.73
807.409	1068.13
807.847	1071.03
808.284	1076.73
808.722	1077.33
809.16	1088.63
809.597	1092.93
810.035	1089.23
810.472	1087.33
810.91	1092.13
811.347	1102.63
811.785	1095.63
812.222	1128.83
812.66	1114.63
813.097	1111.83
813.535	1115.03
813.972	1113.43
814.409	1115.93
814.846	1142.43
815.284	1142.83
815.721	1154.83
816.158	1155.53
816.595	1150.23
817.032	1152.33
817.47	1170.33
817.907	1156.03
818.344	1170.53
818.781	1174.93
819.218	1179.93
819.655	1188.03
820.092	1197.33
820.529	1214.73
820.966	1214.13
821.403	1212.43
821.839	1223.43
822.276	1230.33
822.713	1233.73
823.15	1232.63
823.587	1247.43
824.023	1243.83
824.46	1254.33
824.897	1251.93
825.333	1263.03
825.77	1271.13
826.206	1268.53
826.643	1286.83
827.08	1295.93
827.516	1290.63
827.953	1288.03
828.389	1303.13
828.825	1319.93
829.262	1314.83
829.698	1308.43
830.135	1320.53
830.571	1333.53
831.007	1332.23
831.443	1346.83
831.88	1330.43
832.316	1353.43
832.752	1357.43
833.188	1364.83
833.624	1355.83
834.06	1361.83
834.497	1351.83
834.933	1373.13
835.369	1359.63
835.805	1368.53
836.241	1380.13
836.677	1381.13
837.112	1384.53
837.548	1382.63
837.984	1386.33
838.42	1391.13
838.856	1380.23
839.292	1380.83
839.727	1392.83
840.163	1394.13
840.599	1383.33
841.034	1387.33
841.47	1394.73
841.906	1401.23
842.341	1409.93
842.777	1394.43
843.212	1408.23
843.648	1388.53
844.083	1386.43
844.519	1399.33
844.954	1412.43
845.39	1393.03
845.825	1397.93
846.261	1407.43
846.696	1393.83
847.131	1394.43
847.566	1390.43
848.002	1393.33
848.437	1401.93
848.872	1404.53
849.307	1396.23
849.742	1401.43
850.177	1403.73
850.613	1398.23
851.048	1393.93
851.483	1412.63
851.918	1395.83
852.353	1397.83
852.788	1386.93
853.223	1394.93
853.657	1400.63
854.092	1391.13
854.527	1397.53
854.962	1403.13
855.397	1394.33
855.832	1401.83
856.266	1389.03
856.701	1399.33
857.136	1384.03
857.57	1385.83
858.005	1401.33
858.44	1396.53
858.874	1397.03
859.309	1388.23
859.743	1384.63
860.178	1389.33
860.612	1386.63
861.047	1390.73
861.481	1390.13
861.915	1393.03
862.35	1392.53
862.784	1375.73
863.218	1386.73
863.653	1381.43
864.087	1383.53
864.521	1378.93
864.955	1376.13
865.39	1386.43
865.824	1402.83
866.258	1381.13
866.692	1386.53
867.126	1374.33
867.56	1378.93
867.994	1373.53
868.428	1386.03
868.862	1376.73
869.296	1369.23
869.73	1373.93
870.164	1369.03
870.598	1366.33
871.031	1364.63
871.465	1368.53
871.899	1364.83
872.333	1362.93
872.766	1372.13
873.2	1367.03
873.634	1359.73
874.067	1360.03
874.501	1366.03
874.935	1367.33
875.368	1350.83
875.802	1365.33
876.235	1348.53
876.669	1363.63
877.102	1355.43
877.535	1350.03
877.969	1359.93
878.402	1354.43
878.836	1345.53
879.269	1344.43
879.702	1340.43
880.135	1342.53
880.569	1340.13
881.002	1345.63
881.435	1340.13
881.868	1342.93
882.301	1342.63
882.734	1328.83
883.167	1329.63
883.601	1338.03
884.034	1316.83
884.467	1307.23
884.899	1319.93
885.332	1324.63
885.765	1313.03
886.198	1303.93
886.631	1309.13
887.064	1297.53
887.497	1293.73
887.929	1306.13
888.362	1294.43
888.795	1290.03
889.228	1292.13
889.66	1273.43
890.093	1267.23
890.526	1283.53
890.958	1262.33
891.391	1265.03
891.823	1262.43
892.256	1267.93
892.688	1266.43
893.121	1252.83
893.553	1253.03
893.985	1235.43
894.418	1232.03
894.85	1234.73
895.282	1223.43
895.715	1223.03
896.147	1229.03
896.579	1237.33
897.011	1210.13
897.444	1221.63
897.876	1208.63
898.308	1219.93
898.74	1206.23
899.172	1211.73
899.604	1214.73
900.036	1190.13
900.468	1188.83
900.9	1188.83
901.332	1190.73
901.764	1166.53
902.196	1182.83
902.628	1166.03
903.06	1170.33
903.491	1175.73
903.923	1152.43
904.355	1164.43
904.787	1164.83
905.218	1157.03
905.65	1155.83
906.082	1141.53
906.513	1138.63
906.945	1137.03
907.376	1141.83
907.808	1129.93
908.239	1130.23
908.671	1121.23
909.102	1117.53
909.534	1111.23
909.965	1131.53
910.397	1112.23
910.828	1107.53
911.259	1111.73
911.691	1103.53
912.122	1093.83
912.553	1102.93
912.984	1087.03
913.415	1094.13
913.847	1094.13
914.278	1092.13
914.709	1077.43
915.14	1083.33
915.571	1069.83
916.002	1081.63
916.433	1080.83
916.864	1073.83
917.295	1063.13
917.726	1045.53
918.157	1046.13
918.587	1050.53
919.018	1038.63
919.449	1031.83
919.88	1028.83
920.311	1044.03
920.741	1016.63
921.172	1017.43
921.603	1005.23
922.033	1021.23
922.464	1002.63
922.895	1014.03
923.325	1010.53
923.756	1015.13
924.186	1010.93
924.617	1008.23
925.047	1010.43
925.478	1012.03
925.908	1003.13
926.338	986.63
926.769	1006.13
927.199	1003.43
927.629	1003.23
928.06	1004.13
928.49	1000.13
928.92	1006.83
929.35	1004.43
929.78	1012.43
930.21	1005.73
930.641	999.43
931.071	1010.13
931.501	1012.43
931.931	1007.63
932.361	1017.43
932.791	999.53
933.221	992.33
933.651	1006.43
934.08	1001.43
934.51	992.63
934.94	988.03
935.37	992.43
935.8	988.43
936.229	978.43
936.659	977.53
937.089	976.13
937.519	963.63
937.948	968.63
938.378	957.93
938.807	954.03
939.237	948.63
939.666	946.53
940.096	935.93
940.525	932.43
940.955	940.63
941.384	925.43
941.814	917.93
942.243	902.03
942.672	911.13
943.102	900.13
943.531	898.93
943.96	882.03
944.39	883.43
944.819	880.83
945.248	882.93
945.677	860.73
946.106	862.93
946.535	860.73
946.964	853.83
947.393	855.13
947.822	850.23
948.251	841.53
948.68	839.03
949.109	825.63
949.538	821.43
949.967	817.93
950.396	819.83
950.825	799.53
951.254	807.73
951.682	780.83
952.111	792.33
952.54	785.13
952.969	778.53
953.397	774.03
953.826	772.13
954.254	770.13
954.683	753.13
955.112	750.73
955.54	755.93
955.969	737.83
956.397	729.53
956.826	729.33
957.254	727.73
957.682	727.83
958.111	713.23
958.539	706.23
958.967	705.23
959.396	705.83
959.824	690.53
960.252	683.63
960.68	681.83
961.109	679.73
961.537	662.03
961.965	665.73
962.393	663.93
962.821	659.03
963.249	641.43
963.677	648.23
964.105	637.53
964.533	640.83
964.961	631.83
965.389	617.13
965.817	629.93
966.245	613.93
966.672	609.03
967.1	605.83
967.528	599.83
967.956	591.13
968.383	586.83
968.811	583.73
969.239	579.63
969.666	575.23
970.094	561.63
970.522	556.93
970.949	563.03
971.377	553.83
971.804	550.63
972.232	545.23
972.659	541.53
973.087	540.13
973.514	534.63
973.941	527.53
974.369	531.23
974.796	532.53
975.223	519.63
975.651	511.53
976.078	517.73
976.505	510.43
976.932	500.33
977.359	505.83
977.786	489.33
978.214	485.73
978.641	486.43
979.068	478.73
979.495	477.73
979.922	460.93
980.349	469.83
980.776	472.63
981.202	469.63
981.629	458.33
982.056	451.53
982.483	461.13
982.91	453.83
983.337	451.33
983.763	441.13
984.19	443.63
984.617	438.93
985.043	434.83
985.47	425.43
985.897	429.73
986.323	420.03
986.75	424.43
987.176	415.63
987.603	405.93
988.029	409.13
988.456	403.13
988.882	397.43
989.308	406.03
989.735	399.83
990.161	392.63
990.587	384.53
991.014	392.63
991.44	386.53
991.866	375.43
992.292	374.13
992.719	374.33
993.145	376.03
993.571	365.23
993.997	360.53
994.423	357.33
994.849	353.13
995.275	351.83
995.701	352.13
996.127	354.23
996.553	347.33
996.979	350.83
997.405	349.53
997.83	340.83
998.256	343.83
998.682	345.63
999.108	338.73
999.534	339.73
999.959	330.33
1000.385	335.73
1000.811	336.93
1001.236	334.23
1001.662	338.23
1002.087	330.03
1002.513	336.33
1002.938	330.93
1003.364	331.53
1003.789	336.33
1004.215	335.03
1004.64	332.43
1005.066	329.43
1005.491	338.93
1005.916	327.43
1006.342	336.93
1006.767	331.33
1007.192	339.23
1007.617	332.23
1008.042	329.83
1008.468	334.43
1008.893	324.23
1009.318	331.43
1009.743	326.63
1010.168	321.63
1010.593	323.73
1011.018	317.03
1011.443	320.93
1011.868	306.13
1012.293	313.23
1012.718	305.93
1013.143	296.13
1013.567	292.73
1013.992	298.03
1014.417	294.93
1014.842	284.43
1015.267	275.73
1015.691	279.73
1016.116	277.03
1016.541	277.23
1016.965	273.83
1017.39	263.73
1017.814	265.23
1018.239	264.33
1018.663	251.33
1019.088	254.43
1019.512	249.23
1019.937	249.23
1020.361	243.53
1020.785	246.83
1021.21	232.93
1021.634	245.83
1022.058	238.23
1022.483	229.93
1022.907	230.03
1023.331	226.23
1023.755	222.83
1024.179	218.03
1024.604	220.03
1025.028	216.03
1025.452	215.53
1025.876	217.23
1026.3	212.93
1026.724	220.53
1027.148	209.83
1027.572	209.53
1027.996	203.63
1028.42	198.73
1028.843	205.63
1029.267	206.13
1029.691	199.33
1030.115	203.23
1030.539	199.33
1030.962	190.13
1031.386	192.13
1031.81	188.33
1032.233	187.73
1032.657	199.13
1033.08	193.03
1033.504	186.93
1033.927	187.83
1034.351	180.33
1034.774	180.23
1035.198	180.13
1035.621	175.23
1036.045	174.13
1036.468	177.73
1036.891	169.83
1037.315	173.03
1037.738	172.93
1038.161	169.83
1038.584	172.33
1039.008	168.33
1039.431	166.93
1039.854	164.73
1040.277	170.53
1040.7	165.33
1041.123	161.73
1041.546	157.73
1041.969	156.33
1042.392	161.33
1042.815	158.03
1043.238	157.53
1043.661	156.93
1044.084	156.53
1044.507	152.33
1044.93	159.53
1045.352	156.73
1045.775	149.03
1046.198	154.13
1046.621	147.73
1047.043	147.33
1047.466	152.23
1047.889	150.53
1048.311	148.23
1048.734	148.63
1049.156	150.43
1049.579	142.23
1050.001	137.53
1050.424	138.33
1050.846	139.93
1051.269	137.83
1051.691	138.53
1052.113	138.33
1052.536	136.73
1052.958	136.73
1053.38	139.03
1053.802	138.43
1054.225	135.33
1054.647	131.83
1055.069	130.63
1055.491	131.13
1055.913	130.43
1056.335	130.83
1056.757	127.03
1057.179	127.83
1057.601	133.63
1058.023	128.93
1058.445	124.93
1058.867	121.43
1059.289	122.83
1059.711	122.83
1060.133	129.13
1060.555	125.83
1060.976	122.03
1061.398	122.93
1061.82	120.23
1062.241	121.93
1062.663	116.63
1063.085	122.13
1063.506	117.93
1063.928	119.43
1064.35	120.73
1064.771	114.03
1065.193	127.63
1065.614	113.13
1066.035	115.93
1066.457	115.93
1066.878	113.83
1067.3	116.53
1067.721	119.33
1068.142	120.03
1068.564	115.43
1068.985	115.73
1069.406	108.53
1069.827	113.53
1070.248	116.83
1070.67	112.73
1071.091	109.73
1071.512	110.33
1071.933	110.03
1072.354	110.73
1072.775	106.93
1073.196	107.73
1073.617	107.43
1074.038	109.83
1074.459	111.63
1074.88	110.93
1075.3	108.53
1075.721	108.73
1076.142	106.83
1076.563	106.73
1076.983	107.73
1077.404	111.73
1077.825	102.73
1078.246	104.53
1078.666	107.63
1079.087	109.23
1079.507	114.13
1079.928	107.93
1080.348	109.63
1080.769	108.83
1081.189	110.83
1081.61	102.53
1082.03	103.53
1082.451	107.93
1082.871	100.33
1083.291	104.43
1083.711	104.13
1084.132	110.33
1084.552	109.63
1084.972	107.83
1085.392	104.63
1085.813	102.43
1086.233	105.63
1086.653	105.33
1087.073	110.13
1087.493	101.63
1087.913	109.03
1088.333	99.83
1088.753	105.03
1089.173	106.53
1089.593	100.63
1090.013	105.03
1090.433	98.83
1090.852	102.33
1091.272	100.13
1091.692	103.73
1092.112	101.33
1092.531	101.03
1092.951	100.73
1093.371	95.33
1093.79	100.33
1094.21	98.53
1094.63	96.43
1095.049	100.13
1095.469	103.13
1095.888	101.93
1096.308	98.73
1096.727	94.63
1097.146	93.03
1097.566	94.13
1097.985	98.63
1098.405	97.03
1098.824	95.83
1099.243	94.03
1099.662	97.73
1100.082	98.33
1100.501	99.73
1100.92	92.73
1101.339	93.33
1101.758	89.93
