Data from DH-3PlusCalLight-Halogen_HRD10391_13-39-51-980.txt Node
Date: Thu Feb 15 13:39:51 EST 2018
User: Ender
Spectrometer: HR+D1039
Trigger mode: 0
Integration Time (sec): 2.730000E-2
Scans to average: 10
Electric dark correction enabled: true
Nonlinearity correction enabled: false
Boxcar width: 0
XAxis mode: Wavelengths
Number of Pixels in Spectrum: 2048
>>>>>Begin Spectral Data<<<<<
187.836	-0.27
188.309	-0.27
188.782	-0.27
189.255	-3.37
189.728	-1.87
190.201	-8.97
190.674	-1.27
191.147	-5.97
191.619	-9.37
192.092	-11.37
192.565	-6.07
193.038	-1.87
193.511	-0.47
193.984	3.33
194.456	8.63
194.929	7.53
195.402	13.63
195.874	17.73
196.347	23.33
196.82	20.13
197.292	27.93
197.765	31.93
198.237	41.63
198.71	40.53
199.182	42.43
199.655	49.73
200.127	56.73
200.6	61.23
201.072	57.63
201.544	63.63
202.017	68.33
202.489	66.63
202.961	69.73
203.433	70.03
203.906	77.13
204.378	80.53
204.85	77.33
205.322	82.43
205.794	79.13
206.266	84.33
206.739	84.93
207.211	83.73
207.683	87.13
208.155	89.63
208.627	88.13
209.099	88.33
209.57	85.03
210.042	87.03
210.514	91.33
210.986	84.33
211.458	83.03
211.93	89.53
212.402	88.83
212.873	84.83
213.345	88.13
213.817	89.53
214.288	88.63
214.76	78.13
215.232	83.93
215.703	91.63
216.175	82.93
216.646	84.33
217.118	83.83
217.589	84.63
218.061	81.03
218.532	83.73
219.004	88.33
219.475	82.53
219.946	82.43
220.418	81.03
220.889	79.63
221.36	76.13
221.832	79.53
222.303	80.83
222.774	78.83
223.245	78.53
223.717	80.23
224.188	78.53
224.659	79.43
225.13	76.93
225.601	79.13
226.072	75.83
226.543	76.73
227.014	76.33
227.485	83.03
227.956	79.63
228.427	81.53
228.898	77.83
229.369	77.63
229.839	83.03
230.31	77.13
230.781	84.83
231.252	79.83
231.722	81.03
232.193	80.23
232.664	80.03
233.135	79.23
233.605	81.13
234.076	82.13
234.546	81.03
235.017	84.03
235.487	78.83
235.958	81.93
236.428	78.83
236.899	85.53
237.369	83.63
237.84	85.03
238.31	76.53
238.78	79.43
239.251	81.33
239.721	80.83
240.191	83.73
240.662	77.93
241.132	87.13
241.602	84.03
242.072	83.03
242.542	78.63
243.013	86.43
243.483	84.63
243.953	77.33
244.423	83.83
244.893	82.83
245.363	84.23
245.833	85.83
246.303	87.93
246.773	82.33
247.243	80.03
247.712	83.93
248.182	78.53
248.652	86.93
249.122	82.33
249.592	80.53
250.061	82.03
250.531	80.03
251.001	84.03
251.471	80.53
251.94	83.83
252.41	78.73
252.879	83.33
253.349	84.83
253.818	82.63
254.288	83.63
254.757	79.53
255.227	88.63
255.696	88.63
256.166	86.13
256.635	78.53
257.105	84.23
257.574	85.33
258.043	81.93
258.513	86.83
258.982	84.23
259.451	87.73
259.92	82.03
260.389	84.33
260.859	80.13
261.328	81.33
261.797	88.13
262.266	83.93
262.735	90.83
263.204	84.33
263.673	80.63
264.142	85.13
264.611	88.13
265.08	85.73
265.549	88.93
266.018	83.63
266.487	89.53
266.955	86.63
267.424	80.63
267.893	82.03
268.362	83.43
268.83	84.83
269.299	84.43
269.768	82.03
270.236	85.33
270.705	84.73
271.174	88.13
271.642	87.53
272.111	87.53
272.579	83.73
273.048	88.43
273.516	88.23
273.985	89.33
274.453	83.73
274.922	84.73
275.39	85.53
275.858	82.93
276.327	85.33
276.795	84.93
277.263	85.43
277.731	88.03
278.2	87.93
278.668	88.63
279.136	82.03
279.604	88.33
280.072	89.93
280.54	83.03
281.008	88.83
281.477	83.13
281.945	90.33
282.413	81.83
282.881	87.73
283.348	80.73
283.816	85.53
284.284	87.33
284.752	89.03
285.22	83.23
285.688	87.33
286.156	89.23
286.623	85.93
287.091	88.23
287.559	88.43
288.026	86.13
288.494	86.63
288.962	83.03
289.429	91.73
289.897	88.83
290.364	87.43
290.832	86.63
291.3	85.23
291.767	89.33
292.234	92.53
292.702	86.53
293.169	86.73
293.637	87.03
294.104	88.93
294.571	85.73
295.039	88.93
295.506	89.83
295.973	86.63
296.44	84.73
296.908	90.13
297.375	81.53
297.842	89.83
298.309	85.63
298.776	88.93
299.243	87.53
299.71	85.63
300.177	83.43
300.644	86.43
301.111	88.63
301.578	90.13
302.045	94.03
302.512	87.63
302.979	85.63
303.446	88.13
303.913	84.63
304.379	86.83
304.846	85.43
305.313	95.13
305.78	86.63
306.246	85.23
306.713	85.93
307.18	87.73
307.646	88.43
308.113	89.53
308.579	87.43
309.046	81.33
309.512	85.83
309.979	86.63
310.445	94.83
310.912	81.13
311.378	91.13
311.845	90.73
312.311	88.63
312.777	88.03
313.244	90.33
313.71	90.63
314.176	85.83
314.642	91.63
315.109	89.73
315.575	88.43
316.041	90.03
316.507	94.63
316.973	88.83
317.439	86.03
317.905	87.23
318.371	85.83
318.837	87.93
319.303	92.03
319.769	90.93
320.235	90.53
320.701	89.33
321.167	94.13
321.633	83.93
322.099	85.83
322.564	87.33
323.03	92.73
323.496	89.83
323.962	88.33
324.427	91.53
324.893	87.53
325.359	93.23
325.824	91.13
326.29	92.23
326.755	86.13
327.221	86.33
327.686	87.93
328.152	86.03
328.617	91.43
329.083	88.53
329.548	90.33
330.014	84.63
330.479	90.63
330.944	94.63
331.41	91.33
331.875	92.23
332.34	91.43
332.805	90.23
333.271	88.33
333.736	90.53
334.201	88.73
334.666	93.13
335.131	92.13
335.596	81.73
336.061	92.23
336.526	92.93
336.991	89.63
337.456	89.43
337.921	90.63
338.386	89.63
338.851	88.13
339.316	85.03
339.781	86.63
340.246	91.23
340.711	86.73
341.175	88.03
341.64	86.03
342.105	86.53
342.569	89.53
343.034	94.63
343.499	91.53
343.963	86.43
344.428	89.83
344.893	87.53
345.357	95.23
345.822	89.63
346.286	87.53
346.751	93.93
347.215	89.93
347.679	89.13
348.144	88.13
348.608	88.93
349.073	91.93
349.537	90.63
350.001	91.03
350.465	84.83
350.93	88.03
351.394	88.43
351.858	96.13
352.322	85.03
352.786	88.43
353.25	87.43
353.715	89.93
354.179	88.63
354.643	88.03
355.107	90.43
355.571	86.43
356.035	92.93
356.498	90.33
356.962	95.33
357.426	91.03
357.89	97.33
358.354	91.43
358.818	89.83
359.281	93.73
359.745	85.13
360.209	91.63
360.673	88.23
361.136	91.33
361.6	90.03
362.064	88.23
362.527	89.83
362.991	93.03
363.454	91.03
363.918	83.53
364.381	92.23
364.845	89.83
365.308	90.53
365.772	91.33
366.235	89.33
366.698	89.43
367.162	94.53
367.625	91.43
368.088	91.43
368.552	89.53
369.015	89.43
369.478	91.13
369.941	95.43
370.404	90.63
370.867	91.73
371.331	96.23
371.794	93.83
372.257	96.03
372.72	94.63
373.183	92.83
373.646	93.63
374.109	96.63
374.572	92.33
375.035	93.63
375.497	94.33
375.96	94.93
376.423	97.63
376.886	94.13
377.349	96.93
377.811	94.13
378.274	98.33
378.737	102.43
379.199	102.83
379.662	101.73
380.125	101.43
380.587	97.03
381.05	100.13
381.512	103.23
381.975	102.03
382.437	100.63
382.9	104.43
383.362	105.93
383.825	102.33
384.287	103.63
384.75	101.43
385.212	110.13
385.674	109.53
386.136	103.53
386.599	113.63
387.061	107.73
387.523	111.53
387.985	109.03
388.447	114.23
388.91	111.03
389.372	110.23
389.834	107.33
390.296	110.83
390.758	111.03
391.22	113.23
391.682	112.43
392.144	115.13
392.606	113.13
393.068	113.53
393.529	115.23
393.991	118.43
394.453	111.73
394.915	116.43
395.377	117.13
395.838	121.03
396.3	123.43
396.762	122.03
397.224	124.33
397.685	119.43
398.147	129.33
398.608	128.23
399.07	126.73
399.531	126.83
399.993	131.23
400.454	127.73
400.916	128.33
401.377	133.73
401.839	136.83
402.3	133.13
402.762	135.63
403.223	143.43
403.684	144.33
404.145	146.83
404.607	144.23
405.068	140.03
405.529	148.83
405.99	150.73
406.451	151.53
406.913	150.13
407.374	159.83
407.835	163.83
408.296	161.83
408.757	164.13
409.218	169.73
409.679	170.93
410.14	169.03
410.601	175.83
411.062	175.53
411.522	182.93
411.983	188.83
412.444	191.13
412.905	200.83
413.366	193.43
413.826	204.63
414.287	204.23
414.748	216.13
415.208	216.33
415.669	211.73
416.13	224.43
416.59	227.43
417.051	231.73
417.511	242.93
417.972	249.53
418.432	258.23
418.893	255.23
419.353	254.63
419.814	263.73
420.274	279.73
420.734	274.83
421.195	297.13
421.655	300.93
422.115	300.43
422.576	306.23
423.036	308.43
423.496	334.53
423.956	340.63
424.416	346.53
424.876	367.33
425.336	370.43
425.797	372.63
426.257	399.63
426.717	408.33
427.177	409.63
427.637	432.13
428.097	441.13
428.556	450.43
429.016	452.23
429.476	476.73
429.936	494.03
430.396	510.63
430.856	523.13
431.315	532.03
431.775	554.83
432.235	571.83
432.694	582.13
433.154	595.63
433.614	602.33
434.073	631.33
434.533	645.63
434.993	652.93
435.452	673.53
435.912	688.53
436.371	702.33
436.83	705.53
437.29	735.03
437.749	751.93
438.209	762.53
438.668	772.43
439.127	792.03
439.587	811.73
440.046	819.93
440.505	838.33
440.964	849.33
441.424	879.63
441.883	905.53
442.342	905.33
442.801	925.53
443.26	953.03
443.719	972.13
444.178	985.73
444.637	1015.73
445.096	1031.53
445.555	1048.83
446.014	1053.53
446.473	1055.13
446.932	1079.33
447.391	1114.43
447.849	1133.43
448.308	1123.93
448.767	1139.23
449.226	1172.83
449.685	1175.83
450.143	1190.33
450.602	1228.83
451.061	1222.73
451.519	1255.83
451.978	1265.03
452.436	1281.23
452.895	1287.43
453.353	1299.43
453.812	1299.63
454.27	1349.03
454.729	1352.43
455.187	1372.43
455.646	1375.83
456.104	1381.23
456.562	1390.83
457.021	1426.73
457.479	1375.73
457.937	1422.53
458.395	1470.73
458.854	1437.23
459.312	1439.83
459.77	1452.13
460.228	1451.83
460.686	1498.63
461.144	1491.53
461.602	1476.23
462.06	1470.63
462.518	1482.53
462.976	1478.33
463.434	1484.23
463.892	1478.23
464.35	1479.33
464.808	1477.23
465.266	1484.03
465.724	1497.13
466.181	1498.43
466.639	1474.23
467.097	1528.13
467.555	1554.23
468.012	1510.03
468.47	1519.93
468.928	1530.13
469.385	1544.53
469.843	1576.43
470.3	1566.33
470.758	1592.63
471.215	1584.03
471.673	1614.73
472.13	1648.53
472.588	1658.03
473.045	1684.33
473.503	1715.33
473.96	1771.83
474.417	1773.53
474.875	1805.33
475.332	1816.93
475.789	1850.13
476.246	1874.03
476.704	1913.03
477.161	1929.73
477.618	1967.53
478.075	2001.43
478.532	2073.63
478.989	2093.83
479.446	2139.13
479.903	2153.23
480.36	2251.93
480.817	2246.73
481.274	2274.63
481.731	2331.53
482.188	2357.63
482.645	2429.13
483.102	2435.03
483.558	2472.83
484.015	2530.53
484.472	2571.83
484.929	2638.23
485.385	2639.43
485.842	2669.53
486.299	2743.03
486.755	2732.33
487.212	2747.13
487.668	2782.43
488.125	2809.33
488.582	2798.33
489.038	2814.63
489.494	2855.13
489.951	2876.73
490.407	2891.03
490.864	2884.33
491.32	2894.53
491.776	2916.43
492.233	2914.33
492.689	2916.53
493.145	2942.43
493.602	2899.33
494.058	2937.63
494.514	2932.33
494.97	2929.43
495.426	2927.53
495.882	2947.43
496.338	2920.53
496.794	2950.53
497.251	2933.73
497.707	2949.03
498.163	2952.63
498.618	2964.23
499.074	2948.33
499.53	2943.93
499.986	2950.83
500.442	2981.93
500.898	2943.13
501.354	2979.83
501.809	2976.13
502.265	2948.83
502.721	2963.83
503.177	2966.73
503.632	2994.33
504.088	2961.43
504.543	2973.93
504.999	2982.63
505.455	2978.53
505.91	2965.03
506.366	2989.93
506.821	2986.33
507.277	2994.93
507.732	2964.13
508.187	2960.33
508.643	2963.13
509.098	2957.53
509.553	2964.13
510.009	2933.43
510.464	2947.03
510.919	2938.63
511.375	2915.53
511.83	2909.23
512.285	2908.53
512.74	2921.33
513.195	2872.33
513.65	2872.03
514.105	2871.83
514.56	2823.13
515.015	2851.23
515.47	2843.03
515.925	2828.93
516.38	2813.23
516.835	2821.63
517.29	2774.93
517.745	2784.23
518.2	2786.13
518.655	2782.73
519.109	2778.23
519.564	2748.53
520.019	2740.73
520.474	2723.03
520.928	2726.83
521.383	2702.43
521.838	2713.83
522.292	2716.63
522.747	2691.93
523.201	2694.43
523.656	2684.63
524.11	2677.43
524.565	2667.33
525.019	2683.23
525.474	2683.93
525.928	2660.53
526.382	2670.13
526.837	2661.53
527.291	2683.33
527.745	2647.63
528.2	2677.23
528.654	2655.93
529.108	2663.83
529.562	2668.93
530.016	2677.83
530.47	2656.93
530.925	2650.03
531.379	2679.63
531.833	2683.23
532.287	2667.73
532.741	2666.83
533.195	2659.73
533.649	2674.23
534.103	2697.33
534.556	2656.53
535.01	2653.33
535.464	2672.33
535.918	2678.83
536.372	2699.33
536.826	2672.73
537.279	2660.63
537.733	2683.93
538.187	2669.03
538.64	2632.43
539.094	2663.73
539.548	2683.93
540.001	2658.63
540.455	2662.33
540.908	2627.33
541.362	2632.53
541.815	2634.33
542.269	2645.43
542.722	2621.43
543.175	2615.73
543.629	2616.83
544.082	2618.33
544.536	2589.33
544.989	2583.23
545.442	2598.03
545.895	2575.53
546.349	2586.23
546.802	2583.53
547.255	2560.83
547.708	2557.13
548.161	2549.43
548.614	2547.03
549.067	2564.73
549.52	2544.43
549.973	2547.73
550.426	2534.93
550.879	2550.23
551.332	2546.63
551.785	2548.83
552.238	2542.13
552.691	2529.13
553.144	2538.93
553.596	2558.93
554.049	2557.23
554.502	2559.63
554.955	2563.53
555.407	2563.03
555.86	2569.13
556.313	2569.33
556.765	2566.83
557.218	2583.13
557.67	2594.73
558.123	2599.93
558.576	2589.53
559.028	2581.13
559.48	2599.43
559.933	2601.73
560.385	2612.13
560.838	2612.23
561.29	2624.63
561.742	2626.53
562.195	2611.03
562.647	2640.23
563.099	2650.63
563.551	2621.23
564.004	2658.63
564.456	2649.13
564.908	2669.33
565.36	2674.03
565.812	2639.93
566.264	2683.83
566.716	2670.73
567.168	2649.23
567.62	2654.43
568.072	2656.73
568.524	2672.53
568.976	2660.73
569.428	2646.03
569.88	2652.23
570.332	2665.23
570.784	2656.43
571.235	2648.33
571.687	2631.03
572.139	2627.63
572.59	2635.33
573.042	2616.23
573.494	2625.73
573.945	2620.63
574.397	2581.73
574.849	2586.13
575.3	2608.23
575.752	2586.93
576.203	2576.13
576.655	2596.53
577.106	2570.23
577.557	2568.63
578.009	2557.03
578.46	2574.13
578.912	2546.53
579.363	2565.23
579.814	2558.63
580.265	2524.23
580.717	2544.53
581.168	2547.13
581.619	2559.73
582.07	2541.93
582.521	2534.43
582.972	2529.13
583.423	2533.53
583.875	2542.23
584.326	2516.63
584.777	2524.33
585.227	2523.23
585.678	2553.13
586.129	2541.43
586.58	2535.13
587.031	2532.33
587.482	2537.83
587.933	2533.93
588.384	2552.73
588.834	2534.23
589.285	2555.83
589.736	2564.53
590.186	2560.53
590.637	2559.63
591.088	2558.93
591.538	2571.63
591.989	2569.13
592.439	2551.73
592.89	2572.33
593.34	2564.93
593.791	2604.53
594.241	2566.33
594.692	2579.53
595.142	2589.33
595.593	2571.53
596.043	2594.13
596.493	2591.93
596.943	2579.43
597.394	2608.33
597.844	2590.13
598.294	2605.33
598.744	2583.83
599.195	2593.53
599.645	2613.23
600.095	2613.63
600.545	2597.53
600.995	2590.13
601.445	2596.63
601.895	2603.83
602.345	2614.03
602.795	2616.33
603.245	2625.03
603.695	2599.33
604.145	2619.23
604.594	2618.93
605.044	2611.53
605.494	2603.43
605.944	2622.63
606.393	2631.53
606.843	2627.03
607.293	2651.43
607.743	2629.23
608.192	2633.93
608.642	2625.43
609.091	2623.63
609.541	2616.93
609.99	2635.53
610.44	2624.93
610.889	2646.93
611.339	2630.13
611.788	2614.53
612.238	2635.83
612.687	2642.03
613.136	2634.43
613.586	2638.93
614.035	2594.73
614.484	2630.13
614.933	2614.93
615.383	2625.33
615.832	2616.73
616.281	2609.53
616.73	2610.13
617.179	2621.23
617.628	2612.23
618.077	2601.13
618.526	2610.13
618.975	2602.33
619.424	2578.23
619.873	2598.03
620.322	2618.63
620.771	2605.13
621.22	2610.63
621.669	2576.33
622.118	2604.63
622.567	2618.33
623.015	2592.13
623.464	2620.63
623.913	2602.23
624.361	2615.93
624.81	2593.53
625.259	2604.63
625.707	2576.03
626.156	2593.93
626.604	2616.23
627.053	2581.13
627.501	2589.83
627.95	2583.73
628.398	2603.33
628.847	2574.93
629.295	2581.83
629.744	2580.93
630.192	2539.53
630.64	2562.83
631.089	2573.63
631.537	2553.63
631.985	2561.53
632.433	2558.73
632.881	2550.53
633.33	2556.03
633.778	2530.73
634.226	2521.73
634.674	2523.13
635.122	2524.53
635.57	2526.63
636.018	2527.63
636.466	2512.73
636.914	2508.03
637.362	2506.63
637.81	2513.33
638.258	2507.13
638.705	2488.53
639.153	2529.63
639.601	2496.63
640.049	2499.93
640.497	2488.03
640.944	2496.03
641.392	2472.93
641.84	2509.13
642.287	2471.93
642.735	2467.53
643.182	2472.43
643.63	2496.83
644.078	2470.03
644.525	2468.23
644.973	2477.93
645.42	2474.53
645.867	2482.33
646.315	2452.33
646.762	2467.33
647.21	2450.53
647.657	2458.73
648.104	2462.13
648.551	2425.33
648.999	2459.43
649.446	2460.23
649.893	2434.23
650.34	2424.73
650.787	2453.93
651.234	2435.63
651.682	2450.13
652.129	2430.33
652.576	2414.03
653.023	2448.33
653.47	2421.03
653.917	2426.83
654.363	2404.73
654.81	2420.13
655.257	2410.83
655.704	2393.83
656.151	2413.03
656.598	2403.33
657.044	2401.83
657.491	2412.33
657.938	2382.23
658.385	2391.83
658.831	2389.23
659.278	2392.73
659.724	2371.13
660.171	2385.43
660.618	2367.93
661.064	2369.53
661.511	2381.93
661.957	2380.73
662.404	2360.03
662.85	2369.83
663.296	2370.03
663.743	2346.43
664.189	2351.03
664.635	2360.73
665.082	2342.83
665.528	2342.63
665.974	2338.73
666.42	2326.83
666.867	2322.43
667.313	2330.93
667.759	2318.93
668.205	2308.43
668.651	2316.13
669.097	2308.73
669.543	2308.13
669.989	2299.53
670.435	2298.53
670.881	2302.03
671.327	2273.03
671.773	2295.43
672.219	2277.63
672.665	2283.13
673.11	2273.43
673.556	2273.73
674.002	2251.43
674.448	2237.43
674.893	2203.63
675.339	2238.23
675.785	2225.23
676.23	2216.13
676.676	2194.43
677.122	2212.33
677.567	2199.03
678.013	2174.03
678.458	2184.33
678.904	2181.73
679.349	2161.73
679.794	2157.23
680.24	2149.83
680.685	2132.13
681.131	2114.93
681.576	2123.13
682.021	2115.83
682.466	2089.53
682.912	2072.43
683.357	2081.93
683.802	2074.23
684.247	2048.13
684.692	2056.53
685.137	2054.03
685.583	2034.03
686.028	2023.13
686.473	2027.33
686.918	2025.53
687.363	2008.13
687.807	1988.43
688.252	1980.43
688.697	1983.63
689.142	1977.03
689.587	1973.13
690.032	1960.13
690.477	1962.23
690.921	1949.63
691.366	1934.33
691.811	1937.23
692.255	1917.23
692.7	1932.73
693.145	1927.53
693.589	1924.03
694.034	1904.83
694.478	1918.13
694.923	1896.83
695.367	1896.53
695.812	1881.03
696.256	1870.63
696.701	1882.43
697.145	1879.33
697.59	1861.73
698.034	1852.03
698.478	1857.13
698.922	1860.53
699.367	1853.93
699.811	1850.33
700.255	1844.03
700.699	1828.53
701.143	1816.53
701.588	1833.73
702.032	1799.13
702.476	1812.53
702.92	1811.83
703.364	1788.23
703.808	1794.63
704.252	1783.23
704.696	1777.53
705.14	1769.93
705.584	1784.03
706.027	1763.23
706.471	1775.03
706.915	1752.73
707.359	1750.53
707.803	1735.93
708.246	1743.53
708.69	1746.53
709.134	1733.73
709.577	1725.93
710.021	1737.43
710.465	1718.13
710.908	1728.53
711.352	1708.33
711.795	1704.73
712.239	1708.93
712.682	1705.43
713.126	1697.33
713.569	1694.53
714.012	1687.53
714.456	1678.53
714.899	1671.33
715.342	1675.73
715.786	1673.43
716.229	1655.03
716.672	1662.83
717.115	1674.13
717.558	1661.53
718.002	1648.13
718.445	1650.73
718.888	1653.73
719.331	1627.83
719.774	1627.03
720.217	1635.83
720.66	1617.73
721.103	1618.33
721.546	1608.43
721.989	1606.93
722.432	1600.93
722.874	1613.83
723.317	1590.23
723.76	1605.93
724.203	1597.43
724.645	1593.53
725.088	1584.93
725.531	1586.63
725.974	1569.23
726.416	1580.23
726.859	1568.93
727.301	1564.53
727.744	1566.33
728.187	1556.33
728.629	1545.33
729.071	1555.53
729.514	1526.13
729.956	1545.33
730.399	1530.53
730.841	1535.03
731.283	1539.33
731.726	1506.43
732.168	1496.63
732.61	1507.63
733.053	1474.63
733.495	1494.13
733.937	1490.43
734.379	1492.53
734.821	1487.03
735.263	1470.83
735.705	1460.93
736.148	1461.33
736.59	1452.23
737.032	1469.63
737.474	1445.03
737.916	1441.63
738.357	1467.83
738.799	1448.93
739.241	1434.33
739.683	1443.23
740.125	1426.63
740.567	1422.43
741.008	1415.33
741.45	1409.23
741.892	1417.43
742.334	1401.73
742.775	1408.43
743.217	1387.73
743.658	1385.03
744.1	1384.03
744.542	1388.93
744.983	1377.53
745.425	1370.23
745.866	1360.63
746.307	1359.03
746.749	1349.23
747.19	1356.33
747.632	1342.13
748.073	1344.03
748.514	1329.93
748.956	1327.23
749.397	1318.53
749.838	1321.33
750.279	1302.83
750.72	1300.73
751.162	1304.33
751.603	1290.73
752.044	1286.43
752.485	1288.93
752.926	1294.23
753.367	1270.43
753.808	1265.33
754.249	1275.33
754.69	1282.93
755.131	1269.23
755.572	1261.83
756.013	1257.53
756.453	1257.63
756.894	1239.13
757.335	1246.13
757.776	1236.13
758.216	1257.53
758.657	1231.83
759.098	1222.83
759.538	1229.93
759.979	1218.33
760.42	1218.73
760.86	1228.43
761.301	1225.13
761.741	1216.33
762.182	1195.43
762.622	1199.53
763.063	1201.63
763.503	1195.33
763.943	1196.13
764.384	1198.33
764.824	1181.53
765.264	1185.23
765.705	1171.93
766.145	1167.03
766.585	1160.63
767.025	1172.73
767.465	1157.63
767.906	1151.53
768.346	1145.63
768.786	1138.63
769.226	1155.13
769.666	1130.93
770.106	1137.33
770.546	1127.53
770.986	1125.13
771.426	1116.63
771.866	1108.43
772.306	1119.33
772.745	1117.93
773.185	1102.63
773.625	1109.13
774.065	1095.23
774.505	1092.23
774.944	1100.13
775.384	1084.83
775.824	1084.93
776.263	1079.13
776.703	1082.03
777.142	1071.53
777.582	1073.13
778.021	1072.93
778.461	1071.33
778.9	1062.73
779.34	1064.33
779.779	1058.13
780.219	1065.53
780.658	1065.03
781.097	1060.03
781.537	1051.73
781.976	1057.73
782.415	1051.83
782.855	1035.33
783.294	1029.63
783.733	1040.33
784.172	1025.63
784.611	1038.73
785.05	1037.33
785.489	1030.03
785.928	1035.73
786.367	1024.23
786.806	1013.03
787.245	1026.43
787.684	1006.33
788.123	1014.93
788.562	1020.33
789.001	1014.13
789.44	1016.53
789.879	999.13
790.317	1018.23
790.756	1014.03
791.195	1018.03
791.634	1007.33
792.072	1011.73
792.511	1010.23
792.95	1006.83
793.388	996.63
793.827	994.33
794.265	1008.43
794.704	1002.83
795.142	993.23
795.581	1015.33
796.019	1005.13
796.458	1000.83
796.896	1006.83
797.334	1001.23
797.773	999.83
798.211	997.53
798.649	999.33
799.087	1003.93
799.526	1004.03
799.964	996.83
800.402	1009.33
800.84	1015.33
801.278	996.83
801.716	1005.03
802.154	1014.83
802.592	1017.63
803.03	1019.83
803.468	1020.13
803.906	1019.73
804.344	1023.23
804.782	1025.93
805.22	1025.03
805.658	1019.93
806.096	1018.23
806.533	1020.83
806.971	1032.63
807.409	1050.63
807.847	1050.53
808.284	1038.73
808.722	1050.73
809.16	1052.93
809.597	1066.93
810.035	1060.33
810.472	1063.03
810.91	1065.33
811.347	1062.03
811.785	1071.23
812.222	1079.03
812.66	1079.23
813.097	1092.53
813.535	1086.63
813.972	1096.33
814.409	1091.33
814.846	1124.93
815.284	1112.43
815.721	1119.63
816.158	1122.43
816.595	1133.33
817.032	1129.23
817.47	1143.93
817.907	1132.63
818.344	1142.33
818.781	1147.93
819.218	1160.53
819.655	1162.03
820.092	1167.73
820.529	1164.83
820.966	1178.83
821.403	1175.53
821.839	1183.23
822.276	1198.93
822.713	1194.43
823.15	1209.93
823.587	1213.43
824.023	1218.63
824.46	1216.63
824.897	1244.93
825.333	1234.83
825.77	1233.33
826.206	1236.63
826.643	1239.73
827.08	1263.53
827.516	1245.13
827.953	1274.53
828.389	1275.93
828.825	1274.53
829.262	1293.53
829.698	1282.33
830.135	1301.93
830.571	1299.73
831.007	1300.03
831.443	1323.53
831.88	1299.13
832.316	1313.73
832.752	1325.93
833.188	1325.23
833.624	1320.93
834.06	1334.23
834.497	1318.33
834.933	1340.83
835.369	1349.23
835.805	1345.53
836.241	1338.13
836.677	1343.63
837.112	1345.83
837.548	1348.33
837.984	1362.63
838.42	1356.93
838.856	1349.83
839.292	1346.83
839.727	1369.13
840.163	1354.13
840.599	1355.23
841.034	1378.23
841.47	1361.43
841.906	1373.53
842.341	1371.73
842.777	1357.13
843.212	1365.43
843.648	1373.93
844.083	1371.93
844.519	1373.93
844.954	1364.93
845.39	1352.53
845.825	1380.73
846.261	1362.13
846.696	1361.73
847.131	1368.93
847.566	1376.33
848.002	1381.13
848.437	1374.03
848.872	1375.93
849.307	1378.33
849.742	1366.53
850.177	1371.13
850.613	1375.93
851.048	1374.03
851.483	1367.13
851.918	1381.33
852.353	1369.03
852.788	1368.93
853.223	1352.13
853.657	1353.73
854.092	1358.93
854.527	1364.73
854.962	1362.83
855.397	1367.93
855.832	1355.93
856.266	1345.23
856.701	1359.53
857.136	1357.03
857.57	1365.73
858.005	1375.33
858.44	1364.43
858.874	1374.63
859.309	1345.33
859.743	1351.93
860.178	1362.73
860.612	1354.73
861.047	1354.13
861.481	1360.73
861.915	1362.93
862.35	1354.73
862.784	1341.63
863.218	1342.13
863.653	1350.73
864.087	1354.83
864.521	1348.13
864.955	1356.43
865.39	1360.93
865.824	1354.33
866.258	1343.33
866.692	1341.33
867.126	1343.83
867.56	1350.93
867.994	1338.93
868.428	1342.63
868.862	1351.73
869.296	1352.13
869.73	1348.43
870.164	1352.93
870.598	1335.23
871.031	1336.93
871.465	1342.03
871.899	1344.43
872.333	1329.53
872.766	1334.23
873.2	1344.63
873.634	1346.83
874.067	1333.83
874.501	1340.03
874.935	1327.93
875.368	1321.03
875.802	1331.23
876.235	1329.43
876.669	1315.13
877.102	1324.23
877.535	1323.73
877.969	1331.83
878.402	1338.33
878.836	1318.63
879.269	1312.33
879.702	1317.33
880.135	1316.13
880.569	1304.33
881.002	1321.23
881.435	1306.33
881.868	1303.03
882.301	1302.13
882.734	1296.63
883.167	1303.23
883.601	1301.03
884.034	1293.33
884.467	1291.93
884.899	1296.43
885.332	1292.23
885.765	1284.63
886.198	1283.43
886.631	1272.73
887.064	1271.43
887.497	1251.43
887.929	1269.73
888.362	1269.13
888.795	1266.23
889.228	1263.03
889.66	1244.03
890.093	1247.33
890.526	1237.93
890.958	1236.93
891.391	1239.83
891.823	1248.13
892.256	1250.03
892.688	1226.93
893.121	1218.23
893.553	1215.13
893.985	1221.93
894.418	1228.73
894.85	1208.03
895.282	1213.03
895.715	1195.83
896.147	1204.03
896.579	1201.83
897.011	1193.63
897.444	1193.93
897.876	1186.23
898.308	1185.33
898.74	1170.33
899.172	1179.93
899.604	1171.83
900.036	1174.93
900.468	1160.33
900.9	1175.43
901.332	1163.23
901.764	1162.53
902.196	1156.13
902.628	1138.03
903.06	1146.53
903.491	1145.23
903.923	1140.63
904.355	1132.33
904.787	1128.23
905.218	1117.53
905.65	1127.73
906.082	1128.13
906.513	1111.23
906.945	1102.63
907.376	1116.53
907.808	1107.13
908.239	1094.53
908.671	1097.73
909.102	1090.93
909.534	1102.53
909.965	1093.63
910.397	1087.83
910.828	1098.13
911.259	1074.53
911.691	1082.73
912.122	1076.23
912.553	1084.03
912.984	1074.33
913.415	1069.33
913.847	1059.73
914.278	1066.03
914.709	1046.83
915.14	1058.13
915.571	1054.23
916.002	1053.93
916.433	1047.23
916.864	1042.43
917.295	1046.43
917.726	1028.43
918.157	1020.13
918.587	1026.53
919.018	1012.33
919.449	1021.43
919.88	1012.13
920.311	1010.63
920.741	997.23
921.172	984.83
921.603	991.83
922.033	989.83
922.464	986.63
922.895	992.73
923.325	996.53
923.756	987.73
924.186	995.43
924.617	980.03
925.047	981.73
925.478	992.63
925.908	982.83
926.338	981.33
926.769	997.63
927.199	976.13
927.629	982.63
928.06	973.23
928.49	982.23
928.92	985.93
929.35	982.43
929.78	984.93
930.21	993.13
930.641	984.43
931.071	997.73
931.501	997.83
931.931	992.63
932.361	985.13
932.791	980.63
933.221	985.13
933.651	974.73
934.08	983.83
934.51	983.13
934.94	974.23
935.37	969.43
935.8	961.93
936.229	962.73
936.659	951.93
937.089	962.73
937.519	945.53
937.948	945.03
938.378	948.23
938.807	937.93
939.237	928.53
939.666	929.83
940.096	921.93
940.525	918.13
940.955	919.83
941.384	902.93
941.814	905.03
942.243	902.43
942.672	894.13
943.102	883.03
943.531	881.03
943.96	883.83
944.39	870.33
944.819	873.13
945.248	861.33
945.677	855.03
946.106	840.03
946.535	846.63
946.964	842.13
947.393	832.53
947.822	831.53
948.251	822.03
948.68	832.03
949.109	808.23
949.538	804.33
949.967	804.83
950.396	796.13
950.825	793.43
951.254	790.73
951.682	783.53
952.111	772.23
952.54	767.43
952.969	773.13
953.397	761.63
953.826	753.03
954.254	745.73
954.683	743.13
955.112	732.03
955.54	731.33
955.969	723.43
956.397	720.93
956.826	716.13
957.254	709.03
957.682	708.73
958.111	706.03
958.539	698.13
958.967	690.83
959.396	685.13
959.824	674.53
960.252	673.53
960.68	664.73
961.109	670.43
961.537	651.83
961.965	642.03
962.393	654.73
962.821	650.33
963.249	631.53
963.677	640.73
964.105	621.73
964.533	630.93
964.961	617.73
965.389	609.13
965.817	604.13
966.245	604.63
966.672	601.73
967.1	594.33
967.528	582.23
967.956	583.33
968.383	580.23
968.811	564.53
969.239	573.23
969.666	566.53
970.094	563.73
970.522	554.63
970.949	562.73
971.377	555.83
971.804	545.73
972.232	538.23
972.659	533.03
973.087	528.33
973.514	526.73
973.941	526.33
974.369	521.93
974.796	509.03
975.223	505.23
975.651	509.13
976.078	500.23
976.505	489.53
976.932	496.63
977.359	489.73
977.786	487.03
978.214	483.43
978.641	476.03
979.068	485.23
979.495	484.63
979.922	465.73
980.349	471.83
980.776	458.13
981.202	456.83
981.629	452.43
982.056	451.73
982.483	442.43
982.91	438.73
983.337	441.73
983.763	444.53
984.19	432.23
984.617	432.83
985.043	428.93
985.47	419.43
985.897	422.93
986.323	413.03
986.75	405.63
987.176	414.43
987.603	409.03
988.029	407.93
988.456	398.93
988.882	403.93
989.308	393.63
989.735	393.43
990.161	392.73
990.587	391.73
991.014	387.93
991.44	377.33
991.866	375.03
992.292	370.33
992.719	374.13
993.145	370.53
993.571	361.93
993.997	350.63
994.423	357.83
994.849	358.13
995.275	340.73
995.701	353.23
996.127	342.83
996.553	336.23
996.979	339.53
997.405	336.93
997.83	342.23
998.256	342.83
998.682	334.13
999.108	336.23
999.534	341.53
999.959	335.93
1000.385	332.83
1000.811	333.53
1001.236	335.53
1001.662	328.33
1002.087	333.53
1002.513	331.23
1002.938	331.03
1003.364	331.43
1003.789	329.63
1004.215	338.43
1004.64	324.83
1005.066	332.63
1005.491	327.63
1005.916	334.83
1006.342	334.93
1006.767	327.93
1007.192	324.53
1007.617	327.33
1008.042	326.43
1008.468	320.93
1008.893	334.93
1009.318	325.43
1009.743	326.93
1010.168	324.73
1010.593	315.83
1011.018	313.83
1011.443	311.93
1011.868	303.63
1012.293	309.43
1012.718	299.43
1013.143	301.33
1013.567	297.83
1013.992	290.83
1014.417	294.33
1014.842	286.43
1015.267	273.33
1015.691	283.23
1016.116	280.33
1016.541	279.63
1016.965	270.43
1017.39	259.83
1017.814	258.83
1018.239	256.53
1018.663	261.03
1019.088	250.63
1019.512	253.63
1019.937	248.13
1020.361	250.53
1020.785	243.93
1021.21	236.63
1021.634	236.73
1022.058	232.73
1022.483	229.53
1022.907	234.63
1023.331	225.23
1023.755	221.33
1024.179	219.73
1024.604	218.63
1025.028	216.43
1025.452	222.33
1025.876	215.93
1026.3	211.03
1026.724	202.83
1027.148	206.13
1027.572	202.63
1027.996	196.03
1028.42	204.73
1028.843	207.43
1029.267	203.43
1029.691	195.73
1030.115	199.93
1030.539	197.33
1030.962	199.03
1031.386	193.33
1031.81	196.73
1032.233	194.53
1032.657	193.03
1033.08	188.53
1033.504	183.83
1033.927	178.93
1034.351	182.13
1034.774	180.03
1035.198	183.53
1035.621	177.83
1036.045	178.83
1036.468	173.73
1036.891	172.33
1037.315	173.13
1037.738	169.33
1038.161	180.03
1038.584	165.53
1039.008	163.73
1039.431	164.93
1039.854	168.73
1040.277	166.53
1040.7	160.43
1041.123	166.13
1041.546	159.33
1041.969	161.53
1042.392	159.13
1042.815	162.03
1043.238	154.73
1043.661	153.63
1044.084	156.33
1044.507	158.13
1044.93	155.53
1045.352	150.03
1045.775	149.83
1046.198	150.73
1046.621	150.33
1047.043	143.03
1047.466	148.43
1047.889	142.33
1048.311	147.13
1048.734	149.33
1049.156	139.43
1049.579	142.33
1050.001	135.63
1050.424	140.93
1050.846	138.33
1051.269	142.93
1051.691	145.03
1052.113	135.43
1052.536	133.83
1052.958	136.43
1053.38	135.83
1053.802	130.73
1054.225	134.83
1054.647	133.53
1055.069	134.63
1055.491	131.83
1055.913	127.63
1056.335	130.33
1056.757	126.73
1057.179	131.23
1057.601	126.43
1058.023	125.23
1058.445	132.43
1058.867	126.93
1059.289	124.83
1059.711	120.43
1060.133	126.43
1060.555	121.03
1060.976	120.93
1061.398	121.83
1061.82	122.83
1062.241	119.33
1062.663	115.83
1063.085	115.03
1063.506	116.53
1063.928	126.33
1064.35	118.23
1064.771	122.43
1065.193	124.73
1065.614	116.23
1066.035	117.63
1066.457	115.53
1066.878	117.73
1067.3	114.03
1067.721	119.43
1068.142	108.33
1068.564	118.23
1068.985	111.63
1069.406	112.63
1069.827	111.73
1070.248	110.83
1070.67	112.93
1071.091	114.73
1071.512	114.13
1071.933	115.03
1072.354	108.93
1072.775	112.23
1073.196	115.63
1073.617	107.83
1074.038	109.73
1074.459	110.03
1074.88	110.83
1075.3	112.13
1075.721	110.93
1076.142	110.23
1076.563	113.03
1076.983	111.13
1077.404	109.93
1077.825	111.13
1078.246	112.03
1078.666	107.53
1079.087	110.43
1079.507	107.33
1079.928	105.63
1080.348	110.23
1080.769	109.93
1081.189	112.93
1081.61	109.83
1082.03	109.23
1082.451	105.53
1082.871	103.73
1083.291	109.73
1083.711	108.23
1084.132	106.53
1084.552	104.53
1084.972	106.93
1085.392	105.73
1085.813	109.03
1086.233	102.83
1086.653	104.83
1087.073	103.73
1087.493	103.63
1087.913	108.63
1088.333	102.73
1088.753	103.63
1089.173	101.23
1089.593	102.43
1090.013	98.43
1090.433	104.03
1090.852	106.33
1091.272	96.83
1091.692	103.23
1092.112	99.73
1092.531	107.03
1092.951	99.23
1093.371	105.93
1093.79	101.83
1094.21	100.53
1094.63	106.33
1095.049	97.93
1095.469	101.43
1095.888	95.33
1096.308	102.83
1096.727	107.73
1097.146	99.13
1097.566	95.33
1097.985	100.43
1098.405	100.43
1098.824	93.53
1099.243	93.93
1099.662	95.23
1100.082	97.33
1100.501	90.43
1100.92	93.13
1101.339	96.13
1101.758	89.13
