Data from DH-3PlusCalLight-DeuteriumHalogen_HRD10391_13-38-35-263.txt Node
Date: Thu Feb 15 13:38:35 EST 2018
User: Ender
Spectrometer: HR+D1039
Trigger mode: 0
Integration Time (sec): 2.730000E-2
Scans to average: 10
Electric dark correction enabled: true
Nonlinearity correction enabled: false
Boxcar width: 0
XAxis mode: Wavelengths
Number of Pixels in Spectrum: 2048
>>>>>Begin Spectral Data<<<<<
187.836	3.34
188.309	3.34
188.782	3.34
189.255	-4.36
189.728	-5.86
190.201	-3.36
190.674	-13.96
191.147	-8.46
191.619	-9.76
192.092	-4.66
192.565	-4.46
193.038	0.34
193.511	-2.96
193.984	1.94
194.456	7.44
194.929	6.44
195.402	16.24
195.874	22.14
196.347	24.44
196.82	19.94
197.292	28.24
197.765	29.54
198.237	29.84
198.71	39.64
199.182	39.94
199.655	52.14
200.127	54.94
200.6	56.34
201.072	57.44
201.544	66.34
202.017	67.74
202.489	63.14
202.961	70.84
203.433	66.84
203.906	75.74
204.378	77.34
204.85	76.24
205.322	79.14
205.794	80.94
206.266	84.64
206.739	83.64
207.211	86.34
207.683	86.14
208.155	87.44
208.627	82.74
209.099	84.14
209.57	83.14
210.042	86.04
210.514	86.84
210.986	85.64
211.458	86.14
211.93	83.84
212.402	86.64
212.873	82.94
213.345	78.64
213.817	90.14
214.288	81.54
214.76	81.74
215.232	78.44
215.703	81.64
216.175	88.64
216.646	86.74
217.118	85.04
217.589	86.94
218.061	81.74
218.532	82.44
219.004	81.24
219.475	83.74
219.946	85.24
220.418	80.54
220.889	81.94
221.36	81.34
221.832	81.54
222.303	89.04
222.774	85.64
223.245	87.14
223.717	88.54
224.188	90.84
224.659	85.74
225.13	93.34
225.601	98.74
226.072	94.64
226.543	100.74
227.014	97.84
227.485	106.04
227.956	103.94
228.427	105.54
228.898	112.04
229.369	107.74
229.839	114.44
230.31	113.04
230.781	118.14
231.252	114.84
231.722	113.84
232.193	117.24
232.664	122.04
233.135	116.44
233.605	117.04
234.076	114.04
234.546	111.74
235.017	109.84
235.487	105.64
235.958	99.44
236.428	103.24
236.899	100.34
237.369	98.14
237.84	96.64
238.31	94.14
238.78	89.14
239.251	92.74
239.721	81.84
240.191	89.54
240.662	87.74
241.132	84.34
241.602	89.04
242.072	85.34
242.542	83.14
243.013	84.84
243.483	85.84
243.953	83.44
244.423	79.44
244.893	85.04
245.363	86.64
245.833	90.64
246.303	87.14
246.773	86.14
247.243	81.14
247.712	85.44
248.182	86.84
248.652	84.24
249.122	84.64
249.592	88.24
250.061	88.14
250.531	84.84
251.001	91.14
251.471	90.84
251.94	85.04
252.41	90.54
252.879	96.54
253.349	94.04
253.818	95.34
254.288	94.24
254.757	90.54
255.227	99.54
255.696	102.64
256.166	106.84
256.635	115.54
257.105	121.74
257.574	132.84
258.043	131.94
258.513	138.84
258.982	144.64
259.451	158.34
259.92	162.54
260.389	171.34
260.859	186.24
261.328	185.34
261.797	200.64
262.266	210.54
262.735	215.94
263.204	222.24
263.673	236.04
264.142	246.84
264.611	255.74
265.08	263.74
265.549	265.14
266.018	273.34
266.487	278.34
266.955	292.24
267.424	292.84
267.893	300.74
268.362	299.54
268.83	314.64
269.299	313.24
269.768	321.54
270.236	328.24
270.705	325.04
271.174	335.64
271.642	340.54
272.111	336.74
272.579	341.34
273.048	348.74
273.516	342.24
273.985	349.54
274.453	350.14
274.922	348.94
275.39	349.74
275.858	342.44
276.327	345.14
276.795	354.14
277.263	348.64
277.731	354.24
278.2	348.54
278.668	349.74
279.136	349.54
279.604	350.54
280.072	348.04
280.54	339.44
281.008	347.04
281.477	335.04
281.945	330.64
282.413	337.04
282.881	328.34
283.348	331.44
283.816	331.24
284.284	336.24
284.752	323.24
285.22	321.34
285.688	315.14
286.156	318.44
286.623	314.64
287.091	311.64
287.559	317.04
288.026	310.24
288.494	316.34
288.962	313.44
289.429	314.24
289.897	319.14
290.364	331.24
290.832	327.24
291.3	328.54
291.767	328.24
292.234	332.74
292.702	334.44
293.169	340.94
293.637	350.04
294.104	351.44
294.571	360.14
295.039	358.24
295.506	359.44
295.973	363.34
296.44	368.54
296.908	380.34
297.375	373.74
297.842	381.14
298.309	382.34
298.776	377.04
299.243	383.24
299.71	380.94
300.177	386.94
300.644	382.74
301.111	384.94
301.578	381.34
302.045	379.84
302.512	392.34
302.979	380.74
303.446	385.34
303.913	386.24
304.379	385.04
304.846	380.74
305.313	384.04
305.78	375.24
306.246	373.34
306.713	367.24
307.18	378.34
307.646	377.94
308.113	377.44
308.579	374.34
309.046	360.34
309.512	370.14
309.979	368.74
310.445	377.44
310.912	374.44
311.378	362.54
311.845	364.54
312.311	360.04
312.777	363.24
313.244	361.84
313.71	362.84
314.176	363.14
314.642	357.44
315.109	369.64
315.575	372.64
316.041	359.04
316.507	366.04
316.973	364.84
317.439	358.74
317.905	363.84
318.371	377.34
318.837	375.54
319.303	377.74
319.769	386.24
320.235	386.04
320.701	375.64
321.167	382.04
321.633	388.74
322.099	396.74
322.564	386.04
323.03	392.04
323.496	394.24
323.962	395.84
324.427	404.54
324.893	392.04
325.359	407.94
325.824	397.14
326.29	400.74
326.755	391.94
327.221	402.34
327.686	394.44
328.152	400.34
328.617	395.34
329.083	390.44
329.548	397.14
330.014	393.24
330.479	391.94
330.944	389.54
331.41	387.24
331.875	377.54
332.34	374.04
332.805	381.04
333.271	369.64
333.736	373.94
334.201	374.44
334.666	369.04
335.131	365.04
335.596	358.64
336.061	356.14
336.526	356.04
336.991	359.64
337.456	355.44
337.921	345.54
338.386	341.14
338.851	353.64
339.316	349.14
339.781	358.14
340.246	368.74
340.711	362.54
341.175	372.44
341.64	382.94
342.105	381.74
342.569	387.74
343.034	382.04
343.499	393.04
343.963	383.54
344.428	392.24
344.893	393.94
345.357	399.84
345.822	396.94
346.286	411.04
346.751	416.94
347.215	423.34
347.679	418.84
348.144	422.44
348.608	436.24
349.073	433.14
349.537	448.54
350.001	439.64
350.465	429.84
350.93	438.84
351.394	432.34
351.858	435.84
352.322	434.84
352.786	443.24
353.25	427.54
353.715	432.64
354.179	431.24
354.643	431.74
355.107	436.44
355.571	432.84
356.035	437.44
356.498	435.64
356.962	440.04
357.426	442.24
357.89	439.14
358.354	442.84
358.818	438.44
359.281	439.94
359.745	431.64
360.209	431.94
360.673	434.14
361.136	445.04
361.6	436.24
362.064	445.44
362.527	437.94
362.991	438.24
363.454	437.04
363.918	434.64
364.381	442.84
364.845	442.84
365.308	450.04
365.772	449.04
366.235	435.24
366.698	447.74
367.162	441.34
367.625	436.94
368.088	446.44
368.552	444.24
369.015	439.44
369.478	438.34
369.941	442.34
370.404	437.84
370.867	443.94
371.331	438.74
371.794	446.74
372.257	442.34
372.72	451.74
373.183	447.34
373.646	452.54
374.109	454.94
374.572	453.74
375.035	462.94
375.497	454.74
375.96	458.44
376.423	460.64
376.886	474.94
377.349	476.04
377.811	472.14
378.274	494.14
378.737	468.84
379.199	473.24
379.662	478.74
380.125	483.44
380.587	481.14
381.05	488.14
381.512	478.34
381.975	480.34
382.437	485.24
382.9	478.04
383.362	484.74
383.825	483.14
384.287	491.24
384.75	480.94
385.212	495.04
385.674	490.74
386.136	503.64
386.599	505.84
387.061	503.84
387.523	511.94
387.985	500.14
388.447	499.04
388.91	496.44
389.372	502.14
389.834	505.94
390.296	508.44
390.758	524.14
391.22	525.64
391.682	514.84
392.144	520.94
392.606	517.14
393.068	514.64
393.529	519.94
393.991	512.34
394.453	508.94
394.915	513.74
395.377	518.34
395.838	526.24
396.3	526.34
396.762	544.04
397.224	542.04
397.685	535.24
398.147	535.14
398.608	530.74
399.07	529.24
399.531	530.24
399.993	531.34
400.454	535.14
400.916	524.44
401.377	540.94
401.839	528.54
402.3	528.04
402.762	541.84
403.223	552.84
403.684	542.64
404.145	544.84
404.607	548.14
405.068	528.94
405.529	523.74
405.99	522.64
406.451	529.74
406.913	525.24
407.374	536.94
407.835	531.24
408.296	536.04
408.757	532.94
409.218	541.24
409.679	524.94
410.14	524.24
410.601	536.04
411.062	539.84
411.522	546.74
411.983	548.24
412.444	544.14
412.905	539.04
413.366	526.84
413.826	531.74
414.287	537.24
414.748	536.14
415.208	551.64
415.669	554.24
416.13	552.64
416.59	547.94
417.051	544.34
417.511	555.24
417.972	570.54
418.432	583.74
418.893	589.84
419.353	602.54
419.814	608.54
420.274	621.04
420.734	620.94
421.195	633.64
421.655	608.74
422.115	621.44
422.576	617.74
423.036	627.74
423.496	633.34
423.956	634.84
424.416	641.74
424.876	649.14
425.336	638.74
425.797	650.74
426.257	674.14
426.717	700.74
427.177	676.34
427.637	694.94
428.097	700.74
428.556	714.94
429.016	725.94
429.476	750.94
429.936	741.44
430.396	748.94
430.856	736.74
431.315	755.84
431.775	780.24
432.235	775.44
432.694	816.54
433.154	813.34
433.614	791.24
434.073	836.44
434.533	839.54
434.993	837.94
435.452	861.64
435.912	851.64
436.371	850.84
436.83	872.74
437.29	873.54
437.749	888.94
438.209	892.04
438.668	908.44
439.127	923.24
439.587	940.14
440.046	942.74
440.505	979.54
440.964	969.04
441.424	977.84
441.883	990.24
442.342	1007.94
442.801	1011.94
443.26	1045.84
443.719	1047.34
444.178	1053.14
444.637	1067.14
445.096	1087.64
445.555	1104.34
446.014	1101.64
446.473	1108.54
446.932	1129.04
447.391	1147.24
447.849	1166.94
448.308	1158.64
448.767	1180.74
449.226	1195.04
449.685	1211.74
450.143	1228.14
450.602	1250.74
451.061	1241.74
451.519	1266.24
451.978	1293.44
452.436	1286.94
452.895	1302.74
453.353	1321.84
453.812	1317.54
454.27	1344.34
454.729	1358.34
455.187	1378.24
455.646	1387.14
456.104	1393.84
456.562	1411.64
457.021	1430.84
457.479	1403.24
457.937	1424.04
458.395	1484.64
458.854	1462.04
459.312	1467.24
459.77	1466.14
460.228	1460.74
460.686	1515.54
461.144	1520.54
461.602	1496.84
462.06	1488.84
462.518	1506.44
462.976	1521.54
463.434	1504.94
463.892	1502.04
464.35	1493.34
464.808	1492.14
465.266	1517.04
465.724	1526.24
466.181	1528.84
466.639	1518.04
467.097	1549.44
467.555	1590.04
468.012	1557.24
468.47	1560.64
468.928	1574.14
469.385	1589.74
469.843	1615.84
470.3	1602.24
470.758	1646.64
471.215	1638.94
471.673	1655.94
472.13	1684.04
472.588	1700.64
473.045	1716.24
473.503	1764.44
473.96	1809.14
474.417	1808.34
474.875	1850.14
475.332	1880.84
475.789	1880.24
476.246	1931.44
476.704	1976.94
477.161	1993.04
477.618	2020.04
478.075	2050.64
478.532	2140.04
478.989	2160.54
479.446	2171.04
479.903	2198.44
480.36	2310.84
480.817	2306.14
481.274	2367.34
481.731	2396.34
482.188	2415.34
482.645	2488.64
483.102	2502.94
483.558	2534.34
484.015	2589.74
484.472	2645.34
484.929	2684.24
485.385	2717.24
485.842	2743.54
486.299	2804.74
486.755	2816.44
487.212	2821.44
487.668	2859.54
488.125	2874.14
488.582	2846.34
489.038	2900.54
489.494	2907.44
489.951	2922.84
490.407	2966.84
490.864	2976.94
491.32	2971.84
491.776	2980.84
492.233	2974.34
492.689	3000.24
493.145	3005.04
493.602	2982.94
494.058	3026.84
494.514	3017.04
494.97	2996.34
495.426	3015.54
495.882	3008.74
496.338	2987.84
496.794	3029.04
497.251	3008.64
497.707	3034.04
498.163	3025.04
498.618	3035.24
499.074	3026.34
499.53	3036.14
499.986	3051.04
500.442	3041.24
500.898	3009.24
501.354	3076.04
501.809	3057.84
502.265	3026.64
502.721	3018.74
503.177	3034.84
503.632	3055.64
504.088	3037.44
504.543	3047.14
504.999	3060.24
505.455	3046.34
505.91	3023.44
506.366	3057.94
506.821	3083.14
507.277	3048.14
507.732	3054.74
508.187	3016.84
508.643	3033.74
509.098	3014.64
509.553	3020.84
510.009	3003.24
510.464	3013.14
510.919	3014.74
511.375	3008.64
511.83	2972.34
512.285	2954.74
512.74	2991.84
513.195	2944.34
513.65	2939.44
514.105	2942.44
514.56	2915.64
515.015	2910.04
515.47	2901.54
515.925	2886.64
516.38	2908.34
516.835	2900.64
517.29	2855.04
517.745	2859.34
518.2	2848.24
518.655	2839.04
519.109	2817.14
519.564	2806.34
520.019	2822.24
520.474	2786.84
520.928	2802.04
521.383	2788.84
521.838	2775.84
522.292	2766.84
522.747	2758.14
523.201	2763.84
523.656	2771.04
524.11	2743.34
524.565	2751.54
525.019	2738.54
525.474	2730.94
525.928	2724.74
526.382	2710.64
526.837	2735.64
527.291	2751.34
527.745	2723.84
528.2	2715.64
528.654	2713.44
529.108	2715.14
529.562	2707.94
530.016	2733.44
530.47	2719.14
530.925	2718.64
531.379	2727.24
531.833	2743.54
532.287	2733.44
532.741	2707.24
533.195	2725.64
533.649	2734.34
534.103	2722.74
534.556	2701.94
535.01	2724.34
535.464	2713.04
535.918	2706.64
536.372	2750.74
536.826	2734.04
537.279	2686.64
537.733	2716.24
538.187	2718.24
538.64	2705.34
539.094	2707.74
539.548	2751.54
540.001	2699.24
540.455	2721.24
540.908	2688.74
541.362	2699.84
541.815	2691.54
542.269	2694.54
542.722	2669.94
543.175	2702.14
543.629	2674.14
544.082	2650.54
544.536	2673.04
544.989	2651.24
545.442	2663.44
545.895	2645.94
546.349	2635.44
546.802	2636.04
547.255	2621.54
547.708	2618.04
548.161	2617.74
548.614	2610.64
549.067	2598.14
549.52	2626.14
549.973	2612.34
550.426	2611.44
550.879	2601.34
551.332	2611.34
551.785	2612.74
552.238	2594.64
552.691	2603.54
553.144	2608.64
553.596	2610.04
554.049	2620.54
554.502	2609.04
554.955	2608.14
555.407	2622.04
555.86	2631.74
556.313	2631.34
556.765	2636.94
557.218	2621.54
557.67	2659.64
558.123	2650.94
558.576	2633.14
559.028	2643.94
559.48	2643.24
559.933	2658.64
560.385	2660.14
560.838	2669.24
561.29	2664.04
561.742	2688.74
562.195	2658.64
562.647	2677.34
563.099	2683.54
563.551	2677.04
564.004	2694.64
564.456	2694.64
564.908	2682.14
565.36	2705.04
565.812	2697.34
566.264	2714.74
566.716	2696.04
567.168	2704.34
567.62	2710.34
568.072	2701.24
568.524	2700.04
568.976	2705.04
569.428	2697.74
569.88	2699.94
570.332	2718.14
570.784	2703.84
571.235	2686.64
571.687	2703.84
572.139	2689.94
572.59	2685.04
573.042	2680.34
573.494	2678.24
573.945	2674.24
574.397	2609.74
574.849	2641.14
575.3	2665.24
575.752	2643.94
576.203	2610.24
576.655	2649.14
577.106	2625.64
577.557	2627.64
578.009	2613.44
578.46	2639.94
578.912	2603.44
579.363	2611.34
579.814	2597.84
580.265	2585.44
580.717	2598.44
581.168	2598.34
581.619	2612.64
582.07	2601.74
582.521	2584.34
582.972	2579.84
583.423	2604.34
583.875	2590.74
584.326	2584.14
584.777	2596.04
585.227	2589.54
585.678	2593.74
586.129	2591.44
586.58	2584.84
587.031	2600.04
587.482	2599.04
587.933	2585.94
588.384	2578.04
588.834	2575.04
589.285	2603.14
589.736	2594.24
590.186	2584.74
590.637	2606.34
591.088	2592.94
591.538	2620.24
591.989	2613.34
592.439	2606.94
592.89	2624.34
593.34	2622.64
593.791	2626.74
594.241	2616.44
594.692	2635.44
595.142	2607.14
595.593	2617.64
596.043	2633.34
596.493	2648.04
596.943	2607.14
597.394	2644.04
597.844	2625.34
598.294	2623.64
598.744	2636.54
599.195	2645.74
599.645	2657.94
600.095	2643.04
600.545	2660.04
600.995	2636.24
601.445	2649.74
601.895	2670.74
602.345	2660.54
602.795	2669.74
603.245	2678.64
603.695	2661.64
604.145	2669.64
604.594	2646.74
605.044	2658.74
605.494	2654.04
605.944	2670.44
606.393	2671.54
606.843	2677.64
607.293	2693.04
607.743	2670.14
608.192	2680.44
608.642	2693.54
609.091	2683.84
609.541	2680.54
609.99	2684.14
610.44	2661.34
610.889	2692.84
611.339	2702.54
611.788	2670.64
612.238	2682.14
612.687	2677.54
613.136	2668.54
613.586	2670.54
614.035	2658.74
614.484	2670.14
614.933	2672.44
615.383	2680.34
615.832	2656.24
616.281	2665.44
616.73	2662.24
617.179	2673.24
617.628	2654.54
618.077	2662.24
618.526	2650.54
618.975	2646.14
619.424	2616.14
619.873	2655.24
620.322	2651.64
620.771	2662.24
621.22	2650.84
621.669	2636.84
622.118	2645.84
622.567	2651.64
623.015	2624.84
623.464	2641.24
623.913	2635.34
624.361	2648.74
624.81	2649.54
625.259	2662.54
625.707	2626.44
626.156	2631.54
626.604	2649.24
627.053	2629.54
627.501	2616.84
627.95	2619.04
628.398	2659.04
628.847	2604.74
629.295	2624.14
629.744	2616.64
630.192	2590.64
630.64	2621.34
631.089	2611.74
631.537	2610.14
631.985	2571.04
632.433	2600.64
632.881	2572.14
633.33	2600.14
633.778	2590.44
634.226	2571.64
634.674	2572.74
635.122	2578.84
635.57	2566.34
636.018	2564.24
636.466	2546.14
636.914	2545.14
637.362	2561.94
637.81	2560.14
638.258	2555.74
638.705	2527.54
639.153	2565.24
639.601	2522.14
640.049	2527.04
640.497	2546.44
640.944	2516.24
641.392	2524.74
641.84	2545.54
642.287	2522.54
642.735	2518.24
643.182	2505.04
643.63	2519.14
644.078	2514.54
644.525	2495.44
644.973	2512.04
645.42	2515.94
645.867	2535.84
646.315	2493.04
646.762	2508.04
647.21	2474.14
647.657	2518.54
648.104	2519.64
648.551	2477.84
648.999	2496.74
649.446	2498.44
649.893	2473.14
650.34	2477.34
650.787	2501.74
651.234	2483.54
651.682	2501.24
652.129	2468.44
652.576	2459.74
653.023	2491.14
653.47	2470.14
653.917	2485.04
654.363	2485.74
654.81	2488.44
655.257	2476.84
655.704	2460.54
656.151	2454.04
656.598	2460.94
657.044	2429.74
657.491	2438.34
657.938	2436.44
658.385	2425.74
658.831	2446.34
659.278	2425.24
659.724	2423.54
660.171	2431.64
660.618	2389.84
661.064	2415.54
661.511	2426.14
661.957	2414.24
662.404	2407.14
662.85	2410.74
663.296	2399.24
663.743	2380.34
664.189	2398.64
664.635	2401.54
665.082	2383.64
665.528	2385.94
665.974	2373.34
666.42	2379.04
666.867	2360.94
667.313	2364.24
667.759	2361.34
668.205	2340.44
668.651	2346.94
669.097	2343.54
669.543	2338.84
669.989	2340.64
670.435	2326.14
670.881	2306.54
671.327	2299.44
671.773	2316.14
672.219	2294.54
672.665	2306.34
673.11	2302.14
673.556	2289.54
674.002	2280.54
674.448	2292.74
674.893	2277.84
675.339	2272.84
675.785	2257.44
676.23	2246.14
676.676	2230.24
677.122	2251.64
677.567	2221.14
678.013	2200.74
678.458	2218.74
678.904	2203.64
679.349	2187.64
679.794	2187.64
680.24	2180.74
680.685	2161.64
681.131	2157.34
681.576	2146.94
682.021	2135.64
682.466	2120.94
682.912	2108.34
683.357	2125.24
683.802	2107.24
684.247	2089.44
684.692	2075.24
685.137	2072.14
685.583	2063.14
686.028	2059.74
686.473	2051.24
686.918	2047.64
687.363	2041.24
687.807	2037.84
688.252	2004.64
688.697	2004.64
689.142	2000.84
689.587	1991.54
690.032	1985.54
690.477	1987.54
690.921	1969.54
691.366	1984.74
691.811	1964.34
692.255	1970.24
692.7	1936.24
693.145	1960.24
693.589	1949.94
694.034	1938.94
694.478	1950.94
694.923	1935.64
695.367	1914.24
695.812	1904.54
696.256	1909.64
696.701	1915.34
697.145	1903.74
697.59	1902.24
698.034	1861.14
698.478	1881.84
698.922	1890.54
699.367	1879.24
699.811	1872.14
700.255	1864.94
700.699	1849.54
701.143	1839.24
701.588	1864.34
702.032	1831.14
702.476	1842.24
702.92	1828.64
703.364	1823.24
703.808	1827.34
704.252	1833.34
704.696	1802.84
705.14	1813.04
705.584	1804.94
706.027	1789.14
706.471	1799.24
706.915	1790.54
707.359	1780.94
707.803	1767.84
708.246	1774.44
708.69	1757.74
709.134	1757.44
709.577	1749.24
710.021	1761.14
710.465	1742.64
710.908	1738.34
711.352	1719.44
711.795	1736.54
712.239	1736.84
712.682	1740.34
713.126	1729.24
713.569	1716.04
714.012	1706.34
714.456	1714.34
714.899	1707.34
715.342	1718.84
715.786	1698.34
716.229	1694.84
716.672	1693.24
717.115	1682.94
717.558	1686.04
718.002	1682.94
718.445	1669.34
718.888	1671.34
719.331	1652.74
719.774	1659.74
720.217	1659.64
720.66	1651.74
721.103	1639.34
721.546	1634.74
721.989	1641.64
722.432	1620.54
722.874	1632.44
723.317	1626.44
723.76	1623.04
724.203	1605.04
724.645	1618.54
725.088	1607.04
725.531	1607.84
725.974	1586.34
726.416	1601.94
726.859	1587.94
727.301	1584.84
727.744	1583.14
728.187	1586.94
728.629	1573.44
729.071	1582.14
729.514	1557.94
729.956	1556.34
730.399	1548.94
730.841	1557.54
731.283	1553.14
731.726	1540.74
732.168	1522.64
732.61	1531.34
733.053	1529.64
733.495	1524.44
733.937	1502.24
734.379	1513.54
734.821	1503.44
735.263	1496.04
735.705	1478.64
736.148	1485.54
736.59	1488.04
737.032	1478.34
737.474	1483.84
737.916	1459.84
738.357	1477.54
738.799	1470.74
739.241	1457.54
739.683	1463.24
740.125	1451.74
740.567	1449.14
741.008	1447.04
741.45	1430.44
741.892	1419.34
742.334	1415.44
742.775	1437.04
743.217	1415.84
743.658	1425.14
744.1	1397.64
744.542	1411.94
744.983	1387.34
745.425	1384.84
745.866	1389.64
746.307	1385.64
746.749	1370.14
747.19	1372.44
747.632	1370.94
748.073	1358.64
748.514	1364.64
748.956	1351.74
749.397	1333.44
749.838	1341.94
750.279	1325.34
750.72	1330.94
751.162	1323.44
751.603	1328.84
752.044	1325.94
752.485	1307.34
752.926	1307.24
753.367	1303.24
753.808	1300.44
754.249	1294.64
754.69	1301.34
755.131	1273.74
755.572	1282.54
756.013	1274.24
756.453	1277.64
756.894	1272.84
757.335	1268.34
757.776	1256.24
758.216	1260.64
758.657	1260.34
759.098	1244.94
759.538	1254.04
759.979	1249.24
760.42	1241.64
760.86	1234.64
761.301	1241.54
761.741	1231.64
762.182	1234.64
762.622	1228.44
763.063	1208.14
763.503	1209.44
763.943	1224.14
764.384	1201.74
764.824	1214.14
765.264	1205.24
765.705	1197.34
766.145	1188.24
766.585	1203.54
767.025	1178.34
767.465	1171.54
767.906	1177.84
768.346	1170.24
768.786	1174.44
769.226	1160.34
769.666	1150.74
770.106	1158.14
770.546	1156.24
770.986	1150.74
771.426	1141.24
771.866	1134.24
772.306	1128.74
772.745	1138.14
773.185	1126.14
773.625	1124.54
774.065	1108.14
774.505	1115.94
774.944	1114.24
775.384	1081.04
775.824	1108.94
776.263	1098.84
776.703	1099.34
777.142	1097.44
777.582	1096.14
778.021	1100.24
778.461	1099.64
778.9	1085.44
779.34	1074.54
779.779	1079.94
780.219	1072.04
780.658	1082.64
781.097	1071.14
781.537	1071.14
781.976	1069.24
782.415	1060.24
782.855	1064.34
783.294	1055.54
783.733	1064.14
784.172	1050.04
784.611	1047.34
785.05	1048.14
785.489	1055.54
785.928	1056.54
786.367	1044.44
786.806	1036.54
787.245	1037.54
787.684	1036.24
788.123	1028.24
788.562	1046.44
789.001	1017.64
789.44	1030.94
789.879	1034.24
790.317	1034.14
790.756	1032.64
791.195	1035.24
791.634	1028.64
792.072	1019.94
792.511	1032.34
792.95	1030.44
793.388	1019.54
793.827	1011.24
794.265	1025.84
794.704	1027.64
795.142	1028.84
795.581	1024.34
796.019	1023.14
796.458	1024.84
796.896	1021.84
797.334	1019.54
797.773	1032.64
798.211	1032.44
798.649	1023.94
799.087	1026.14
799.526	1022.74
799.964	1028.74
800.402	1023.54
800.84	1036.04
801.278	1022.44
801.716	1028.14
802.154	1038.54
802.592	1044.74
803.03	1043.44
803.468	1031.54
803.906	1046.54
804.344	1048.44
804.782	1050.94
805.22	1036.14
805.658	1043.54
806.096	1042.94
806.533	1067.74
806.971	1050.64
807.409	1066.54
807.847	1071.94
808.284	1065.24
808.722	1082.54
809.16	1072.24
809.597	1080.64
810.035	1086.34
810.472	1087.54
810.91	1087.84
811.347	1090.04
811.785	1090.94
812.222	1091.34
812.66	1105.94
813.097	1102.34
813.535	1116.24
813.972	1121.44
814.409	1130.34
814.846	1131.54
815.284	1128.24
815.721	1144.84
816.158	1140.04
816.595	1143.34
817.032	1137.74
817.47	1161.64
817.907	1161.64
818.344	1162.54
818.781	1154.74
819.218	1173.34
819.655	1186.04
820.092	1175.14
820.529	1189.54
820.966	1193.24
821.403	1195.24
821.839	1207.94
822.276	1219.04
822.713	1221.14
823.15	1232.84
823.587	1235.14
824.023	1249.74
824.46	1246.04
824.897	1246.64
825.333	1259.44
825.77	1267.64
826.206	1261.14
826.643	1274.44
827.08	1274.84
827.516	1290.44
827.953	1292.54
828.389	1301.64
828.825	1293.94
829.262	1311.44
829.698	1304.64
830.135	1303.14
830.571	1322.54
831.007	1335.44
831.443	1339.14
831.88	1327.74
832.316	1347.84
832.752	1336.14
833.188	1347.14
833.624	1344.04
834.06	1339.04
834.497	1339.44
834.933	1370.84
835.369	1359.84
835.805	1361.84
836.241	1368.24
836.677	1355.94
837.112	1369.64
837.548	1381.54
837.984	1365.64
838.42	1370.24
838.856	1382.64
839.292	1370.14
839.727	1382.64
840.163	1371.44
840.599	1375.14
841.034	1385.44
841.47	1391.54
841.906	1385.44
842.341	1394.34
842.777	1397.24
843.212	1400.74
843.648	1388.04
844.083	1376.54
844.519	1395.34
844.954	1383.84
845.39	1387.54
845.825	1390.64
846.261	1384.54
846.696	1399.84
847.131	1386.44
847.566	1381.94
848.002	1406.44
848.437	1395.54
848.872	1384.14
849.307	1394.84
849.742	1379.94
850.177	1391.54
850.613	1387.64
851.048	1378.14
851.483	1387.54
851.918	1394.34
852.353	1389.34
852.788	1388.74
853.223	1375.94
853.657	1381.64
854.092	1384.94
854.527	1393.84
854.962	1379.84
855.397	1380.64
855.832	1384.54
856.266	1380.04
856.701	1398.84
857.136	1382.04
857.57	1376.24
858.005	1392.04
858.44	1389.54
858.874	1397.34
859.309	1372.54
859.743	1371.14
860.178	1388.44
860.612	1374.74
861.047	1386.34
861.481	1375.74
861.915	1384.74
862.35	1393.44
862.784	1376.14
863.218	1377.04
863.653	1388.24
864.087	1375.34
864.521	1361.54
864.955	1380.64
865.39	1362.04
865.824	1375.54
866.258	1381.94
866.692	1381.44
867.126	1366.14
867.56	1377.14
867.994	1366.44
868.428	1382.74
868.862	1372.24
869.296	1369.64
869.73	1371.64
870.164	1362.24
870.598	1361.84
871.031	1361.34
871.465	1355.34
871.899	1363.94
872.333	1358.54
872.766	1351.64
873.2	1366.64
873.634	1361.24
874.067	1363.64
874.501	1349.24
874.935	1359.64
875.368	1343.04
875.802	1351.64
876.235	1352.64
876.669	1357.44
877.102	1344.54
877.535	1338.94
877.969	1349.64
878.402	1339.24
878.836	1340.04
879.269	1343.04
879.702	1338.94
880.135	1325.64
880.569	1326.04
881.002	1336.04
881.435	1328.94
881.868	1329.74
882.301	1322.24
882.734	1328.44
883.167	1322.94
883.601	1319.54
884.034	1318.74
884.467	1306.74
884.899	1321.94
885.332	1311.54
885.765	1299.94
886.198	1302.04
886.631	1295.74
887.064	1298.14
887.497	1282.04
887.929	1283.14
888.362	1290.04
888.795	1275.94
889.228	1275.34
889.66	1270.44
890.093	1255.74
890.526	1276.04
890.958	1248.24
891.391	1273.34
891.823	1263.14
892.256	1262.34
892.688	1250.74
893.121	1252.14
893.553	1247.54
893.985	1242.84
894.418	1247.34
894.85	1232.74
895.282	1219.94
895.715	1223.64
896.147	1227.04
896.579	1205.04
897.011	1209.44
897.444	1206.44
897.876	1213.44
898.308	1202.84
898.74	1190.84
899.172	1199.44
899.604	1193.54
900.036	1186.34
900.468	1174.74
900.9	1185.54
901.332	1181.44
901.764	1168.04
902.196	1170.44
902.628	1172.14
903.06	1154.34
903.491	1169.14
903.923	1155.34
904.355	1157.34
904.787	1149.24
905.218	1143.64
905.65	1143.24
906.082	1128.14
906.513	1145.64
906.945	1134.44
907.376	1131.84
907.808	1120.44
908.239	1135.44
908.671	1111.84
909.102	1110.64
909.534	1112.64
909.965	1108.14
910.397	1105.74
910.828	1105.24
911.259	1111.94
911.691	1100.14
912.122	1088.04
912.553	1090.54
912.984	1086.04
913.415	1072.14
913.847	1076.34
914.278	1083.04
914.709	1065.84
915.14	1080.14
915.571	1065.24
916.002	1070.84
916.433	1067.74
916.864	1068.14
917.295	1062.34
917.726	1043.04
918.157	1050.54
918.587	1039.74
919.018	1032.34
919.449	1030.94
919.88	1026.94
920.311	1030.54
920.741	1020.94
921.172	1012.34
921.603	1008.74
922.033	1025.74
922.464	996.14
922.895	1010.44
923.325	998.34
923.756	1010.94
924.186	1005.34
924.617	989.74
925.047	994.74
925.478	986.84
925.908	1000.04
926.338	1000.24
926.769	1005.44
927.199	995.54
927.629	1001.44
928.06	1007.94
928.49	996.74
928.92	1005.14
929.35	998.44
929.78	1004.54
930.21	1000.14
930.641	1008.14
931.071	1010.74
931.501	1010.94
931.931	995.44
932.361	997.44
932.791	1007.94
933.221	995.54
933.651	994.74
934.08	1001.34
934.51	991.34
934.94	984.14
935.37	982.84
935.8	977.84
936.229	972.24
936.659	966.94
937.089	974.04
937.519	962.44
937.948	946.44
938.378	953.24
938.807	966.04
939.237	938.94
939.666	947.14
940.096	934.34
940.525	919.74
940.955	925.34
941.384	922.84
941.814	918.84
942.243	920.84
942.672	908.04
943.102	899.64
943.531	897.64
943.96	882.64
944.39	889.04
944.819	882.14
945.248	872.94
945.677	874.04
946.106	859.34
946.535	856.84
946.964	854.24
947.393	849.64
947.822	845.34
948.251	834.94
948.68	823.14
949.109	823.24
949.538	819.64
949.967	819.44
950.396	811.64
950.825	793.54
951.254	794.84
951.682	788.64
952.111	791.74
952.54	779.44
952.969	769.84
953.397	780.24
953.826	769.44
954.254	762.84
954.683	742.74
955.112	750.24
955.54	740.84
955.969	737.84
956.397	725.24
956.826	720.84
957.254	716.34
957.682	718.04
958.111	713.44
958.539	704.84
958.967	695.34
959.396	689.64
959.824	689.64
960.252	677.14
960.68	668.94
961.109	673.54
961.537	666.84
961.965	667.24
962.393	664.84
962.821	655.44
963.249	640.94
963.677	639.14
964.105	640.94
964.533	627.94
964.961	625.44
965.389	610.94
965.817	610.74
966.245	598.34
966.672	602.24
967.1	602.54
967.528	586.54
967.956	589.44
968.383	572.54
968.811	583.74
969.239	571.44
969.666	575.54
970.094	570.54
970.522	564.74
970.949	554.54
971.377	549.24
971.804	554.04
972.232	546.14
972.659	548.94
973.087	533.44
973.514	535.94
973.941	524.84
974.369	520.04
974.796	520.34
975.223	516.54
975.651	519.74
976.078	504.34
976.505	507.14
976.932	500.34
977.359	504.14
977.786	499.34
978.214	490.84
978.641	490.34
979.068	483.44
979.495	483.04
979.922	472.84
980.349	471.14
980.776	465.14
981.202	460.94
981.629	454.14
982.056	454.04
982.483	453.94
982.91	447.44
983.337	451.64
983.763	435.34
984.19	432.94
984.617	437.14
985.043	424.44
985.47	418.84
985.897	428.04
986.323	419.34
986.75	409.74
987.176	417.54
987.603	399.94
988.029	407.54
988.456	408.84
988.882	402.04
989.308	404.44
989.735	394.44
990.161	391.34
990.587	380.04
991.014	385.54
991.44	373.54
991.866	381.14
992.292	378.84
992.719	361.64
993.145	375.44
993.571	369.64
993.997	364.74
994.423	360.84
994.849	352.24
995.275	350.74
995.701	350.84
996.127	344.94
996.553	339.24
996.979	349.94
997.405	337.54
997.83	331.94
998.256	341.34
998.682	346.34
999.108	331.94
999.534	326.54
999.959	347.14
1000.385	337.64
1000.811	330.74
1001.236	324.94
1001.662	336.34
1002.087	328.94
1002.513	331.94
1002.938	331.74
1003.364	327.94
1003.789	330.44
1004.215	329.64
1004.64	335.54
1005.066	330.44
1005.491	333.44
1005.916	328.64
1006.342	334.44
1006.767	329.94
1007.192	328.44
1007.617	335.34
1008.042	335.14
1008.468	329.84
1008.893	330.74
1009.318	331.74
1009.743	323.74
1010.168	317.14
1010.593	318.34
1011.018	314.14
1011.443	314.24
1011.868	308.24
1012.293	309.44
1012.718	307.34
1013.143	305.84
1013.567	296.64
1013.992	290.34
1014.417	293.04
1014.842	289.54
1015.267	286.34
1015.691	281.54
1016.116	278.54
1016.541	264.34
1016.965	266.24
1017.39	269.24
1017.814	265.44
1018.239	266.04
1018.663	257.14
1019.088	256.64
1019.512	247.94
1019.937	251.84
1020.361	238.54
1020.785	245.54
1021.21	239.84
1021.634	238.54
1022.058	231.74
1022.483	234.44
1022.907	234.14
1023.331	222.24
1023.755	233.24
1024.179	222.84
1024.604	213.44
1025.028	224.34
1025.452	212.44
1025.876	213.94
1026.3	213.84
1026.724	211.84
1027.148	206.04
1027.572	207.64
1027.996	205.84
1028.42	209.14
1028.843	202.24
1029.267	194.14
1029.691	208.94
1030.115	196.64
1030.539	196.64
1030.962	191.44
1031.386	188.84
1031.81	194.74
1032.233	186.24
1032.657	192.94
1033.08	183.64
1033.504	193.84
1033.927	179.04
1034.351	185.54
1034.774	180.94
1035.198	175.24
1035.621	176.44
1036.045	172.44
1036.468	174.64
1036.891	170.34
1037.315	178.34
1037.738	169.04
1038.161	169.84
1038.584	170.24
1039.008	164.94
1039.431	168.64
1039.854	162.24
1040.277	171.04
1040.7	159.64
1041.123	162.44
1041.546	154.94
1041.969	161.94
1042.392	161.84
1042.815	153.04
1043.238	159.24
1043.661	153.54
1044.084	160.84
1044.507	156.04
1044.93	155.84
1045.352	154.74
1045.775	158.24
1046.198	147.74
1046.621	148.34
1047.043	148.84
1047.466	142.64
1047.889	145.94
1048.311	142.74
1048.734	144.54
1049.156	145.54
1049.579	140.84
1050.001	150.64
1050.424	138.14
1050.846	149.54
1051.269	131.24
1051.691	142.84
1052.113	138.84
1052.536	140.14
1052.958	138.34
1053.38	126.74
1053.802	139.14
1054.225	137.54
1054.647	138.64
1055.069	132.04
1055.491	129.14
1055.913	129.34
1056.335	130.24
1056.757	131.54
1057.179	128.14
1057.601	132.44
1058.023	126.44
1058.445	126.34
1058.867	123.54
1059.289	126.84
1059.711	125.44
1060.133	121.84
1060.555	125.44
1060.976	121.44
1061.398	126.74
1061.82	123.24
1062.241	119.84
1062.663	118.64
1063.085	120.54
1063.506	124.04
1063.928	117.94
1064.35	116.04
1064.771	115.34
1065.193	123.34
1065.614	118.84
1066.035	117.54
1066.457	117.94
1066.878	113.94
1067.3	108.04
1067.721	107.44
1068.142	113.54
1068.564	110.74
1068.985	115.44
1069.406	111.84
1069.827	115.74
1070.248	118.84
1070.67	114.94
1071.091	113.24
1071.512	111.24
1071.933	114.04
1072.354	107.84
1072.775	118.34
1073.196	113.74
1073.617	112.24
1074.038	115.04
1074.459	112.44
1074.88	110.94
1075.3	109.34
1075.721	110.84
1076.142	104.34
1076.563	110.44
1076.983	110.84
1077.404	110.74
1077.825	107.54
1078.246	102.74
1078.666	108.64
1079.087	101.74
1079.507	111.34
1079.928	105.74
1080.348	104.04
1080.769	114.14
1081.189	107.24
1081.61	110.84
1082.03	106.04
1082.451	109.24
1082.871	106.94
1083.291	114.54
1083.711	105.54
1084.132	101.04
1084.552	107.84
1084.972	106.24
1085.392	106.44
1085.813	106.64
1086.233	108.34
1086.653	97.54
1087.073	103.84
1087.493	101.54
1087.913	106.94
1088.333	109.04
1088.753	95.64
1089.173	103.94
1089.593	104.04
1090.013	106.94
1090.433	97.14
1090.852	104.34
1091.272	101.54
1091.692	101.64
1092.112	101.94
1092.531	102.24
1092.951	101.04
1093.371	96.64
1093.79	101.54
1094.21	98.24
1094.63	101.14
1095.049	102.64
1095.469	93.74
1095.888	98.34
1096.308	94.24
1096.727	97.54
1097.146	95.44
1097.566	91.94
1097.985	93.84
1098.405	99.24
1098.824	99.74
1099.243	95.64
1099.662	94.74
1100.082	88.74
1100.501	96.04
1100.92	98.94
1101.339	98.84
1101.758	97.04
