Data from DH-3PlusCalLight-Deuterium_HRD10391_13-35-10-546.txt Node
Date: Thu Feb 15 13:35:10 EST 2018
User: Ender
Spectrometer: HR+D1039
Trigger mode: 0
Integration Time (sec): 2.730000E-2
Scans to average: 10
Electric dark correction enabled: true
Nonlinearity correction enabled: false
Boxcar width: 0
XAxis mode: Wavelengths
Number of Pixels in Spectrum: 2048
>>>>>Begin Spectral Data<<<<<
187.836	2.89
188.309	2.89
188.782	2.89
189.255	-3.41
189.728	-6.11
190.201	-5.51
190.674	-5.01
191.147	-3.91
191.619	-6.51
192.092	-2.71
192.565	-5.31
193.038	0.09
193.511	-0.51
193.984	-0.21
194.456	0.39
194.929	9.09
195.402	7.69
195.874	18.99
196.347	19.19
196.82	24.89
197.292	27.09
197.765	32.89
198.237	35.29
198.71	39.99
199.182	40.59
199.655	51.99
200.127	48.99
200.6	53.79
201.072	57.89
201.544	62.69
202.017	66.19
202.489	64.79
202.961	69.29
203.433	75.39
203.906	76.29
204.378	74.19
204.85	76.99
205.322	75.59
205.794	79.79
206.266	82.09
206.739	81.89
207.211	78.39
207.683	85.19
208.155	85.99
208.627	84.39
209.099	90.69
209.57	85.49
210.042	85.29
210.514	83.59
210.986	83.39
211.458	87.09
211.93	81.99
212.402	81.79
212.873	86.99
213.345	88.09
213.817	84.49
214.288	82.09
214.76	80.49
215.232	78.89
215.703	84.39
216.175	81.09
216.646	84.89
217.118	83.29
217.589	86.89
218.061	82.59
218.532	79.69
219.004	82.39
219.475	82.79
219.946	79.49
220.418	81.29
220.889	82.99
221.36	80.59
221.832	83.09
222.303	86.69
222.774	83.39
223.245	84.99
223.717	78.09
224.188	87.89
224.659	92.69
225.13	85.89
225.601	86.89
226.072	88.89
226.543	89.59
227.014	94.89
227.485	97.79
227.956	92.19
228.427	96.19
228.898	95.99
229.369	97.29
229.839	100.09
230.31	101.19
230.781	107.79
231.252	106.29
231.722	101.59
232.193	96.99
232.664	99.19
233.135	99.99
233.605	100.49
234.076	101.99
234.546	98.99
235.017	94.69
235.487	91.89
235.958	93.29
236.428	91.69
236.899	87.89
237.369	89.19
237.84	86.59
238.31	85.19
238.78	85.19
239.251	85.79
239.721	83.19
240.191	89.19
240.662	84.19
241.132	81.39
241.602	79.89
242.072	83.79
242.542	78.79
243.013	80.69
243.483	77.99
243.953	85.59
244.423	80.69
244.893	83.89
245.363	86.09
245.833	88.89
246.303	83.09
246.773	80.69
247.243	84.09
247.712	80.69
248.182	82.89
248.652	79.09
249.122	82.09
249.592	79.59
250.061	85.39
250.531	84.69
251.001	89.29
251.471	82.49
251.94	80.39
252.41	83.09
252.879	85.09
253.349	84.79
253.818	86.99
254.288	91.29
254.757	91.19
255.227	94.99
255.696	97.69
256.166	96.89
256.635	98.09
257.105	103.39
257.574	99.79
258.043	105.89
258.513	112.59
258.982	115.69
259.451	120.69
259.92	132.49
260.389	133.39
260.859	138.69
261.328	148.09
261.797	150.29
262.266	162.09
262.735	164.19
263.204	165.39
263.673	173.29
264.142	188.99
264.611	182.39
265.08	195.89
265.549	198.29
266.018	203.89
266.487	206.29
266.955	211.99
267.424	219.39
267.893	226.79
268.362	227.89
268.83	224.59
269.299	230.59
269.768	234.79
270.236	238.89
270.705	244.79
271.174	247.99
271.642	241.39
272.111	243.39
272.579	250.39
273.048	249.59
273.516	251.89
273.985	251.59
274.453	252.39
274.922	254.59
275.39	259.29
275.858	249.49
276.327	249.19
276.795	256.39
277.263	253.99
277.731	254.79
278.2	251.99
278.668	257.99
279.136	249.89
279.604	246.59
280.072	253.89
280.54	251.79
281.008	249.39
281.477	241.49
281.945	240.19
282.413	246.29
282.881	246.29
283.348	241.99
283.816	237.09
284.284	236.59
284.752	233.39
285.22	242.69
285.688	238.79
286.156	232.69
286.623	230.69
287.091	231.49
287.559	230.39
288.026	239.99
288.494	245.69
288.962	239.19
289.429	242.59
289.897	244.99
290.364	237.59
290.832	238.39
291.3	243.39
291.767	250.39
292.234	255.19
292.702	257.79
293.169	259.09
293.637	261.39
294.104	261.49
294.571	270.59
295.039	268.09
295.506	266.39
295.973	273.99
296.44	272.99
296.908	275.69
297.375	282.29
297.842	270.59
298.309	278.69
298.776	273.49
299.243	275.79
299.71	280.59
300.177	278.09
300.644	273.79
301.111	274.39
301.578	283.19
302.045	288.39
302.512	281.29
302.979	280.39
303.446	278.19
303.913	275.79
304.379	273.59
304.846	271.99
305.313	276.09
305.78	274.79
306.246	275.89
306.713	267.99
307.18	266.79
307.646	273.99
308.113	270.59
308.579	263.99
309.046	257.69
309.512	263.09
309.979	265.09
310.445	268.79
310.912	263.79
311.378	259.39
311.845	266.99
312.311	269.19
312.777	260.99
313.244	258.99
313.71	262.39
314.176	269.29
314.642	263.29
315.109	269.19
315.575	266.59
316.041	265.69
316.507	272.89
316.973	273.89
317.439	258.59
317.905	271.29
318.371	276.69
318.837	285.19
319.303	280.49
319.769	280.39
320.235	280.29
320.701	289.09
321.167	287.89
321.633	291.49
322.099	283.29
322.564	281.69
323.03	288.79
323.496	283.99
323.962	284.39
324.427	292.29
324.893	290.99
325.359	284.19
325.824	285.69
326.29	287.29
326.755	283.79
327.221	279.89
327.686	287.59
328.152	279.59
328.617	282.49
329.083	287.89
329.548	280.09
330.014	273.99
330.479	278.09
330.944	277.69
331.41	277.69
331.875	273.79
332.34	271.69
332.805	268.79
333.271	265.59
333.736	264.29
334.201	267.49
334.666	261.59
335.131	259.09
335.596	263.99
336.061	263.59
336.526	256.99
336.991	258.19
337.456	258.99
337.921	254.99
338.386	254.69
338.851	255.79
339.316	255.99
339.781	256.69
340.246	262.29
340.711	269.89
341.175	268.79
341.64	272.89
342.105	278.29
342.569	278.19
343.034	283.99
343.499	287.39
343.963	288.79
344.428	285.19
344.893	285.39
345.357	287.09
345.822	290.19
346.286	285.19
346.751	300.89
347.215	300.99
347.679	298.19
348.144	306.89
348.608	309.79
349.073	307.69
349.537	312.09
350.001	308.99
350.465	309.89
350.93	307.39
351.394	311.49
351.858	304.49
352.322	304.29
352.786	306.39
353.25	305.59
353.715	306.19
354.179	304.49
354.643	312.29
355.107	313.09
355.571	301.09
356.035	308.69
356.498	306.69
356.962	303.09
357.426	313.29
357.89	307.89
358.354	310.99
358.818	311.19
359.281	311.49
359.745	308.49
360.209	303.89
360.673	309.99
361.136	307.39
361.6	301.59
362.064	308.69
362.527	312.19
362.991	316.99
363.454	308.49
363.918	310.09
364.381	309.89
364.845	310.69
365.308	309.79
365.772	313.79
366.235	306.29
366.698	321.89
367.162	306.59
367.625	310.49
368.088	305.09
368.552	312.19
369.015	308.39
369.478	312.49
369.941	310.59
370.404	312.29
370.867	313.29
371.331	306.79
371.794	310.49
372.257	312.09
372.72	310.09
373.183	306.69
373.646	312.49
374.109	313.49
374.572	320.49
375.035	318.49
375.497	322.39
375.96	323.99
376.423	322.89
376.886	322.59
377.349	329.99
377.811	326.59
378.274	340.19
378.737	332.99
379.199	335.29
379.662	328.79
380.125	330.39
380.587	325.59
381.05	341.39
381.512	339.29
381.975	335.69
382.437	333.49
382.9	332.69
383.362	333.69
383.825	340.49
384.287	330.79
384.75	334.69
385.212	342.79
385.674	341.09
386.136	343.89
386.599	338.29
387.061	341.89
387.523	350.49
387.985	336.29
388.447	336.09
388.91	328.69
389.372	331.09
389.834	337.69
390.296	338.39
390.758	344.59
391.22	353.49
391.682	347.39
392.144	345.89
392.606	334.79
393.068	339.49
393.529	343.89
393.991	338.89
394.453	339.39
394.915	342.69
395.377	339.59
395.838	344.59
396.3	347.19
396.762	362.59
397.224	353.09
397.685	356.99
398.147	349.69
398.608	345.19
399.07	346.79
399.531	340.19
399.993	344.69
400.454	343.99
400.916	341.19
401.377	339.79
401.839	344.59
402.3	342.39
402.762	342.89
403.223	349.29
403.684	345.99
404.145	348.99
404.607	349.09
405.068	338.99
405.529	335.09
405.99	326.19
406.451	332.39
406.913	330.09
407.374	332.59
407.835	330.09
408.296	328.39
408.757	323.89
409.218	321.29
409.679	312.89
410.14	306.49
410.601	311.59
411.062	317.39
411.522	310.69
411.983	319.09
412.444	314.99
412.905	307.89
413.366	298.59
413.826	303.29
414.287	296.29
414.748	288.79
415.208	291.29
415.669	288.19
416.13	297.49
416.59	291.09
417.051	278.89
417.511	291.79
417.972	300.99
418.432	294.29
418.893	299.49
419.353	297.29
419.814	303.09
420.274	304.09
420.734	313.69
421.195	304.59
421.655	291.59
422.115	298.69
422.576	294.19
423.036	292.89
423.496	286.09
423.956	286.59
424.416	281.49
424.876	281.69
425.336	262.99
425.797	269.99
426.257	280.19
426.717	279.29
427.177	265.29
427.637	269.79
428.097	265.59
428.556	268.99
429.016	264.79
429.476	264.19
429.936	257.89
430.396	240.59
430.856	243.59
431.315	226.79
431.775	231.09
432.235	227.19
432.694	242.89
433.154	232.39
433.614	213.19
434.073	222.49
434.533	210.09
434.993	210.49
435.452	213.49
435.912	205.39
436.371	192.29
436.83	193.09
437.29	189.39
437.749	194.09
438.209	182.69
438.668	176.79
439.127	180.59
439.587	176.79
440.046	177.59
440.505	174.09
440.964	168.49
441.424	162.79
441.883	170.39
442.342	162.59
442.801	160.49
443.26	154.19
443.719	147.59
444.178	146.99
444.637	144.09
445.096	136.29
445.555	134.19
446.014	135.29
446.473	132.29
446.932	127.29
447.391	124.09
447.849	129.99
448.308	113.19
448.767	117.09
449.226	114.39
449.685	106.99
450.143	112.39
450.602	106.19
451.061	105.89
451.519	107.79
451.978	107.39
452.436	104.79
452.895	99.99
453.353	96.79
453.812	99.39
454.27	97.69
454.729	94.49
455.187	98.39
455.646	94.89
456.104	95.99
456.562	95.59
457.021	90.19
457.479	90.49
457.937	88.79
458.395	92.79
458.854	93.79
459.312	91.09
459.77	88.39
460.228	87.49
460.686	86.89
461.144	88.29
461.602	87.59
462.06	90.49
462.518	88.29
462.976	88.89
463.434	87.29
463.892	86.89
464.35	88.89
464.808	83.19
465.266	86.19
465.724	87.99
466.181	89.19
466.639	82.49
467.097	87.19
467.555	86.59
468.012	88.39
468.47	82.79
468.928	85.59
469.385	85.49
469.843	88.39
470.3	87.79
470.758	82.79
471.215	85.79
471.673	84.09
472.13	85.69
472.588	85.99
473.045	83.79
473.503	83.89
473.96	93.09
474.417	85.09
474.875	84.49
475.332	89.09
475.789	85.69
476.246	87.39
476.704	86.19
477.161	84.59
477.618	89.19
478.075	89.19
478.532	85.19
478.989	85.39
479.446	87.89
479.903	84.49
480.36	83.19
480.817	88.09
481.274	85.49
481.731	86.69
482.188	88.09
482.645	88.29
483.102	87.09
483.558	86.49
484.015	83.79
484.472	86.39
484.929	87.39
485.385	87.39
485.842	88.19
486.299	83.99
486.755	85.49
487.212	84.19
487.668	86.49
488.125	85.99
488.582	85.39
489.038	88.09
489.494	88.89
489.951	81.49
490.407	89.49
490.864	86.19
491.32	84.19
491.776	84.19
492.233	80.49
492.689	84.79
493.145	84.99
493.602	83.29
494.058	82.69
494.514	90.99
494.97	86.49
495.426	84.79
495.882	86.79
496.338	79.89
496.794	90.69
497.251	89.79
497.707	89.89
498.163	84.69
498.618	89.19
499.074	83.19
499.53	85.69
499.986	84.19
500.442	87.69
500.898	89.69
501.354	84.59
501.809	88.09
502.265	83.99
502.721	82.99
503.177	86.29
503.632	86.69
504.088	84.59
504.543	89.89
504.999	85.59
505.455	84.29
505.91	89.39
506.366	88.69
506.821	87.49
507.277	87.49
507.732	86.49
508.187	87.99
508.643	87.39
509.098	89.29
509.553	89.49
510.009	91.09
510.464	83.09
510.919	89.89
511.375	87.39
511.83	89.09
512.285	83.59
512.74	82.49
513.195	82.69
513.65	87.69
514.105	83.99
514.56	78.69
515.015	87.59
515.47	86.29
515.925	88.59
516.38	86.99
516.835	90.19
517.29	85.19
517.745	81.29
518.2	83.59
518.655	84.79
519.109	83.29
519.564	82.69
520.019	82.09
520.474	84.39
520.928	87.79
521.383	80.59
521.838	85.09
522.292	90.19
522.747	88.39
523.201	87.09
523.656	88.19
524.11	86.69
524.565	89.19
525.019	86.89
525.474	81.59
525.928	87.09
526.382	80.59
526.837	82.89
527.291	88.39
527.745	82.79
528.2	82.39
528.654	91.99
529.108	92.49
529.562	83.89
530.016	87.19
530.47	83.29
530.925	84.19
531.379	83.59
531.833	84.99
532.287	81.99
532.741	86.69
533.195	84.69
533.649	84.89
534.103	79.69
534.556	83.39
535.01	91.39
535.464	87.69
535.918	88.69
536.372	90.59
536.826	86.99
537.279	87.89
537.733	85.09
538.187	81.29
538.64	86.79
539.094	82.39
539.548	89.29
540.001	84.39
540.455	81.29
540.908	83.19
541.362	85.89
541.815	84.69
542.269	87.29
542.722	87.69
543.175	84.89
543.629	87.19
544.082	82.59
544.536	78.29
544.989	81.79
545.442	91.79
545.895	81.69
546.349	85.69
546.802	84.59
547.255	79.79
547.708	82.09
548.161	87.59
548.614	83.99
549.067	85.29
549.52	85.39
549.973	82.19
550.426	86.99
550.879	84.59
551.332	88.49
551.785	88.69
552.238	89.59
552.691	81.19
553.144	81.69
553.596	83.39
554.049	84.19
554.502	86.79
554.955	90.59
555.407	84.79
555.86	85.79
556.313	85.09
556.765	85.49
557.218	81.99
557.67	81.09
558.123	83.29
558.576	83.89
559.028	83.69
559.48	82.99
559.933	84.99
560.385	87.69
560.838	80.69
561.29	87.59
561.742	85.09
562.195	86.49
562.647	84.59
563.099	84.29
563.551	85.39
564.004	88.59
564.456	84.39
564.908	85.29
565.36	88.79
565.812	83.19
566.264	85.19
566.716	82.19
567.168	81.09
567.62	93.39
568.072	87.99
568.524	81.89
568.976	87.59
569.428	82.79
569.88	85.59
570.332	76.59
570.784	82.59
571.235	88.59
571.687	84.39
572.139	91.29
572.59	88.39
573.042	83.59
573.494	85.29
573.945	87.59
574.397	85.29
574.849	86.79
575.3	86.19
575.752	86.99
576.203	91.39
576.655	87.79
577.106	85.69
577.557	91.29
578.009	87.29
578.46	86.19
578.912	84.39
579.363	85.89
579.814	86.79
580.265	83.59
580.717	92.19
581.168	83.99
581.619	82.99
582.07	87.19
582.521	86.79
582.972	81.99
583.423	86.89
583.875	83.69
584.326	83.19
584.777	92.19
585.227	88.39
585.678	86.29
586.129	87.99
586.58	87.59
587.031	87.69
587.482	86.39
587.933	85.79
588.384	86.79
588.834	85.39
589.285	82.59
589.736	87.09
590.186	83.49
590.637	90.39
591.088	88.39
591.538	84.69
591.989	90.29
592.439	86.89
592.89	82.59
593.34	86.79
593.791	84.99
594.241	86.79
594.692	82.99
595.142	84.19
595.593	86.09
596.043	81.69
596.493	90.29
596.943	87.89
597.394	86.69
597.844	84.39
598.294	83.29
598.744	84.69
599.195	91.09
599.645	85.29
600.095	88.39
600.545	86.09
600.995	86.79
601.445	86.09
601.895	86.49
602.345	89.19
602.795	86.49
603.245	85.09
603.695	84.69
604.145	90.29
604.594	83.99
605.044	86.59
605.494	87.49
605.944	83.99
606.393	83.99
606.843	78.79
607.293	83.89
607.743	86.39
608.192	87.89
608.642	89.49
609.091	80.99
609.541	89.59
609.99	88.99
610.44	87.79
610.889	86.29
611.339	82.99
611.788	83.39
612.238	77.89
612.687	83.29
613.136	80.39
613.586	86.59
614.035	83.09
614.484	84.69
614.933	86.89
615.383	84.19
615.832	86.49
616.281	86.19
616.73	83.59
617.179	84.99
617.628	83.59
618.077	86.09
618.526	84.69
618.975	90.39
619.424	85.09
619.873	83.49
620.322	85.59
620.771	83.29
621.22	82.69
621.669	82.49
622.118	85.69
622.567	85.69
623.015	87.19
623.464	84.59
623.913	87.49
624.361	88.59
624.81	87.69
625.259	83.59
625.707	84.39
626.156	86.09
626.604	82.99
627.053	86.39
627.501	86.79
627.95	87.29
628.398	81.49
628.847	83.59
629.295	85.89
629.744	82.19
630.192	78.99
630.64	79.49
631.089	86.69
631.537	85.29
631.985	82.89
632.433	86.69
632.881	80.59
633.33	81.69
633.778	84.39
634.226	82.39
634.674	86.79
635.122	87.49
635.57	84.29
636.018	83.59
636.466	85.59
636.914	81.79
637.362	81.39
637.81	82.99
638.258	82.29
638.705	86.69
639.153	84.59
639.601	81.19
640.049	84.69
640.497	82.59
640.944	86.89
641.392	82.49
641.84	80.09
642.287	81.99
642.735	85.69
643.182	84.79
643.63	82.79
644.078	85.79
644.525	82.39
644.973	88.49
645.42	82.39
645.867	88.09
646.315	80.69
646.762	88.19
647.21	87.29
647.657	83.59
648.104	84.69
648.551	88.79
648.999	83.89
649.446	89.69
649.893	78.39
650.34	85.89
650.787	83.39
651.234	79.99
651.682	80.49
652.129	83.79
652.576	88.19
653.023	91.19
653.47	94.39
653.917	97.49
654.363	102.89
654.81	104.99
655.257	103.69
655.704	92.09
656.151	85.89
656.598	88.79
657.044	86.49
657.491	80.49
657.938	84.29
658.385	85.09
658.831	83.39
659.278	86.79
659.724	85.69
660.171	85.29
660.618	87.19
661.064	80.19
661.511	83.29
661.957	83.59
662.404	84.79
662.85	86.49
663.296	81.29
663.743	81.69
664.189	82.29
664.635	86.99
665.082	86.49
665.528	84.99
665.974	80.39
666.42	82.99
666.867	79.49
667.313	84.49
667.759	84.59
668.205	86.79
668.651	85.59
669.097	79.89
669.543	83.19
669.989	85.29
670.435	87.99
670.881	87.69
671.327	87.29
671.773	83.09
672.219	85.09
672.665	84.69
673.11	81.69
673.556	90.69
674.002	87.39
674.448	84.39
674.893	85.99
675.339	81.19
675.785	87.49
676.23	83.49
676.676	85.19
677.122	81.89
677.567	84.59
678.013	80.49
678.458	87.59
678.904	84.79
679.349	83.29
679.794	81.69
680.24	86.19
680.685	81.59
681.131	86.89
681.576	88.09
682.021	84.09
682.466	83.99
682.912	82.49
683.357	88.49
683.802	88.09
684.247	87.79
684.692	90.19
685.137	86.99
685.583	83.59
686.028	82.29
686.473	86.49
686.918	88.49
687.363	85.49
687.807	85.39
688.252	83.09
688.697	85.09
689.142	81.99
689.587	82.49
690.032	78.89
690.477	84.69
690.921	82.89
691.366	85.99
691.811	82.09
692.255	81.69
692.7	86.19
693.145	84.49
693.589	87.29
694.034	87.69
694.478	83.59
694.923	82.29
695.367	81.29
695.812	85.99
696.256	84.99
696.701	83.49
697.145	85.59
697.59	81.29
698.034	85.49
698.478	82.39
698.922	86.09
699.367	82.99
699.811	81.89
700.255	83.29
700.699	82.19
701.143	83.19
701.588	84.29
702.032	82.09
702.476	85.79
702.92	84.49
703.364	83.39
703.808	83.49
704.252	88.69
704.696	86.09
705.14	82.19
705.584	82.79
706.027	85.99
706.471	88.09
706.915	80.69
707.359	85.59
707.803	83.09
708.246	84.89
708.69	85.99
709.134	83.09
709.577	85.19
710.021	84.49
710.465	84.49
710.908	84.49
711.352	85.79
711.795	79.79
712.239	87.59
712.682	82.59
713.126	82.79
713.569	85.29
714.012	83.49
714.456	87.59
714.899	86.09
715.342	85.99
715.786	85.69
716.229	87.49
716.672	85.59
717.115	84.19
717.558	83.29
718.002	78.39
718.445	83.29
718.888	87.09
719.331	89.49
719.774	85.59
720.217	86.69
720.66	84.59
721.103	91.19
721.546	83.99
721.989	85.79
722.432	81.79
722.874	86.19
723.317	88.09
723.76	87.69
724.203	87.29
724.645	84.39
725.088	83.29
725.531	84.79
725.974	82.69
726.416	80.19
726.859	84.39
727.301	84.59
727.744	87.49
728.187	88.59
728.629	88.99
729.071	85.59
729.514	81.89
729.956	81.89
730.399	88.59
730.841	83.09
731.283	84.39
731.726	82.09
732.168	81.99
732.61	87.79
733.053	83.09
733.495	85.59
733.937	82.59
734.379	86.49
734.821	82.49
735.263	89.79
735.705	83.39
736.148	88.99
736.59	85.19
737.032	80.89
737.474	87.79
737.916	81.99
738.357	87.19
738.799	92.09
739.241	85.29
739.683	84.99
740.125	87.19
740.567	88.99
741.008	84.29
741.45	86.19
741.892	83.59
742.334	87.19
742.775	84.79
743.217	88.29
743.658	83.79
744.1	85.09
744.542	85.79
744.983	86.89
745.425	86.19
745.866	82.79
746.307	88.39
746.749	91.49
747.19	85.09
747.632	88.09
748.073	82.09
748.514	86.19
748.956	81.99
749.397	83.49
749.838	87.89
750.279	87.19
750.72	84.89
751.162	83.89
751.603	86.89
752.044	86.89
752.485	87.39
752.926	85.19
753.367	83.79
753.808	88.79
754.249	80.59
754.69	82.09
755.131	80.79
755.572	82.49
756.013	83.19
756.453	84.69
756.894	85.19
757.335	85.79
757.776	85.09
758.216	90.39
758.657	84.19
759.098	85.49
759.538	86.19
759.979	85.99
760.42	87.09
760.86	85.09
761.301	86.29
761.741	81.69
762.182	85.89
762.622	83.19
763.063	86.49
763.503	82.29
763.943	85.09
764.384	86.09
764.824	86.69
765.264	86.99
765.705	82.49
766.145	84.29
766.585	85.99
767.025	82.69
767.465	82.79
767.906	88.39
768.346	92.89
768.786	86.79
769.226	82.49
769.666	86.59
770.106	90.89
770.546	85.89
770.986	84.69
771.426	81.49
771.866	86.49
772.306	85.19
772.745	85.09
773.185	87.89
773.625	85.69
774.065	82.79
774.505	85.29
774.944	82.89
775.384	77.29
775.824	85.99
776.263	83.39
776.703	82.69
777.142	82.89
777.582	85.29
778.021	83.39
778.461	87.59
778.9	84.79
779.34	88.09
779.779	83.09
780.219	85.29
780.658	83.69
781.097	83.79
781.537	83.09
781.976	82.79
782.415	89.69
782.855	80.39
783.294	81.09
783.733	78.29
784.172	90.29
784.611	88.79
785.05	84.49
785.489	84.49
785.928	83.09
786.367	89.49
786.806	88.39
787.245	84.79
787.684	85.59
788.123	87.19
788.562	85.19
789.001	82.79
789.44	80.39
789.879	83.59
790.317	83.09
790.756	81.89
791.195	89.99
791.634	84.89
792.072	86.19
792.511	77.09
792.95	81.79
793.388	78.79
793.827	86.19
794.265	82.99
794.704	87.99
795.142	87.69
795.581	83.89
796.019	87.69
796.458	87.59
796.896	88.49
797.334	83.99
797.773	85.89
798.211	81.69
798.649	82.59
799.087	82.99
799.526	88.59
799.964	85.49
800.402	84.29
800.84	88.19
801.278	84.49
801.716	88.29
802.154	86.29
802.592	80.99
803.03	87.29
803.468	81.59
803.906	84.69
804.344	86.89
804.782	88.79
805.22	81.09
805.658	80.79
806.096	86.69
806.533	82.79
806.971	88.99
807.409	86.49
807.847	89.09
808.284	82.69
808.722	85.79
809.16	84.79
809.597	84.39
810.035	83.09
810.472	84.39
810.91	83.49
811.347	87.69
811.785	86.19
812.222	83.89
812.66	82.09
813.097	80.69
813.535	86.09
813.972	86.49
814.409	83.09
814.846	88.19
815.284	85.09
815.721	81.69
816.158	86.29
816.595	80.89
817.032	89.19
817.47	84.09
817.907	84.39
818.344	87.49
818.781	86.79
819.218	84.89
819.655	83.69
820.092	81.29
820.529	84.29
820.966	82.09
821.403	82.69
821.839	85.29
822.276	83.99
822.713	88.59
823.15	88.69
823.587	86.99
824.023	83.59
824.46	88.99
824.897	83.49
825.333	81.99
825.77	85.29
826.206	86.39
826.643	82.89
827.08	85.69
827.516	83.89
827.953	78.29
828.389	85.89
828.825	85.49
829.262	85.79
829.698	88.49
830.135	83.79
830.571	86.59
831.007	93.39
831.443	80.69
831.88	85.79
832.316	83.29
832.752	92.69
833.188	88.29
833.624	90.39
834.06	84.19
834.497	80.89
834.933	82.79
835.369	84.59
835.805	85.99
836.241	89.39
836.677	84.89
837.112	90.69
837.548	81.39
837.984	85.99
838.42	85.39
838.856	84.59
839.292	86.19
839.727	83.29
840.163	87.19
840.599	87.99
841.034	82.79
841.47	83.29
841.906	84.39
842.341	85.29
842.777	88.79
843.212	87.69
843.648	82.49
844.083	78.79
844.519	84.29
844.954	83.59
845.39	81.39
845.825	83.19
846.261	84.79
846.696	84.59
847.131	83.79
847.566	89.59
848.002	85.29
848.437	83.59
848.872	82.89
849.307	87.79
849.742	84.29
850.177	86.59
850.613	85.79
851.048	83.69
851.483	84.89
851.918	79.29
852.353	84.99
852.788	83.69
853.223	89.29
853.657	87.79
854.092	86.39
854.527	81.09
854.962	86.49
855.397	80.09
855.832	85.99
856.266	86.19
856.701	85.99
857.136	82.79
857.57	88.19
858.005	86.39
858.44	81.19
858.874	81.79
859.309	86.29
859.743	82.89
860.178	81.59
860.612	86.89
861.047	86.39
861.481	88.69
861.915	91.99
862.35	86.79
862.784	85.89
863.218	82.29
863.653	81.49
864.087	88.09
864.521	88.29
864.955	84.19
865.39	87.49
865.824	81.19
866.258	82.99
866.692	83.49
867.126	86.39
867.56	86.29
867.994	82.89
868.428	87.19
868.862	87.29
869.296	81.49
869.73	84.99
870.164	84.69
870.598	86.99
871.031	82.79
871.465	79.79
871.899	88.99
872.333	87.89
872.766	81.99
873.2	80.89
873.634	84.89
874.067	84.49
874.501	83.69
874.935	79.09
875.368	82.09
875.802	85.19
876.235	85.39
876.669	84.79
877.102	83.29
877.535	82.29
877.969	81.19
878.402	85.59
878.836	85.19
879.269	90.99
879.702	85.19
880.135	82.59
880.569	83.59
881.002	85.79
881.435	90.99
881.868	84.99
882.301	85.89
882.734	81.19
883.167	82.79
883.601	86.79
884.034	86.29
884.467	83.09
884.899	83.39
885.332	82.49
885.765	82.69
886.198	82.89
886.631	86.79
887.064	84.59
887.497	84.39
887.929	83.79
888.362	82.99
888.795	84.19
889.228	79.89
889.66	79.89
890.093	88.29
890.526	85.79
890.958	82.89
891.391	81.79
891.823	84.79
892.256	84.29
892.688	84.89
893.121	88.99
893.553	78.99
893.985	83.39
894.418	84.99
894.85	79.89
895.282	82.69
895.715	81.29
896.147	81.29
896.579	80.69
897.011	82.29
897.444	82.69
897.876	85.29
898.308	80.49
898.74	82.79
899.172	78.89
899.604	79.39
900.036	83.69
900.468	92.19
900.9	82.89
901.332	84.69
901.764	80.49
902.196	79.99
902.628	82.29
903.06	86.49
903.491	81.79
903.923	80.79
904.355	84.39
904.787	89.39
905.218	81.19
905.65	88.19
906.082	84.89
906.513	83.59
906.945	88.49
907.376	80.79
907.808	86.29
908.239	81.59
908.671	85.79
909.102	82.99
909.534	80.69
909.965	89.29
910.397	86.19
910.828	84.69
911.259	80.89
911.691	86.69
912.122	84.79
912.553	80.69
912.984	81.69
913.415	83.89
913.847	81.39
914.278	75.79
914.709	82.39
915.14	84.09
915.571	78.99
916.002	86.29
916.433	84.59
916.864	83.99
917.295	81.89
917.726	82.29
918.157	87.99
918.587	82.39
919.018	81.99
919.449	79.29
919.88	81.79
920.311	91.89
920.741	83.19
921.172	79.69
921.603	84.49
922.033	80.99
922.464	80.39
922.895	78.59
923.325	74.79
923.756	81.89
924.186	80.99
924.617	81.39
925.047	83.39
925.478	82.49
925.908	85.49
926.338	82.29
926.769	85.29
927.199	86.39
927.629	83.79
928.06	83.59
928.49	87.09
928.92	88.99
929.35	85.49
929.78	82.09
930.21	85.89
930.641	85.39
931.071	83.19
931.501	80.69
931.931	84.29
932.361	82.89
932.791	84.59
933.221	84.79
933.651	84.19
934.08	81.29
934.51	83.89
934.94	86.19
935.37	81.09
935.8	82.19
936.229	88.29
936.659	86.49
937.089	85.49
937.519	86.49
937.948	82.29
938.378	84.09
938.807	83.39
939.237	83.89
939.666	87.29
940.096	82.99
940.525	76.99
940.955	86.59
941.384	79.99
941.814	81.19
942.243	80.29
942.672	87.79
943.102	81.79
943.531	83.99
943.96	81.99
944.39	85.49
944.819	85.69
945.248	81.69
945.677	86.39
946.106	83.29
946.535	84.59
946.964	82.69
947.393	84.39
947.822	83.09
948.251	81.99
948.68	80.79
949.109	85.49
949.538	83.69
949.967	79.79
950.396	83.59
950.825	86.19
951.254	81.79
951.682	82.29
952.111	82.79
952.54	79.59
952.969	83.39
953.397	81.89
953.826	83.29
954.254	84.69
954.683	84.89
955.112	86.19
955.54	82.09
955.969	84.69
956.397	81.99
956.826	85.89
957.254	86.09
957.682	85.49
958.111	80.69
958.539	87.29
958.967	81.09
959.396	81.69
959.824	85.69
960.252	75.79
960.68	81.79
961.109	83.59
961.537	82.29
961.965	82.09
962.393	79.59
962.821	86.19
963.249	79.09
963.677	85.49
964.105	81.79
964.533	84.49
964.961	83.39
965.389	83.49
965.817	84.39
966.245	84.29
966.672	83.49
967.1	85.59
967.528	86.29
967.956	80.69
968.383	83.69
968.811	84.69
969.239	80.89
969.666	81.99
970.094	80.99
970.522	82.09
970.949	83.99
971.377	81.49
971.804	82.19
972.232	82.39
972.659	84.69
973.087	82.19
973.514	85.89
973.941	84.29
974.369	81.09
974.796	84.39
975.223	86.69
975.651	89.29
976.078	80.79
976.505	79.09
976.932	81.09
977.359	84.99
977.786	81.09
978.214	85.59
978.641	82.39
979.068	85.29
979.495	86.19
979.922	82.19
980.349	79.59
980.776	76.69
981.202	81.59
981.629	81.99
982.056	78.09
982.483	84.49
982.91	81.39
983.337	82.49
983.763	79.09
984.19	83.49
984.617	84.59
985.043	86.89
985.47	85.39
985.897	80.29
986.323	80.79
986.75	86.69
987.176	82.39
987.603	83.09
988.029	81.49
988.456	81.09
988.882	84.29
989.308	81.99
989.735	84.49
990.161	82.99
990.587	80.19
991.014	88.29
991.44	85.19
991.866	87.49
992.292	87.09
992.719	86.99
993.145	82.09
993.571	85.19
993.997	87.29
994.423	80.89
994.849	85.59
995.275	86.49
995.701	81.19
996.127	86.29
996.553	79.09
996.979	83.09
997.405	81.79
997.83	85.39
998.256	81.89
998.682	81.09
999.108	83.69
999.534	82.99
999.959	78.99
1000.385	81.99
1000.811	78.69
1001.236	88.89
1001.662	83.19
1002.087	84.09
1002.513	79.19
1002.938	78.29
1003.364	77.79
1003.789	80.79
1004.215	80.09
1004.64	85.29
1005.066	86.59
1005.491	85.89
1005.916	82.69
1006.342	78.89
1006.767	81.49
1007.192	80.89
1007.617	82.59
1008.042	85.19
1008.468	84.49
1008.893	86.79
1009.318	85.39
1009.743	80.89
1010.168	77.99
1010.593	84.69
1011.018	80.69
1011.443	81.79
1011.868	83.99
1012.293	81.49
1012.718	84.69
1013.143	82.79
1013.567	78.79
1013.992	82.49
1014.417	85.69
1014.842	86.69
1015.267	81.99
1015.691	82.19
1016.116	85.69
1016.541	83.39
1016.965	85.59
1017.39	82.49
1017.814	84.99
1018.239	83.49
1018.663	86.59
1019.088	81.29
1019.512	85.79
1019.937	82.09
1020.361	79.19
1020.785	78.89
1021.21	87.09
1021.634	82.89
1022.058	81.39
1022.483	79.09
1022.907	83.19
1023.331	80.19
1023.755	74.89
1024.179	79.79
1024.604	85.79
1025.028	76.39
1025.452	82.69
1025.876	84.59
1026.3	82.19
1026.724	79.89
1027.148	87.09
1027.572	80.89
1027.996	79.89
1028.42	78.49
1028.843	83.29
1029.267	78.59
1029.691	85.69
1030.115	87.79
1030.539	79.09
1030.962	81.39
1031.386	82.79
1031.81	87.39
1032.233	77.59
1032.657	84.69
1033.08	86.09
1033.504	80.49
1033.927	78.69
1034.351	82.19
1034.774	84.19
1035.198	85.59
1035.621	79.79
1036.045	86.99
1036.468	82.79
1036.891	80.29
1037.315	81.19
1037.738	81.59
1038.161	83.89
1038.584	79.79
1039.008	83.09
1039.431	84.89
1039.854	90.19
1040.277	81.69
1040.7	75.59
1041.123	82.19
1041.546	87.59
1041.969	81.89
1042.392	83.79
1042.815	83.29
1043.238	80.69
1043.661	85.59
1044.084	79.99
1044.507	83.99
1044.93	85.39
1045.352	85.29
1045.775	85.19
1046.198	80.69
1046.621	83.79
1047.043	85.59
1047.466	82.79
1047.889	84.69
1048.311	85.79
1048.734	85.49
1049.156	80.99
1049.579	78.39
1050.001	82.19
1050.424	81.49
1050.846	87.99
1051.269	82.39
1051.691	85.19
1052.113	86.09
1052.536	84.39
1052.958	79.99
1053.38	85.19
1053.802	80.49
1054.225	79.79
1054.647	79.79
1055.069	78.39
1055.491	81.49
1055.913	84.39
1056.335	83.59
1056.757	81.59
1057.179	87.89
1057.601	84.29
1058.023	80.19
1058.445	80.29
1058.867	82.29
1059.289	82.19
1059.711	85.49
1060.133	82.59
1060.555	76.19
1060.976	84.89
1061.398	86.69
1061.82	88.29
1062.241	81.49
1062.663	84.39
1063.085	83.69
1063.506	80.79
1063.928	84.19
1064.35	82.39
1064.771	79.49
1065.193	83.99
1065.614	83.59
1066.035	78.69
1066.457	82.19
1066.878	84.89
1067.3	85.89
1067.721	81.59
1068.142	78.39
1068.564	84.79
1068.985	82.99
1069.406	80.79
1069.827	77.59
1070.248	84.39
1070.67	81.59
1071.091	83.79
1071.512	83.09
1071.933	78.79
1072.354	80.89
1072.775	80.79
1073.196	86.69
1073.617	82.49
1074.038	82.99
1074.459	83.29
1074.88	82.59
1075.3	83.09
1075.721	83.29
1076.142	83.49
1076.563	81.99
1076.983	86.39
1077.404	79.59
1077.825	81.89
1078.246	80.99
1078.666	81.29
1079.087	81.89
1079.507	78.49
1079.928	82.19
1080.348	85.49
1080.769	83.29
1081.189	91.09
1081.61	87.29
1082.03	84.29
1082.451	84.19
1082.871	80.19
1083.291	87.79
1083.711	86.79
1084.132	86.69
1084.552	82.49
1084.972	87.09
1085.392	83.79
1085.813	87.09
1086.233	80.49
1086.653	80.09
1087.073	85.49
1087.493	84.39
1087.913	84.89
1088.333	79.69
1088.753	81.49
1089.173	82.09
1089.593	80.99
1090.013	79.89
1090.433	80.39
1090.852	84.19
1091.272	89.09
1091.692	86.29
1092.112	83.99
1092.531	81.39
1092.951	81.69
1093.371	86.39
1093.79	91.39
1094.21	88.49
1094.63	84.19
1095.049	82.19
1095.469	80.29
1095.888	84.59
1096.308	84.99
1096.727	86.99
1097.146	89.29
1097.566	85.69
1097.985	80.09
1098.405	77.89
1098.824	81.29
1099.243	77.89
1099.662	80.59
1100.082	83.99
1100.501	81.89
1100.92	87.99
1101.339	81.39
1101.758	89.09
