Data from DH-3PlusCalLight-Background_HRD10391_13-40-40-844.txt Node
Date: Thu Feb 15 13:40:40 EST 2018
User: Ender
Spectrometer: HR+D1039
Trigger mode: 0
Integration Time (sec): 2.730000E-2
Scans to average: 10
Electric dark correction enabled: true
Nonlinearity correction enabled: false
Boxcar width: 0
XAxis mode: Wavelengths
Number of Pixels in Spectrum: 2048
>>>>>Begin Spectral Data<<<<<
187.836	-0.77
188.309	-0.77
188.782	-0.77
189.255	-2.57
189.728	-11.27
190.201	-4.37
190.674	-9.17
191.147	-14.07
191.619	-7.17
192.092	-7.37
192.565	-5.07
193.038	1.13
193.511	1.03
193.984	3.73
194.456	8.33
194.929	11.13
195.402	15.03
195.874	21.43
196.347	19.83
196.82	21.83
197.292	22.63
197.765	31.83
198.237	39.93
198.71	42.63
199.182	44.73
199.655	46.03
200.127	56.23
200.6	59.33
201.072	53.13
201.544	58.23
202.017	61.73
202.489	62.73
202.961	65.63
203.433	76.13
203.906	73.33
204.378	71.93
204.85	74.33
205.322	77.43
205.794	77.73
206.266	78.33
206.739	82.23
207.211	83.73
207.683	82.83
208.155	81.33
208.627	81.83
209.099	85.73
209.57	83.93
210.042	86.53
210.514	82.43
210.986	81.93
211.458	80.23
211.93	81.33
212.402	81.53
212.873	80.23
213.345	80.93
213.817	79.53
214.288	86.33
214.76	79.83
215.232	79.53
215.703	81.23
216.175	82.13
216.646	84.23
217.118	83.93
217.589	80.33
218.061	79.53
218.532	77.53
219.004	75.53
219.475	76.53
219.946	78.33
220.418	76.13
220.889	80.13
221.36	74.13
221.832	76.13
222.303	79.93
222.774	76.03
223.245	77.23
223.717	77.93
224.188	72.23
224.659	73.43
225.13	74.13
225.601	74.43
226.072	78.73
226.543	75.43
227.014	72.43
227.485	70.53
227.956	78.53
228.427	76.53
228.898	75.13
229.369	76.33
229.839	71.53
230.31	73.73
230.781	74.23
231.252	74.53
231.722	77.53
232.193	77.33
232.664	77.43
233.135	78.03
233.605	73.13
234.076	74.13
234.546	76.93
235.017	78.93
235.487	73.23
235.958	79.13
236.428	74.83
236.899	78.23
237.369	73.33
237.84	79.33
238.31	78.83
238.78	76.43
239.251	77.63
239.721	80.73
240.191	77.23
240.662	80.63
241.132	80.43
241.602	81.03
242.072	76.93
242.542	74.53
243.013	77.93
243.483	81.93
243.953	80.83
244.423	75.93
244.893	78.03
245.363	79.43
245.833	76.53
246.303	79.73
246.773	78.23
247.243	80.03
247.712	80.13
248.182	80.93
248.652	84.93
249.122	79.03
249.592	78.23
250.061	75.13
250.531	77.03
251.001	80.93
251.471	75.43
251.94	76.73
252.41	82.83
252.879	77.73
253.349	79.73
253.818	81.23
254.288	78.13
254.757	86.83
255.227	76.43
255.696	82.63
256.166	78.33
256.635	79.53
257.105	79.33
257.574	79.23
258.043	80.53
258.513	79.03
258.982	80.53
259.451	78.83
259.92	80.23
260.389	81.83
260.859	75.23
261.328	83.83
261.797	80.13
262.266	80.03
262.735	77.63
263.204	77.33
263.673	79.03
264.142	83.93
264.611	77.23
265.08	79.43
265.549	77.03
266.018	79.73
266.487	81.93
266.955	77.63
267.424	84.93
267.893	79.73
268.362	81.43
268.83	85.63
269.299	80.83
269.768	78.23
270.236	80.33
270.705	81.33
271.174	81.43
271.642	79.53
272.111	80.23
272.579	80.43
273.048	84.73
273.516	79.23
273.985	78.03
274.453	81.13
274.922	81.93
275.39	79.13
275.858	78.73
276.327	79.23
276.795	79.93
277.263	81.73
277.731	80.13
278.2	77.53
278.668	81.73
279.136	80.23
279.604	78.03
280.072	75.33
280.54	76.33
281.008	82.23
281.477	80.23
281.945	81.83
282.413	78.33
282.881	83.33
283.348	83.63
283.816	84.13
284.284	80.63
284.752	77.93
285.22	84.43
285.688	82.23
286.156	77.33
286.623	78.73
287.091	85.63
287.559	83.03
288.026	87.23
288.494	79.83
288.962	80.23
289.429	84.53
289.897	82.83
290.364	76.23
290.832	84.03
291.3	79.93
291.767	79.53
292.234	82.53
292.702	88.03
293.169	82.33
293.637	80.83
294.104	76.83
294.571	82.63
295.039	76.73
295.506	78.33
295.973	82.43
296.44	80.73
296.908	79.83
297.375	79.73
297.842	87.33
298.309	82.83
298.776	82.03
299.243	75.63
299.71	80.43
300.177	85.23
300.644	75.73
301.111	80.53
301.578	85.03
302.045	83.63
302.512	77.33
302.979	78.53
303.446	80.73
303.913	81.23
304.379	81.73
304.846	83.23
305.313	76.63
305.78	82.03
306.246	83.83
306.713	74.53
307.18	84.13
307.646	83.83
308.113	81.73
308.579	80.33
309.046	85.73
309.512	79.53
309.979	86.73
310.445	81.63
310.912	78.93
311.378	78.73
311.845	80.43
312.311	83.63
312.777	83.13
313.244	84.83
313.71	80.93
314.176	81.93
314.642	81.53
315.109	82.13
315.575	85.63
316.041	82.13
316.507	81.23
316.973	77.53
317.439	81.63
317.905	87.23
318.371	85.43
318.837	81.53
319.303	78.83
319.769	84.83
320.235	79.23
320.701	83.23
321.167	84.63
321.633	77.23
322.099	84.03
322.564	78.73
323.03	84.33
323.496	80.23
323.962	80.73
324.427	85.93
324.893	83.03
325.359	80.03
325.824	83.43
326.29	78.93
326.755	81.33
327.221	81.63
327.686	84.13
328.152	80.03
328.617	84.63
329.083	83.33
329.548	81.23
330.014	76.73
330.479	83.93
330.944	82.93
331.41	90.23
331.875	76.83
332.34	77.73
332.805	81.53
333.271	84.33
333.736	87.73
334.201	79.93
334.666	80.83
335.131	79.23
335.596	77.53
336.061	80.03
336.526	79.43
336.991	86.43
337.456	83.93
337.921	84.03
338.386	85.83
338.851	85.33
339.316	80.73
339.781	83.03
340.246	81.13
340.711	82.53
341.175	83.43
341.64	79.63
342.105	87.13
342.569	74.03
343.034	86.63
343.499	82.73
343.963	78.53
344.428	80.73
344.893	85.43
345.357	84.33
345.822	82.73
346.286	80.83
346.751	84.73
347.215	82.63
347.679	82.33
348.144	82.83
348.608	79.73
349.073	80.53
349.537	82.33
350.001	85.03
350.465	82.93
350.93	84.93
351.394	84.43
351.858	86.63
352.322	82.23
352.786	81.73
353.25	82.83
353.715	86.63
354.179	83.53
354.643	86.23
355.107	87.73
355.571	82.93
356.035	84.33
356.498	81.43
356.962	84.53
357.426	86.13
357.89	85.63
358.354	85.23
358.818	82.83
359.281	80.23
359.745	82.33
360.209	82.23
360.673	83.23
361.136	88.53
361.6	81.63
362.064	92.13
362.527	82.03
362.991	82.03
363.454	83.33
363.918	82.73
364.381	85.53
364.845	78.03
365.308	88.03
365.772	83.93
366.235	85.13
366.698	77.33
367.162	84.33
367.625	83.33
368.088	85.63
368.552	85.13
369.015	85.13
369.478	77.53
369.941	85.23
370.404	81.13
370.867	76.53
371.331	78.73
371.794	83.03
372.257	78.53
372.72	81.83
373.183	77.83
373.646	83.63
374.109	82.73
374.572	78.13
375.035	79.63
375.497	83.33
375.96	85.13
376.423	86.43
376.886	81.03
377.349	80.53
377.811	86.33
378.274	84.93
378.737	81.63
379.199	84.13
379.662	82.43
380.125	86.93
380.587	85.03
381.05	84.63
381.512	84.43
381.975	84.23
382.437	81.33
382.9	84.43
383.362	86.33
383.825	78.73
384.287	85.53
384.75	79.63
385.212	78.63
385.674	81.73
386.136	84.93
386.599	79.13
387.061	83.93
387.523	81.73
387.985	78.03
388.447	86.23
388.91	79.03
389.372	79.63
389.834	76.13
390.296	85.13
390.758	85.83
391.22	82.03
391.682	82.13
392.144	83.73
392.606	83.43
393.068	81.63
393.529	84.13
393.991	76.53
394.453	83.43
394.915	87.93
395.377	84.33
395.838	81.03
396.3	80.63
396.762	83.53
397.224	87.23
397.685	84.33
398.147	84.13
398.608	83.43
399.07	79.43
399.531	77.23
399.993	81.83
400.454	82.03
400.916	80.23
401.377	84.43
401.839	81.63
402.3	84.93
402.762	83.33
403.223	82.53
403.684	86.03
404.145	79.43
404.607	85.33
405.068	84.33
405.529	85.13
405.99	82.23
406.451	83.33
406.913	76.53
407.374	83.63
407.835	82.73
408.296	81.43
408.757	82.13
409.218	81.43
409.679	85.63
410.14	81.53
410.601	81.73
411.062	84.63
411.522	81.03
411.983	80.53
412.444	82.13
412.905	79.93
413.366	83.13
413.826	87.63
414.287	84.13
414.748	86.63
415.208	81.43
415.669	79.63
416.13	80.53
416.59	84.13
417.051	81.73
417.511	82.43
417.972	84.03
418.432	82.23
418.893	82.93
419.353	84.73
419.814	85.23
420.274	81.83
420.734	87.63
421.195	83.13
421.655	79.73
422.115	83.83
422.576	85.93
423.036	79.33
423.496	84.63
423.956	82.83
424.416	84.83
424.876	78.53
425.336	84.93
425.797	78.83
426.257	81.13
426.717	81.23
427.177	81.23
427.637	83.33
428.097	86.33
428.556	79.53
429.016	86.13
429.476	83.23
429.936	82.23
430.396	79.83
430.856	85.03
431.315	81.63
431.775	85.53
432.235	89.03
432.694	83.93
433.154	85.23
433.614	81.13
434.073	86.83
434.533	83.13
434.993	81.93
435.452	81.53
435.912	82.83
436.371	82.13
436.83	86.53
437.29	83.93
437.749	84.13
438.209	86.33
438.668	87.03
439.127	83.73
439.587	81.53
440.046	83.13
440.505	83.43
440.964	86.83
441.424	86.63
441.883	83.03
442.342	81.33
442.801	83.63
443.26	85.83
443.719	83.83
444.178	82.03
444.637	83.73
445.096	81.53
445.555	81.13
446.014	83.73
446.473	83.43
446.932	83.93
447.391	82.93
447.849	87.53
448.308	83.83
448.767	83.83
449.226	86.83
449.685	82.73
450.143	83.83
450.602	81.23
451.061	84.03
451.519	86.13
451.978	81.73
452.436	86.83
452.895	78.53
453.353	89.93
453.812	87.13
454.27	87.53
454.729	88.13
455.187	81.33
455.646	85.83
456.104	85.63
456.562	90.23
457.021	86.33
457.479	83.43
457.937	83.43
458.395	80.83
458.854	88.63
459.312	84.33
459.77	86.03
460.228	84.33
460.686	88.23
461.144	82.33
461.602	86.23
462.06	83.93
462.518	85.33
462.976	90.33
463.434	79.43
463.892	84.13
464.35	84.93
464.808	88.93
465.266	86.53
465.724	85.13
466.181	86.83
466.639	84.63
467.097	84.23
467.555	89.53
468.012	87.23
468.47	84.93
468.928	86.63
469.385	87.63
469.843	86.03
470.3	83.83
470.758	88.53
471.215	83.93
471.673	85.73
472.13	88.53
472.588	84.83
473.045	89.03
473.503	83.93
473.96	82.33
474.417	90.43
474.875	88.73
475.332	93.23
475.789	87.93
476.246	83.83
476.704	83.23
477.161	85.63
477.618	86.83
478.075	90.03
478.532	86.73
478.989	85.33
479.446	86.93
479.903	86.53
480.36	84.33
480.817	84.83
481.274	86.13
481.731	88.53
482.188	92.83
482.645	90.63
483.102	91.63
483.558	91.03
484.015	86.43
484.472	90.53
484.929	94.83
485.385	95.93
485.842	96.33
486.299	87.83
486.755	91.83
487.212	86.23
487.668	91.33
488.125	93.73
488.582	84.73
489.038	90.43
489.494	88.53
489.951	87.63
490.407	87.03
490.864	90.23
491.32	88.23
491.776	85.73
492.233	89.33
492.689	86.33
493.145	90.33
493.602	91.53
494.058	91.23
494.514	91.93
494.97	90.73
495.426	90.23
495.882	89.13
496.338	89.33
496.794	94.03
497.251	90.53
497.707	90.53
498.163	86.33
498.618	88.23
499.074	91.13
499.53	97.03
499.986	88.83
500.442	90.03
500.898	91.63
501.354	91.83
501.809	92.83
502.265	96.53
502.721	87.53
503.177	84.83
503.632	87.03
504.088	94.33
504.543	90.73
504.999	92.43
505.455	87.93
505.91	96.93
506.366	86.13
506.821	88.83
507.277	87.03
507.732	88.73
508.187	83.33
508.643	90.23
509.098	86.43
509.553	89.13
510.009	94.43
510.464	88.13
510.919	92.33
511.375	85.93
511.83	90.23
512.285	92.43
512.74	94.93
513.195	89.83
513.65	90.73
514.105	90.03
514.56	89.23
515.015	91.13
515.47	84.63
515.925	90.03
516.38	90.33
516.835	90.73
517.29	89.43
517.745	92.73
518.2	97.23
518.655	89.03
519.109	91.13
519.564	94.23
520.019	90.63
520.474	95.33
520.928	93.73
521.383	96.23
521.838	93.23
522.292	91.13
522.747	92.83
523.201	93.03
523.656	91.33
524.11	91.73
524.565	93.93
525.019	89.63
525.474	83.13
525.928	89.23
526.382	92.53
526.837	89.03
527.291	91.93
527.745	90.53
528.2	94.93
528.654	94.63
529.108	87.93
529.562	89.53
530.016	90.23
530.47	94.63
530.925	88.13
531.379	91.73
531.833	89.13
532.287	95.33
532.741	91.53
533.195	90.33
533.649	90.73
534.103	89.23
534.556	89.33
535.01	87.23
535.464	90.93
535.918	95.73
536.372	96.23
536.826	90.93
537.279	91.43
537.733	89.63
538.187	93.83
538.64	88.33
539.094	90.43
539.548	88.93
540.001	88.13
540.455	90.53
540.908	93.53
541.362	95.03
541.815	89.33
542.269	90.73
542.722	90.93
543.175	96.13
543.629	85.63
544.082	91.23
544.536	94.83
544.989	91.03
545.442	89.73
545.895	90.73
546.349	85.83
546.802	86.73
547.255	87.63
547.708	88.03
548.161	89.03
548.614	94.03
549.067	94.13
549.52	89.23
549.973	89.83
550.426	82.33
550.879	92.63
551.332	92.53
551.785	91.33
552.238	95.03
552.691	86.43
553.144	90.83
553.596	90.93
554.049	94.53
554.502	89.13
554.955	90.33
555.407	87.13
555.86	88.33
556.313	92.93
556.765	91.83
557.218	92.43
557.67	90.23
558.123	95.83
558.576	88.83
559.028	89.43
559.48	88.53
559.933	90.03
560.385	87.23
560.838	89.83
561.29	88.73
561.742	88.33
562.195	89.63
562.647	86.33
563.099	90.33
563.551	91.33
564.004	91.13
564.456	89.83
564.908	87.53
565.36	94.13
565.812	92.23
566.264	94.93
566.716	91.73
567.168	93.73
567.62	91.03
568.072	88.53
568.524	87.43
568.976	93.43
569.428	91.53
569.88	89.73
570.332	85.73
570.784	90.33
571.235	90.63
571.687	88.73
572.139	94.93
572.59	83.03
573.042	90.93
573.494	89.53
573.945	88.43
574.397	91.73
574.849	93.33
575.3	87.93
575.752	89.53
576.203	89.33
576.655	91.43
577.106	86.83
577.557	94.53
578.009	92.33
578.46	96.13
578.912	89.33
579.363	90.63
579.814	91.23
580.265	93.13
580.717	89.23
581.168	84.93
581.619	89.53
582.07	90.13
582.521	90.93
582.972	93.03
583.423	88.93
583.875	89.43
584.326	90.73
584.777	88.83
585.227	95.13
585.678	91.23
586.129	91.53
586.58	90.23
587.031	87.73
587.482	90.43
587.933	92.63
588.384	87.53
588.834	91.63
589.285	88.23
589.736	91.23
590.186	89.43
590.637	91.13
591.088	90.03
591.538	87.83
591.989	87.23
592.439	85.63
592.89	95.43
593.34	89.43
593.791	97.33
594.241	89.63
594.692	87.03
595.142	89.93
595.593	92.73
596.043	97.03
596.493	90.73
596.943	90.43
597.394	86.63
597.844	92.73
598.294	89.63
598.744	88.23
599.195	91.13
599.645	91.63
600.095	92.73
600.545	91.63
600.995	89.93
601.445	92.13
601.895	91.03
602.345	94.23
602.795	89.03
603.245	91.03
603.695	92.83
604.145	93.63
604.594	93.33
605.044	91.23
605.494	94.23
605.944	88.13
606.393	91.73
606.843	95.43
607.293	91.73
607.743	91.03
608.192	91.33
608.642	89.83
609.091	88.93
609.541	89.83
609.99	88.83
610.44	90.33
610.889	87.43
611.339	88.93
611.788	89.93
612.238	91.73
612.687	88.33
613.136	87.23
613.586	94.03
614.035	87.43
614.484	95.23
614.933	88.33
615.383	96.73
615.832	92.33
616.281	86.73
616.73	92.43
617.179	90.73
617.628	91.33
618.077	90.13
618.526	93.53
618.975	93.23
619.424	89.23
619.873	91.93
620.322	93.23
620.771	91.63
621.22	89.43
621.669	93.13
622.118	89.33
622.567	90.63
623.015	87.73
623.464	92.53
623.913	88.73
624.361	90.23
624.81	90.53
625.259	91.33
625.707	88.13
626.156	88.33
626.604	88.13
627.053	91.03
627.501	92.33
627.95	90.43
628.398	92.53
628.847	88.03
629.295	87.73
629.744	93.03
630.192	91.63
630.64	87.43
631.089	94.43
631.537	93.13
631.985	93.13
632.433	89.13
632.881	91.53
633.33	90.63
633.778	93.93
634.226	97.43
634.674	85.33
635.122	92.13
635.57	90.63
636.018	99.33
636.466	92.23
636.914	90.63
637.362	90.23
637.81	92.23
638.258	88.83
638.705	96.13
639.153	91.83
639.601	91.23
640.049	89.73
640.497	88.13
640.944	89.23
641.392	92.33
641.84	87.13
642.287	94.03
642.735	97.33
643.182	90.53
643.63	87.23
644.078	92.83
644.525	91.93
644.973	92.13
645.42	92.13
645.867	90.93
646.315	91.03
646.762	92.33
647.21	90.73
647.657	91.83
648.104	95.83
648.551	90.33
648.999	89.93
649.446	89.43
649.893	89.33
650.34	93.23
650.787	83.63
651.234	86.63
651.682	86.73
652.129	93.63
652.576	95.43
653.023	90.83
653.47	89.03
653.917	89.83
654.363	92.33
654.81	90.43
655.257	89.63
655.704	93.33
656.151	91.53
656.598	92.03
657.044	89.63
657.491	89.73
657.938	93.23
658.385	92.53
658.831	89.13
659.278	86.23
659.724	91.63
660.171	92.53
660.618	89.53
661.064	90.43
661.511	93.43
661.957	89.93
662.404	92.93
662.85	87.53
663.296	93.23
663.743	91.33
664.189	93.53
664.635	93.83
665.082	90.53
665.528	90.43
665.974	90.93
666.42	90.33
666.867	91.63
667.313	92.73
667.759	89.43
668.205	85.93
668.651	94.63
669.097	89.63
669.543	95.03
669.989	87.73
670.435	93.23
670.881	86.93
671.327	89.53
671.773	90.73
672.219	87.33
672.665	86.13
673.11	90.93
673.556	92.63
674.002	93.73
674.448	90.13
674.893	88.03
675.339	87.33
675.785	92.83
676.23	84.13
676.676	93.43
677.122	93.33
677.567	90.53
678.013	91.53
678.458	93.63
678.904	87.53
679.349	91.63
679.794	92.23
680.24	88.03
680.685	92.53
681.131	91.53
681.576	90.93
682.021	89.53
682.466	89.83
682.912	90.83
683.357	94.13
683.802	92.03
684.247	91.93
684.692	90.33
685.137	93.03
685.583	90.43
686.028	95.13
686.473	95.83
686.918	90.23
687.363	90.73
687.807	89.23
688.252	88.13
688.697	93.43
689.142	90.43
689.587	90.73
690.032	90.93
690.477	94.73
690.921	84.03
691.366	88.43
691.811	88.63
692.255	90.23
692.7	93.33
693.145	86.83
693.589	89.73
694.034	94.03
694.478	85.13
694.923	85.83
695.367	86.63
695.812	88.63
696.256	87.93
696.701	91.93
697.145	86.13
697.59	87.23
698.034	89.33
698.478	89.53
698.922	90.83
699.367	81.73
699.811	88.33
700.255	89.23
700.699	91.93
701.143	88.03
701.588	93.53
702.032	93.43
702.476	87.23
702.92	92.23
703.364	97.63
703.808	93.43
704.252	89.73
704.696	86.43
705.14	83.53
705.584	88.53
706.027	85.53
706.471	91.03
706.915	91.83
707.359	89.73
707.803	90.33
708.246	87.93
708.69	86.53
709.134	90.13
709.577	89.23
710.021	86.43
710.465	88.43
710.908	88.23
711.352	90.83
711.795	91.23
712.239	89.13
712.682	87.73
713.126	86.93
713.569	85.53
714.012	92.23
714.456	86.63
714.899	94.23
715.342	93.53
715.786	88.43
716.229	86.33
716.672	89.73
717.115	87.03
717.558	89.43
718.002	91.53
718.445	91.73
718.888	83.63
719.331	88.53
719.774	87.93
720.217	92.43
720.66	88.03
721.103	83.63
721.546	86.13
721.989	89.83
722.432	87.93
722.874	90.13
723.317	87.43
723.76	89.83
724.203	87.73
724.645	88.33
725.088	88.83
725.531	88.33
725.974	93.63
726.416	91.73
726.859	90.23
727.301	87.73
727.744	90.43
728.187	86.83
728.629	85.63
729.071	89.53
729.514	89.23
729.956	87.53
730.399	87.33
730.841	88.33
731.283	83.63
731.726	88.13
732.168	88.93
732.61	88.43
733.053	92.03
733.495	86.23
733.937	87.43
734.379	85.23
734.821	92.73
735.263	84.03
735.705	81.13
736.148	90.43
736.59	89.33
737.032	94.03
737.474	87.93
737.916	87.93
738.357	86.13
738.799	87.83
739.241	91.83
739.683	88.93
740.125	84.63
740.567	88.83
741.008	81.03
741.45	95.53
741.892	90.53
742.334	90.63
742.775	86.93
743.217	90.03
743.658	88.73
744.1	84.83
744.542	87.23
744.983	85.83
745.425	89.73
745.866	85.63
746.307	93.53
746.749	81.33
747.19	91.13
747.632	91.73
748.073	88.03
748.514	86.13
748.956	90.03
749.397	92.33
749.838	91.33
750.279	91.23
750.72	85.73
751.162	91.73
751.603	90.53
752.044	87.03
752.485	87.03
752.926	82.83
753.367	83.93
753.808	87.83
754.249	91.53
754.69	87.33
755.131	90.23
755.572	88.83
756.013	87.03
756.453	87.53
756.894	84.13
757.335	91.03
757.776	87.23
758.216	86.43
758.657	88.13
759.098	82.93
759.538	87.73
759.979	89.23
760.42	91.53
760.86	93.13
761.301	93.43
761.741	87.13
762.182	85.23
762.622	84.83
763.063	87.13
763.503	87.33
763.943	94.63
764.384	88.03
764.824	92.53
765.264	85.73
765.705	83.23
766.145	84.83
766.585	84.43
767.025	84.03
767.465	89.43
767.906	90.73
768.346	87.63
768.786	82.83
769.226	83.43
769.666	86.13
770.106	89.43
770.546	87.93
770.986	88.63
771.426	86.23
771.866	89.63
772.306	92.93
772.745	86.43
773.185	87.03
773.625	84.03
774.065	90.13
774.505	87.63
774.944	84.73
775.384	89.53
775.824	87.13
776.263	84.73
776.703	86.13
777.142	88.43
777.582	85.33
778.021	89.13
778.461	84.73
778.9	87.73
779.34	89.63
779.779	83.03
780.219	87.33
780.658	86.63
781.097	81.13
781.537	87.03
781.976	90.63
782.415	85.33
782.855	89.13
783.294	88.03
783.733	87.43
784.172	90.63
784.611	87.93
785.05	84.53
785.489	86.23
785.928	88.53
786.367	91.13
786.806	84.13
787.245	85.23
787.684	90.43
788.123	85.83
788.562	82.53
789.001	90.83
789.44	89.03
789.879	83.73
790.317	89.53
790.756	86.53
791.195	84.03
791.634	86.33
792.072	87.03
792.511	87.53
792.95	89.93
793.388	91.13
793.827	89.03
794.265	84.93
794.704	84.43
795.142	88.53
795.581	89.73
796.019	85.53
796.458	85.33
796.896	85.43
797.334	85.63
797.773	86.93
798.211	88.73
798.649	87.93
799.087	86.53
799.526	89.93
799.964	89.13
800.402	85.63
800.84	87.33
801.278	90.53
801.716	86.33
802.154	89.73
802.592	86.63
803.03	89.13
803.468	91.23
803.906	88.13
804.344	89.53
804.782	85.93
805.22	82.03
805.658	80.53
806.096	89.93
806.533	87.93
806.971	88.13
807.409	85.03
807.847	83.63
808.284	88.33
808.722	85.03
809.16	87.23
809.597	88.73
810.035	91.83
810.472	88.63
810.91	87.13
811.347	85.83
811.785	83.23
812.222	93.83
812.66	87.93
813.097	83.93
813.535	86.23
813.972	84.83
814.409	91.03
814.846	84.03
815.284	90.13
815.721	86.83
816.158	93.73
816.595	87.03
817.032	88.23
817.47	86.93
817.907	95.23
818.344	85.93
818.781	91.13
819.218	82.63
819.655	87.03
820.092	86.43
820.529	86.13
820.966	86.13
821.403	90.03
821.839	92.23
822.276	89.93
822.713	91.23
823.15	89.03
823.587	85.13
824.023	84.73
824.46	84.53
824.897	90.83
825.333	89.03
825.77	85.63
826.206	92.13
826.643	87.23
827.08	90.43
827.516	83.63
827.953	87.73
828.389	84.13
828.825	85.53
829.262	88.63
829.698	88.83
830.135	87.43
830.571	85.13
831.007	92.43
831.443	91.13
831.88	91.63
832.316	87.43
832.752	85.53
833.188	88.03
833.624	85.33
834.06	87.83
834.497	88.83
834.933	89.53
835.369	85.43
835.805	91.93
836.241	87.03
836.677	91.73
837.112	86.23
837.548	87.73
837.984	87.83
838.42	85.33
838.856	86.33
839.292	83.83
839.727	88.83
840.163	91.63
840.599	88.33
841.034	90.83
841.47	89.73
841.906	91.23
842.341	86.63
842.777	85.03
843.212	90.03
843.648	86.93
844.083	85.53
844.519	86.93
844.954	86.03
845.39	89.23
845.825	88.33
846.261	89.33
846.696	88.63
847.131	90.13
847.566	93.23
848.002	87.03
848.437	86.73
848.872	89.83
849.307	81.13
849.742	86.03
850.177	89.93
850.613	92.23
851.048	88.33
851.483	79.73
851.918	86.43
852.353	90.23
852.788	89.53
853.223	88.23
853.657	86.93
854.092	87.63
854.527	90.43
854.962	91.03
855.397	87.73
855.832	89.83
856.266	87.13
856.701	87.83
857.136	85.43
857.57	89.03
858.005	89.53
858.44	89.53
858.874	87.83
859.309	87.63
859.743	88.33
860.178	87.53
860.612	89.73
861.047	89.63
861.481	88.13
861.915	84.13
862.35	84.63
862.784	88.73
863.218	89.33
863.653	90.33
864.087	90.13
864.521	89.53
864.955	83.13
865.39	86.53
865.824	90.43
866.258	86.13
866.692	85.93
867.126	93.23
867.56	89.83
867.994	87.13
868.428	91.23
868.862	89.73
869.296	88.63
869.73	88.83
870.164	85.83
870.598	89.93
871.031	87.33
871.465	85.33
871.899	88.93
872.333	92.03
872.766	88.83
873.2	88.83
873.634	85.63
874.067	86.43
874.501	89.23
874.935	88.33
875.368	88.73
875.802	89.93
876.235	87.63
876.669	86.83
877.102	86.13
877.535	85.93
877.969	87.53
878.402	93.03
878.836	86.93
879.269	88.03
879.702	86.93
880.135	87.93
880.569	90.33
881.002	87.13
881.435	92.23
881.868	88.53
882.301	87.43
882.734	92.63
883.167	88.83
883.601	91.13
884.034	90.83
884.467	86.63
884.899	87.83
885.332	89.43
885.765	90.23
886.198	90.43
886.631	86.23
887.064	90.13
887.497	84.43
887.929	91.83
888.362	90.93
888.795	89.63
889.228	91.33
889.66	88.53
890.093	89.53
890.526	85.43
890.958	84.93
891.391	89.03
891.823	86.03
892.256	86.73
892.688	84.13
893.121	86.43
893.553	87.63
893.985	88.43
894.418	89.73
894.85	82.03
895.282	86.23
895.715	85.13
896.147	85.73
896.579	83.63
897.011	92.23
897.444	88.13
897.876	88.73
898.308	91.93
898.74	93.93
899.172	90.33
899.604	88.83
900.036	86.63
900.468	91.13
900.9	85.13
901.332	89.63
901.764	90.33
902.196	86.43
902.628	85.43
903.06	84.53
903.491	91.53
903.923	86.13
904.355	88.43
904.787	89.33
905.218	89.63
905.65	85.93
906.082	89.03
906.513	88.03
906.945	84.03
907.376	90.63
907.808	87.13
908.239	86.93
908.671	85.03
909.102	88.03
909.534	83.73
909.965	85.93
910.397	88.83
910.828	89.43
911.259	88.73
911.691	79.73
912.122	88.33
912.553	87.33
912.984	85.63
913.415	85.23
913.847	84.93
914.278	90.03
914.709	88.83
915.14	84.13
915.571	86.03
916.002	92.83
916.433	87.23
916.864	90.03
917.295	88.33
917.726	90.63
918.157	81.33
918.587	85.53
919.018	82.63
919.449	86.33
919.88	87.63
920.311	86.33
920.741	86.83
921.172	86.83
921.603	90.83
922.033	88.23
922.464	80.13
922.895	87.53
923.325	83.93
923.756	87.73
924.186	87.23
924.617	87.73
925.047	85.93
925.478	85.43
925.908	83.73
926.338	84.43
926.769	90.63
927.199	82.13
927.629	89.33
928.06	87.33
928.49	84.43
928.92	88.43
929.35	80.83
929.78	83.93
930.21	84.23
930.641	86.03
931.071	91.23
931.501	90.23
931.931	86.43
932.361	84.33
932.791	87.43
933.221	84.33
933.651	84.43
934.08	88.43
934.51	92.13
934.94	92.13
935.37	85.53
935.8	87.53
936.229	84.93
936.659	85.03
937.089	86.73
937.519	83.53
937.948	90.53
938.378	82.33
938.807	84.93
939.237	90.33
939.666	82.13
940.096	87.33
940.525	82.03
940.955	86.13
941.384	87.13
941.814	91.53
942.243	87.23
942.672	85.23
943.102	86.13
943.531	90.43
943.96	86.63
944.39	83.03
944.819	86.73
945.248	89.23
945.677	87.03
946.106	82.63
946.535	88.43
946.964	86.63
947.393	87.93
947.822	85.73
948.251	86.53
948.68	85.33
949.109	88.33
949.538	88.03
949.967	85.53
950.396	83.83
950.825	85.63
951.254	85.53
951.682	82.83
952.111	91.43
952.54	86.13
952.969	82.53
953.397	88.03
953.826	89.83
954.254	83.13
954.683	84.63
955.112	84.43
955.54	78.93
955.969	86.73
956.397	82.53
956.826	81.63
957.254	84.73
957.682	86.03
958.111	82.43
958.539	86.43
958.967	85.63
959.396	85.83
959.824	86.33
960.252	87.43
960.68	86.83
961.109	82.43
961.537	87.03
961.965	85.83
962.393	89.63
962.821	87.63
963.249	84.23
963.677	84.53
964.105	88.53
964.533	86.53
964.961	82.43
965.389	86.03
965.817	84.13
966.245	81.93
966.672	83.63
967.1	81.23
967.528	86.93
967.956	84.13
968.383	89.43
968.811	87.13
969.239	86.23
969.666	84.23
970.094	81.33
970.522	87.93
970.949	81.43
971.377	78.23
971.804	85.93
972.232	84.73
972.659	86.13
973.087	82.23
973.514	89.23
973.941	79.63
974.369	89.23
974.796	81.83
975.223	87.33
975.651	82.93
976.078	84.93
976.505	80.43
976.932	82.93
977.359	83.03
977.786	82.03
978.214	84.33
978.641	90.43
979.068	88.63
979.495	88.23
979.922	83.83
980.349	84.03
980.776	82.93
981.202	82.73
981.629	86.93
982.056	85.63
982.483	89.73
982.91	83.63
983.337	78.73
983.763	89.93
984.19	84.43
984.617	86.43
985.043	83.33
985.47	82.93
985.897	78.33
986.323	85.13
986.75	84.23
987.176	81.43
987.603	83.53
988.029	86.93
988.456	80.23
988.882	86.43
989.308	78.63
989.735	88.43
990.161	86.83
990.587	84.53
991.014	84.13
991.44	82.83
991.866	86.83
992.292	85.73
992.719	83.93
993.145	85.33
993.571	85.73
993.997	86.33
994.423	88.13
994.849	83.13
995.275	84.83
995.701	78.13
996.127	80.03
996.553	83.93
996.979	83.13
997.405	82.53
997.83	81.53
998.256	85.43
998.682	82.93
999.108	79.53
999.534	82.03
999.959	83.53
1000.385	81.33
1000.811	82.63
1001.236	83.33
1001.662	83.53
1002.087	78.43
1002.513	84.53
1002.938	87.93
1003.364	88.33
1003.789	85.23
1004.215	84.13
1004.64	88.33
1005.066	79.23
1005.491	79.83
1005.916	81.23
1006.342	82.33
1006.767	79.73
1007.192	83.03
1007.617	78.23
1008.042	81.83
1008.468	86.53
1008.893	84.23
1009.318	86.73
1009.743	86.53
1010.168	80.33
1010.593	81.43
1011.018	82.53
1011.443	86.43
1011.868	84.13
1012.293	83.73
1012.718	86.83
1013.143	81.93
1013.567	82.83
1013.992	81.23
1014.417	84.03
1014.842	81.13
1015.267	79.23
1015.691	79.23
1016.116	81.13
1016.541	77.53
1016.965	76.93
1017.39	79.23
1017.814	80.33
1018.239	84.63
1018.663	79.03
1019.088	89.43
1019.512	86.63
1019.937	81.43
1020.361	79.93
1020.785	79.23
1021.21	77.33
1021.634	84.33
1022.058	86.53
1022.483	85.03
1022.907	86.43
1023.331	86.43
1023.755	80.23
1024.179	83.23
1024.604	84.13
1025.028	82.53
1025.452	82.43
1025.876	83.23
1026.3	85.13
1026.724	84.13
1027.148	82.93
1027.572	81.33
1027.996	81.93
1028.42	80.83
1028.843	83.43
1029.267	78.53
1029.691	79.73
1030.115	83.23
1030.539	85.33
1030.962	78.43
1031.386	81.13
1031.81	81.43
1032.233	82.53
1032.657	87.33
1033.08	85.03
1033.504	80.73
1033.927	82.23
1034.351	81.13
1034.774	86.43
1035.198	84.93
1035.621	83.73
1036.045	82.83
1036.468	74.03
1036.891	82.63
1037.315	84.43
1037.738	80.93
1038.161	88.73
1038.584	81.23
1039.008	80.13
1039.431	81.73
1039.854	77.63
1040.277	80.23
1040.7	85.53
1041.123	84.93
1041.546	82.03
1041.969	84.83
1042.392	83.73
1042.815	79.43
1043.238	83.63
1043.661	82.03
1044.084	84.43
1044.507	81.73
1044.93	80.83
1045.352	85.73
1045.775	82.53
1046.198	83.03
1046.621	77.13
1047.043	84.23
1047.466	81.63
1047.889	82.73
1048.311	82.73
1048.734	74.43
1049.156	82.63
1049.579	82.33
1050.001	77.43
1050.424	81.13
1050.846	83.43
1051.269	85.03
1051.691	80.43
1052.113	79.43
1052.536	81.13
1052.958	83.33
1053.38	79.03
1053.802	84.63
1054.225	81.83
1054.647	82.43
1055.069	80.23
1055.491	84.13
1055.913	81.83
1056.335	81.63
1056.757	79.93
1057.179	77.83
1057.601	81.93
1058.023	80.83
1058.445	81.83
1058.867	79.33
1059.289	78.63
1059.711	82.23
1060.133	82.03
1060.555	86.53
1060.976	78.23
1061.398	77.63
1061.82	81.13
1062.241	79.73
1062.663	84.13
1063.085	83.93
1063.506	83.13
1063.928	81.73
1064.35	79.13
1064.771	80.73
1065.193	82.23
1065.614	76.93
1066.035	82.93
1066.457	83.43
1066.878	78.03
1067.3	79.83
1067.721	81.53
1068.142	82.03
1068.564	84.43
1068.985	82.73
1069.406	81.33
1069.827	83.43
1070.248	82.13
1070.67	83.23
1071.091	85.63
1071.512	76.33
1071.933	80.83
1072.354	84.33
1072.775	87.03
1073.196	74.33
1073.617	84.23
1074.038	78.33
1074.459	78.33
1074.88	80.53
1075.3	81.63
1075.721	81.83
1076.142	79.33
1076.563	81.13
1076.983	81.83
1077.404	78.33
1077.825	80.93
1078.246	83.13
1078.666	82.23
1079.087	85.63
1079.507	78.33
1079.928	83.53
1080.348	81.63
1080.769	79.83
1081.189	79.03
1081.61	78.23
1082.03	82.73
1082.451	83.03
1082.871	85.83
1083.291	81.53
1083.711	80.13
1084.132	84.83
1084.552	82.93
1084.972	79.73
1085.392	78.03
1085.813	76.03
1086.233	80.03
1086.653	85.83
1087.073	83.53
1087.493	83.73
1087.913	83.13
1088.333	86.03
1088.753	83.33
1089.173	81.63
1089.593	78.43
1090.013	79.83
1090.433	85.13
1090.852	82.03
1091.272	82.63
1091.692	84.03
1092.112	82.13
1092.531	82.13
1092.951	79.23
1093.371	84.33
1093.79	79.73
1094.21	81.13
1094.63	87.13
1095.049	79.93
1095.469	78.33
1095.888	80.63
1096.308	78.03
1096.727	79.93
1097.146	82.33
1097.566	77.53
1097.985	85.83
1098.405	79.73
1098.824	85.03
1099.243	83.63
1099.662	80.53
1100.082	78.33
1100.501	84.63
1100.92	86.43
1101.339	86.43
1101.758	77.93
