Data from DH-3PlusCalLight-Background_HRD10391_13-40-41-663.txt Node
Date: Thu Feb 15 13:40:41 EST 2018
User: Ender
Spectrometer: HR+D1039
Trigger mode: 0
Integration Time (sec): 2.730000E-2
Scans to average: 10
Electric dark correction enabled: true
Nonlinearity correction enabled: false
Boxcar width: 0
XAxis mode: Wavelengths
Number of Pixels in Spectrum: 2048
>>>>>Begin Spectral Data<<<<<
187.836	-0.04
188.309	-0.04
188.782	-0.04
189.255	-9.74
189.728	-3.04
190.201	-6.24
190.674	-9.84
191.147	-7.74
191.619	-9.34
192.092	-0.84
192.565	-6.84
193.038	0.56
193.511	-3.44
193.984	6.56
194.456	6.96
194.929	9.06
195.402	17.56
195.874	16.36
196.347	14.56
196.82	25.06
197.292	30.66
197.765	30.36
198.237	36.06
198.71	40.96
199.182	42.46
199.655	49.56
200.127	47.96
200.6	48.66
201.072	53.06
201.544	60.26
202.017	56.96
202.489	64.56
202.961	69.16
203.433	69.96
203.906	73.16
204.378	72.96
204.85	76.96
205.322	74.76
205.794	81.36
206.266	80.46
206.739	80.16
207.211	83.76
207.683	83.36
208.155	81.06
208.627	82.56
209.099	86.16
209.57	83.56
210.042	84.36
210.514	82.56
210.986	81.86
211.458	81.76
211.93	77.16
212.402	77.66
212.873	81.56
213.345	83.16
213.817	83.96
214.288	81.56
214.76	74.56
215.232	81.06
215.703	82.16
216.175	79.06
216.646	75.36
217.118	78.96
217.589	74.36
218.061	79.76
218.532	73.06
219.004	73.56
219.475	78.86
219.946	79.76
220.418	80.46
220.889	79.66
221.36	78.86
221.832	75.86
222.303	72.76
222.774	75.66
223.245	72.26
223.717	74.86
224.188	73.36
224.659	80.76
225.13	76.06
225.601	77.56
226.072	76.36
226.543	78.46
227.014	71.76
227.485	74.56
227.956	77.86
228.427	72.36
228.898	76.36
229.369	79.96
229.839	75.76
230.31	74.06
230.781	78.16
231.252	70.66
231.722	74.16
232.193	74.76
232.664	74.86
233.135	71.46
233.605	75.46
234.076	71.76
234.546	76.36
235.017	75.36
235.487	78.56
235.958	76.96
236.428	72.86
236.899	75.56
237.369	74.66
237.84	76.36
238.31	73.66
238.78	77.96
239.251	73.96
239.721	80.36
240.191	79.26
240.662	70.56
241.132	75.66
241.602	76.66
242.072	79.46
242.542	78.56
243.013	77.06
243.483	77.36
243.953	73.66
244.423	74.46
244.893	71.66
245.363	81.16
245.833	76.36
246.303	83.26
246.773	76.96
247.243	79.76
247.712	80.36
248.182	76.36
248.652	78.06
249.122	74.76
249.592	78.76
250.061	81.36
250.531	77.96
251.001	74.76
251.471	78.36
251.94	81.26
252.41	77.26
252.879	80.86
253.349	82.56
253.818	81.66
254.288	83.46
254.757	77.46
255.227	81.96
255.696	83.66
256.166	78.66
256.635	81.16
257.105	84.96
257.574	79.36
258.043	79.76
258.513	83.66
258.982	81.46
259.451	71.56
259.92	75.46
260.389	80.96
260.859	80.96
261.328	85.46
261.797	83.86
262.266	78.56
262.735	77.86
263.204	79.16
263.673	86.36
264.142	79.06
264.611	79.96
265.08	78.96
265.549	79.26
266.018	81.96
266.487	80.16
266.955	79.86
267.424	75.26
267.893	79.76
268.362	78.66
268.83	76.66
269.299	81.56
269.768	82.56
270.236	79.16
270.705	82.66
271.174	75.66
271.642	77.76
272.111	78.66
272.579	86.26
273.048	78.46
273.516	79.96
273.985	76.96
274.453	79.46
274.922	75.16
275.39	79.56
275.858	79.06
276.327	78.16
276.795	75.06
277.263	83.66
277.731	80.66
278.2	76.46
278.668	85.06
279.136	77.96
279.604	78.16
280.072	81.56
280.54	82.16
281.008	80.76
281.477	81.26
281.945	83.26
282.413	82.26
282.881	79.16
283.348	81.76
283.816	81.06
284.284	81.06
284.752	81.86
285.22	86.26
285.688	75.96
286.156	82.16
286.623	80.86
287.091	79.46
287.559	84.36
288.026	85.16
288.494	83.06
288.962	80.76
289.429	81.66
289.897	86.26
290.364	81.06
290.832	83.46
291.3	80.36
291.767	83.56
292.234	76.96
292.702	83.96
293.169	84.86
293.637	83.66
294.104	82.36
294.571	84.16
295.039	82.96
295.506	78.36
295.973	76.66
296.44	81.46
296.908	80.56
297.375	81.16
297.842	84.26
298.309	82.66
298.776	82.96
299.243	86.66
299.71	78.66
300.177	80.26
300.644	83.26
301.111	83.56
301.578	85.86
302.045	81.06
302.512	80.46
302.979	83.36
303.446	78.86
303.913	77.96
304.379	78.66
304.846	80.56
305.313	77.26
305.78	75.86
306.246	84.76
306.713	84.66
307.18	80.56
307.646	85.36
308.113	83.26
308.579	80.46
309.046	77.16
309.512	81.06
309.979	78.96
310.445	82.96
310.912	78.36
311.378	77.96
311.845	81.06
312.311	83.16
312.777	86.36
313.244	79.16
313.71	83.36
314.176	85.06
314.642	81.46
315.109	85.96
315.575	78.76
316.041	79.66
316.507	83.26
316.973	85.76
317.439	73.26
317.905	80.16
318.371	85.76
318.837	81.86
319.303	83.86
319.769	80.76
320.235	86.46
320.701	80.86
321.167	82.26
321.633	86.36
322.099	83.26
322.564	84.16
323.03	77.26
323.496	83.46
323.962	84.26
324.427	81.36
324.893	83.06
325.359	85.46
325.824	83.86
326.29	77.06
326.755	81.86
327.221	83.06
327.686	85.66
328.152	83.96
328.617	85.06
329.083	81.26
329.548	84.16
330.014	81.56
330.479	83.06
330.944	85.56
331.41	79.56
331.875	85.76
332.34	80.86
332.805	80.86
333.271	79.96
333.736	85.86
334.201	83.16
334.666	82.16
335.131	81.76
335.596	81.66
336.061	77.16
336.526	84.36
336.991	83.26
337.456	84.56
337.921	83.06
338.386	85.36
338.851	79.96
339.316	83.76
339.781	83.06
340.246	85.76
340.711	80.76
341.175	81.66
341.64	78.06
342.105	82.86
342.569	82.06
343.034	79.46
343.499	78.16
343.963	86.46
344.428	83.46
344.893	79.46
345.357	80.56
345.822	75.56
346.286	81.66
346.751	84.56
347.215	83.56
347.679	82.46
348.144	81.56
348.608	83.66
349.073	82.66
349.537	83.96
350.001	89.16
350.465	78.66
350.93	84.36
351.394	81.56
351.858	81.36
352.322	82.66
352.786	81.26
353.25	82.26
353.715	86.76
354.179	86.86
354.643	79.96
355.107	81.56
355.571	79.46
356.035	83.56
356.498	78.16
356.962	80.96
357.426	79.26
357.89	84.86
358.354	82.06
358.818	84.26
359.281	80.66
359.745	78.66
360.209	87.36
360.673	81.06
361.136	85.76
361.6	83.56
362.064	80.36
362.527	81.46
362.991	81.16
363.454	84.36
363.918	84.66
364.381	81.86
364.845	84.96
365.308	85.46
365.772	85.66
366.235	83.26
366.698	85.86
367.162	82.16
367.625	78.76
368.088	82.16
368.552	83.26
369.015	85.56
369.478	86.76
369.941	79.46
370.404	83.96
370.867	81.76
371.331	81.76
371.794	82.26
372.257	84.86
372.72	84.86
373.183	81.96
373.646	80.96
374.109	80.16
374.572	83.36
375.035	86.16
375.497	84.16
375.96	81.66
376.423	84.76
376.886	82.86
377.349	85.16
377.811	82.76
378.274	88.66
378.737	81.36
379.199	88.26
379.662	79.66
380.125	81.26
380.587	81.36
381.05	80.76
381.512	82.46
381.975	78.66
382.437	82.56
382.9	84.86
383.362	83.26
383.825	82.76
384.287	80.36
384.75	83.76
385.212	79.46
385.674	77.16
386.136	76.46
386.599	78.56
387.061	81.16
387.523	82.46
387.985	82.16
388.447	86.06
388.91	84.46
389.372	79.56
389.834	83.86
390.296	75.46
390.758	81.16
391.22	81.66
391.682	84.36
392.144	85.16
392.606	82.56
393.068	86.66
393.529	85.46
393.991	84.86
394.453	84.76
394.915	82.56
395.377	84.16
395.838	89.56
396.3	81.26
396.762	79.26
397.224	84.56
397.685	76.36
398.147	84.26
398.608	84.76
399.07	83.26
399.531	80.56
399.993	82.86
400.454	81.06
400.916	80.66
401.377	86.36
401.839	84.56
402.3	82.36
402.762	87.76
403.223	83.46
403.684	83.46
404.145	77.46
404.607	81.06
405.068	84.16
405.529	80.56
405.99	79.96
406.451	82.46
406.913	79.16
407.374	80.16
407.835	82.16
408.296	83.06
408.757	83.66
409.218	83.66
409.679	80.36
410.14	86.66
410.601	80.26
411.062	81.36
411.522	88.36
411.983	85.06
412.444	79.26
412.905	81.36
413.366	79.56
413.826	79.86
414.287	84.26
414.748	79.86
415.208	81.96
415.669	82.86
416.13	81.86
416.59	82.66
417.051	83.46
417.511	82.26
417.972	83.46
418.432	82.76
418.893	82.26
419.353	84.66
419.814	81.46
420.274	83.16
420.734	82.76
421.195	78.96
421.655	85.36
422.115	80.46
422.576	86.76
423.036	81.46
423.496	79.36
423.956	87.26
424.416	83.26
424.876	85.66
425.336	80.06
425.797	83.36
426.257	81.86
426.717	83.46
427.177	78.76
427.637	86.06
428.097	81.86
428.556	75.96
429.016	79.56
429.476	84.46
429.936	83.46
430.396	82.56
430.856	85.06
431.315	83.56
431.775	85.56
432.235	82.96
432.694	77.56
433.154	79.76
433.614	80.06
434.073	79.26
434.533	79.76
434.993	81.46
435.452	83.86
435.912	83.56
436.371	80.36
436.83	83.86
437.29	81.16
437.749	82.86
438.209	90.86
438.668	83.46
439.127	83.16
439.587	84.36
440.046	85.16
440.505	79.26
440.964	83.36
441.424	86.36
441.883	78.96
442.342	84.96
442.801	87.46
443.26	77.76
443.719	85.76
444.178	91.56
444.637	87.06
445.096	88.76
445.555	83.16
446.014	78.76
446.473	87.06
446.932	85.26
447.391	82.36
447.849	82.36
448.308	88.86
448.767	84.56
449.226	89.76
449.685	84.46
450.143	80.26
450.602	89.06
451.061	83.46
451.519	85.86
451.978	87.86
452.436	83.46
452.895	81.76
453.353	85.46
453.812	85.26
454.27	84.06
454.729	85.76
455.187	85.66
455.646	84.46
456.104	88.56
456.562	88.86
457.021	80.46
457.479	81.66
457.937	79.06
458.395	84.66
458.854	86.56
459.312	87.26
459.77	89.76
460.228	85.66
460.686	87.26
461.144	89.56
461.602	82.66
462.06	89.56
462.518	85.06
462.976	87.56
463.434	82.16
463.892	80.26
464.35	85.16
464.808	85.26
465.266	91.36
465.724	81.36
466.181	84.86
466.639	78.46
467.097	90.76
467.555	87.96
468.012	85.56
468.47	89.76
468.928	85.86
469.385	91.26
469.843	83.86
470.3	88.16
470.758	82.76
471.215	85.56
471.673	88.26
472.13	85.76
472.588	83.36
473.045	84.16
473.503	87.76
473.96	83.56
474.417	84.76
474.875	83.66
475.332	85.66
475.789	83.86
476.246	85.86
476.704	88.16
477.161	85.66
477.618	85.46
478.075	83.56
478.532	91.36
478.989	91.56
479.446	87.76
479.903	87.36
480.36	84.46
480.817	93.26
481.274	90.86
481.731	91.46
482.188	86.26
482.645	90.16
483.102	88.06
483.558	91.36
484.015	91.36
484.472	87.26
484.929	87.86
485.385	89.76
485.842	87.26
486.299	87.46
486.755	85.76
487.212	87.16
487.668	88.86
488.125	90.26
488.582	89.06
489.038	95.16
489.494	87.46
489.951	90.76
490.407	93.06
490.864	86.96
491.32	89.66
491.776	89.76
492.233	90.36
492.689	90.06
493.145	92.96
493.602	90.26
494.058	90.16
494.514	89.66
494.97	87.76
495.426	94.66
495.882	90.46
496.338	94.06
496.794	89.66
497.251	93.66
497.707	93.96
498.163	91.56
498.618	89.96
499.074	91.16
499.53	88.16
499.986	91.96
500.442	90.96
500.898	88.56
501.354	92.26
501.809	92.86
502.265	92.46
502.721	92.66
503.177	90.26
503.632	91.46
504.088	86.76
504.543	87.86
504.999	95.16
505.455	97.16
505.91	90.96
506.366	88.66
506.821	91.36
507.277	90.86
507.732	92.66
508.187	90.26
508.643	90.46
509.098	91.76
509.553	91.46
510.009	95.26
510.464	95.76
510.919	86.66
511.375	91.06
511.83	89.96
512.285	91.56
512.74	93.06
513.195	97.36
513.65	88.36
514.105	92.46
514.56	88.96
515.015	88.56
515.47	88.26
515.925	92.86
516.38	91.56
516.835	89.16
517.29	93.86
517.745	92.56
518.2	90.16
518.655	87.56
519.109	85.56
519.564	89.66
520.019	90.66
520.474	88.06
520.928	88.66
521.383	90.36
521.838	94.86
522.292	88.26
522.747	87.26
523.201	93.36
523.656	93.56
524.11	93.06
524.565	86.36
525.019	87.16
525.474	90.46
525.928	86.36
526.382	89.86
526.837	90.36
527.291	88.46
527.745	91.36
528.2	91.36
528.654	92.06
529.108	90.66
529.562	87.56
530.016	83.46
530.47	90.36
530.925	89.66
531.379	94.26
531.833	90.46
532.287	90.56
532.741	91.76
533.195	87.26
533.649	91.46
534.103	85.66
534.556	90.36
535.01	87.16
535.464	88.46
535.918	89.96
536.372	92.96
536.826	88.06
537.279	85.16
537.733	90.26
538.187	86.16
538.64	84.46
539.094	96.06
539.548	90.76
540.001	94.06
540.455	87.16
540.908	91.86
541.362	93.66
541.815	93.26
542.269	89.86
542.722	85.46
543.175	92.56
543.629	86.66
544.082	88.66
544.536	90.76
544.989	89.36
545.442	94.56
545.895	92.36
546.349	88.46
546.802	87.86
547.255	89.16
547.708	85.66
548.161	97.16
548.614	91.96
549.067	88.56
549.52	91.46
549.973	91.26
550.426	92.66
550.879	86.66
551.332	91.06
551.785	85.56
552.238	91.16
552.691	89.46
553.144	86.26
553.596	94.06
554.049	83.76
554.502	90.16
554.955	93.06
555.407	89.06
555.86	92.06
556.313	86.16
556.765	87.66
557.218	93.96
557.67	88.96
558.123	86.86
558.576	88.86
559.028	89.66
559.48	92.56
559.933	84.66
560.385	88.36
560.838	90.06
561.29	95.06
561.742	92.26
562.195	92.76
562.647	88.26
563.099	90.06
563.551	92.36
564.004	89.76
564.456	92.26
564.908	92.86
565.36	90.76
565.812	87.66
566.264	94.56
566.716	95.96
567.168	94.46
567.62	90.86
568.072	93.66
568.524	87.46
568.976	89.46
569.428	87.46
569.88	89.46
570.332	92.26
570.784	92.36
571.235	91.96
571.687	90.16
572.139	86.76
572.59	94.56
573.042	89.76
573.494	92.46
573.945	92.16
574.397	80.46
574.849	92.26
575.3	91.86
575.752	87.26
576.203	88.36
576.655	86.96
577.106	89.56
577.557	88.16
578.009	85.76
578.46	88.06
578.912	89.46
579.363	90.06
579.814	88.76
580.265	85.16
580.717	89.16
581.168	90.96
581.619	92.26
582.07	91.06
582.521	91.66
582.972	90.76
583.423	90.96
583.875	92.56
584.326	92.26
584.777	87.96
585.227	96.96
585.678	89.96
586.129	88.86
586.58	87.86
587.031	93.36
587.482	86.76
587.933	81.06
588.384	91.06
588.834	84.16
589.285	94.96
589.736	92.76
590.186	90.66
590.637	92.76
591.088	88.56
591.538	90.46
591.989	91.36
592.439	90.86
592.89	89.16
593.34	88.86
593.791	92.56
594.241	85.86
594.692	88.26
595.142	91.46
595.593	96.76
596.043	90.66
596.493	94.26
596.943	82.56
597.394	93.06
597.844	89.96
598.294	95.76
598.744	89.86
599.195	89.46
599.645	91.66
600.095	90.16
600.545	91.86
600.995	89.76
601.445	92.56
601.895	88.66
602.345	93.36
602.795	90.96
603.245	91.56
603.695	99.26
604.145	89.76
604.594	87.86
605.044	88.16
605.494	87.96
605.944	88.16
606.393	92.76
606.843	89.76
607.293	94.86
607.743	92.06
608.192	88.06
608.642	94.06
609.091	92.36
609.541	93.26
609.99	97.16
610.44	87.26
610.889	92.76
611.339	92.96
611.788	90.56
612.238	92.46
612.687	88.06
613.136	86.46
613.586	86.96
614.035	94.96
614.484	92.76
614.933	86.96
615.383	86.56
615.832	88.36
616.281	93.26
616.73	89.36
617.179	91.06
617.628	85.86
618.077	89.86
618.526	90.66
618.975	95.36
619.424	87.16
619.873	92.46
620.322	84.36
620.771	88.66
621.22	92.76
621.669	85.76
622.118	90.66
622.567	93.26
623.015	91.06
623.464	93.56
623.913	96.16
624.361	92.56
624.81	97.26
625.259	87.46
625.707	88.16
626.156	91.16
626.604	91.66
627.053	89.76
627.501	91.56
627.95	93.66
628.398	94.06
628.847	92.06
629.295	89.86
629.744	86.16
630.192	92.36
630.64	87.86
631.089	89.76
631.537	89.66
631.985	90.36
632.433	86.96
632.881	85.56
633.33	95.86
633.778	87.36
634.226	91.86
634.674	90.36
635.122	89.76
635.57	91.86
636.018	89.36
636.466	91.16
636.914	84.76
637.362	95.56
637.81	89.36
638.258	92.66
638.705	94.36
639.153	89.56
639.601	88.76
640.049	91.56
640.497	90.76
640.944	90.46
641.392	93.06
641.84	90.66
642.287	90.36
642.735	86.66
643.182	89.86
643.63	91.36
644.078	92.16
644.525	88.56
644.973	85.76
645.42	90.96
645.867	93.56
646.315	93.26
646.762	93.36
647.21	90.26
647.657	89.16
648.104	88.36
648.551	91.86
648.999	88.46
649.446	90.76
649.893	93.06
650.34	86.66
650.787	94.56
651.234	93.16
651.682	90.96
652.129	85.76
652.576	93.76
653.023	89.66
653.47	89.86
653.917	91.66
654.363	91.86
654.81	94.46
655.257	93.16
655.704	91.56
656.151	92.96
656.598	90.86
657.044	86.46
657.491	88.66
657.938	88.36
658.385	96.96
658.831	87.76
659.278	91.66
659.724	95.06
660.171	96.26
660.618	88.26
661.064	89.16
661.511	89.86
661.957	93.26
662.404	94.56
662.85	93.66
663.296	84.36
663.743	92.16
664.189	89.96
664.635	93.86
665.082	88.66
665.528	89.86
665.974	90.36
666.42	91.56
666.867	89.16
667.313	93.26
667.759	88.56
668.205	88.36
668.651	93.46
669.097	86.66
669.543	85.16
669.989	92.16
670.435	91.16
670.881	94.26
671.327	88.86
671.773	85.26
672.219	92.56
672.665	91.06
673.11	89.56
673.556	94.36
674.002	88.46
674.448	93.76
674.893	93.16
675.339	92.06
675.785	96.46
676.23	86.26
676.676	90.36
677.122	86.76
677.567	90.26
678.013	95.46
678.458	88.76
678.904	89.46
679.349	88.76
679.794	92.76
680.24	87.46
680.685	91.16
681.131	87.26
681.576	90.36
682.021	90.86
682.466	91.76
682.912	91.16
683.357	93.06
683.802	85.66
684.247	89.06
684.692	91.06
685.137	90.96
685.583	89.06
686.028	85.96
686.473	88.46
686.918	91.16
687.363	89.06
687.807	94.36
688.252	89.16
688.697	84.76
689.142	86.06
689.587	92.16
690.032	86.86
690.477	93.46
690.921	88.76
691.366	93.76
691.811	88.86
692.255	86.06
692.7	88.96
693.145	90.56
693.589	89.06
694.034	90.06
694.478	89.96
694.923	91.66
695.367	93.36
695.812	96.16
696.256	85.76
696.701	85.46
697.145	91.46
697.59	87.56
698.034	90.06
698.478	91.86
698.922	90.86
699.367	90.86
699.811	86.96
700.255	91.86
700.699	93.16
701.143	92.86
701.588	89.16
702.032	93.86
702.476	95.86
702.92	96.86
703.364	93.86
703.808	91.76
704.252	86.76
704.696	90.66
705.14	93.16
705.584	91.06
706.027	88.76
706.471	91.26
706.915	89.06
707.359	90.26
707.803	91.96
708.246	87.96
708.69	87.86
709.134	90.36
709.577	85.46
710.021	86.96
710.465	89.66
710.908	90.56
711.352	91.66
711.795	88.36
712.239	87.66
712.682	84.76
713.126	92.06
713.569	87.96
714.012	88.16
714.456	89.16
714.899	85.06
715.342	91.06
715.786	89.86
716.229	92.06
716.672	83.86
717.115	88.96
717.558	91.66
718.002	86.96
718.445	85.66
718.888	88.96
719.331	86.76
719.774	89.56
720.217	87.16
720.66	85.56
721.103	89.86
721.546	92.96
721.989	88.26
722.432	91.66
722.874	90.86
723.317	88.26
723.76	86.16
724.203	86.36
724.645	80.26
725.088	89.76
725.531	85.16
725.974	88.76
726.416	90.66
726.859	90.96
727.301	91.96
727.744	90.26
728.187	85.56
728.629	86.76
729.071	87.96
729.514	88.96
729.956	90.66
730.399	91.46
730.841	87.56
731.283	90.96
731.726	91.06
732.168	90.56
732.61	90.66
733.053	89.56
733.495	84.56
733.937	86.26
734.379	90.96
734.821	86.66
735.263	89.96
735.705	87.16
736.148	92.66
736.59	88.36
737.032	90.86
737.474	86.36
737.916	87.26
738.357	89.86
738.799	88.16
739.241	88.06
739.683	89.86
740.125	86.56
740.567	88.46
741.008	90.46
741.45	85.46
741.892	90.86
742.334	84.16
742.775	88.66
743.217	89.36
743.658	87.66
744.1	81.06
744.542	86.36
744.983	85.36
745.425	89.76
745.866	79.86
746.307	85.86
746.749	91.56
747.19	85.56
747.632	90.06
748.073	90.36
748.514	93.06
748.956	87.76
749.397	88.76
749.838	86.36
750.279	83.76
750.72	85.36
751.162	85.86
751.603	93.26
752.044	84.86
752.485	88.06
752.926	85.86
753.367	83.26
753.808	88.16
754.249	85.06
754.69	90.46
755.131	86.56
755.572	89.96
756.013	82.66
756.453	83.66
756.894	91.96
757.335	88.96
757.776	96.26
758.216	90.16
758.657	84.06
759.098	87.06
759.538	88.66
759.979	86.36
760.42	84.66
760.86	87.96
761.301	85.56
761.741	85.36
762.182	92.16
762.622	83.26
763.063	91.56
763.503	88.76
763.943	88.06
764.384	87.56
764.824	85.66
765.264	90.06
765.705	89.66
766.145	88.56
766.585	91.36
767.025	88.36
767.465	88.16
767.906	90.16
768.346	86.56
768.786	82.76
769.226	88.56
769.666	87.26
770.106	82.66
770.546	83.46
770.986	86.06
771.426	84.46
771.866	87.06
772.306	87.86
772.745	90.46
773.185	86.16
773.625	88.46
774.065	90.26
774.505	91.26
774.944	88.76
775.384	84.36
775.824	85.66
776.263	87.16
776.703	90.16
777.142	87.86
777.582	85.36
778.021	84.86
778.461	86.96
778.9	84.96
779.34	89.46
779.779	86.36
780.219	88.66
780.658	84.86
781.097	84.76
781.537	88.36
781.976	84.96
782.415	88.16
782.855	87.76
783.294	84.86
783.733	87.06
784.172	88.16
784.611	90.56
785.05	84.36
785.489	87.66
785.928	84.96
786.367	85.96
786.806	89.46
787.245	84.36
787.684	86.96
788.123	84.96
788.562	87.06
789.001	87.66
789.44	93.16
789.879	86.06
790.317	92.36
790.756	89.56
791.195	87.96
791.634	88.76
792.072	88.46
792.511	86.46
792.95	83.96
793.388	83.96
793.827	92.06
794.265	85.76
794.704	85.66
795.142	83.86
795.581	90.66
796.019	86.66
796.458	83.56
796.896	85.56
797.334	92.16
797.773	84.16
798.211	87.56
798.649	80.96
799.087	84.96
799.526	86.96
799.964	84.66
800.402	88.76
800.84	88.16
801.278	85.16
801.716	87.66
802.154	87.56
802.592	87.16
803.03	85.16
803.468	84.96
803.906	79.36
804.344	86.26
804.782	89.36
805.22	88.76
805.658	87.46
806.096	85.16
806.533	87.36
806.971	90.16
807.409	88.56
807.847	90.36
808.284	89.36
808.722	90.16
809.16	83.26
809.597	92.36
810.035	88.26
810.472	90.26
810.91	84.76
811.347	87.96
811.785	84.16
812.222	84.06
812.66	84.36
813.097	88.26
813.535	88.36
813.972	87.16
814.409	89.16
814.846	86.16
815.284	86.86
815.721	82.76
816.158	85.26
816.595	85.36
817.032	89.36
817.47	92.76
817.907	90.76
818.344	90.26
818.781	89.16
819.218	87.86
819.655	89.26
820.092	82.66
820.529	86.86
820.966	86.86
821.403	89.36
821.839	86.96
822.276	85.36
822.713	87.76
823.15	89.16
823.587	89.36
824.023	88.66
824.46	84.16
824.897	88.86
825.333	86.96
825.77	86.16
826.206	92.86
826.643	85.76
827.08	84.56
827.516	85.56
827.953	86.36
828.389	90.06
828.825	89.46
829.262	87.16
829.698	90.36
830.135	88.06
830.571	83.86
831.007	87.56
831.443	87.06
831.88	89.26
832.316	96.66
832.752	88.66
833.188	85.16
833.624	87.36
834.06	94.36
834.497	89.16
834.933	89.66
835.369	93.06
835.805	86.86
836.241	88.26
836.677	86.86
837.112	87.46
837.548	88.26
837.984	87.26
838.42	90.26
838.856	92.96
839.292	86.96
839.727	85.76
840.163	93.26
840.599	88.96
841.034	88.66
841.47	86.76
841.906	93.96
842.341	90.36
842.777	87.16
843.212	90.36
843.648	89.96
844.083	86.06
844.519	91.26
844.954	90.76
845.39	82.46
845.825	88.96
846.261	89.36
846.696	85.06
847.131	84.16
847.566	94.16
848.002	88.76
848.437	89.56
848.872	87.46
849.307	87.86
849.742	93.86
850.177	89.76
850.613	84.76
851.048	95.46
851.483	92.56
851.918	88.96
852.353	84.76
852.788	86.56
853.223	89.46
853.657	80.46
854.092	88.56
854.527	87.56
854.962	88.06
855.397	87.46
855.832	92.36
856.266	86.76
856.701	91.46
857.136	89.06
857.57	89.66
858.005	87.76
858.44	86.36
858.874	83.76
859.309	89.96
859.743	83.36
860.178	86.36
860.612	82.36
861.047	87.86
861.481	86.16
861.915	91.86
862.35	89.16
862.784	88.36
863.218	86.96
863.653	85.06
864.087	88.36
864.521	86.66
864.955	88.76
865.39	87.16
865.824	89.46
866.258	90.26
866.692	88.46
867.126	86.96
867.56	91.06
867.994	89.86
868.428	86.26
868.862	86.56
869.296	87.36
869.73	87.76
870.164	90.86
870.598	87.56
871.031	90.96
871.465	88.46
871.899	83.26
872.333	90.96
872.766	87.86
873.2	92.56
873.634	85.06
874.067	87.76
874.501	89.86
874.935	89.46
875.368	86.46
875.802	87.06
876.235	91.66
876.669	89.36
877.102	90.16
877.535	92.26
877.969	90.26
878.402	90.36
878.836	89.96
879.269	91.56
879.702	88.16
880.135	88.76
880.569	89.26
881.002	86.56
881.435	91.76
881.868	88.56
882.301	87.86
882.734	88.16
883.167	91.06
883.601	90.96
884.034	88.16
884.467	87.16
884.899	91.26
885.332	84.16
885.765	90.86
886.198	83.76
886.631	82.96
887.064	89.96
887.497	84.56
887.929	89.36
888.362	89.96
888.795	88.86
889.228	90.66
889.66	86.46
890.093	87.96
890.526	84.96
890.958	88.06
891.391	86.86
891.823	92.56
892.256	84.56
892.688	88.76
893.121	86.76
893.553	85.86
893.985	89.86
894.418	86.86
894.85	90.06
895.282	85.66
895.715	91.96
896.147	85.86
896.579	87.06
897.011	83.46
897.444	89.46
897.876	92.36
898.308	90.76
898.74	89.36
899.172	86.36
899.604	85.06
900.036	87.76
900.468	93.56
900.9	87.76
901.332	86.46
901.764	90.66
902.196	90.36
902.628	88.46
903.06	90.06
903.491	86.96
903.923	90.26
904.355	86.16
904.787	88.66
905.218	87.16
905.65	84.86
906.082	89.86
906.513	87.06
906.945	84.36
907.376	82.66
907.808	87.46
908.239	87.76
908.671	84.46
909.102	87.26
909.534	86.76
909.965	87.56
910.397	86.26
910.828	87.26
911.259	90.36
911.691	88.96
912.122	85.16
912.553	82.66
912.984	82.96
913.415	84.66
913.847	86.86
914.278	87.16
914.709	80.66
915.14	85.76
915.571	81.96
916.002	87.16
916.433	86.76
916.864	88.46
917.295	85.16
917.726	85.46
918.157	87.46
918.587	86.96
919.018	84.76
919.449	88.46
919.88	85.36
920.311	87.76
920.741	87.96
921.172	83.66
921.603	90.46
922.033	87.86
922.464	85.86
922.895	87.26
923.325	90.66
923.756	84.96
924.186	88.96
924.617	90.26
925.047	93.76
925.478	84.56
925.908	87.66
926.338	85.26
926.769	85.56
927.199	87.86
927.629	83.26
928.06	86.46
928.49	83.06
928.92	84.86
929.35	82.16
929.78	86.06
930.21	85.86
930.641	85.66
931.071	87.86
931.501	88.26
931.931	84.36
932.361	91.76
932.791	90.06
933.221	93.16
933.651	86.26
934.08	85.56
934.51	85.06
934.94	85.76
935.37	86.06
935.8	89.26
936.229	84.36
936.659	82.66
937.089	89.66
937.519	85.26
937.948	89.16
938.378	83.66
938.807	85.46
939.237	82.16
939.666	86.66
940.096	87.86
940.525	87.26
940.955	85.46
941.384	86.96
941.814	87.36
942.243	88.86
942.672	90.46
943.102	90.06
943.531	94.86
943.96	87.36
944.39	86.96
944.819	91.36
945.248	86.96
945.677	87.26
946.106	86.26
946.535	84.56
946.964	88.66
947.393	80.36
947.822	82.76
948.251	88.56
948.68	84.26
949.109	82.66
949.538	81.56
949.967	87.76
950.396	87.66
950.825	91.16
951.254	91.36
951.682	85.76
952.111	89.16
952.54	84.56
952.969	81.66
953.397	84.46
953.826	86.06
954.254	84.56
954.683	81.36
955.112	81.56
955.54	85.96
955.969	89.16
956.397	88.76
956.826	86.26
957.254	85.26
957.682	80.26
958.111	80.86
958.539	86.26
958.967	86.56
959.396	83.66
959.824	84.06
960.252	84.36
960.68	84.16
961.109	85.56
961.537	82.06
961.965	84.76
962.393	80.86
962.821	87.56
963.249	83.06
963.677	79.96
964.105	82.46
964.533	81.06
964.961	78.06
965.389	79.16
965.817	83.46
966.245	85.76
966.672	83.86
967.1	85.86
967.528	86.06
967.956	85.76
968.383	79.46
968.811	86.06
969.239	86.06
969.666	85.56
970.094	78.56
970.522	82.96
970.949	83.06
971.377	83.26
971.804	85.46
972.232	88.06
972.659	88.96
973.087	84.26
973.514	85.96
973.941	83.06
974.369	83.86
974.796	85.66
975.223	83.96
975.651	87.46
976.078	80.96
976.505	81.16
976.932	86.56
977.359	78.46
977.786	87.36
978.214	79.76
978.641	80.86
979.068	79.16
979.495	81.66
979.922	86.06
980.349	88.56
980.776	86.36
981.202	86.26
981.629	81.86
982.056	85.16
982.483	83.66
982.91	85.56
983.337	84.36
983.763	83.86
984.19	84.86
984.617	80.56
985.043	86.06
985.47	81.36
985.897	82.46
986.323	85.76
986.75	83.46
987.176	86.46
987.603	84.06
988.029	83.96
988.456	87.66
988.882	80.26
989.308	84.06
989.735	86.16
990.161	87.06
990.587	82.66
991.014	82.96
991.44	82.56
991.866	83.06
992.292	80.56
992.719	85.36
993.145	87.56
993.571	82.16
993.997	81.56
994.423	82.46
994.849	83.56
995.275	81.96
995.701	80.26
996.127	79.56
996.553	83.06
996.979	83.96
997.405	82.76
997.83	85.36
998.256	83.96
998.682	80.86
999.108	83.86
999.534	77.46
999.959	80.06
1000.385	83.66
1000.811	84.46
1001.236	81.86
1001.662	87.36
1002.087	83.46
1002.513	77.16
1002.938	81.96
1003.364	80.86
1003.789	83.76
1004.215	82.86
1004.64	82.46
1005.066	85.36
1005.491	80.66
1005.916	87.26
1006.342	83.66
1006.767	84.26
1007.192	78.86
1007.617	82.46
1008.042	80.86
1008.468	85.06
1008.893	82.46
1009.318	81.86
1009.743	86.26
1010.168	81.46
1010.593	81.56
1011.018	85.36
1011.443	84.36
1011.868	78.86
1012.293	88.46
1012.718	88.16
1013.143	81.56
1013.567	88.76
1013.992	83.46
1014.417	81.76
1014.842	80.26
1015.267	81.96
1015.691	81.96
1016.116	84.96
1016.541	86.16
1016.965	83.56
1017.39	84.36
1017.814	80.56
1018.239	85.36
1018.663	80.36
1019.088	80.26
1019.512	85.06
1019.937	76.16
1020.361	82.46
1020.785	74.26
1021.21	81.56
1021.634	83.56
1022.058	82.96
1022.483	84.36
1022.907	83.86
1023.331	81.66
1023.755	80.56
1024.179	83.46
1024.604	78.56
1025.028	87.06
1025.452	76.66
1025.876	81.06
1026.3	81.16
1026.724	74.86
1027.148	85.76
1027.572	78.16
1027.996	84.26
1028.42	79.36
1028.843	88.06
1029.267	82.96
1029.691	84.36
1030.115	89.36
1030.539	82.36
1030.962	89.06
1031.386	79.56
1031.81	79.96
1032.233	84.96
1032.657	86.66
1033.08	81.76
1033.504	77.36
1033.927	82.76
1034.351	79.96
1034.774	82.56
1035.198	83.26
1035.621	81.06
1036.045	82.66
1036.468	83.86
1036.891	86.36
1037.315	83.16
1037.738	79.66
1038.161	82.96
1038.584	79.76
1039.008	81.56
1039.431	82.16
1039.854	79.66
1040.277	83.66
1040.7	80.86
1041.123	77.06
1041.546	84.56
1041.969	79.96
1042.392	78.16
1042.815	84.76
1043.238	80.46
1043.661	86.66
1044.084	78.06
1044.507	79.26
1044.93	78.96
1045.352	85.76
1045.775	85.56
1046.198	81.76
1046.621	82.16
1047.043	77.76
1047.466	83.96
1047.889	82.56
1048.311	83.86
1048.734	82.46
1049.156	81.66
1049.579	77.26
1050.001	81.26
1050.424	84.16
1050.846	79.66
1051.269	83.76
1051.691	84.26
1052.113	84.16
1052.536	82.16
1052.958	80.56
1053.38	84.56
1053.802	75.66
1054.225	77.46
1054.647	81.06
1055.069	78.96
1055.491	80.16
1055.913	84.66
1056.335	79.86
1056.757	79.56
1057.179	78.76
1057.601	74.16
1058.023	82.76
1058.445	78.76
1058.867	78.96
1059.289	78.26
1059.711	74.86
1060.133	81.46
1060.555	84.26
1060.976	82.96
1061.398	80.56
1061.82	85.86
1062.241	82.86
1062.663	83.76
1063.085	78.36
1063.506	81.96
1063.928	77.76
1064.35	81.26
1064.771	80.96
1065.193	83.16
1065.614	85.56
1066.035	83.86
1066.457	81.46
1066.878	84.56
1067.3	77.16
1067.721	81.66
1068.142	81.96
1068.564	83.36
1068.985	82.06
1069.406	79.36
1069.827	73.76
1070.248	81.76
1070.67	82.26
1071.091	80.16
1071.512	83.96
1071.933	81.16
1072.354	76.56
1072.775	87.96
1073.196	79.96
1073.617	82.46
1074.038	85.16
1074.459	83.56
1074.88	85.46
1075.3	80.26
1075.721	82.96
1076.142	77.86
1076.563	81.36
1076.983	82.26
1077.404	78.96
1077.825	80.56
1078.246	82.36
1078.666	80.86
1079.087	84.06
1079.507	75.46
1079.928	77.66
1080.348	79.36
1080.769	80.46
1081.189	81.36
1081.61	79.56
1082.03	78.86
1082.451	81.06
1082.871	84.96
1083.291	76.76
1083.711	85.86
1084.132	79.86
1084.552	83.36
1084.972	80.56
1085.392	78.06
1085.813	77.56
1086.233	80.06
1086.653	82.16
1087.073	82.36
1087.493	77.86
1087.913	82.46
1088.333	88.96
1088.753	81.56
1089.173	84.56
1089.593	80.56
1090.013	82.26
1090.433	81.56
1090.852	84.26
1091.272	81.76
1091.692	81.96
1092.112	84.06
1092.531	83.76
1092.951	80.46
1093.371	82.06
1093.79	78.46
1094.21	79.76
1094.63	80.36
1095.049	81.56
1095.469	85.16
1095.888	84.06
1096.308	83.66
1096.727	87.56
1097.146	87.36
1097.566	83.16
1097.985	84.76
1098.405	78.16
1098.824	77.36
1099.243	82.66
1099.662	83.66
1100.082	79.56
1100.501	82.36
1100.92	84.56
1101.339	83.96
1101.758	81.16
