Data from 20170802-ORNL-NYSim-Air_HRD10391_10-36-36-612.txt Node
Date: Wed Aug 02 10:36:36 EDT 2017
User: Ender
Spectrometer: HR+D1039
Trigger mode: 0
Integration Time (sec): 3.750000E-3
Scans to average: 1
Electric dark correction enabled: true
Nonlinearity correction enabled: false
Boxcar width: 0
XAxis mode: Wavelengths
Number of Pixels in Spectrum: 2048
>>>>>Begin Spectral Data<<<<<
187.836	2.5
188.309	2.5
188.782	2.5
189.255	-9.5
189.728	-5.5
190.201	-4.5
190.674	-0.5
191.147	-13.5
191.619	1.5
192.092	1.5
192.565	-6.5
193.038	5.5
193.511	-4.5
193.984	9.5
194.456	-3.5
194.929	2.5
195.402	16.5
195.874	8.5
196.347	43.5
196.82	27.5
197.292	41.5
197.765	21.5
198.237	34.5
198.71	33.5
199.182	46.5
199.655	59.5
200.127	40.5
200.6	66.5
201.072	56.5
201.544	71.5
202.017	77.5
202.489	75.5
202.961	67.5
203.433	91.5
203.906	72.5
204.378	70.5
204.85	84.5
205.322	78.5
205.794	93.5
206.266	72.5
206.739	85.5
207.211	93.5
207.683	93.5
208.155	75.5
208.627	87.5
209.099	87.5
209.57	97.5
210.042	90.5
210.514	97.5
210.986	89.5
211.458	101.5
211.93	76.5
212.402	80.5
212.873	77.5
213.345	98.5
213.817	95.5
214.288	73.5
214.76	81.5
215.232	71.5
215.703	78.5
216.175	87.5
216.646	78.5
217.118	86.5
217.589	82.5
218.061	80.5
218.532	82.5
219.004	84.5
219.475	78.5
219.946	73.5
220.418	94.5
220.889	94.5
221.36	81.5
221.832	73.5
222.303	76.5
222.774	97.5
223.245	91.5
223.717	88.5
224.188	76.5
224.659	72.5
225.13	74.5
225.601	84.5
226.072	84.5
226.543	75.5
227.014	80.5
227.485	76.5
227.956	82.5
228.427	87.5
228.898	92.5
229.369	80.5
229.839	91.5
230.31	66.5
230.781	92.5
231.252	79.5
231.722	93.5
232.193	78.5
232.664	83.5
233.135	90.5
233.605	97.5
234.076	87.5
234.546	86.5
235.017	89.5
235.487	92.5
235.958	79.5
236.428	88.5
236.899	87.5
237.369	110.5
237.84	82.5
238.31	77.5
238.78	91.5
239.251	88.5
239.721	79.5
240.191	84.5
240.662	100.5
241.132	80.5
241.602	96.5
242.072	97.5
242.542	101.5
243.013	98.5
243.483	91.5
243.953	100.5
244.423	102.5
244.893	106.5
245.363	107.5
245.833	104.5
246.303	101.5
246.773	102.5
247.243	108.5
247.712	90.5
248.182	98.5
248.652	101.5
249.122	105.5
249.592	101.5
250.061	107.5
250.531	105.5
251.001	120.5
251.471	112.5
251.94	97.5
252.41	120.5
252.879	109.5
253.349	102.5
253.818	117.5
254.288	105.5
254.757	108.5
255.227	95.5
255.696	97.5
256.166	102.5
256.635	120.5
257.105	114.5
257.574	121.5
258.043	108.5
258.513	110.5
258.982	106.5
259.451	115.5
259.92	121.5
260.389	131.5
260.859	101.5
261.328	104.5
261.797	116.5
262.266	130.5
262.735	115.5
263.204	117.5
263.673	118.5
264.142	120.5
264.611	122.5
265.08	114.5
265.549	128.5
266.018	132.5
266.487	99.5
266.955	126.5
267.424	140.5
267.893	104.5
268.362	124.5
268.83	128.5
269.299	108.5
269.768	140.5
270.236	138.5
270.705	129.5
271.174	124.5
271.642	124.5
272.111	145.5
272.579	125.5
273.048	129.5
273.516	111.5
273.985	132.5
274.453	115.5
274.922	142.5
275.39	141.5
275.858	129.5
276.327	134.5
276.795	149.5
277.263	151.5
277.731	155.5
278.2	135.5
278.668	131.5
279.136	157.5
279.604	156.5
280.072	161.5
280.54	154.5
281.008	142.5
281.477	152.5
281.945	144.5
282.413	154.5
282.881	154.5
283.348	171.5
283.816	140.5
284.284	142.5
284.752	153.5
285.22	152.5
285.688	162.5
286.156	159.5
286.623	149.5
287.091	155.5
287.559	161.5
288.026	159.5
288.494	153.5
288.962	157.5
289.429	164.5
289.897	160.5
290.364	183.5
290.832	154.5
291.3	174.5
291.767	170.5
292.234	166.5
292.702	174.5
293.169	186.5
293.637	159.5
294.104	172.5
294.571	165.5
295.039	177.5
295.506	180.5
295.973	179.5
296.44	175.5
296.908	168.5
297.375	176.5
297.842	160.5
298.309	174.5
298.776	186.5
299.243	207.5
299.71	189.5
300.177	198.5
300.644	175.5
301.111	175.5
301.578	188.5
302.045	195.5
302.512	192.5
302.979	197.5
303.446	179.5
303.913	210.5
304.379	218.5
304.846	193.5
305.313	209.5
305.78	222.5
306.246	199.5
306.713	210.5
307.18	209.5
307.646	202.5
308.113	219.5
308.579	218.5
309.046	229.5
309.512	225.5
309.979	212.5
310.445	208.5
310.912	212.5
311.378	215.5
311.845	226.5
312.311	244.5
312.777	225.5
313.244	234.5
313.71	234.5
314.176	233.5
314.642	235.5
315.109	237.5
315.575	246.5
316.041	246.5
316.507	242.5
316.973	244.5
317.439	256.5
317.905	244.5
318.371	261.5
318.837	259.5
319.303	256.5
319.769	242.5
320.235	256.5
320.701	224.5
321.167	224.5
321.633	257.5
322.099	277.5
322.564	250.5
323.03	258.5
323.496	255.5
323.962	263.5
324.427	272.5
324.893	278.5
325.359	272.5
325.824	273.5
326.29	273.5
326.755	270.5
327.221	281.5
327.686	280.5
328.152	292.5
328.617	300.5
329.083	278.5
329.548	280.5
330.014	296.5
330.479	294.5
330.944	298.5
331.41	288.5
331.875	304.5
332.34	296.5
332.805	289.5
333.271	280.5
333.736	307.5
334.201	308.5
334.666	325.5
335.131	308.5
335.596	322.5
336.061	312.5
336.526	301.5
336.991	306.5
337.456	307.5
337.921	301.5
338.386	294.5
338.851	313.5
339.316	317.5
339.781	303.5
340.246	295.5
340.711	313.5
341.175	315.5
341.64	331.5
342.105	337.5
342.569	355.5
343.034	376.5
343.499	340.5
343.963	335.5
344.428	348.5
344.893	357.5
345.357	350.5
345.822	353.5
346.286	377.5
346.751	361.5
347.215	371.5
347.679	378.5
348.144	394.5
348.608	377.5
349.073	372.5
349.537	398.5
350.001	441.5
350.465	412.5
350.93	406.5
351.394	397.5
351.858	418.5
352.322	429.5
352.786	408.5
353.25	403.5
353.715	441.5
354.179	430.5
354.643	452.5
355.107	473.5
355.571	452.5
356.035	450.5
356.498	472.5
356.962	440.5
357.426	431.5
357.89	420.5
358.354	456.5
358.818	421.5
359.281	398.5
359.745	422.5
360.209	440.5
360.673	432.5
361.136	419.5
361.6	435.5
362.064	439.5
362.527	480.5
362.991	454.5
363.454	455.5
363.918	470.5
364.381	456.5
364.845	454.5
365.308	489.5
365.772	458.5
366.235	477.5
366.698	500.5
367.162	465.5
367.625	488.5
368.088	462.5
368.552	487.5
369.015	499.5
369.478	469.5
369.941	493.5
370.404	475.5
370.867	499.5
371.331	511.5
371.794	524.5
372.257	517.5
372.72	520.5
373.183	523.5
373.646	515.5
374.109	520.5
374.572	542.5
375.035	516.5
375.497	528.5
375.96	540.5
376.423	559.5
376.886	552.5
377.349	573.5
377.811	560.5
378.274	552.5
378.737	586.5
379.199	568.5
379.662	572.5
380.125	567.5
380.587	565.5
381.05	553.5
381.512	586.5
381.975	585.5
382.437	638.5
382.9	624.5
383.362	628.5
383.825	644.5
384.287	630.5
384.75	621.5
385.212	634.5
385.674	630.5
386.136	634.5
386.599	620.5
387.061	636.5
387.523	630.5
387.985	642.5
388.447	625.5
388.91	657.5
389.372	682.5
389.834	646.5
390.296	656.5
390.758	664.5
391.22	674.5
391.682	644.5
392.144	659.5
392.606	641.5
393.068	694.5
393.529	703.5
393.991	725.5
394.453	702.5
394.915	699.5
395.377	693.5
395.838	690.5
396.3	682.5
396.762	699.5
397.224	677.5
397.685	666.5
398.147	659.5
398.608	683.5
399.07	692.5
399.531	712.5
399.993	730.5
400.454	753.5
400.916	688.5
401.377	726.5
401.839	747.5
402.3	761.5
402.762	769.5
403.223	841.5
403.684	830.5
404.145	814.5
404.607	800.5
405.068	802.5
405.529	785.5
405.99	806.5
406.451	790.5
406.913	796.5
407.374	800.5
407.835	793.5
408.296	802.5
408.757	812.5
409.218	846.5
409.679	824.5
410.14	856.5
410.601	853.5
411.062	870.5
411.522	899.5
411.983	876.5
412.444	922.5
412.905	944.5
413.366	951.5
413.826	973.5
414.287	1104.5
414.748	1258.5
415.208	1324.5
415.669	1110.5
416.13	1048.5
416.59	1024.5
417.051	1028.5
417.511	1095.5
417.972	1154.5
418.432	1225.5
418.893	1354.5
419.353	1351.5
419.814	1071.5
420.274	924.5
420.734	909.5
421.195	952.5
421.655	931.5
422.115	956.5
422.576	977.5
423.036	988.5
423.496	998.5
423.956	1037.5
424.416	1108.5
424.876	1252.5
425.336	1241.5
425.797	1186.5
426.257	1152.5
426.717	1099.5
427.177	1018.5
427.637	1022.5
428.097	1046.5
428.556	1080.5
429.016	1170.5
429.476	1187.5
429.936	1147.5
430.396	1128.5
430.856	1171.5
431.315	1178.5
431.775	1227.5
432.235	1330.5
432.694	1340.5
433.154	1242.5
433.614	1290.5
434.073	1220.5
434.533	1115.5
434.993	1082.5
435.452	1110.5
435.912	1091.5
436.371	1055.5
436.83	1090.5
437.29	1073.5
437.749	1066.5
438.209	1058.5
438.668	1030.5
439.127	1110.5
439.587	1084.5
440.046	1000.5
440.505	1075.5
440.964	1112.5
441.424	1138.5
441.883	1152.5
442.342	1070.5
442.801	1071.5
443.26	1070.5
443.719	1064.5
444.178	1048.5
444.637	1064.5
445.096	1070.5
445.555	1078.5
446.014	1091.5
446.473	1044.5
446.932	1024.5
447.391	1090.5
447.849	1140.5
448.308	1101.5
448.767	1118.5
449.226	1140.5
449.685	1126.5
450.143	1181.5
450.602	1171.5
451.061	1121.5
451.519	1095.5
451.978	1095.5
452.436	1084.5
452.895	1130.5
453.353	1133.5
453.812	1098.5
454.27	1091.5
454.729	1117.5
455.187	1129.5
455.646	1137.5
456.104	1105.5
456.562	1131.5
457.021	1152.5
457.479	1126.5
457.937	1157.5
458.395	1198.5
458.854	1188.5
459.312	1152.5
459.77	1163.5
460.228	1176.5
460.686	1176.5
461.144	1181.5
461.602	1174.5
462.06	1184.5
462.518	1230.5
462.976	1199.5
463.434	1239.5
463.892	1266.5
464.35	1230.5
464.808	1278.5
465.266	1305.5
465.724	1274.5
466.181	1333.5
466.639	1280.5
467.097	1341.5
467.555	1372.5
468.012	1399.5
468.47	1404.5
468.928	1459.5
469.385	1469.5
469.843	1465.5
470.3	1464.5
470.758	1488.5
471.215	1538.5
471.673	1569.5
472.13	1599.5
472.588	1633.5
473.045	1616.5
473.503	1669.5
473.96	1714.5
474.417	1734.5
474.875	1802.5
475.332	1879.5
475.789	1912.5
476.246	1907.5
476.704	1967.5
477.161	2071.5
477.618	2076.5
478.075	2153.5
478.532	2229.5
478.989	2311.5
479.446	2502.5
479.903	2552.5
480.36	2714.5
480.817	2783.5
481.274	2932.5
481.731	3173.5
482.188	3354.5
482.645	3594.5
483.102	3704.5
483.558	3945.5
484.015	4076.5
484.472	4071.5
484.929	3973.5
485.385	3834.5
485.842	3807.5
486.299	3685.5
486.755	3480.5
487.212	3257.5
487.668	3003.5
488.125	2941.5
488.582	2813.5
489.038	2686.5
489.494	2630.5
489.951	2638.5
490.407	2617.5
490.864	2582.5
491.32	2571.5
491.776	2560.5
492.233	2568.5
492.689	2512.5
493.145	2542.5
493.602	2446.5
494.058	2490.5
494.514	2532.5
494.97	2568.5
495.426	2564.5
495.882	2597.5
496.338	2569.5
496.794	2574.5
497.251	2626.5
497.707	2637.5
498.163	2624.5
498.618	2610.5
499.074	2626.5
499.53	2680.5
499.986	2694.5
500.442	2688.5
500.898	2599.5
501.354	2660.5
501.809	2663.5
502.265	2678.5
502.721	2694.5
503.177	2652.5
503.632	2712.5
504.088	2677.5
504.543	2680.5
504.999	2764.5
505.455	2768.5
505.91	2711.5
506.366	2754.5
506.821	2693.5
507.277	2742.5
507.732	2734.5
508.187	2762.5
508.643	2778.5
509.098	2780.5
509.553	2785.5
510.009	2866.5
510.464	2874.5
510.919	2948.5
511.375	2935.5
511.83	2969.5
512.285	2970.5
512.74	3062.5
513.195	3132.5
513.65	3184.5
514.105	3208.5
514.56	3284.5
515.015	3203.5
515.47	3316.5
515.925	3254.5
516.38	3261.5
516.835	3235.5
517.29	3293.5
517.745	3252.5
518.2	3200.5
518.655	3192.5
519.109	3094.5
519.564	3126.5
520.019	3094.5
520.474	3045.5
520.928	3067.5
521.383	3033.5
521.838	3016.5
522.292	2976.5
522.747	2911.5
523.201	2992.5
523.656	2905.5
524.11	2931.5
524.565	2889.5
525.019	2934.5
525.474	2880.5
525.928	2909.5
526.382	2900.5
526.837	2874.5
527.291	2897.5
527.745	2863.5
528.2	2841.5
528.654	2844.5
529.108	2865.5
529.562	2890.5
530.016	2832.5
530.47	2881.5
530.925	2836.5
531.379	2889.5
531.833	2883.5
532.287	2909.5
532.741	2900.5
533.195	2888.5
533.649	2886.5
534.103	2907.5
534.556	2863.5
535.01	2869.5
535.464	2876.5
535.918	2872.5
536.372	2925.5
536.826	2899.5
537.279	2893.5
537.733	2920.5
538.187	2898.5
538.64	2889.5
539.094	2858.5
539.548	2914.5
540.001	2955.5
540.455	2960.5
540.908	2966.5
541.362	2982.5
541.815	2984.5
542.269	3083.5
542.722	3060.5
543.175	3094.5
543.629	3180.5
544.082	3161.5
544.536	3149.5
544.989	3244.5
545.442	3175.5
545.895	3197.5
546.349	3184.5
546.802	3250.5
547.255	3242.5
547.708	3204.5
548.161	3286.5
548.614	3219.5
549.067	3276.5
549.52	3262.5
549.973	3254.5
550.426	3224.5
550.879	3215.5
551.332	3197.5
551.785	3270.5
552.238	3183.5
552.691	3288.5
553.144	3328.5
553.596	3367.5
554.049	3436.5
554.502	3522.5
554.955	3508.5
555.407	3590.5
555.86	3556.5
556.313	3496.5
556.765	3490.5
557.218	3461.5
557.67	3462.5
558.123	3382.5
558.576	3364.5
559.028	3377.5
559.48	3394.5
559.933	3389.5
560.385	3309.5
560.838	3212.5
561.29	3116.5
561.742	3086.5
562.195	3059.5
562.647	2976.5
563.099	3013.5
563.551	2964.5
564.004	2972.5
564.456	2993.5
564.908	2898.5
565.36	2882.5
565.812	2752.5
566.264	2818.5
566.716	2737.5
567.168	2711.5
567.62	2653.5
568.072	2677.5
568.524	2650.5
568.976	2669.5
569.428	2622.5
569.88	2586.5
570.332	2649.5
570.784	2665.5
571.235	2652.5
571.687	2657.5
572.139	2695.5
572.59	2675.5
573.042	2716.5
573.494	2684.5
573.945	2643.5
574.397	2576.5
574.849	2642.5
575.3	2603.5
575.752	2594.5
576.203	2532.5
576.655	2546.5
577.106	2520.5
577.557	2550.5
578.009	2522.5
578.46	2527.5
578.912	2508.5
579.363	2484.5
579.814	2489.5
580.265	2467.5
580.717	2509.5
581.168	2505.5
581.619	2487.5
582.07	2545.5
582.521	2490.5
582.972	2504.5
583.423	2565.5
583.875	2542.5
584.326	2489.5
584.777	2560.5
585.227	2622.5
585.678	2664.5
586.129	2682.5
586.58	2671.5
587.031	2692.5
587.482	2840.5
587.933	2831.5
588.384	2890.5
588.834	2813.5
589.285	2809.5
589.736	2814.5
590.186	2773.5
590.637	2810.5
591.088	2720.5
591.538	2719.5
591.989	2703.5
592.439	2655.5
592.89	2646.5
593.34	2587.5
593.791	2565.5
594.241	2561.5
594.692	2561.5
595.142	2512.5
595.593	2558.5
596.043	2544.5
596.493	2565.5
596.943	2636.5
597.394	2616.5
597.844	2629.5
598.294	2734.5
598.744	2800.5
599.195	2913.5
599.645	3065.5
600.095	3254.5
600.545	3344.5
600.995	3514.5
601.445	3671.5
601.895	3837.5
602.345	4010.5
602.795	3900.5
603.245	3790.5
603.695	3618.5
604.145	3504.5
604.594	3258.5
605.044	3130.5
605.494	2954.5
605.944	2820.5
606.393	2669.5
606.843	2668.5
607.293	2617.5
607.743	2537.5
608.192	2596.5
608.642	2603.5
609.091	2603.5
609.541	2595.5
609.99	2599.5
610.44	2530.5
610.889	2526.5
611.339	2534.5
611.788	2428.5
612.238	2492.5
612.687	2472.5
613.136	2479.5
613.586	2523.5
614.035	2451.5
614.484	2576.5
614.933	2536.5
615.383	2473.5
615.832	2436.5
616.281	2409.5
616.73	2360.5
617.179	2244.5
617.628	2291.5
618.077	2228.5
618.526	2176.5
618.975	2178.5
619.424	2135.5
619.873	2113.5
620.322	2102.5
620.771	2140.5
621.22	2074.5
621.669	2069.5
622.118	2070.5
622.567	2022.5
623.015	1976.5
623.464	1989.5
623.913	1931.5
624.361	1916.5
624.81	1962.5
625.259	1913.5
625.707	1897.5
626.156	1948.5
626.604	1918.5
627.053	1953.5
627.501	1923.5
627.95	1973.5
628.398	1979.5
628.847	1942.5
629.295	1948.5
629.744	1954.5
630.192	1926.5
630.64	1894.5
631.089	1862.5
631.537	1852.5
631.985	1787.5
632.433	1830.5
632.881	1800.5
633.33	1816.5
633.778	1828.5
634.226	1783.5
634.674	1816.5
635.122	1864.5
635.57	1826.5
636.018	1854.5
636.466	1896.5
636.914	1893.5
637.362	1885.5
637.81	1888.5
638.258	1984.5
638.705	1993.5
639.153	2046.5
639.601	2086.5
640.049	2122.5
640.497	2195.5
640.944	2221.5
641.392	2131.5
641.84	2048.5
642.287	1915.5
642.735	1871.5
643.182	1861.5
643.63	1862.5
644.078	1860.5
644.525	1886.5
644.973	1948.5
645.42	1939.5
645.867	1928.5
646.315	1995.5
646.762	2030.5
647.21	2038.5
647.657	2064.5
648.104	2097.5
648.551	2162.5
648.999	2262.5
649.446	2340.5
649.893	2468.5
650.34	2704.5
650.787	3117.5
651.234	3752.5
651.682	4786.5
652.129	6385.5
652.576	8801.5
653.023	11768.5
653.47	14154.5
653.917	15444.5
654.363	15699.5
654.81	15699.5
655.257	15699.5
655.704	14136.5
656.151	8755.5
656.598	5901.5
657.044	4346.5
657.491	3493.5
657.938	2992.5
658.385	2596.5
658.831	2412.5
659.278	2194.5
659.724	2027.5
660.171	2008.5
660.618	1883.5
661.064	1832.5
661.511	1774.5
661.957	1707.5
662.404	1741.5
662.85	1697.5
663.296	1708.5
663.743	1696.5
664.189	1650.5
664.635	1686.5
665.082	1672.5
665.528	1604.5
665.974	1591.5
666.42	1520.5
666.867	1576.5
667.313	1469.5
667.759	1498.5
668.205	1449.5
668.651	1432.5
669.097	1477.5
669.543	1530.5
669.989	1511.5
670.435	1499.5
670.881	1561.5
671.327	1574.5
671.773	1672.5
672.219	1770.5
672.665	1893.5
673.11	1982.5
673.556	2015.5
674.002	2095.5
674.448	2091.5
674.893	1894.5
675.339	1606.5
675.785	1468.5
676.23	1384.5
676.676	1356.5
677.122	1345.5
677.567	1266.5
678.013	1246.5
678.458	1229.5
678.904	1196.5
679.349	1160.5
679.794	1186.5
680.24	1217.5
680.685	1169.5
681.131	1185.5
681.576	1192.5
682.021	1206.5
682.466	1181.5
682.912	1171.5
683.357	1259.5
683.802	1341.5
684.247	1456.5
684.692	1564.5
685.137	1635.5
685.583	1694.5
686.028	1749.5
686.473	1751.5
686.918	1549.5
687.363	1386.5
687.807	1333.5
688.252	1290.5
688.697	1184.5
689.142	1156.5
689.587	1200.5
690.032	1197.5
690.477	1217.5
690.921	1272.5
691.366	1318.5
691.811	1388.5
692.255	1473.5
692.7	1698.5
693.145	2207.5
693.589	3322.5
694.034	4517.5
694.478	5029.5
694.923	4684.5
695.367	5687.5
695.812	5294.5
696.256	2049.5
696.701	1381.5
697.145	1217.5
697.59	1128.5
698.034	1115.5
698.478	1128.5
698.922	1105.5
699.367	1136.5
699.811	1176.5
700.255	1242.5
700.699	1339.5
701.143	1497.5
701.588	1582.5
702.032	1640.5
702.476	1736.5
702.92	1767.5
703.364	2052.5
703.808	3024.5
704.252	4244.5
704.696	4801.5
705.14	4434.5
705.584	5593.5
706.027	4517.5
706.471	2091.5
706.915	1438.5
707.359	1236.5
707.803	1114.5
708.246	1093.5
708.69	1107.5
709.134	1097.5
709.577	1072.5
710.021	1073.5
710.465	1066.5
710.908	1056.5
711.352	1068.5
711.795	1146.5
712.239	1261.5
712.682	1344.5
713.126	1266.5
713.569	1400.5
714.012	1306.5
714.456	1074.5
714.899	975.5
715.342	970.5
715.786	939.5
716.229	909.5
716.672	872.5
717.115	849.5
717.558	896.5
718.002	902.5
718.445	925.5
718.888	962.5
719.331	1010.5
719.774	1024.5
720.217	1031.5
720.66	1011.5
721.103	920.5
721.546	872.5
721.989	850.5
722.432	863.5
722.874	864.5
723.317	825.5
723.76	871.5
724.203	967.5
724.645	1339.5
725.088	1612.5
725.531	1728.5
725.974	1703.5
726.416	1794.5
726.859	1172.5
727.301	902.5
727.744	838.5
728.187	838.5
728.629	827.5
729.071	850.5
729.514	924.5
729.956	946.5
730.399	964.5
730.841	1000.5
731.283	992.5
731.726	957.5
732.168	952.5
732.61	948.5
733.053	1050.5
733.495	1100.5
733.937	1251.5
734.379	1368.5
734.821	1660.5
735.263	2331.5
735.705	4102.5
736.148	6737.5
736.59	7923.5
737.032	7429.5
737.474	8028.5
737.916	3760.5
738.357	1760.5
738.799	1223.5
739.241	1099.5
739.683	1066.5
740.125	1082.5
740.567	1090.5
741.008	1131.5
741.45	1209.5
741.892	1232.5
742.334	1310.5
742.775	1258.5
743.217	1279.5
743.658	1110.5
744.1	1078.5
744.542	1166.5
744.983	1292.5
745.425	1281.5
745.866	1428.5
746.307	1180.5
746.749	1090.5
747.19	1364.5
747.632	2246.5
748.073	4499.5
748.514	7164.5
748.956	8655.5
749.397	11998.5
749.838	9701.5
750.279	7718.5
750.72	5792.5
751.162	2500.5
751.603	1322.5
752.044	928.5
752.485	836.5
752.926	754.5
753.367	750.5
753.808	711.5
754.249	708.5
754.69	708.5
755.131	693.5
755.572	721.5
756.013	693.5
756.453	683.5
756.894	690.5
757.335	717.5
757.776	707.5
758.216	741.5
758.657	752.5
759.098	809.5
759.538	909.5
759.979	1163.5
760.42	1864.5
760.86	4440.5
761.301	10576.5
761.741	15341.5
762.182	15644.5
762.622	14920.5
763.063	6722.5
763.503	2595.5
763.943	1322.5
764.384	963.5
764.824	864.5
765.264	781.5
765.705	742.5
766.145	711.5
766.585	682.5
767.025	668.5
767.465	670.5
767.906	652.5
768.346	693.5
768.786	732.5
769.226	927.5
769.666	1579.5
770.106	3486.5
770.546	6323.5
770.986	6802.5
771.426	6669.5
771.866	3564.5
772.306	1548.5
772.745	838.5
773.185	719.5
773.625	630.5
774.065	646.5
774.505	802.5
774.944	1245.5
775.384	2076.5
775.824	2390.5
776.263	2344.5
776.703	1601.5
777.142	903.5
777.582	630.5
778.021	554.5
778.461	514.5
778.9	468.5
779.34	500.5
779.779	490.5
780.219	478.5
780.658	468.5
781.097	470.5
781.537	459.5
781.976	436.5
782.415	438.5
782.855	427.5
783.294	434.5
783.733	428.5
784.172	426.5
784.611	442.5
785.05	420.5
785.489	444.5
785.928	449.5
786.367	462.5
786.806	463.5
787.245	514.5
787.684	524.5
788.123	536.5
788.562	546.5
789.001	508.5
789.44	449.5
789.879	491.5
790.317	508.5
790.756	490.5
791.195	579.5
791.634	694.5
792.072	972.5
792.511	2055.5
792.95	4710.5
793.388	5946.5
793.827	5208.5
794.265	2883.5
794.704	1414.5
795.142	777.5
795.581	602.5
796.019	520.5
796.458	521.5
796.896	521.5
797.334	566.5
797.773	657.5
798.211	1044.5
798.649	2233.5
799.087	3728.5
799.526	5763.5
799.964	6488.5
800.402	5421.5
800.84	3003.5
801.278	1518.5
801.716	845.5
802.154	619.5
802.592	586.5
803.03	562.5
803.468	588.5
803.906	582.5
804.344	590.5
804.782	560.5
805.22	554.5
805.658	585.5
806.096	581.5
806.533	648.5
806.971	746.5
807.409	972.5
807.847	1588.5
808.284	3791.5
808.722	7744.5
809.16	10714.5
809.597	14781.5
810.035	15699.5
810.472	15699.5
810.91	8885.5
811.347	4178.5
811.785	1890.5
812.222	1033.5
812.66	809.5
813.097	644.5
813.535	552.5
813.972	525.5
814.409	523.5
814.846	488.5
815.284	446.5
815.721	463.5
816.158	484.5
816.595	583.5
817.032	712.5
817.47	792.5
817.907	638.5
818.344	558.5
818.781	483.5
819.218	534.5
819.655	712.5
820.092	961.5
820.529	1055.5
820.966	869.5
821.403	671.5
821.839	517.5
822.276	522.5
822.713	586.5
823.15	614.5
823.587	600.5
824.023	755.5
824.46	1679.5
824.897	3276.5
825.333	3431.5
825.77	2004.5
826.206	1164.5
826.643	660.5
827.08	442.5
827.516	400.5
827.953	352.5
828.389	362.5
828.825	345.5
829.262	321.5
829.698	326.5
830.135	304.5
830.571	297.5
831.007	295.5
831.443	302.5
831.88	313.5
832.316	285.5
832.752	312.5
833.188	304.5
833.624	315.5
834.06	338.5
834.497	307.5
834.933	321.5
835.369	342.5
835.805	348.5
836.241	359.5
836.677	389.5
837.112	409.5
837.548	506.5
837.984	616.5
838.42	1078.5
838.856	2751.5
839.292	5904.5
839.727	6491.5
840.163	4197.5
840.599	4984.5
841.034	7474.5
841.47	5790.5
841.906	3071.5
842.341	1708.5
842.777	1068.5
843.212	990.5
843.648	775.5
844.083	566.5
844.519	432.5
844.954	356.5
845.39	320.5
845.825	335.5
846.261	300.5
846.696	280.5
847.131	272.5
847.566	274.5
848.002	257.5
848.437	268.5
848.872	301.5
849.307	333.5
849.742	481.5
850.177	979.5
850.613	2162.5
851.048	2334.5
851.483	1293.5
851.918	817.5
852.353	485.5
852.788	335.5
853.223	276.5
853.657	258.5
854.092	254.5
854.527	270.5
854.962	258.5
855.397	260.5
855.832	252.5
856.266	254.5
856.701	235.5
857.136	234.5
857.57	270.5
858.005	298.5
858.44	297.5
858.874	278.5
859.309	272.5
859.743	263.5
860.178	272.5
860.612	265.5
861.047	303.5
861.481	398.5
861.915	391.5
862.35	307.5
862.784	262.5
863.218	228.5
863.653	225.5
864.087	260.5
864.521	306.5
864.955	374.5
865.39	626.5
865.824	618.5
866.258	667.5
866.692	961.5
867.126	930.5
867.56	636.5
867.994	421.5
868.428	293.5
868.862	322.5
869.296	338.5
869.73	335.5
870.164	339.5
870.598	319.5
871.031	260.5
871.465	236.5
871.899	213.5
872.333	194.5
872.766	179.5
873.2	196.5
873.634	171.5
874.067	166.5
874.501	186.5
874.935	177.5
875.368	175.5
875.802	201.5
876.235	190.5
876.669	178.5
877.102	174.5
877.535	169.5
877.969	164.5
878.402	172.5
878.836	167.5
879.269	185.5
879.702	159.5
880.135	152.5
880.569	149.5
881.002	165.5
881.435	165.5
881.868	160.5
882.301	160.5
882.734	154.5
883.167	173.5
883.601	168.5
884.034	145.5
884.467	163.5
884.899	156.5
885.332	150.5
885.765	143.5
886.198	150.5
886.631	160.5
887.064	142.5
887.497	146.5
887.929	159.5
888.362	162.5
888.795	138.5
889.228	152.5
889.66	144.5
890.093	132.5
890.526	144.5
890.958	140.5
891.391	150.5
891.823	136.5
892.256	147.5
892.688	159.5
893.121	148.5
893.553	166.5
893.985	144.5
894.418	136.5
894.85	156.5
895.282	155.5
895.715	147.5
896.147	141.5
896.579	150.5
897.011	148.5
897.444	138.5
897.876	143.5
898.308	140.5
898.74	149.5
899.172	146.5
899.604	147.5
900.036	151.5
900.468	153.5
900.9	162.5
901.332	161.5
901.764	164.5
902.196	167.5
902.628	163.5
903.06	178.5
903.491	219.5
903.923	206.5
904.355	194.5
904.787	180.5
905.218	196.5
905.65	179.5
906.082	185.5
906.513	164.5
906.945	155.5
907.376	163.5
907.808	158.5
908.239	157.5
908.671	175.5
909.102	168.5
909.534	198.5
909.965	283.5
910.397	517.5
910.828	1292.5
911.259	1428.5
911.691	874.5
912.122	624.5
912.553	337.5
912.984	228.5
913.415	178.5
913.847	166.5
914.278	151.5
914.709	151.5
915.14	142.5
915.571	155.5
916.002	133.5
916.433	143.5
916.864	139.5
917.295	140.5
917.726	152.5
918.157	172.5
918.587	174.5
919.018	170.5
919.449	169.5
919.88	166.5
920.311	210.5
920.741	338.5
921.172	671.5
921.603	510.5
922.033	376.5
922.464	301.5
922.895	209.5
923.325	165.5
923.756	160.5
924.186	162.5
924.617	157.5
925.047	220.5
925.478	226.5
925.908	204.5
926.338	185.5
926.769	160.5
927.199	136.5
927.629	146.5
928.06	152.5
928.49	132.5
928.92	140.5
929.35	131.5
929.78	126.5
930.21	137.5
930.641	127.5
931.071	127.5
931.501	129.5
931.931	120.5
932.361	112.5
932.791	110.5
933.221	115.5
933.651	125.5
934.08	150.5
934.51	146.5
934.94	132.5
935.37	101.5
935.8	108.5
936.229	112.5
936.659	111.5
937.089	152.5
937.519	149.5
937.948	187.5
938.378	154.5
938.807	136.5
939.237	143.5
939.666	125.5
940.096	97.5
940.525	117.5
940.955	90.5
941.384	104.5
941.814	110.5
942.243	89.5
942.672	103.5
943.102	96.5
943.531	93.5
943.96	107.5
944.39	109.5
944.819	100.5
945.248	109.5
945.677	117.5
946.106	103.5
946.535	105.5
946.964	107.5
947.393	117.5
947.822	102.5
948.251	104.5
948.68	109.5
949.109	117.5
949.538	108.5
949.967	98.5
950.396	102.5
950.825	112.5
951.254	106.5
951.682	97.5
952.111	103.5
952.54	106.5
952.969	91.5
953.397	93.5
953.826	99.5
954.254	104.5
954.683	85.5
955.112	103.5
955.54	100.5
955.969	97.5
956.397	87.5
956.826	97.5
957.254	104.5
957.682	85.5
958.111	98.5
958.539	104.5
958.967	95.5
959.396	97.5
959.824	91.5
960.252	91.5
960.68	93.5
961.109	96.5
961.537	91.5
961.965	91.5
962.393	107.5
962.821	93.5
963.249	120.5
963.677	109.5
964.105	139.5
964.533	256.5
964.961	230.5
965.389	188.5
965.817	132.5
966.245	122.5
966.672	107.5
967.1	117.5
967.528	92.5
967.956	104.5
968.383	92.5
968.811	86.5
969.239	95.5
969.666	103.5
970.094	96.5
970.522	108.5
970.949	102.5
971.377	112.5
971.804	108.5
972.232	96.5
972.659	80.5
973.087	89.5
973.514	83.5
973.941	88.5
974.369	102.5
974.796	95.5
975.223	103.5
975.651	88.5
976.078	87.5
976.505	93.5
976.932	130.5
977.359	145.5
977.786	129.5
978.214	122.5
978.641	108.5
979.068	94.5
979.495	94.5
979.922	103.5
980.349	96.5
980.776	101.5
981.202	93.5
981.629	100.5
982.056	95.5
982.483	104.5
982.91	92.5
983.337	96.5
983.763	97.5
984.19	96.5
984.617	76.5
985.043	95.5
985.47	83.5
985.897	90.5
986.323	103.5
986.75	92.5
987.176	96.5
987.603	89.5
988.029	85.5
988.456	86.5
988.882	96.5
989.308	98.5
989.735	80.5
990.161	75.5
990.587	94.5
991.014	86.5
991.44	87.5
991.866	88.5
992.292	96.5
992.719	90.5
993.145	95.5
993.571	98.5
993.997	94.5
994.423	108.5
994.849	93.5
995.275	75.5
995.701	88.5
996.127	90.5
996.553	83.5
996.979	82.5
997.405	83.5
997.83	79.5
998.256	99.5
998.682	108.5
999.108	90.5
999.534	96.5
999.959	87.5
1000.385	109.5
1000.811	89.5
1001.236	92.5
1001.662	86.5
1002.087	97.5
1002.513	76.5
1002.938	80.5
1003.364	76.5
1003.789	78.5
1004.215	98.5
1004.64	91.5
1005.066	81.5
1005.491	101.5
1005.916	92.5
1006.342	100.5
1006.767	81.5
1007.192	86.5
1007.617	84.5
1008.042	91.5
1008.468	87.5
1008.893	97.5
1009.318	104.5
1009.743	102.5
1010.168	137.5
1010.593	112.5
1011.018	118.5
1011.443	103.5
1011.868	99.5
1012.293	102.5
1012.718	100.5
1013.143	95.5
1013.567	70.5
1013.992	86.5
1014.417	87.5
1014.842	87.5
1015.267	77.5
1015.691	97.5
1016.116	93.5
1016.541	96.5
1016.965	101.5
1017.39	83.5
1017.814	79.5
1018.239	90.5
1018.663	80.5
1019.088	92.5
1019.512	106.5
1019.937	100.5
1020.361	89.5
1020.785	101.5
1021.21	94.5
1021.634	89.5
1022.058	94.5
1022.483	100.5
1022.907	81.5
1023.331	72.5
1023.755	101.5
1024.179	82.5
1024.604	92.5
1025.028	66.5
1025.452	68.5
1025.876	84.5
1026.3	74.5
1026.724	74.5
1027.148	65.5
1027.572	88.5
1027.996	80.5
1028.42	61.5
1028.843	77.5
1029.267	98.5
1029.691	94.5
1030.115	87.5
1030.539	78.5
1030.962	73.5
1031.386	75.5
1031.81	88.5
1032.233	80.5
1032.657	87.5
1033.08	89.5
1033.504	96.5
1033.927	76.5
1034.351	74.5
1034.774	77.5
1035.198	81.5
1035.621	94.5
1036.045	79.5
1036.468	75.5
1036.891	90.5
1037.315	90.5
1037.738	81.5
1038.161	70.5
1038.584	77.5
1039.008	75.5
1039.431	77.5
1039.854	96.5
1040.277	96.5
1040.7	94.5
1041.123	92.5
1041.546	82.5
1041.969	88.5
1042.392	106.5
1042.815	96.5
1043.238	79.5
1043.661	91.5
1044.084	97.5
1044.507	78.5
1044.93	90.5
1045.352	89.5
1045.775	95.5
1046.198	102.5
1046.621	86.5
1047.043	66.5
1047.466	96.5
1047.889	84.5
1048.311	78.5
1048.734	88.5
1049.156	81.5
1049.579	67.5
1050.001	78.5
1050.424	78.5
1050.846	97.5
1051.269	96.5
1051.691	94.5
1052.113	83.5
1052.536	69.5
1052.958	88.5
1053.38	84.5
1053.802	93.5
1054.225	85.5
1054.647	76.5
1055.069	66.5
1055.491	84.5
1055.913	83.5
1056.335	85.5
1056.757	107.5
1057.179	64.5
1057.601	87.5
1058.023	95.5
1058.445	80.5
1058.867	70.5
1059.289	92.5
1059.711	82.5
1060.133	85.5
1060.555	96.5
1060.976	70.5
1061.398	98.5
1061.82	67.5
1062.241	89.5
1062.663	72.5
1063.085	81.5
1063.506	76.5
1063.928	75.5
1064.35	80.5
1064.771	78.5
1065.193	100.5
1065.614	78.5
1066.035	65.5
1066.457	72.5
1066.878	91.5
1067.3	81.5
1067.721	81.5
1068.142	85.5
1068.564	90.5
1068.985	79.5
1069.406	70.5
1069.827	98.5
1070.248	88.5
1070.67	93.5
1071.091	70.5
1071.512	91.5
1071.933	77.5
1072.354	78.5
1072.775	81.5
1073.196	87.5
1073.617	70.5
1074.038	81.5
1074.459	82.5
1074.88	72.5
1075.3	75.5
1075.721	92.5
1076.142	88.5
1076.563	74.5
1076.983	70.5
1077.404	80.5
1077.825	89.5
1078.246	93.5
1078.666	77.5
1079.087	81.5
1079.507	83.5
1079.928	97.5
1080.348	85.5
1080.769	87.5
1081.189	92.5
1081.61	67.5
1082.03	90.5
1082.451	74.5
1082.871	77.5
1083.291	77.5
1083.711	86.5
1084.132	96.5
1084.552	96.5
1084.972	78.5
1085.392	76.5
1085.813	94.5
1086.233	82.5
1086.653	82.5
1087.073	76.5
1087.493	90.5
1087.913	74.5
1088.333	79.5
1088.753	85.5
1089.173	89.5
1089.593	74.5
1090.013	78.5
1090.433	97.5
1090.852	82.5
1091.272	85.5
1091.692	63.5
1092.112	89.5
1092.531	75.5
1092.951	69.5
1093.371	75.5
1093.79	70.5
1094.21	86.5
1094.63	66.5
1095.049	85.5
1095.469	67.5
1095.888	80.5
1096.308	75.5
1096.727	78.5
1097.146	77.5
1097.566	84.5
1097.985	83.5
1098.405	67.5
1098.824	89.5
1099.243	79.5
1099.662	74.5
1100.082	85.5
1100.501	108.5
1100.92	91.5
1101.339	72.5
1101.758	91.5
