Data from 20170802-ORNL-NYSim-Air_HRD10391_10-37-05-627.txt Node
Date: Wed Aug 02 10:37:05 EDT 2017
User: Ender
Spectrometer: HR+D1039
Trigger mode: 0
Integration Time (sec): 1.510000E-3
Scans to average: 1
Electric dark correction enabled: true
Nonlinearity correction enabled: false
Boxcar width: 0
XAxis mode: Wavelengths
Number of Pixels in Spectrum: 2048
>>>>>Begin Spectral Data<<<<<
187.836	-7.25
188.309	-7.25
188.782	-7.25
189.255	-4.25
189.728	-15.25
190.201	-11.25
190.674	-3.25
191.147	5.75
191.619	-1.25
192.092	1.75
192.565	7.75
193.038	7.75
193.511	4.75
193.984	2.75
194.456	3.75
194.929	6.75
195.402	-4.25
195.874	5.75
196.347	13.75
196.82	34.75
197.292	38.75
197.765	29.75
198.237	41.75
198.71	41.75
199.182	52.75
199.655	59.75
200.127	57.75
200.6	49.75
201.072	56.75
201.544	74.75
202.017	81.75
202.489	71.75
202.961	72.75
203.433	63.75
203.906	78.75
204.378	68.75
204.85	79.75
205.322	73.75
205.794	75.75
206.266	81.75
206.739	90.75
207.211	83.75
207.683	84.75
208.155	81.75
208.627	86.75
209.099	86.75
209.57	97.75
210.042	80.75
210.514	93.75
210.986	78.75
211.458	86.75
211.93	96.75
212.402	82.75
212.873	73.75
213.345	85.75
213.817	87.75
214.288	98.75
214.76	92.75
215.232	82.75
215.703	76.75
216.175	76.75
216.646	75.75
217.118	90.75
217.589	75.75
218.061	69.75
218.532	78.75
219.004	79.75
219.475	87.75
219.946	66.75
220.418	88.75
220.889	76.75
221.36	96.75
221.832	83.75
222.303	78.75
222.774	78.75
223.245	77.75
223.717	81.75
224.188	71.75
224.659	84.75
225.13	81.75
225.601	89.75
226.072	82.75
226.543	79.75
227.014	95.75
227.485	99.75
227.956	93.75
228.427	87.75
228.898	87.75
229.369	81.75
229.839	81.75
230.31	73.75
230.781	71.75
231.252	91.75
231.722	70.75
232.193	87.75
232.664	88.75
233.135	65.75
233.605	85.75
234.076	68.75
234.546	71.75
235.017	95.75
235.487	92.75
235.958	79.75
236.428	78.75
236.899	80.75
237.369	79.75
237.84	74.75
238.31	88.75
238.78	76.75
239.251	92.75
239.721	86.75
240.191	80.75
240.662	84.75
241.132	84.75
241.602	89.75
242.072	98.75
242.542	68.75
243.013	86.75
243.483	83.75
243.953	110.75
244.423	78.75
244.893	87.75
245.363	82.75
245.833	102.75
246.303	101.75
246.773	86.75
247.243	96.75
247.712	90.75
248.182	87.75
248.652	86.75
249.122	91.75
249.592	78.75
250.061	100.75
250.531	93.75
251.001	85.75
251.471	91.75
251.94	97.75
252.41	79.75
252.879	97.75
253.349	97.75
253.818	90.75
254.288	91.75
254.757	93.75
255.227	90.75
255.696	99.75
256.166	97.75
256.635	80.75
257.105	75.75
257.574	77.75
258.043	88.75
258.513	104.75
258.982	92.75
259.451	107.75
259.92	95.75
260.389	88.75
260.859	86.75
261.328	89.75
261.797	96.75
262.266	110.75
262.735	112.75
263.204	99.75
263.673	93.75
264.142	98.75
264.611	100.75
265.08	89.75
265.549	96.75
266.018	97.75
266.487	100.75
266.955	96.75
267.424	100.75
267.893	87.75
268.362	97.75
268.83	98.75
269.299	100.75
269.768	105.75
270.236	106.75
270.705	112.75
271.174	112.75
271.642	99.75
272.111	110.75
272.579	106.75
273.048	108.75
273.516	94.75
273.985	89.75
274.453	103.75
274.922	100.75
275.39	100.75
275.858	101.75
276.327	106.75
276.795	104.75
277.263	127.75
277.731	120.75
278.2	104.75
278.668	107.75
279.136	110.75
279.604	112.75
280.072	121.75
280.54	128.75
281.008	114.75
281.477	104.75
281.945	133.75
282.413	114.75
282.881	107.75
283.348	118.75
283.816	114.75
284.284	106.75
284.752	110.75
285.22	107.75
285.688	114.75
286.156	106.75
286.623	121.75
287.091	116.75
287.559	127.75
288.026	96.75
288.494	122.75
288.962	123.75
289.429	112.75
289.897	105.75
290.364	119.75
290.832	108.75
291.3	127.75
291.767	129.75
292.234	124.75
292.702	119.75
293.169	106.75
293.637	136.75
294.104	111.75
294.571	122.75
295.039	121.75
295.506	124.75
295.973	124.75
296.44	130.75
296.908	108.75
297.375	120.75
297.842	123.75
298.309	129.75
298.776	133.75
299.243	123.75
299.71	126.75
300.177	124.75
300.644	123.75
301.111	133.75
301.578	138.75
302.045	133.75
302.512	133.75
302.979	121.75
303.446	127.75
303.913	135.75
304.379	117.75
304.846	134.75
305.313	124.75
305.78	141.75
306.246	137.75
306.713	128.75
307.18	138.75
307.646	146.75
308.113	124.75
308.579	140.75
309.046	134.75
309.512	142.75
309.979	144.75
310.445	140.75
310.912	134.75
311.378	134.75
311.845	153.75
312.311	130.75
312.777	137.75
313.244	132.75
313.71	152.75
314.176	138.75
314.642	151.75
315.109	158.75
315.575	142.75
316.041	137.75
316.507	150.75
316.973	164.75
317.439	165.75
317.905	133.75
318.371	153.75
318.837	146.75
319.303	140.75
319.769	165.75
320.235	152.75
320.701	148.75
321.167	169.75
321.633	144.75
322.099	155.75
322.564	140.75
323.03	152.75
323.496	164.75
323.962	143.75
324.427	146.75
324.893	156.75
325.359	174.75
325.824	148.75
326.29	162.75
326.755	154.75
327.221	175.75
327.686	175.75
328.152	171.75
328.617	170.75
329.083	169.75
329.548	189.75
330.014	168.75
330.479	161.75
330.944	186.75
331.41	146.75
331.875	180.75
332.34	175.75
332.805	178.75
333.271	154.75
333.736	168.75
334.201	169.75
334.666	182.75
335.131	191.75
335.596	174.75
336.061	176.75
336.526	192.75
336.991	176.75
337.456	168.75
337.921	161.75
338.386	183.75
338.851	156.75
339.316	173.75
339.781	186.75
340.246	187.75
340.711	178.75
341.175	180.75
341.64	183.75
342.105	168.75
342.569	189.75
343.034	180.75
343.499	170.75
343.963	200.75
344.428	216.75
344.893	179.75
345.357	188.75
345.822	206.75
346.286	202.75
346.751	210.75
347.215	208.75
347.679	202.75
348.144	208.75
348.608	221.75
349.073	220.75
349.537	214.75
350.001	237.75
350.465	224.75
350.93	234.75
351.394	231.75
351.858	200.75
352.322	228.75
352.786	217.75
353.25	243.75
353.715	208.75
354.179	246.75
354.643	219.75
355.107	228.75
355.571	232.75
356.035	223.75
356.498	214.75
356.962	230.75
357.426	234.75
357.89	235.75
358.354	244.75
358.818	224.75
359.281	232.75
359.745	226.75
360.209	230.75
360.673	224.75
361.136	220.75
361.6	241.75
362.064	244.75
362.527	238.75
362.991	256.75
363.454	223.75
363.918	245.75
364.381	234.75
364.845	249.75
365.308	266.75
365.772	246.75
366.235	240.75
366.698	261.75
367.162	248.75
367.625	248.75
368.088	261.75
368.552	255.75
369.015	248.75
369.478	244.75
369.941	275.75
370.404	264.75
370.867	265.75
371.331	266.75
371.794	279.75
372.257	291.75
372.72	268.75
373.183	258.75
373.646	255.75
374.109	248.75
374.572	266.75
375.035	294.75
375.497	281.75
375.96	283.75
376.423	288.75
376.886	268.75
377.349	282.75
377.811	298.75
378.274	280.75
378.737	296.75
379.199	307.75
379.662	294.75
380.125	296.75
380.587	289.75
381.05	300.75
381.512	296.75
381.975	309.75
382.437	302.75
382.9	306.75
383.362	294.75
383.825	333.75
384.287	326.75
384.75	302.75
385.212	301.75
385.674	328.75
386.136	313.75
386.599	293.75
387.061	297.75
387.523	316.75
387.985	317.75
388.447	344.75
388.91	345.75
389.372	344.75
389.834	307.75
390.296	336.75
390.758	298.75
391.22	310.75
391.682	316.75
392.144	318.75
392.606	320.75
393.068	321.75
393.529	347.75
393.991	346.75
394.453	335.75
394.915	322.75
395.377	325.75
395.838	344.75
396.3	316.75
396.762	330.75
397.224	346.75
397.685	330.75
398.147	343.75
398.608	366.75
399.07	351.75
399.531	346.75
399.993	339.75
400.454	355.75
400.916	357.75
401.377	363.75
401.839	343.75
402.3	366.75
402.762	374.75
403.223	403.75
403.684	397.75
404.145	399.75
404.607	367.75
405.068	383.75
405.529	369.75
405.99	386.75
406.451	424.75
406.913	394.75
407.374	413.75
407.835	394.75
408.296	400.75
408.757	415.75
409.218	394.75
409.679	390.75
410.14	411.75
410.601	424.75
411.062	423.75
411.522	420.75
411.983	417.75
412.444	425.75
412.905	422.75
413.366	442.75
413.826	488.75
414.287	481.75
414.748	613.75
415.208	614.75
415.669	526.75
416.13	480.75
416.59	448.75
417.051	483.75
417.511	504.75
417.972	535.75
418.432	546.75
418.893	602.75
419.353	593.75
419.814	492.75
420.274	440.75
420.734	437.75
421.195	451.75
421.655	434.75
422.115	454.75
422.576	458.75
423.036	460.75
423.496	464.75
423.956	467.75
424.416	514.75
424.876	546.75
425.336	537.75
425.797	516.75
426.257	548.75
426.717	524.75
427.177	508.75
427.637	513.75
428.097	521.75
428.556	530.75
429.016	558.75
429.476	567.75
429.936	565.75
430.396	571.75
430.856	563.75
431.315	587.75
431.775	621.75
432.235	652.75
432.694	673.75
433.154	620.75
433.614	617.75
434.073	606.75
434.533	538.75
434.993	504.75
435.452	508.75
435.912	526.75
436.371	512.75
436.83	534.75
437.29	506.75
437.749	490.75
438.209	480.75
438.668	518.75
439.127	524.75
439.587	524.75
440.046	495.75
440.505	488.75
440.964	507.75
441.424	508.75
441.883	504.75
442.342	528.75
442.801	493.75
443.26	499.75
443.719	484.75
444.178	486.75
444.637	482.75
445.096	486.75
445.555	465.75
446.014	488.75
446.473	496.75
446.932	496.75
447.391	498.75
447.849	507.75
448.308	498.75
448.767	500.75
449.226	521.75
449.685	517.75
450.143	523.75
450.602	531.75
451.061	507.75
451.519	519.75
451.978	516.75
452.436	480.75
452.895	489.75
453.353	504.75
453.812	484.75
454.27	477.75
454.729	505.75
455.187	507.75
455.646	520.75
456.104	518.75
456.562	509.75
457.021	526.75
457.479	478.75
457.937	506.75
458.395	539.75
458.854	498.75
459.312	490.75
459.77	504.75
460.228	529.75
460.686	526.75
461.144	556.75
461.602	533.75
462.06	531.75
462.518	542.75
462.976	541.75
463.434	541.75
463.892	546.75
464.35	583.75
464.808	578.75
465.266	564.75
465.724	554.75
466.181	566.75
466.639	587.75
467.097	600.75
467.555	644.75
468.012	582.75
468.47	605.75
468.928	652.75
469.385	646.75
469.843	675.75
470.3	668.75
470.758	691.75
471.215	664.75
471.673	677.75
472.13	698.75
472.588	717.75
473.045	713.75
473.503	732.75
473.96	770.75
474.417	790.75
474.875	796.75
475.332	818.75
475.789	830.75
476.246	839.75
476.704	860.75
477.161	923.75
477.618	916.75
478.075	971.75
478.532	1041.75
478.989	1086.75
479.446	1192.75
479.903	1240.75
480.36	1338.75
480.817	1432.75
481.274	1505.75
481.731	1626.75
482.188	1781.75
482.645	1854.75
483.102	1952.75
483.558	2050.75
484.015	2147.75
484.472	2166.75
484.929	2164.75
485.385	2062.75
485.842	1999.75
486.299	1898.75
486.755	1809.75
487.212	1608.75
487.668	1466.75
488.125	1396.75
488.582	1313.75
489.038	1265.75
489.494	1239.75
489.951	1162.75
490.407	1144.75
490.864	1129.75
491.32	1103.75
491.776	1098.75
492.233	1117.75
492.689	1082.75
493.145	1100.75
493.602	1062.75
494.058	1064.75
494.514	1098.75
494.97	1076.75
495.426	1110.75
495.882	1103.75
496.338	1104.75
496.794	1086.75
497.251	1084.75
497.707	1115.75
498.163	1081.75
498.618	1128.75
499.074	1088.75
499.53	1118.75
499.986	1122.75
500.442	1103.75
500.898	1116.75
501.354	1100.75
501.809	1109.75
502.265	1128.75
502.721	1091.75
503.177	1114.75
503.632	1095.75
504.088	1167.75
504.543	1189.75
504.999	1164.75
505.455	1128.75
505.91	1164.75
506.366	1116.75
506.821	1165.75
507.277	1129.75
507.732	1156.75
508.187	1163.75
508.643	1152.75
509.098	1135.75
509.553	1164.75
510.009	1195.75
510.464	1213.75
510.919	1195.75
511.375	1206.75
511.83	1213.75
512.285	1227.75
512.74	1284.75
513.195	1290.75
513.65	1316.75
514.105	1326.75
514.56	1326.75
515.015	1329.75
515.47	1347.75
515.925	1341.75
516.38	1350.75
516.835	1337.75
517.29	1312.75
517.745	1353.75
518.2	1302.75
518.655	1318.75
519.109	1280.75
519.564	1254.75
520.019	1241.75
520.474	1248.75
520.928	1203.75
521.383	1200.75
521.838	1214.75
522.292	1202.75
522.747	1225.75
523.201	1192.75
523.656	1184.75
524.11	1200.75
524.565	1165.75
525.019	1169.75
525.474	1170.75
525.928	1196.75
526.382	1162.75
526.837	1210.75
527.291	1202.75
527.745	1220.75
528.2	1189.75
528.654	1190.75
529.108	1187.75
529.562	1176.75
530.016	1186.75
530.47	1202.75
530.925	1171.75
531.379	1202.75
531.833	1182.75
532.287	1150.75
532.741	1195.75
533.195	1188.75
533.649	1203.75
534.103	1207.75
534.556	1162.75
535.01	1162.75
535.464	1160.75
535.918	1189.75
536.372	1178.75
536.826	1166.75
537.279	1177.75
537.733	1219.75
538.187	1181.75
538.64	1168.75
539.094	1182.75
539.548	1187.75
540.001	1204.75
540.455	1222.75
540.908	1218.75
541.362	1246.75
541.815	1231.75
542.269	1288.75
542.722	1242.75
543.175	1238.75
543.629	1286.75
544.082	1307.75
544.536	1322.75
544.989	1291.75
545.442	1318.75
545.895	1292.75
546.349	1307.75
546.802	1327.75
547.255	1292.75
547.708	1325.75
548.161	1321.75
548.614	1324.75
549.067	1346.75
549.52	1338.75
549.973	1322.75
550.426	1315.75
550.879	1327.75
551.332	1306.75
551.785	1310.75
552.238	1305.75
552.691	1338.75
553.144	1345.75
553.596	1339.75
554.049	1371.75
554.502	1409.75
554.955	1430.75
555.407	1443.75
555.86	1451.75
556.313	1394.75
556.765	1386.75
557.218	1410.75
557.67	1367.75
558.123	1372.75
558.576	1334.75
559.028	1365.75
559.48	1402.75
559.933	1343.75
560.385	1339.75
560.838	1281.75
561.29	1265.75
561.742	1280.75
562.195	1258.75
562.647	1237.75
563.099	1237.75
563.551	1236.75
564.004	1185.75
564.456	1200.75
564.908	1190.75
565.36	1146.75
565.812	1125.75
566.264	1126.75
566.716	1115.75
567.168	1123.75
567.62	1139.75
568.072	1096.75
568.524	1104.75
568.976	1099.75
569.428	1092.75
569.88	1072.75
570.332	1083.75
570.784	1086.75
571.235	1146.75
571.687	1133.75
572.139	1085.75
572.59	1112.75
573.042	1136.75
573.494	1131.75
573.945	1099.75
574.397	1103.75
574.849	1081.75
575.3	1091.75
575.752	1101.75
576.203	1048.75
576.655	1076.75
577.106	1049.75
577.557	1071.75
578.009	1035.75
578.46	1091.75
578.912	1065.75
579.363	1048.75
579.814	1080.75
580.265	1048.75
580.717	1032.75
581.168	1064.75
581.619	1048.75
582.07	1080.75
582.521	1058.75
582.972	1076.75
583.423	1055.75
583.875	1054.75
584.326	1049.75
584.777	1055.75
585.227	1096.75
585.678	1085.75
586.129	1114.75
586.58	1088.75
587.031	1120.75
587.482	1142.75
587.933	1158.75
588.384	1155.75
588.834	1195.75
589.285	1174.75
589.736	1136.75
590.186	1156.75
590.637	1150.75
591.088	1122.75
591.538	1114.75
591.989	1124.75
592.439	1103.75
592.89	1086.75
593.34	1056.75
593.791	1053.75
594.241	1061.75
594.692	1057.75
595.142	1034.75
595.593	1044.75
596.043	1025.75
596.493	1077.75
596.943	1086.75
597.394	1080.75
597.844	1085.75
598.294	1112.75
598.744	1125.75
599.195	1206.75
599.645	1247.75
600.095	1318.75
600.545	1396.75
600.995	1406.75
601.445	1461.75
601.895	1551.75
602.345	1577.75
602.795	1607.75
603.245	1542.75
603.695	1452.75
604.145	1361.75
604.594	1320.75
605.044	1292.75
605.494	1228.75
605.944	1141.75
606.393	1088.75
606.843	1093.75
607.293	1079.75
607.743	1064.75
608.192	1068.75
608.642	1059.75
609.091	1137.75
609.541	1098.75
609.99	1094.75
610.44	1080.75
610.889	1054.75
611.339	1026.75
611.788	993.75
612.238	1022.75
612.687	1032.75
613.136	1035.75
613.586	1033.75
614.035	1060.75
614.484	1074.75
614.933	1049.75
615.383	1024.75
615.832	1025.75
616.281	1005.75
616.73	1002.75
617.179	973.75
617.628	922.75
618.077	946.75
618.526	920.75
618.975	927.75
619.424	913.75
619.873	901.75
620.322	920.75
620.771	894.75
621.22	904.75
621.669	863.75
622.118	846.75
622.567	861.75
623.015	854.75
623.464	819.75
623.913	836.75
624.361	836.75
624.81	825.75
625.259	822.75
625.707	819.75
626.156	859.75
626.604	845.75
627.053	844.75
627.501	844.75
627.95	871.75
628.398	830.75
628.847	844.75
629.295	846.75
629.744	811.75
630.192	808.75
630.64	844.75
631.089	801.75
631.537	753.75
631.985	738.75
632.433	766.75
632.881	800.75
633.33	782.75
633.778	774.75
634.226	784.75
634.674	775.75
635.122	788.75
635.57	780.75
636.018	816.75
636.466	826.75
636.914	800.75
637.362	806.75
637.81	815.75
638.258	839.75
638.705	867.75
639.153	879.75
639.601	917.75
640.049	904.75
640.497	924.75
640.944	938.75
641.392	944.75
641.84	875.75
642.287	859.75
642.735	843.75
643.182	819.75
643.63	849.75
644.078	827.75
644.525	832.75
644.973	861.75
645.42	843.75
645.867	848.75
646.315	895.75
646.762	934.75
647.21	964.75
647.657	984.75
648.104	1021.75
648.551	1025.75
648.999	1132.75
649.446	1194.75
649.893	1328.75
650.34	1453.75
650.787	1735.75
651.234	2162.75
651.682	2814.75
652.129	3951.75
652.576	5557.75
653.023	7605.75
653.47	9440.75
653.917	10505.75
654.363	11099.75
654.81	11710.75
655.257	12294.75
655.704	9321.75
656.151	5688.75
656.598	3706.75
657.044	2652.75
657.491	2065.75
657.938	1658.75
658.385	1417.75
658.831	1260.75
659.278	1133.75
659.724	1063.75
660.171	972.75
660.618	920.75
661.064	877.75
661.511	826.75
661.957	844.75
662.404	811.75
662.85	795.75
663.296	777.75
663.743	788.75
664.189	757.75
664.635	750.75
665.082	739.75
665.528	734.75
665.974	730.75
666.42	718.75
666.867	695.75
667.313	658.75
667.759	659.75
668.205	664.75
668.651	646.75
669.097	637.75
669.543	687.75
669.989	656.75
670.435	679.75
670.881	690.75
671.327	697.75
671.773	710.75
672.219	762.75
672.665	806.75
673.11	819.75
673.556	866.75
674.002	859.75
674.448	886.75
674.893	780.75
675.339	720.75
675.785	668.75
676.23	648.75
676.676	618.75
677.122	588.75
677.567	564.75
678.013	559.75
678.458	544.75
678.904	530.75
679.349	529.75
679.794	528.75
680.24	533.75
680.685	525.75
681.131	530.75
681.576	563.75
682.021	545.75
682.466	556.75
682.912	548.75
683.357	555.75
683.802	582.75
684.247	636.75
684.692	692.75
685.137	686.75
685.583	693.75
686.028	747.75
686.473	744.75
686.918	672.75
687.363	605.75
687.807	575.75
688.252	532.75
688.697	545.75
689.142	529.75
689.587	512.75
690.032	521.75
690.477	548.75
690.921	558.75
691.366	589.75
691.811	621.75
692.255	630.75
692.7	696.75
693.145	910.75
693.589	1367.75
694.034	1794.75
694.478	1924.75
694.923	1838.75
695.367	2186.75
695.812	2068.75
696.256	881.75
696.701	611.75
697.145	542.75
697.59	504.75
698.034	508.75
698.478	510.75
698.922	507.75
699.367	504.75
699.811	524.75
700.255	547.75
700.699	585.75
701.143	612.75
701.588	664.75
702.032	720.75
702.476	721.75
702.92	745.75
703.364	878.75
703.808	1224.75
704.252	1621.75
704.696	1881.75
705.14	1772.75
705.584	2172.75
706.027	1810.75
706.471	874.75
706.915	600.75
707.359	525.75
707.803	514.75
708.246	498.75
708.69	468.75
709.134	462.75
709.577	460.75
710.021	475.75
710.465	485.75
710.908	476.75
711.352	464.75
711.795	506.75
712.239	560.75
712.682	579.75
713.126	550.75
713.569	591.75
714.012	541.75
714.456	513.75
714.899	459.75
715.342	429.75
715.786	398.75
716.229	433.75
716.672	388.75
717.115	389.75
717.558	409.75
718.002	412.75
718.445	440.75
718.888	434.75
719.331	450.75
719.774	462.75
720.217	466.75
720.66	449.75
721.103	440.75
721.546	394.75
721.989	374.75
722.432	396.75
722.874	371.75
723.317	402.75
723.76	383.75
724.203	457.75
724.645	556.75
725.088	691.75
725.531	745.75
725.974	719.75
726.416	764.75
726.859	517.75
727.301	388.75
727.744	413.75
728.187	376.75
728.629	413.75
729.071	406.75
729.514	420.75
729.956	430.75
730.399	454.75
730.841	441.75
731.283	433.75
731.726	417.75
732.168	431.75
732.61	447.75
733.053	454.75
733.495	497.75
733.937	558.75
734.379	609.75
734.821	701.75
735.263	959.75
735.705	1612.75
736.148	2562.75
736.59	2994.75
737.032	2870.75
737.474	3096.75
737.916	1536.75
738.357	761.75
738.799	546.75
739.241	473.75
739.683	472.75
740.125	507.75
740.567	496.75
741.008	489.75
741.45	535.75
741.892	544.75
742.334	570.75
742.775	565.75
743.217	572.75
743.658	505.75
744.1	465.75
744.542	520.75
744.983	560.75
745.425	566.75
745.866	594.75
746.307	551.75
746.749	482.75
747.19	604.75
747.632	947.75
748.073	1800.75
748.514	2742.75
748.956	3369.75
749.397	4606.75
749.838	3710.75
750.279	2964.75
750.72	2307.75
751.162	1050.75
751.603	556.75
752.044	436.75
752.485	377.75
752.926	370.75
753.367	352.75
753.808	344.75
754.249	320.75
754.69	323.75
755.131	325.75
755.572	339.75
756.013	311.75
756.453	331.75
756.894	324.75
757.335	351.75
757.776	314.75
758.216	343.75
758.657	342.75
759.098	367.75
759.538	411.75
759.979	510.75
760.42	782.75
760.86	1753.75
761.301	4019.75
761.741	6000.75
762.182	6196.75
762.622	5843.75
763.063	2728.75
763.503	1101.75
763.943	585.75
764.384	447.75
764.824	373.75
765.264	369.75
765.705	344.75
766.145	334.75
766.585	312.75
767.025	296.75
767.465	320.75
767.906	325.75
768.346	330.75
768.786	340.75
769.226	440.75
769.666	678.75
770.106	1390.75
770.546	2401.75
770.986	2600.75
771.426	2566.75
771.866	1476.75
772.306	682.75
772.745	420.75
773.185	347.75
773.625	293.75
774.065	296.75
774.505	354.75
774.944	539.75
775.384	850.75
775.824	993.75
776.263	974.75
776.703	703.75
777.142	413.75
777.582	297.75
778.021	259.75
778.461	252.75
778.9	264.75
779.34	244.75
779.779	222.75
780.219	232.75
780.658	230.75
781.097	247.75
781.537	221.75
781.976	223.75
782.415	224.75
782.855	218.75
783.294	220.75
783.733	234.75
784.172	238.75
784.611	222.75
785.05	215.75
785.489	229.75
785.928	248.75
786.367	256.75
786.806	225.75
787.245	254.75
787.684	256.75
788.123	272.75
788.562	277.75
789.001	246.75
789.44	244.75
789.879	254.75
790.317	249.75
790.756	257.75
791.195	251.75
791.634	302.75
792.072	424.75
792.511	827.75
792.95	1799.75
793.388	2310.75
793.827	2053.75
794.265	1199.75
794.704	616.75
795.142	350.75
795.581	270.75
796.019	260.75
796.458	275.75
796.896	265.75
797.334	263.75
797.773	317.75
798.211	472.75
798.649	884.75
799.087	1484.75
799.526	2284.75
799.964	2492.75
800.402	2106.75
800.84	1249.75
801.278	682.75
801.716	400.75
802.154	305.75
802.592	292.75
803.03	290.75
803.468	286.75
803.906	287.75
804.344	262.75
804.782	274.75
805.22	293.75
805.658	266.75
806.096	291.75
806.533	296.75
806.971	352.75
807.409	434.75
807.847	662.75
808.284	1483.75
808.722	2950.75
809.16	4110.75
809.597	5758.75
810.035	7371.75
810.472	6240.75
810.91	3484.75
811.347	1722.75
811.785	775.75
812.222	482.75
812.66	366.75
813.097	321.75
813.535	284.75
813.972	254.75
814.409	252.75
814.846	247.75
815.284	241.75
815.721	217.75
816.158	216.75
816.595	270.75
817.032	349.75
817.47	361.75
817.907	290.75
818.344	269.75
818.781	257.75
819.218	262.75
819.655	351.75
820.092	425.75
820.529	463.75
820.966	372.75
821.403	328.75
821.839	238.75
822.276	244.75
822.713	266.75
823.15	288.75
823.587	290.75
824.023	358.75
824.46	686.75
824.897	1319.75
825.333	1383.75
825.77	860.75
826.206	514.75
826.643	290.75
827.08	223.75
827.516	206.75
827.953	197.75
828.389	216.75
828.825	183.75
829.262	185.75
829.698	184.75
830.135	161.75
830.571	175.75
831.007	186.75
831.443	164.75
831.88	166.75
832.316	180.75
832.752	176.75
833.188	183.75
833.624	169.75
834.06	176.75
834.497	188.75
834.933	172.75
835.369	170.75
835.805	169.75
836.241	192.75
836.677	191.75
837.112	221.75
837.548	242.75
837.984	303.75
838.42	457.75
838.856	1073.75
839.292	2288.75
839.727	2480.75
840.163	1668.75
840.599	1968.75
841.034	2910.75
841.47	2277.75
841.906	1293.75
842.341	728.75
842.777	455.75
843.212	440.75
843.648	357.75
844.083	279.75
844.519	214.75
844.954	187.75
845.39	177.75
845.825	166.75
846.261	180.75
846.696	191.75
847.131	163.75
847.566	159.75
848.002	172.75
848.437	171.75
848.872	170.75
849.307	170.75
849.742	216.75
850.177	444.75
850.613	902.75
851.048	970.75
851.483	582.75
851.918	372.75
852.353	247.75
852.788	172.75
853.223	144.75
853.657	168.75
854.092	173.75
854.527	149.75
854.962	142.75
855.397	172.75
855.832	158.75
856.266	144.75
856.701	147.75
857.136	155.75
857.57	152.75
858.005	157.75
858.44	163.75
858.874	160.75
859.309	178.75
859.743	160.75
860.178	171.75
860.612	145.75
861.047	174.75
861.481	187.75
861.915	188.75
862.35	177.75
862.784	150.75
863.218	135.75
863.653	149.75
864.087	165.75
864.521	162.75
864.955	203.75
865.39	314.75
865.824	278.75
866.258	293.75
866.692	416.75
867.126	426.75
867.56	320.75
867.994	222.75
868.428	166.75
868.862	166.75
869.296	152.75
869.73	191.75
870.164	191.75
870.598	186.75
871.031	162.75
871.465	154.75
871.899	133.75
872.333	102.75
872.766	127.75
873.2	122.75
873.634	126.75
874.067	115.75
874.501	112.75
874.935	114.75
875.368	136.75
875.802	131.75
876.235	130.75
876.669	122.75
877.102	122.75
877.535	113.75
877.969	123.75
878.402	120.75
878.836	138.75
879.269	121.75
879.702	119.75
880.135	111.75
880.569	126.75
881.002	108.75
881.435	128.75
881.868	106.75
882.301	105.75
882.734	110.75
883.167	110.75
883.601	117.75
884.034	98.75
884.467	126.75
884.899	109.75
885.332	104.75
885.765	105.75
886.198	124.75
886.631	105.75
887.064	126.75
887.497	103.75
887.929	106.75
888.362	101.75
888.795	94.75
889.228	126.75
889.66	121.75
890.093	111.75
890.526	99.75
890.958	92.75
891.391	113.75
891.823	127.75
892.256	101.75
892.688	116.75
893.121	112.75
893.553	112.75
893.985	117.75
894.418	107.75
894.85	104.75
895.282	94.75
895.715	97.75
896.147	119.75
896.579	115.75
897.011	112.75
897.444	104.75
897.876	115.75
898.308	89.75
898.74	97.75
899.172	100.75
899.604	115.75
900.036	119.75
900.468	103.75
900.9	105.75
901.332	102.75
901.764	115.75
902.196	124.75
902.628	112.75
903.06	116.75
903.491	140.75
903.923	142.75
904.355	125.75
904.787	112.75
905.218	136.75
905.65	118.75
906.082	115.75
906.513	110.75
906.945	99.75
907.376	118.75
907.808	122.75
908.239	101.75
908.671	104.75
909.102	104.75
909.534	132.75
909.965	163.75
910.397	238.75
910.828	556.75
911.259	599.75
911.691	408.75
912.122	285.75
912.553	176.75
912.984	146.75
913.415	107.75
913.847	118.75
914.278	113.75
914.709	109.75
915.14	111.75
915.571	102.75
916.002	104.75
916.433	101.75
916.864	102.75
917.295	95.75
917.726	116.75
918.157	112.75
918.587	119.75
919.018	121.75
919.449	113.75
919.88	126.75
920.311	122.75
920.741	179.75
921.172	302.75
921.603	235.75
922.033	187.75
922.464	158.75
922.895	126.75
923.325	123.75
923.756	123.75
924.186	113.75
924.617	120.75
925.047	150.75
925.478	150.75
925.908	112.75
926.338	134.75
926.769	128.75
927.199	110.75
927.629	105.75
928.06	117.75
928.49	107.75
928.92	114.75
929.35	101.75
929.78	94.75
930.21	109.75
930.641	111.75
931.071	98.75
931.501	106.75
931.931	101.75
932.361	100.75
932.791	102.75
933.221	107.75
933.651	97.75
934.08	102.75
934.51	110.75
934.94	110.75
935.37	119.75
935.8	106.75
936.229	108.75
936.659	101.75
937.089	108.75
937.519	132.75
937.948	111.75
938.378	128.75
938.807	102.75
939.237	92.75
939.666	92.75
940.096	85.75
940.525	82.75
940.955	93.75
941.384	98.75
941.814	80.75
942.243	95.75
942.672	94.75
943.102	102.75
943.531	100.75
943.96	82.75
944.39	104.75
944.819	108.75
945.248	91.75
945.677	92.75
946.106	102.75
946.535	87.75
946.964	79.75
947.393	88.75
947.822	76.75
948.251	88.75
948.68	70.75
949.109	91.75
949.538	101.75
949.967	81.75
950.396	83.75
950.825	95.75
951.254	93.75
951.682	82.75
952.111	93.75
952.54	89.75
952.969	89.75
953.397	94.75
953.826	92.75
954.254	96.75
954.683	89.75
955.112	93.75
955.54	96.75
955.969	97.75
956.397	84.75
956.826	90.75
957.254	91.75
957.682	101.75
958.111	90.75
958.539	90.75
958.967	92.75
959.396	99.75
959.824	74.75
960.252	87.75
960.68	80.75
961.109	89.75
961.537	96.75
961.965	82.75
962.393	88.75
962.821	95.75
963.249	110.75
963.677	102.75
964.105	105.75
964.533	153.75
964.961	126.75
965.389	114.75
965.817	119.75
966.245	94.75
966.672	105.75
967.1	104.75
967.528	73.75
967.956	105.75
968.383	90.75
968.811	96.75
969.239	90.75
969.666	101.75
970.094	101.75
970.522	91.75
970.949	89.75
971.377	88.75
971.804	87.75
972.232	92.75
972.659	104.75
973.087	92.75
973.514	87.75
973.941	98.75
974.369	98.75
974.796	86.75
975.223	93.75
975.651	82.75
976.078	82.75
976.505	97.75
976.932	99.75
977.359	96.75
977.786	101.75
978.214	75.75
978.641	90.75
979.068	88.75
979.495	93.75
979.922	83.75
980.349	84.75
980.776	77.75
981.202	80.75
981.629	97.75
982.056	93.75
982.483	103.75
982.91	78.75
983.337	84.75
983.763	86.75
984.19	88.75
984.617	88.75
985.043	71.75
985.47	98.75
985.897	101.75
986.323	89.75
986.75	92.75
987.176	103.75
987.603	74.75
988.029	91.75
988.456	90.75
988.882	76.75
989.308	89.75
989.735	98.75
990.161	97.75
990.587	94.75
991.014	107.75
991.44	96.75
991.866	86.75
992.292	93.75
992.719	94.75
993.145	88.75
993.571	95.75
993.997	81.75
994.423	76.75
994.849	82.75
995.275	77.75
995.701	87.75
996.127	92.75
996.553	86.75
996.979	75.75
997.405	80.75
997.83	78.75
998.256	86.75
998.682	66.75
999.108	73.75
999.534	89.75
999.959	81.75
1000.385	86.75
1000.811	69.75
1001.236	100.75
1001.662	80.75
1002.087	106.75
1002.513	80.75
1002.938	89.75
1003.364	81.75
1003.789	104.75
1004.215	88.75
1004.64	98.75
1005.066	82.75
1005.491	88.75
1005.916	86.75
1006.342	81.75
1006.767	96.75
1007.192	98.75
1007.617	93.75
1008.042	84.75
1008.468	101.75
1008.893	91.75
1009.318	78.75
1009.743	100.75
1010.168	102.75
1010.593	82.75
1011.018	108.75
1011.443	94.75
1011.868	82.75
1012.293	98.75
1012.718	75.75
1013.143	96.75
1013.567	96.75
1013.992	91.75
1014.417	79.75
1014.842	90.75
1015.267	99.75
1015.691	94.75
1016.116	74.75
1016.541	79.75
1016.965	92.75
1017.39	72.75
1017.814	91.75
1018.239	79.75
1018.663	84.75
1019.088	95.75
1019.512	93.75
1019.937	92.75
1020.361	74.75
1020.785	88.75
1021.21	71.75
1021.634	91.75
1022.058	80.75
1022.483	64.75
1022.907	91.75
1023.331	80.75
1023.755	99.75
1024.179	88.75
1024.604	81.75
1025.028	96.75
1025.452	80.75
1025.876	61.75
1026.3	92.75
1026.724	76.75
1027.148	85.75
1027.572	98.75
1027.996	73.75
1028.42	80.75
1028.843	80.75
1029.267	79.75
1029.691	95.75
1030.115	89.75
1030.539	64.75
1030.962	69.75
1031.386	74.75
1031.81	77.75
1032.233	87.75
1032.657	97.75
1033.08	79.75
1033.504	82.75
1033.927	92.75
1034.351	80.75
1034.774	79.75
1035.198	91.75
1035.621	90.75
1036.045	88.75
1036.468	88.75
1036.891	88.75
1037.315	75.75
1037.738	67.75
1038.161	89.75
1038.584	97.75
1039.008	95.75
1039.431	90.75
1039.854	61.75
1040.277	88.75
1040.7	96.75
1041.123	85.75
1041.546	84.75
1041.969	85.75
1042.392	81.75
1042.815	81.75
1043.238	91.75
1043.661	70.75
1044.084	65.75
1044.507	76.75
1044.93	79.75
1045.352	94.75
1045.775	92.75
1046.198	92.75
1046.621	79.75
1047.043	100.75
1047.466	88.75
1047.889	92.75
1048.311	95.75
1048.734	86.75
1049.156	98.75
1049.579	93.75
1050.001	78.75
1050.424	74.75
1050.846	86.75
1051.269	90.75
1051.691	82.75
1052.113	86.75
1052.536	77.75
1052.958	74.75
1053.38	78.75
1053.802	81.75
1054.225	84.75
1054.647	78.75
1055.069	83.75
1055.491	89.75
1055.913	92.75
1056.335	82.75
1056.757	102.75
1057.179	84.75
1057.601	88.75
1058.023	81.75
1058.445	88.75
1058.867	76.75
1059.289	78.75
1059.711	82.75
1060.133	80.75
1060.555	85.75
1060.976	79.75
1061.398	88.75
1061.82	75.75
1062.241	84.75
1062.663	70.75
1063.085	88.75
1063.506	91.75
1063.928	84.75
1064.35	91.75
1064.771	73.75
1065.193	80.75
1065.614	89.75
1066.035	80.75
1066.457	82.75
1066.878	88.75
1067.3	98.75
1067.721	80.75
1068.142	91.75
1068.564	86.75
1068.985	89.75
1069.406	86.75
1069.827	93.75
1070.248	79.75
1070.67	90.75
1071.091	88.75
1071.512	88.75
1071.933	93.75
1072.354	80.75
1072.775	83.75
1073.196	95.75
1073.617	72.75
1074.038	73.75
1074.459	84.75
1074.88	89.75
1075.3	93.75
1075.721	78.75
1076.142	86.75
1076.563	86.75
1076.983	87.75
1077.404	97.75
1077.825	101.75
1078.246	74.75
1078.666	82.75
1079.087	78.75
1079.507	71.75
1079.928	76.75
1080.348	85.75
1080.769	98.75
1081.189	72.75
1081.61	95.75
1082.03	79.75
1082.451	96.75
1082.871	84.75
1083.291	80.75
1083.711	94.75
1084.132	89.75
1084.552	92.75
1084.972	80.75
1085.392	70.75
1085.813	82.75
1086.233	91.75
1086.653	84.75
1087.073	81.75
1087.493	118.75
1087.913	88.75
1088.333	92.75
1088.753	94.75
1089.173	89.75
1089.593	86.75
1090.013	86.75
1090.433	76.75
1090.852	81.75
1091.272	80.75
1091.692	84.75
1092.112	77.75
1092.531	81.75
1092.951	79.75
1093.371	81.75
1093.79	71.75
1094.21	71.75
1094.63	74.75
1095.049	80.75
1095.469	64.75
1095.888	94.75
1096.308	89.75
1096.727	94.75
1097.146	82.75
1097.566	82.75
1097.985	80.75
1098.405	80.75
1098.824	79.75
1099.243	87.75
1099.662	71.75
1100.082	86.75
1100.501	78.75
1100.92	87.75
1101.339	86.75
1101.758	77.75
