Data from 20170802-ORNL-NYSim-Air_HRD10391_10-37-18-634.txt Node
Date: Wed Aug 02 10:37:18 EDT 2017
User: Ender
Spectrometer: HR+D1039
Trigger mode: 0
Integration Time (sec): 1.510000E-3
Scans to average: 1
Electric dark correction enabled: true
Nonlinearity correction enabled: false
Boxcar width: 0
XAxis mode: Wavelengths
Number of Pixels in Spectrum: 2048
>>>>>Begin Spectral Data<<<<<
187.836	-4.19
188.309	-4.19
188.782	-4.19
189.255	-2.19
189.728	6.81
190.201	-23.19
190.674	-23.19
191.147	-7.19
191.619	-8.19
192.092	0.81
192.565	-0.19
193.038	8.81
193.511	2.81
193.984	-0.19
194.456	2.81
194.929	16.81
195.402	13.81
195.874	15.81
196.347	14.81
196.82	22.81
197.292	30.81
197.765	40.81
198.237	38.81
198.71	44.81
199.182	42.81
199.655	56.81
200.127	64.81
200.6	58.81
201.072	69.81
201.544	54.81
202.017	62.81
202.489	66.81
202.961	79.81
203.433	65.81
203.906	82.81
204.378	89.81
204.85	89.81
205.322	97.81
205.794	91.81
206.266	81.81
206.739	86.81
207.211	101.81
207.683	87.81
208.155	76.81
208.627	75.81
209.099	90.81
209.57	93.81
210.042	90.81
210.514	105.81
210.986	80.81
211.458	81.81
211.93	82.81
212.402	70.81
212.873	90.81
213.345	83.81
213.817	75.81
214.288	90.81
214.76	89.81
215.232	88.81
215.703	90.81
216.175	88.81
216.646	80.81
217.118	65.81
217.589	72.81
218.061	85.81
218.532	91.81
219.004	98.81
219.475	81.81
219.946	66.81
220.418	80.81
220.889	78.81
221.36	70.81
221.832	70.81
222.303	74.81
222.774	78.81
223.245	83.81
223.717	81.81
224.188	72.81
224.659	87.81
225.13	78.81
225.601	88.81
226.072	87.81
226.543	81.81
227.014	82.81
227.485	81.81
227.956	72.81
228.427	86.81
228.898	86.81
229.369	81.81
229.839	79.81
230.31	89.81
230.781	68.81
231.252	91.81
231.722	82.81
232.193	68.81
232.664	72.81
233.135	59.81
233.605	82.81
234.076	94.81
234.546	68.81
235.017	74.81
235.487	85.81
235.958	80.81
236.428	72.81
236.899	73.81
237.369	79.81
237.84	72.81
238.31	96.81
238.78	102.81
239.251	93.81
239.721	94.81
240.191	76.81
240.662	84.81
241.132	87.81
241.602	100.81
242.072	84.81
242.542	92.81
243.013	93.81
243.483	93.81
243.953	82.81
244.423	80.81
244.893	85.81
245.363	94.81
245.833	96.81
246.303	92.81
246.773	92.81
247.243	92.81
247.712	84.81
248.182	93.81
248.652	76.81
249.122	87.81
249.592	99.81
250.061	78.81
250.531	90.81
251.001	85.81
251.471	97.81
251.94	92.81
252.41	98.81
252.879	93.81
253.349	86.81
253.818	118.81
254.288	104.81
254.757	94.81
255.227	96.81
255.696	101.81
256.166	86.81
256.635	74.81
257.105	86.81
257.574	88.81
258.043	97.81
258.513	99.81
258.982	90.81
259.451	83.81
259.92	102.81
260.389	98.81
260.859	93.81
261.328	114.81
261.797	87.81
262.266	106.81
262.735	87.81
263.204	92.81
263.673	104.81
264.142	105.81
264.611	97.81
265.08	103.81
265.549	100.81
266.018	103.81
266.487	97.81
266.955	88.81
267.424	103.81
267.893	92.81
268.362	99.81
268.83	80.81
269.299	94.81
269.768	102.81
270.236	96.81
270.705	116.81
271.174	88.81
271.642	106.81
272.111	109.81
272.579	112.81
273.048	98.81
273.516	100.81
273.985	105.81
274.453	110.81
274.922	108.81
275.39	107.81
275.858	104.81
276.327	107.81
276.795	108.81
277.263	107.81
277.731	89.81
278.2	104.81
278.668	114.81
279.136	102.81
279.604	104.81
280.072	107.81
280.54	104.81
281.008	118.81
281.477	127.81
281.945	96.81
282.413	107.81
282.881	102.81
283.348	107.81
283.816	104.81
284.284	110.81
284.752	110.81
285.22	116.81
285.688	115.81
286.156	109.81
286.623	120.81
287.091	123.81
287.559	110.81
288.026	118.81
288.494	106.81
288.962	101.81
289.429	107.81
289.897	127.81
290.364	118.81
290.832	115.81
291.3	121.81
291.767	119.81
292.234	108.81
292.702	111.81
293.169	117.81
293.637	107.81
294.104	117.81
294.571	114.81
295.039	108.81
295.506	133.81
295.973	118.81
296.44	115.81
296.908	116.81
297.375	117.81
297.842	127.81
298.309	124.81
298.776	110.81
299.243	124.81
299.71	114.81
300.177	106.81
300.644	119.81
301.111	150.81
301.578	135.81
302.045	127.81
302.512	110.81
302.979	117.81
303.446	121.81
303.913	128.81
304.379	136.81
304.846	136.81
305.313	136.81
305.78	131.81
306.246	134.81
306.713	129.81
307.18	140.81
307.646	140.81
308.113	130.81
308.579	129.81
309.046	132.81
309.512	132.81
309.979	124.81
310.445	140.81
310.912	142.81
311.378	144.81
311.845	143.81
312.311	150.81
312.777	154.81
313.244	135.81
313.71	156.81
314.176	138.81
314.642	145.81
315.109	151.81
315.575	150.81
316.041	153.81
316.507	134.81
316.973	149.81
317.439	137.81
317.905	136.81
318.371	165.81
318.837	148.81
319.303	139.81
319.769	121.81
320.235	149.81
320.701	158.81
321.167	141.81
321.633	151.81
322.099	144.81
322.564	137.81
323.03	138.81
323.496	144.81
323.962	148.81
324.427	163.81
324.893	142.81
325.359	163.81
325.824	162.81
326.29	158.81
326.755	166.81
327.221	158.81
327.686	161.81
328.152	156.81
328.617	173.81
329.083	186.81
329.548	156.81
330.014	170.81
330.479	166.81
330.944	173.81
331.41	171.81
331.875	163.81
332.34	176.81
332.805	184.81
333.271	153.81
333.736	154.81
334.201	177.81
334.666	168.81
335.131	201.81
335.596	183.81
336.061	195.81
336.526	177.81
336.991	186.81
337.456	171.81
337.921	178.81
338.386	177.81
338.851	176.81
339.316	186.81
339.781	170.81
340.246	184.81
340.711	179.81
341.175	161.81
341.64	179.81
342.105	165.81
342.569	156.81
343.034	172.81
343.499	187.81
343.963	166.81
344.428	187.81
344.893	185.81
345.357	193.81
345.822	191.81
346.286	168.81
346.751	196.81
347.215	192.81
347.679	174.81
348.144	204.81
348.608	219.81
349.073	219.81
349.537	208.81
350.001	217.81
350.465	196.81
350.93	207.81
351.394	203.81
351.858	221.81
352.322	231.81
352.786	218.81
353.25	229.81
353.715	219.81
354.179	244.81
354.643	211.81
355.107	207.81
355.571	242.81
356.035	230.81
356.498	227.81
356.962	232.81
357.426	232.81
357.89	210.81
358.354	236.81
358.818	218.81
359.281	215.81
359.745	226.81
360.209	221.81
360.673	217.81
361.136	240.81
361.6	225.81
362.064	230.81
362.527	218.81
362.991	217.81
363.454	233.81
363.918	242.81
364.381	219.81
364.845	236.81
365.308	246.81
365.772	251.81
366.235	234.81
366.698	221.81
367.162	231.81
367.625	230.81
368.088	248.81
368.552	254.81
369.015	247.81
369.478	244.81
369.941	240.81
370.404	224.81
370.867	245.81
371.331	226.81
371.794	272.81
372.257	262.81
372.72	250.81
373.183	252.81
373.646	264.81
374.109	239.81
374.572	266.81
375.035	257.81
375.497	276.81
375.96	269.81
376.423	286.81
376.886	263.81
377.349	281.81
377.811	264.81
378.274	262.81
378.737	282.81
379.199	292.81
379.662	286.81
380.125	260.81
380.587	286.81
381.05	276.81
381.512	312.81
381.975	286.81
382.437	280.81
382.9	291.81
383.362	319.81
383.825	289.81
384.287	288.81
384.75	316.81
385.212	306.81
385.674	302.81
386.136	289.81
386.599	292.81
387.061	303.81
387.523	291.81
387.985	308.81
388.447	321.81
388.91	298.81
389.372	306.81
389.834	307.81
390.296	311.81
390.758	303.81
391.22	287.81
391.682	316.81
392.144	338.81
392.606	334.81
393.068	328.81
393.529	320.81
393.991	333.81
394.453	328.81
394.915	329.81
395.377	328.81
395.838	307.81
396.3	299.81
396.762	326.81
397.224	306.81
397.685	343.81
398.147	318.81
398.608	342.81
399.07	312.81
399.531	322.81
399.993	340.81
400.454	334.81
400.916	347.81
401.377	354.81
401.839	348.81
402.3	348.81
402.762	341.81
403.223	382.81
403.684	374.81
404.145	379.81
404.607	348.81
405.068	359.81
405.529	340.81
405.99	356.81
406.451	370.81
406.913	372.81
407.374	352.81
407.835	380.81
408.296	376.81
408.757	383.81
409.218	378.81
409.679	405.81
410.14	394.81
410.601	388.81
411.062	380.81
411.522	381.81
411.983	383.81
412.444	412.81
412.905	424.81
413.366	435.81
413.826	431.81
414.287	469.81
414.748	525.81
415.208	563.81
415.669	491.81
416.13	448.81
416.59	445.81
417.051	449.81
417.511	473.81
417.972	485.81
418.432	517.81
418.893	558.81
419.353	547.81
419.814	464.81
420.274	427.81
420.734	405.81
421.195	432.81
421.655	404.81
422.115	419.81
422.576	419.81
423.036	438.81
423.496	452.81
423.956	463.81
424.416	469.81
424.876	546.81
425.336	509.81
425.797	500.81
426.257	519.81
426.717	477.81
427.177	481.81
427.637	463.81
428.097	476.81
428.556	486.81
429.016	516.81
429.476	522.81
429.936	536.81
430.396	537.81
430.856	562.81
431.315	551.81
431.775	570.81
432.235	614.81
432.694	632.81
433.154	585.81
433.614	564.81
434.073	552.81
434.533	537.81
434.993	483.81
435.452	508.81
435.912	513.81
436.371	463.81
436.83	486.81
437.29	482.81
437.749	462.81
438.209	468.81
438.668	477.81
439.127	485.81
439.587	456.81
440.046	486.81
440.505	460.81
440.964	466.81
441.424	492.81
441.883	492.81
442.342	457.81
442.801	476.81
443.26	473.81
443.719	445.81
444.178	460.81
444.637	458.81
445.096	440.81
445.555	452.81
446.014	460.81
446.473	454.81
446.932	459.81
447.391	447.81
447.849	483.81
448.308	480.81
448.767	486.81
449.226	474.81
449.685	488.81
450.143	494.81
450.602	502.81
451.061	478.81
451.519	476.81
451.978	468.81
452.436	484.81
452.895	496.81
453.353	468.81
453.812	479.81
454.27	476.81
454.729	472.81
455.187	470.81
455.646	474.81
456.104	450.81
456.562	477.81
457.021	480.81
457.479	481.81
457.937	490.81
458.395	498.81
458.854	501.81
459.312	468.81
459.77	459.81
460.228	496.81
460.686	502.81
461.144	514.81
461.602	496.81
462.06	515.81
462.518	504.81
462.976	544.81
463.434	492.81
463.892	556.81
464.35	513.81
464.808	536.81
465.266	553.81
465.724	535.81
466.181	538.81
466.639	549.81
467.097	558.81
467.555	593.81
468.012	573.81
468.47	564.81
468.928	611.81
469.385	611.81
469.843	623.81
470.3	616.81
470.758	610.81
471.215	639.81
471.673	657.81
472.13	657.81
472.588	690.81
473.045	682.81
473.503	682.81
473.96	733.81
474.417	724.81
474.875	738.81
475.332	757.81
475.789	784.81
476.246	816.81
476.704	814.81
477.161	863.81
477.618	860.81
478.075	902.81
478.532	994.81
478.989	1030.81
479.446	1094.81
479.903	1168.81
480.36	1271.81
480.817	1358.81
481.274	1415.81
481.731	1539.81
482.188	1691.81
482.645	1744.81
483.102	1841.81
483.558	2042.81
484.015	2098.81
484.472	2049.81
484.929	2020.81
485.385	1928.81
485.842	1885.81
486.299	1846.81
486.755	1718.81
487.212	1591.81
487.668	1420.81
488.125	1340.81
488.582	1226.81
489.038	1159.81
489.494	1136.81
489.951	1098.81
490.407	1075.81
490.864	1049.81
491.32	1054.81
491.776	1026.81
492.233	1032.81
492.689	1004.81
493.145	996.81
493.602	1016.81
494.058	990.81
494.514	1018.81
494.97	1005.81
495.426	1024.81
495.882	1020.81
496.338	1014.81
496.794	1056.81
497.251	1037.81
497.707	1036.81
498.163	1003.81
498.618	1063.81
499.074	1018.81
499.53	1020.81
499.986	1059.81
500.442	1046.81
500.898	1022.81
501.354	1025.81
501.809	1035.81
502.265	1055.81
502.721	1064.81
503.177	1019.81
503.632	1018.81
504.088	1050.81
504.543	1057.81
504.999	1085.81
505.455	1077.81
505.91	1072.81
506.366	1051.81
506.821	1092.81
507.277	1036.81
507.732	1058.81
508.187	1075.81
508.643	1058.81
509.098	1082.81
509.553	1120.81
510.009	1128.81
510.464	1112.81
510.919	1103.81
511.375	1112.81
511.83	1149.81
512.285	1176.81
512.74	1169.81
513.195	1193.81
513.65	1211.81
514.105	1231.81
514.56	1245.81
515.015	1279.81
515.47	1260.81
515.925	1275.81
516.38	1234.81
516.835	1279.81
517.29	1278.81
517.745	1216.81
518.2	1233.81
518.655	1202.81
519.109	1236.81
519.564	1186.81
520.019	1183.81
520.474	1155.81
520.928	1145.81
521.383	1163.81
521.838	1164.81
522.292	1119.81
522.747	1118.81
523.201	1113.81
523.656	1122.81
524.11	1133.81
524.565	1105.81
525.019	1146.81
525.474	1125.81
525.928	1128.81
526.382	1154.81
526.837	1148.81
527.291	1125.81
527.745	1121.81
528.2	1102.81
528.654	1091.81
529.108	1111.81
529.562	1106.81
530.016	1086.81
530.47	1106.81
530.925	1103.81
531.379	1107.81
531.833	1080.81
532.287	1114.81
532.741	1120.81
533.195	1106.81
533.649	1159.81
534.103	1111.81
534.556	1085.81
535.01	1134.81
535.464	1140.81
535.918	1105.81
536.372	1132.81
536.826	1120.81
537.279	1092.81
537.733	1106.81
538.187	1111.81
538.64	1101.81
539.094	1110.81
539.548	1152.81
540.001	1149.81
540.455	1125.81
540.908	1144.81
541.362	1184.81
541.815	1164.81
542.269	1191.81
542.722	1192.81
543.175	1177.81
543.629	1205.81
544.082	1208.81
544.536	1246.81
544.989	1249.81
545.442	1214.81
545.895	1249.81
546.349	1178.81
546.802	1244.81
547.255	1213.81
547.708	1251.81
548.161	1262.81
548.614	1243.81
549.067	1264.81
549.52	1228.81
549.973	1240.81
550.426	1222.81
550.879	1228.81
551.332	1224.81
551.785	1249.81
552.238	1243.81
552.691	1239.81
553.144	1267.81
553.596	1282.81
554.049	1354.81
554.502	1332.81
554.955	1359.81
555.407	1393.81
555.86	1345.81
556.313	1316.81
556.765	1307.81
557.218	1333.81
557.67	1356.81
558.123	1291.81
558.576	1306.81
559.028	1291.81
559.48	1267.81
559.933	1264.81
560.385	1271.81
560.838	1230.81
561.29	1198.81
561.742	1170.81
562.195	1171.81
562.647	1142.81
563.099	1119.81
563.551	1161.81
564.004	1144.81
564.456	1154.81
564.908	1157.81
565.36	1122.81
565.812	1090.81
566.264	1091.81
566.716	1074.81
567.168	1038.81
567.62	1064.81
568.072	1082.81
568.524	1070.81
568.976	1000.81
569.428	1047.81
569.88	1023.81
570.332	1041.81
570.784	1026.81
571.235	1015.81
571.687	1038.81
572.139	1040.81
572.59	1082.81
573.042	1056.81
573.494	1054.81
573.945	1028.81
574.397	981.81
574.849	1025.81
575.3	985.81
575.752	1000.81
576.203	989.81
576.655	1042.81
577.106	962.81
577.557	985.81
578.009	977.81
578.46	986.81
578.912	958.81
579.363	955.81
579.814	1001.81
580.265	950.81
580.717	956.81
581.168	972.81
581.619	963.81
582.07	998.81
582.521	998.81
582.972	971.81
583.423	947.81
583.875	997.81
584.326	985.81
584.777	1020.81
585.227	1018.81
585.678	1017.81
586.129	1026.81
586.58	1045.81
587.031	1081.81
587.482	1124.81
587.933	1122.81
588.384	1096.81
588.834	1103.81
589.285	1086.81
589.736	1084.81
590.186	1094.81
590.637	1132.81
591.088	1073.81
591.538	1037.81
591.989	1008.81
592.439	990.81
592.89	1014.81
593.34	1017.81
593.791	992.81
594.241	1005.81
594.692	1015.81
595.142	1002.81
595.593	971.81
596.043	968.81
596.493	1034.81
596.943	1006.81
597.394	1038.81
597.844	1061.81
598.294	1054.81
598.744	1077.81
599.195	1130.81
599.645	1178.81
600.095	1256.81
600.545	1279.81
600.995	1302.81
601.445	1408.81
601.895	1458.81
602.345	1475.81
602.795	1526.81
603.245	1446.81
603.695	1376.81
604.145	1333.81
604.594	1252.81
605.044	1183.81
605.494	1103.81
605.944	1074.81
606.393	1058.81
606.843	1003.81
607.293	1018.81
607.743	1011.81
608.192	1010.81
608.642	1006.81
609.091	1015.81
609.541	1040.81
609.99	1050.81
610.44	996.81
610.889	987.81
611.339	958.81
611.788	946.81
612.238	979.81
612.687	951.81
613.136	984.81
613.586	974.81
614.035	975.81
614.484	1017.81
614.933	998.81
615.383	1004.81
615.832	958.81
616.281	942.81
616.73	931.81
617.179	952.81
617.628	914.81
618.077	898.81
618.526	883.81
618.975	854.81
619.424	854.81
619.873	857.81
620.322	849.81
620.771	844.81
621.22	821.81
621.669	801.81
622.118	809.81
622.567	819.81
623.015	772.81
623.464	793.81
623.913	773.81
624.361	783.81
624.81	786.81
625.259	789.81
625.707	766.81
626.156	770.81
626.604	799.81
627.053	813.81
627.501	784.81
627.95	794.81
628.398	793.81
628.847	815.81
629.295	816.81
629.744	790.81
630.192	777.81
630.64	727.81
631.089	774.81
631.537	748.81
631.985	726.81
632.433	703.81
632.881	715.81
633.33	751.81
633.778	732.81
634.226	715.81
634.674	746.81
635.122	740.81
635.57	792.81
636.018	781.81
636.466	764.81
636.914	765.81
637.362	781.81
637.81	796.81
638.258	822.81
638.705	827.81
639.153	840.81
639.601	840.81
640.049	862.81
640.497	856.81
640.944	915.81
641.392	890.81
641.84	850.81
642.287	797.81
642.735	764.81
643.182	771.81
643.63	778.81
644.078	775.81
644.525	769.81
644.973	778.81
645.42	794.81
645.867	863.81
646.315	852.81
646.762	912.81
647.21	908.81
647.657	938.81
648.104	991.81
648.551	982.81
648.999	1072.81
649.446	1148.81
649.893	1243.81
650.34	1408.81
650.787	1712.81
651.234	2048.81
651.682	2766.81
652.129	3804.81
652.576	5364.81
653.023	7420.81
653.47	9196.81
653.917	10104.81
654.363	10805.81
654.81	11375.81
655.257	11906.81
655.704	9115.81
656.151	5510.81
656.598	3514.81
657.044	2474.81
657.491	1963.81
657.938	1615.81
658.385	1356.81
658.831	1225.81
659.278	1105.81
659.724	1025.81
660.171	981.81
660.618	864.81
661.064	825.81
661.511	799.81
661.957	754.81
662.404	752.81
662.85	725.81
663.296	726.81
663.743	704.81
664.189	718.81
664.635	721.81
665.082	697.81
665.528	698.81
665.974	677.81
666.42	681.81
666.867	660.81
667.313	639.81
667.759	641.81
668.205	641.81
668.651	657.81
669.097	624.81
669.543	640.81
669.989	641.81
670.435	651.81
670.881	632.81
671.327	651.81
671.773	700.81
672.219	713.81
672.665	790.81
673.11	830.81
673.556	806.81
674.002	824.81
674.448	824.81
674.893	751.81
675.339	659.81
675.785	618.81
676.23	607.81
676.676	565.81
677.122	552.81
677.567	553.81
678.013	517.81
678.458	532.81
678.904	520.81
679.349	510.81
679.794	542.81
680.24	488.81
680.685	514.81
681.131	509.81
681.576	511.81
682.021	487.81
682.466	506.81
682.912	531.81
683.357	546.81
683.802	552.81
684.247	574.81
684.692	640.81
685.137	681.81
685.583	673.81
686.028	703.81
686.473	690.81
686.918	611.81
687.363	556.81
687.807	550.81
688.252	536.81
688.697	530.81
689.142	526.81
689.587	504.81
690.032	493.81
690.477	530.81
690.921	542.81
691.366	546.81
691.811	560.81
692.255	583.81
692.7	664.81
693.145	832.81
693.589	1283.81
694.034	1682.81
694.478	1840.81
694.923	1752.81
695.367	2100.81
695.812	1930.81
696.256	844.81
696.701	579.81
697.145	506.81
697.59	484.81
698.034	483.81
698.478	475.81
698.922	475.81
699.367	473.81
699.811	515.81
700.255	516.81
700.699	571.81
701.143	603.81
701.588	597.81
702.032	666.81
702.476	702.81
702.92	712.81
703.364	835.81
703.808	1151.81
704.252	1598.81
704.696	1758.81
705.14	1632.81
705.584	2031.81
706.027	1711.81
706.471	852.81
706.915	609.81
707.359	512.81
707.803	486.81
708.246	464.81
708.69	442.81
709.134	450.81
709.577	436.81
710.021	459.81
710.465	445.81
710.908	446.81
711.352	453.81
711.795	470.81
712.239	504.81
712.682	549.81
713.126	540.81
713.569	592.81
714.012	530.81
714.456	454.81
714.899	418.81
715.342	409.81
715.786	408.81
716.229	408.81
716.672	385.81
717.115	382.81
717.558	384.81
718.002	394.81
718.445	426.81
718.888	421.81
719.331	457.81
719.774	435.81
720.217	450.81
720.66	427.81
721.103	409.81
721.546	409.81
721.989	376.81
722.432	383.81
722.874	360.81
723.317	374.81
723.76	386.81
724.203	424.81
724.645	525.81
725.088	650.81
725.531	706.81
725.974	685.81
726.416	732.81
726.859	502.81
727.301	394.81
727.744	366.81
728.187	371.81
728.629	340.81
729.071	366.81
729.514	424.81
729.956	418.81
730.399	436.81
730.841	405.81
731.283	418.81
731.726	418.81
732.168	419.81
732.61	430.81
733.053	441.81
733.495	468.81
733.937	502.81
734.379	572.81
734.821	664.81
735.263	899.81
735.705	1547.81
736.148	2454.81
736.59	2898.81
737.032	2727.81
737.474	2961.81
737.916	1456.81
738.357	725.81
738.799	506.81
739.241	474.81
739.683	439.81
740.125	463.81
740.567	439.81
741.008	477.81
741.45	534.81
741.892	526.81
742.334	545.81
742.775	516.81
743.217	521.81
743.658	459.81
744.1	438.81
744.542	490.81
744.983	563.81
745.425	540.81
745.866	559.81
746.307	496.81
746.749	472.81
747.19	577.81
747.632	891.81
748.073	1692.81
748.514	2578.81
748.956	3176.81
749.397	4332.81
749.838	3532.81
750.279	2893.81
750.72	2134.81
751.162	1009.81
751.603	546.81
752.044	403.81
752.485	351.81
752.926	341.81
753.367	339.81
753.808	338.81
754.249	332.81
754.69	350.81
755.131	310.81
755.572	314.81
756.013	319.81
756.453	307.81
756.894	313.81
757.335	330.81
757.776	324.81
758.216	336.81
758.657	359.81
759.098	353.81
759.538	399.81
759.979	500.81
760.42	748.81
760.86	1686.81
761.301	3850.81
761.741	5667.81
762.182	5901.81
762.622	5412.81
763.063	2592.81
763.503	1037.81
763.943	550.81
764.384	402.81
764.824	380.81
765.264	354.81
765.705	321.81
766.145	326.81
766.585	294.81
767.025	306.81
767.465	297.81
767.906	309.81
768.346	301.81
768.786	348.81
769.226	400.81
769.666	632.81
770.106	1325.81
770.546	2311.81
770.986	2476.81
771.426	2436.81
771.866	1399.81
772.306	641.81
772.745	402.81
773.185	320.81
773.625	282.81
774.065	313.81
774.505	335.81
774.944	529.81
775.384	819.81
775.824	890.81
776.263	919.81
776.703	628.81
777.142	375.81
777.582	277.81
778.021	267.81
778.461	232.81
778.9	238.81
779.34	235.81
779.779	251.81
780.219	256.81
780.658	238.81
781.097	224.81
781.537	221.81
781.976	224.81
782.415	214.81
782.855	195.81
783.294	214.81
783.733	200.81
784.172	233.81
784.611	210.81
785.05	234.81
785.489	226.81
785.928	220.81
786.367	229.81
786.806	234.81
787.245	248.81
787.684	274.81
788.123	280.81
788.562	261.81
789.001	245.81
789.44	228.81
789.879	250.81
790.317	234.81
790.756	237.81
791.195	260.81
791.634	318.81
792.072	424.81
792.511	800.81
792.95	1746.81
793.388	2229.81
793.827	1913.81
794.265	1140.81
794.704	572.81
795.142	337.81
795.581	283.81
796.019	269.81
796.458	256.81
796.896	244.81
797.334	285.81
797.773	319.81
798.211	456.81
798.649	846.81
799.087	1377.81
799.526	2143.81
799.964	2362.81
800.402	2013.81
800.84	1153.81
801.278	656.81
801.716	374.81
802.154	290.81
802.592	271.81
803.03	267.81
803.468	269.81
803.906	254.81
804.344	275.81
804.782	274.81
805.22	275.81
805.658	251.81
806.096	275.81
806.533	283.81
806.971	352.81
807.409	418.81
807.847	646.81
808.284	1424.81
808.722	2798.81
809.16	3931.81
809.597	5412.81
810.035	6956.81
810.472	5914.81
810.91	3239.81
811.347	1625.81
811.785	742.81
812.222	468.81
812.66	341.81
813.097	298.81
813.535	267.81
813.972	238.81
814.409	234.81
814.846	209.81
815.284	231.81
815.721	200.81
816.158	247.81
816.595	267.81
817.032	296.81
817.47	331.81
817.907	286.81
818.344	264.81
818.781	235.81
819.218	253.81
819.655	308.81
820.092	400.81
820.529	424.81
820.966	365.81
821.403	267.81
821.839	246.81
822.276	266.81
822.713	259.81
823.15	263.81
823.587	269.81
824.023	346.81
824.46	660.81
824.897	1254.81
825.333	1316.81
825.77	796.81
826.206	485.81
826.643	306.81
827.08	222.81
827.516	210.81
827.953	185.81
828.389	186.81
828.825	163.81
829.262	179.81
829.698	190.81
830.135	170.81
830.571	168.81
831.007	165.81
831.443	168.81
831.88	151.81
832.316	176.81
832.752	189.81
833.188	182.81
833.624	151.81
834.06	163.81
834.497	187.81
834.933	181.81
835.369	196.81
835.805	184.81
836.241	181.81
836.677	197.81
837.112	204.81
837.548	240.81
837.984	274.81
838.42	468.81
838.856	1025.81
839.292	2226.81
839.727	2395.81
840.163	1642.81
840.599	1853.81
841.034	2691.81
841.47	2161.81
841.906	1197.81
842.341	711.81
842.777	420.81
843.212	410.81
843.648	357.81
844.083	259.81
844.519	216.81
844.954	177.81
845.39	182.81
845.825	155.81
846.261	161.81
846.696	158.81
847.131	146.81
847.566	161.81
848.002	165.81
848.437	172.81
848.872	147.81
849.307	178.81
849.742	195.81
850.177	418.81
850.613	841.81
851.048	915.81
851.483	542.81
851.918	344.81
852.353	227.81
852.788	170.81
853.223	178.81
853.657	155.81
854.092	140.81
854.527	142.81
854.962	175.81
855.397	167.81
855.832	146.81
856.266	146.81
856.701	141.81
857.136	128.81
857.57	146.81
858.005	165.81
858.44	156.81
858.874	167.81
859.309	140.81
859.743	123.81
860.178	144.81
860.612	146.81
861.047	170.81
861.481	204.81
861.915	195.81
862.35	185.81
862.784	134.81
863.218	127.81
863.653	127.81
864.087	140.81
864.521	171.81
864.955	194.81
865.39	279.81
865.824	282.81
866.258	278.81
866.692	409.81
867.126	350.81
867.56	269.81
867.994	213.81
868.428	172.81
868.862	169.81
869.296	161.81
869.73	202.81
870.164	186.81
870.598	165.81
871.031	152.81
871.465	135.81
871.899	136.81
872.333	125.81
872.766	127.81
873.2	122.81
873.634	124.81
874.067	106.81
874.501	134.81
874.935	122.81
875.368	135.81
875.802	132.81
876.235	112.81
876.669	121.81
877.102	120.81
877.535	115.81
877.969	124.81
878.402	112.81
878.836	122.81
879.269	108.81
879.702	126.81
880.135	130.81
880.569	112.81
881.002	129.81
881.435	108.81
881.868	123.81
882.301	120.81
882.734	100.81
883.167	108.81
883.601	110.81
884.034	122.81
884.467	116.81
884.899	106.81
885.332	114.81
885.765	96.81
886.198	123.81
886.631	108.81
887.064	112.81
887.497	102.81
887.929	112.81
888.362	113.81
888.795	106.81
889.228	131.81
889.66	110.81
890.093	122.81
890.526	110.81
890.958	99.81
891.391	106.81
891.823	102.81
892.256	119.81
892.688	103.81
893.121	114.81
893.553	108.81
893.985	122.81
894.418	122.81
894.85	107.81
895.282	124.81
895.715	100.81
896.147	106.81
896.579	108.81
897.011	100.81
897.444	99.81
897.876	112.81
898.308	107.81
898.74	112.81
899.172	106.81
899.604	102.81
900.036	97.81
900.468	100.81
900.9	107.81
901.332	109.81
901.764	119.81
902.196	124.81
902.628	115.81
903.06	120.81
903.491	135.81
903.923	157.81
904.355	124.81
904.787	133.81
905.218	123.81
905.65	137.81
906.082	110.81
906.513	122.81
906.945	108.81
907.376	111.81
907.808	110.81
908.239	129.81
908.671	125.81
909.102	137.81
909.534	131.81
909.965	170.81
910.397	250.81
910.828	554.81
911.259	584.81
911.691	397.81
912.122	284.81
912.553	203.81
912.984	149.81
913.415	113.81
913.847	124.81
914.278	122.81
914.709	116.81
915.14	102.81
915.571	99.81
916.002	91.81
916.433	98.81
916.864	95.81
917.295	101.81
917.726	115.81
918.157	118.81
918.587	114.81
919.018	124.81
919.449	107.81
919.88	123.81
920.311	132.81
920.741	182.81
921.172	292.81
921.603	245.81
922.033	210.81
922.464	150.81
922.895	138.81
923.325	110.81
923.756	94.81
924.186	122.81
924.617	128.81
925.047	126.81
925.478	156.81
925.908	122.81
926.338	124.81
926.769	108.81
927.199	96.81
927.629	107.81
928.06	109.81
928.49	100.81
928.92	99.81
929.35	101.81
929.78	104.81
930.21	92.81
930.641	106.81
931.071	100.81
931.501	106.81
931.931	106.81
932.361	98.81
932.791	93.81
933.221	95.81
933.651	118.81
934.08	97.81
934.51	115.81
934.94	102.81
935.37	96.81
935.8	108.81
936.229	90.81
936.659	117.81
937.089	96.81
937.519	88.81
937.948	118.81
938.378	112.81
938.807	104.81
939.237	100.81
939.666	107.81
940.096	117.81
940.525	106.81
940.955	87.81
941.384	106.81
941.814	89.81
942.243	109.81
942.672	70.81
943.102	89.81
943.531	90.81
943.96	84.81
944.39	98.81
944.819	98.81
945.248	97.81
945.677	79.81
946.106	90.81
946.535	73.81
946.964	66.81
947.393	91.81
947.822	100.81
948.251	90.81
948.68	93.81
949.109	88.81
949.538	94.81
949.967	73.81
950.396	92.81
950.825	94.81
951.254	91.81
951.682	87.81
952.111	86.81
952.54	90.81
952.969	89.81
953.397	97.81
953.826	102.81
954.254	99.81
954.683	97.81
955.112	93.81
955.54	91.81
955.969	97.81
956.397	89.81
956.826	93.81
957.254	102.81
957.682	81.81
958.111	94.81
958.539	80.81
958.967	92.81
959.396	94.81
959.824	95.81
960.252	76.81
960.68	83.81
961.109	83.81
961.537	81.81
961.965	78.81
962.393	92.81
962.821	102.81
963.249	86.81
963.677	76.81
964.105	122.81
964.533	163.81
964.961	126.81
965.389	116.81
965.817	107.81
966.245	99.81
966.672	92.81
967.1	95.81
967.528	91.81
967.956	102.81
968.383	95.81
968.811	73.81
969.239	83.81
969.666	96.81
970.094	102.81
970.522	100.81
970.949	84.81
971.377	76.81
971.804	80.81
972.232	83.81
972.659	89.81
973.087	87.81
973.514	99.81
973.941	107.81
974.369	92.81
974.796	108.81
975.223	81.81
975.651	94.81
976.078	83.81
976.505	86.81
976.932	96.81
977.359	110.81
977.786	104.81
978.214	76.81
978.641	92.81
979.068	102.81
979.495	101.81
979.922	102.81
980.349	74.81
980.776	98.81
981.202	89.81
981.629	106.81
982.056	86.81
982.483	79.81
982.91	101.81
983.337	90.81
983.763	83.81
984.19	89.81
984.617	101.81
985.043	82.81
985.47	88.81
985.897	88.81
986.323	92.81
986.75	96.81
987.176	95.81
987.603	91.81
988.029	81.81
988.456	92.81
988.882	80.81
989.308	93.81
989.735	88.81
990.161	81.81
990.587	90.81
991.014	68.81
991.44	103.81
991.866	95.81
992.292	92.81
992.719	96.81
993.145	79.81
993.571	94.81
993.997	81.81
994.423	90.81
994.849	105.81
995.275	71.81
995.701	85.81
996.127	86.81
996.553	100.81
996.979	92.81
997.405	95.81
997.83	104.81
998.256	90.81
998.682	78.81
999.108	90.81
999.534	79.81
999.959	90.81
1000.385	84.81
1000.811	95.81
1001.236	83.81
1001.662	86.81
1002.087	91.81
1002.513	87.81
1002.938	75.81
1003.364	74.81
1003.789	102.81
1004.215	87.81
1004.64	80.81
1005.066	78.81
1005.491	89.81
1005.916	100.81
1006.342	87.81
1006.767	80.81
1007.192	80.81
1007.617	94.81
1008.042	89.81
1008.468	87.81
1008.893	104.81
1009.318	84.81
1009.743	74.81
1010.168	100.81
1010.593	104.81
1011.018	94.81
1011.443	90.81
1011.868	79.81
1012.293	62.81
1012.718	70.81
1013.143	90.81
1013.567	70.81
1013.992	90.81
1014.417	95.81
1014.842	73.81
1015.267	81.81
1015.691	84.81
1016.116	96.81
1016.541	80.81
1016.965	104.81
1017.39	71.81
1017.814	92.81
1018.239	80.81
1018.663	79.81
1019.088	80.81
1019.512	87.81
1019.937	94.81
1020.361	78.81
1020.785	77.81
1021.21	78.81
1021.634	82.81
1022.058	93.81
1022.483	102.81
1022.907	97.81
1023.331	74.81
1023.755	82.81
1024.179	79.81
1024.604	97.81
1025.028	98.81
1025.452	83.81
1025.876	75.81
1026.3	83.81
1026.724	81.81
1027.148	96.81
1027.572	87.81
1027.996	99.81
1028.42	74.81
1028.843	76.81
1029.267	81.81
1029.691	81.81
1030.115	83.81
1030.539	93.81
1030.962	93.81
1031.386	91.81
1031.81	64.81
1032.233	82.81
1032.657	85.81
1033.08	70.81
1033.504	77.81
1033.927	74.81
1034.351	103.81
1034.774	79.81
1035.198	77.81
1035.621	98.81
1036.045	96.81
1036.468	97.81
1036.891	78.81
1037.315	86.81
1037.738	87.81
1038.161	77.81
1038.584	79.81
1039.008	90.81
1039.431	101.81
1039.854	98.81
1040.277	83.81
1040.7	69.81
1041.123	83.81
1041.546	81.81
1041.969	88.81
1042.392	99.81
1042.815	80.81
1043.238	96.81
1043.661	85.81
1044.084	91.81
1044.507	92.81
1044.93	77.81
1045.352	94.81
1045.775	78.81
1046.198	93.81
1046.621	73.81
1047.043	106.81
1047.466	86.81
1047.889	88.81
1048.311	90.81
1048.734	90.81
1049.156	82.81
1049.579	86.81
1050.001	76.81
1050.424	70.81
1050.846	84.81
1051.269	66.81
1051.691	88.81
1052.113	97.81
1052.536	88.81
1052.958	95.81
1053.38	75.81
1053.802	90.81
1054.225	77.81
1054.647	81.81
1055.069	81.81
1055.491	94.81
1055.913	80.81
1056.335	88.81
1056.757	94.81
1057.179	82.81
1057.601	82.81
1058.023	89.81
1058.445	87.81
1058.867	79.81
1059.289	79.81
1059.711	86.81
1060.133	86.81
1060.555	94.81
1060.976	101.81
1061.398	93.81
1061.82	77.81
1062.241	84.81
1062.663	89.81
1063.085	95.81
1063.506	82.81
1063.928	92.81
1064.35	101.81
1064.771	90.81
1065.193	79.81
1065.614	87.81
1066.035	102.81
1066.457	82.81
1066.878	101.81
1067.3	90.81
1067.721	81.81
1068.142	84.81
1068.564	72.81
1068.985	93.81
1069.406	90.81
1069.827	96.81
1070.248	85.81
1070.67	89.81
1071.091	101.81
1071.512	74.81
1071.933	83.81
1072.354	90.81
1072.775	78.81
1073.196	70.81
1073.617	63.81
1074.038	99.81
1074.459	88.81
1074.88	78.81
1075.3	80.81
1075.721	86.81
1076.142	82.81
1076.563	88.81
1076.983	79.81
1077.404	74.81
1077.825	103.81
1078.246	105.81
1078.666	83.81
1079.087	78.81
1079.507	74.81
1079.928	83.81
1080.348	89.81
1080.769	75.81
1081.189	75.81
1081.61	94.81
1082.03	86.81
1082.451	90.81
1082.871	82.81
1083.291	86.81
1083.711	88.81
1084.132	87.81
1084.552	72.81
1084.972	72.81
1085.392	90.81
1085.813	77.81
1086.233	84.81
1086.653	87.81
1087.073	102.81
1087.493	76.81
1087.913	84.81
1088.333	84.81
1088.753	81.81
1089.173	85.81
1089.593	88.81
1090.013	78.81
1090.433	88.81
1090.852	90.81
1091.272	84.81
1091.692	71.81
1092.112	95.81
1092.531	88.81
1092.951	83.81
1093.371	86.81
1093.79	78.81
1094.21	86.81
1094.63	76.81
1095.049	76.81
1095.469	85.81
1095.888	96.81
1096.308	86.81
1096.727	90.81
1097.146	72.81
1097.566	75.81
1097.985	73.81
1098.405	88.81
1098.824	80.81
1099.243	90.81
1099.662	85.81
1100.082	82.81
1100.501	83.81
1100.92	105.81
1101.339	94.81
1101.758	97.81
