Data from 20170802-ORNL-NYSim-Air_HRD10391_10-37-02-626.txt Node
Date: Wed Aug 02 10:37:02 EDT 2017
User: Ender
Spectrometer: HR+D1039
Trigger mode: 0
Integration Time (sec): 1.510000E-3
Scans to average: 1
Electric dark correction enabled: true
Nonlinearity correction enabled: false
Boxcar width: 0
XAxis mode: Wavelengths
Number of Pixels in Spectrum: 2048
>>>>>Begin Spectral Data<<<<<
187.836	6.19
188.309	6.19
188.782	6.19
189.255	-7.81
189.728	-4.81
190.201	-17.81
190.674	-1.81
191.147	-9.81
191.619	6.19
192.092	2.19
192.565	-3.81
193.038	-5.81
193.511	-6.81
193.984	-11.81
194.456	-2.81
194.929	16.19
195.402	23.19
195.874	19.19
196.347	12.19
196.82	25.19
197.292	20.19
197.765	18.19
198.237	26.19
198.71	32.19
199.182	50.19
199.655	58.19
200.127	34.19
200.6	52.19
201.072	43.19
201.544	48.19
202.017	66.19
202.489	66.19
202.961	79.19
203.433	66.19
203.906	72.19
204.378	59.19
204.85	83.19
205.322	70.19
205.794	63.19
206.266	81.19
206.739	78.19
207.211	87.19
207.683	89.19
208.155	71.19
208.627	76.19
209.099	68.19
209.57	76.19
210.042	91.19
210.514	81.19
210.986	84.19
211.458	106.19
211.93	85.19
212.402	85.19
212.873	80.19
213.345	87.19
213.817	90.19
214.288	88.19
214.76	72.19
215.232	68.19
215.703	75.19
216.175	89.19
216.646	79.19
217.118	80.19
217.589	70.19
218.061	75.19
218.532	89.19
219.004	95.19
219.475	82.19
219.946	90.19
220.418	75.19
220.889	79.19
221.36	62.19
221.832	91.19
222.303	78.19
222.774	79.19
223.245	88.19
223.717	54.19
224.188	73.19
224.659	79.19
225.13	63.19
225.601	74.19
226.072	74.19
226.543	74.19
227.014	89.19
227.485	77.19
227.956	68.19
228.427	81.19
228.898	106.19
229.369	91.19
229.839	86.19
230.31	65.19
230.781	78.19
231.252	69.19
231.722	100.19
232.193	72.19
232.664	79.19
233.135	85.19
233.605	69.19
234.076	92.19
234.546	68.19
235.017	70.19
235.487	76.19
235.958	80.19
236.428	81.19
236.899	77.19
237.369	73.19
237.84	73.19
238.31	90.19
238.78	84.19
239.251	80.19
239.721	87.19
240.191	80.19
240.662	87.19
241.132	94.19
241.602	86.19
242.072	85.19
242.542	90.19
243.013	84.19
243.483	87.19
243.953	75.19
244.423	87.19
244.893	65.19
245.363	63.19
245.833	96.19
246.303	79.19
246.773	80.19
247.243	79.19
247.712	88.19
248.182	82.19
248.652	77.19
249.122	84.19
249.592	82.19
250.061	76.19
250.531	73.19
251.001	92.19
251.471	94.19
251.94	93.19
252.41	86.19
252.879	90.19
253.349	91.19
253.818	80.19
254.288	101.19
254.757	88.19
255.227	91.19
255.696	100.19
256.166	95.19
256.635	106.19
257.105	80.19
257.574	94.19
258.043	79.19
258.513	94.19
258.982	106.19
259.451	99.19
259.92	90.19
260.389	78.19
260.859	80.19
261.328	95.19
261.797	87.19
262.266	86.19
262.735	106.19
263.204	112.19
263.673	101.19
264.142	96.19
264.611	103.19
265.08	94.19
265.549	92.19
266.018	100.19
266.487	107.19
266.955	97.19
267.424	94.19
267.893	100.19
268.362	97.19
268.83	94.19
269.299	103.19
269.768	100.19
270.236	104.19
270.705	99.19
271.174	92.19
271.642	110.19
272.111	98.19
272.579	94.19
273.048	111.19
273.516	105.19
273.985	113.19
274.453	108.19
274.922	112.19
275.39	110.19
275.858	107.19
276.327	106.19
276.795	111.19
277.263	98.19
277.731	96.19
278.2	109.19
278.668	101.19
279.136	118.19
279.604	110.19
280.072	100.19
280.54	99.19
281.008	94.19
281.477	123.19
281.945	97.19
282.413	102.19
282.881	116.19
283.348	115.19
283.816	116.19
284.284	100.19
284.752	112.19
285.22	104.19
285.688	100.19
286.156	107.19
286.623	134.19
287.091	120.19
287.559	112.19
288.026	110.19
288.494	127.19
288.962	120.19
289.429	109.19
289.897	124.19
290.364	110.19
290.832	120.19
291.3	115.19
291.767	110.19
292.234	122.19
292.702	112.19
293.169	128.19
293.637	99.19
294.104	118.19
294.571	106.19
295.039	112.19
295.506	120.19
295.973	122.19
296.44	129.19
296.908	106.19
297.375	115.19
297.842	118.19
298.309	121.19
298.776	146.19
299.243	138.19
299.71	118.19
300.177	106.19
300.644	144.19
301.111	115.19
301.578	129.19
302.045	140.19
302.512	118.19
302.979	147.19
303.446	128.19
303.913	135.19
304.379	122.19
304.846	119.19
305.313	110.19
305.78	130.19
306.246	132.19
306.713	137.19
307.18	130.19
307.646	143.19
308.113	139.19
308.579	144.19
309.046	148.19
309.512	134.19
309.979	127.19
310.445	147.19
310.912	165.19
311.378	132.19
311.845	153.19
312.311	137.19
312.777	140.19
313.244	132.19
313.71	132.19
314.176	146.19
314.642	157.19
315.109	134.19
315.575	153.19
316.041	148.19
316.507	160.19
316.973	142.19
317.439	162.19
317.905	150.19
318.371	147.19
318.837	140.19
319.303	152.19
319.769	159.19
320.235	140.19
320.701	153.19
321.167	150.19
321.633	140.19
322.099	166.19
322.564	174.19
323.03	178.19
323.496	169.19
323.962	170.19
324.427	164.19
324.893	169.19
325.359	161.19
325.824	154.19
326.29	162.19
326.755	148.19
327.221	156.19
327.686	171.19
328.152	168.19
328.617	165.19
329.083	171.19
329.548	184.19
330.014	182.19
330.479	162.19
330.944	184.19
331.41	173.19
331.875	176.19
332.34	170.19
332.805	174.19
333.271	175.19
333.736	176.19
334.201	171.19
334.666	174.19
335.131	173.19
335.596	187.19
336.061	197.19
336.526	185.19
336.991	190.19
337.456	162.19
337.921	171.19
338.386	175.19
338.851	173.19
339.316	189.19
339.781	144.19
340.246	172.19
340.711	178.19
341.175	193.19
341.64	190.19
342.105	195.19
342.569	184.19
343.034	200.19
343.499	197.19
343.963	190.19
344.428	216.19
344.893	186.19
345.357	202.19
345.822	189.19
346.286	204.19
346.751	194.19
347.215	220.19
347.679	214.19
348.144	207.19
348.608	214.19
349.073	227.19
349.537	204.19
350.001	219.19
350.465	223.19
350.93	225.19
351.394	220.19
351.858	214.19
352.322	232.19
352.786	232.19
353.25	220.19
353.715	224.19
354.179	228.19
354.643	246.19
355.107	244.19
355.571	213.19
356.035	226.19
356.498	239.19
356.962	232.19
357.426	244.19
357.89	236.19
358.354	226.19
358.818	251.19
359.281	250.19
359.745	231.19
360.209	247.19
360.673	221.19
361.136	243.19
361.6	243.19
362.064	251.19
362.527	253.19
362.991	218.19
363.454	250.19
363.918	261.19
364.381	268.19
364.845	255.19
365.308	234.19
365.772	264.19
366.235	274.19
366.698	269.19
367.162	268.19
367.625	242.19
368.088	254.19
368.552	235.19
369.015	262.19
369.478	264.19
369.941	275.19
370.404	259.19
370.867	264.19
371.331	284.19
371.794	258.19
372.257	269.19
372.72	283.19
373.183	263.19
373.646	262.19
374.109	262.19
374.572	286.19
375.035	268.19
375.497	309.19
375.96	278.19
376.423	292.19
376.886	293.19
377.349	295.19
377.811	274.19
378.274	280.19
378.737	276.19
379.199	308.19
379.662	299.19
380.125	300.19
380.587	324.19
381.05	302.19
381.512	315.19
381.975	314.19
382.437	323.19
382.9	307.19
383.362	324.19
383.825	319.19
384.287	324.19
384.75	322.19
385.212	316.19
385.674	324.19
386.136	336.19
386.599	341.19
387.061	341.19
387.523	336.19
387.985	324.19
388.447	326.19
388.91	343.19
389.372	326.19
389.834	342.19
390.296	340.19
390.758	353.19
391.22	353.19
391.682	354.19
392.144	332.19
392.606	331.19
393.068	349.19
393.529	340.19
393.991	386.19
394.453	365.19
394.915	331.19
395.377	328.19
395.838	338.19
396.3	368.19
396.762	360.19
397.224	345.19
397.685	365.19
398.147	356.19
398.608	361.19
399.07	350.19
399.531	386.19
399.993	366.19
400.454	380.19
400.916	379.19
401.377	390.19
401.839	383.19
402.3	406.19
402.762	408.19
403.223	423.19
403.684	416.19
404.145	385.19
404.607	358.19
405.068	410.19
405.529	369.19
405.99	416.19
406.451	419.19
406.913	423.19
407.374	401.19
407.835	406.19
408.296	394.19
408.757	423.19
409.218	412.19
409.679	406.19
410.14	425.19
410.601	423.19
411.062	415.19
411.522	442.19
411.983	434.19
412.444	434.19
412.905	456.19
413.366	444.19
413.826	480.19
414.287	534.19
414.748	599.19
415.208	630.19
415.669	527.19
416.13	492.19
416.59	489.19
417.051	487.19
417.511	506.19
417.972	545.19
418.432	598.19
418.893	621.19
419.353	596.19
419.814	500.19
420.274	428.19
420.734	444.19
421.195	453.19
421.655	458.19
422.115	486.19
422.576	472.19
423.036	448.19
423.496	461.19
423.956	494.19
424.416	521.19
424.876	573.19
425.336	585.19
425.797	591.19
426.257	578.19
426.717	528.19
427.177	505.19
427.637	529.19
428.097	551.19
428.556	559.19
429.016	610.19
429.476	588.19
429.936	572.19
430.396	589.19
430.856	581.19
431.315	603.19
431.775	632.19
432.235	682.19
432.694	670.19
433.154	671.19
433.614	650.19
434.073	596.19
434.533	601.19
434.993	551.19
435.452	561.19
435.912	536.19
436.371	565.19
436.83	540.19
437.29	528.19
437.749	489.19
438.209	502.19
438.668	529.19
439.127	552.19
439.587	518.19
440.046	536.19
440.505	504.19
440.964	530.19
441.424	515.19
441.883	529.19
442.342	516.19
442.801	504.19
443.26	508.19
443.719	485.19
444.178	510.19
444.637	500.19
445.096	505.19
445.555	494.19
446.014	508.19
446.473	492.19
446.932	495.19
447.391	498.19
447.849	511.19
448.308	510.19
448.767	516.19
449.226	537.19
449.685	548.19
450.143	553.19
450.602	556.19
451.061	516.19
451.519	538.19
451.978	514.19
452.436	503.19
452.895	511.19
453.353	520.19
453.812	500.19
454.27	507.19
454.729	516.19
455.187	522.19
455.646	543.19
456.104	518.19
456.562	520.19
457.021	551.19
457.479	527.19
457.937	534.19
458.395	563.19
458.854	524.19
459.312	535.19
459.77	550.19
460.228	556.19
460.686	542.19
461.144	542.19
461.602	564.19
462.06	548.19
462.518	556.19
462.976	549.19
463.434	561.19
463.892	557.19
464.35	594.19
464.808	599.19
465.266	581.19
465.724	578.19
466.181	609.19
466.639	601.19
467.097	613.19
467.555	636.19
468.012	618.19
468.47	652.19
468.928	648.19
469.385	665.19
469.843	671.19
470.3	673.19
470.758	699.19
471.215	678.19
471.673	727.19
472.13	729.19
472.588	718.19
473.045	735.19
473.503	766.19
473.96	790.19
474.417	803.19
474.875	828.19
475.332	864.19
475.789	876.19
476.246	871.19
476.704	908.19
477.161	927.19
477.618	957.19
478.075	1007.19
478.532	1041.19
478.989	1142.19
479.446	1268.19
479.903	1302.19
480.36	1396.19
480.817	1541.19
481.274	1567.19
481.731	1710.19
482.188	1812.19
482.645	1980.19
483.102	2118.19
483.558	2211.19
484.015	2323.19
484.472	2326.19
484.929	2234.19
485.385	2185.19
485.842	2166.19
486.299	2014.19
486.755	1925.19
487.212	1725.19
487.668	1568.19
488.125	1465.19
488.582	1347.19
489.038	1324.19
489.494	1251.19
489.951	1288.19
490.407	1202.19
490.864	1243.19
491.32	1153.19
491.776	1171.19
492.233	1158.19
492.689	1142.19
493.145	1131.19
493.602	1109.19
494.058	1136.19
494.514	1131.19
494.97	1120.19
495.426	1160.19
495.882	1137.19
496.338	1146.19
496.794	1155.19
497.251	1156.19
497.707	1158.19
498.163	1144.19
498.618	1134.19
499.074	1141.19
499.53	1166.19
499.986	1172.19
500.442	1134.19
500.898	1165.19
501.354	1166.19
501.809	1185.19
502.265	1172.19
502.721	1148.19
503.177	1177.19
503.632	1180.19
504.088	1200.19
504.543	1192.19
504.999	1238.19
505.455	1180.19
505.91	1183.19
506.366	1177.19
506.821	1196.19
507.277	1203.19
507.732	1223.19
508.187	1233.19
508.643	1221.19
509.098	1162.19
509.553	1209.19
510.009	1234.19
510.464	1257.19
510.919	1254.19
511.375	1264.19
511.83	1302.19
512.285	1341.19
512.74	1351.19
513.195	1366.19
513.65	1360.19
514.105	1370.19
514.56	1393.19
515.015	1380.19
515.47	1375.19
515.925	1392.19
516.38	1392.19
516.835	1408.19
517.29	1396.19
517.745	1420.19
518.2	1418.19
518.655	1363.19
519.109	1351.19
519.564	1354.19
520.019	1300.19
520.474	1307.19
520.928	1289.19
521.383	1274.19
521.838	1274.19
522.292	1258.19
522.747	1257.19
523.201	1275.19
523.656	1272.19
524.11	1254.19
524.565	1245.19
525.019	1252.19
525.474	1273.19
525.928	1195.19
526.382	1250.19
526.837	1243.19
527.291	1232.19
527.745	1236.19
528.2	1242.19
528.654	1240.19
529.108	1221.19
529.562	1261.19
530.016	1220.19
530.47	1258.19
530.925	1237.19
531.379	1236.19
531.833	1230.19
532.287	1240.19
532.741	1240.19
533.195	1262.19
533.649	1201.19
534.103	1216.19
534.556	1239.19
535.01	1247.19
535.464	1259.19
535.918	1266.19
536.372	1251.19
536.826	1268.19
537.279	1226.19
537.733	1236.19
538.187	1248.19
538.64	1255.19
539.094	1233.19
539.548	1254.19
540.001	1270.19
540.455	1281.19
540.908	1284.19
541.362	1316.19
541.815	1291.19
542.269	1340.19
542.722	1322.19
543.175	1326.19
543.629	1349.19
544.082	1330.19
544.536	1373.19
544.989	1364.19
545.442	1360.19
545.895	1393.19
546.349	1396.19
546.802	1351.19
547.255	1338.19
547.708	1375.19
548.161	1386.19
548.614	1388.19
549.067	1442.19
549.52	1404.19
549.973	1397.19
550.426	1355.19
550.879	1388.19
551.332	1346.19
551.785	1328.19
552.238	1379.19
552.691	1398.19
553.144	1393.19
553.596	1454.19
554.049	1477.19
554.502	1445.19
554.955	1516.19
555.407	1496.19
555.86	1470.19
556.313	1481.19
556.765	1471.19
557.218	1479.19
557.67	1464.19
558.123	1454.19
558.576	1429.19
559.028	1449.19
559.48	1439.19
559.933	1506.19
560.385	1378.19
560.838	1350.19
561.29	1357.19
561.742	1308.19
562.195	1267.19
562.647	1290.19
563.099	1246.19
563.551	1264.19
564.004	1298.19
564.456	1263.19
564.908	1234.19
565.36	1210.19
565.812	1182.19
566.264	1200.19
566.716	1199.19
567.168	1149.19
567.62	1177.19
568.072	1148.19
568.524	1143.19
568.976	1166.19
569.428	1102.19
569.88	1114.19
570.332	1121.19
570.784	1157.19
571.235	1154.19
571.687	1142.19
572.139	1148.19
572.59	1169.19
573.042	1165.19
573.494	1184.19
573.945	1167.19
574.397	1144.19
574.849	1114.19
575.3	1125.19
575.752	1091.19
576.203	1075.19
576.655	1109.19
577.106	1067.19
577.557	1067.19
578.009	1108.19
578.46	1105.19
578.912	1067.19
579.363	1072.19
579.814	1052.19
580.265	1088.19
580.717	1106.19
581.168	1123.19
581.619	1067.19
582.07	1080.19
582.521	1081.19
582.972	1068.19
583.423	1078.19
583.875	1102.19
584.326	1118.19
584.777	1113.19
585.227	1137.19
585.678	1144.19
586.129	1156.19
586.58	1195.19
587.031	1214.19
587.482	1198.19
587.933	1220.19
588.384	1206.19
588.834	1200.19
589.285	1230.19
589.736	1217.19
590.186	1193.19
590.637	1228.19
591.088	1201.19
591.538	1195.19
591.989	1193.19
592.439	1146.19
592.89	1118.19
593.34	1121.19
593.791	1112.19
594.241	1089.19
594.692	1082.19
595.142	1079.19
595.593	1072.19
596.043	1142.19
596.493	1111.19
596.943	1123.19
597.394	1123.19
597.844	1158.19
598.294	1139.19
598.744	1206.19
599.195	1287.19
599.645	1304.19
600.095	1378.19
600.545	1454.19
600.995	1489.19
601.445	1546.19
601.895	1638.19
602.345	1685.19
602.795	1673.19
603.245	1650.19
603.695	1501.19
604.145	1475.19
604.594	1415.19
605.044	1363.19
605.494	1254.19
605.944	1184.19
606.393	1138.19
606.843	1100.19
607.293	1111.19
607.743	1123.19
608.192	1159.19
608.642	1116.19
609.091	1150.19
609.541	1117.19
609.99	1128.19
610.44	1118.19
610.889	1103.19
611.339	1094.19
611.788	1090.19
612.238	1071.19
612.687	1054.19
613.136	1069.19
613.586	1090.19
614.035	1065.19
614.484	1092.19
614.933	1089.19
615.383	1048.19
615.832	1052.19
616.281	1042.19
616.73	1036.19
617.179	989.19
617.628	996.19
618.077	958.19
618.526	951.19
618.975	940.19
619.424	941.19
619.873	931.19
620.322	940.19
620.771	944.19
621.22	921.19
621.669	881.19
622.118	934.19
622.567	894.19
623.015	879.19
623.464	874.19
623.913	852.19
624.361	838.19
624.81	882.19
625.259	883.19
625.707	863.19
626.156	867.19
626.604	862.19
627.053	896.19
627.501	865.19
627.95	860.19
628.398	878.19
628.847	880.19
629.295	875.19
629.744	852.19
630.192	854.19
630.64	831.19
631.089	820.19
631.537	813.19
631.985	794.19
632.433	760.19
632.881	788.19
633.33	807.19
633.778	796.19
634.226	818.19
634.674	835.19
635.122	817.19
635.57	848.19
636.018	820.19
636.466	855.19
636.914	828.19
637.362	860.19
637.81	866.19
638.258	906.19
638.705	871.19
639.153	909.19
639.601	957.19
640.049	965.19
640.497	970.19
640.944	978.19
641.392	969.19
641.84	941.19
642.287	902.19
642.735	858.19
643.182	864.19
643.63	873.19
644.078	866.19
644.525	843.19
644.973	884.19
645.42	923.19
645.867	912.19
646.315	922.19
646.762	958.19
647.21	970.19
647.657	1067.19
648.104	1055.19
648.551	1093.19
648.999	1192.19
649.446	1217.19
649.893	1361.19
650.34	1518.19
650.787	1834.19
651.234	2282.19
651.682	3046.19
652.129	4195.19
652.576	5960.19
653.023	8226.19
653.47	10067.19
653.917	11166.19
654.363	11825.19
654.81	12495.19
655.257	13212.19
655.704	10156.19
656.151	6160.19
656.598	3959.19
657.044	2778.19
657.491	2180.19
657.938	1810.19
658.385	1520.19
658.831	1327.19
659.278	1211.19
659.724	1084.19
660.171	1026.19
660.618	990.19
661.064	923.19
661.511	878.19
661.957	837.19
662.404	834.19
662.85	853.19
663.296	798.19
663.743	816.19
664.189	791.19
664.635	774.19
665.082	804.19
665.528	753.19
665.974	726.19
666.42	742.19
666.867	768.19
667.313	683.19
667.759	678.19
668.205	677.19
668.651	708.19
669.097	682.19
669.543	705.19
669.989	690.19
670.435	687.19
670.881	684.19
671.327	730.19
671.773	755.19
672.219	790.19
672.665	868.19
673.11	899.19
673.556	919.19
674.002	889.19
674.448	935.19
674.893	823.19
675.339	753.19
675.785	642.19
676.23	640.19
676.676	620.19
677.122	601.19
677.567	574.19
678.013	567.19
678.458	569.19
678.904	559.19
679.349	554.19
679.794	543.19
680.24	546.19
680.685	546.19
681.131	560.19
681.576	545.19
682.021	523.19
682.466	550.19
682.912	557.19
683.357	580.19
683.802	611.19
684.247	646.19
684.692	732.19
685.137	750.19
685.583	734.19
686.028	770.19
686.473	784.19
686.918	679.19
687.363	641.19
687.807	598.19
688.252	553.19
688.697	564.19
689.142	526.19
689.587	541.19
690.032	546.19
690.477	536.19
690.921	574.19
691.366	579.19
691.811	617.19
692.255	644.19
692.7	731.19
693.145	940.19
693.589	1408.19
694.034	1887.19
694.478	2140.19
694.923	1894.19
695.367	2389.19
695.812	2194.19
696.256	921.19
696.701	622.19
697.145	542.19
697.59	530.19
698.034	534.19
698.478	507.19
698.922	513.19
699.367	506.19
699.811	534.19
700.255	561.19
700.699	603.19
701.143	686.19
701.588	700.19
702.032	725.19
702.476	758.19
702.92	770.19
703.364	897.19
703.808	1293.19
704.252	1772.19
704.696	1947.19
705.14	1859.19
705.584	2298.19
706.027	1914.19
706.471	949.19
706.915	660.19
707.359	556.19
707.803	503.19
708.246	518.19
708.69	515.19
709.134	502.19
709.577	500.19
710.021	517.19
710.465	492.19
710.908	492.19
711.352	499.19
711.795	542.19
712.239	561.19
712.682	598.19
713.126	584.19
713.569	632.19
714.012	579.19
714.456	476.19
714.899	461.19
715.342	419.19
715.786	431.19
716.229	446.19
716.672	429.19
717.115	412.19
717.558	440.19
718.002	412.19
718.445	452.19
718.888	442.19
719.331	477.19
719.774	465.19
720.217	454.19
720.66	458.19
721.103	442.19
721.546	431.19
721.989	395.19
722.432	410.19
722.874	371.19
723.317	416.19
723.76	408.19
724.203	454.19
724.645	563.19
725.088	717.19
725.531	761.19
725.974	773.19
726.416	803.19
726.859	563.19
727.301	423.19
727.744	392.19
728.187	393.19
728.629	411.19
729.071	424.19
729.514	438.19
729.956	438.19
730.399	456.19
730.841	461.19
731.283	453.19
731.726	438.19
732.168	430.19
732.61	437.19
733.053	480.19
733.495	510.19
733.937	562.19
734.379	626.19
734.821	752.19
735.263	1010.19
735.705	1716.19
736.148	2792.19
736.59	3248.19
737.032	2991.19
737.474	3246.19
737.916	1630.19
738.357	798.19
738.799	559.19
739.241	486.19
739.683	488.19
740.125	519.19
740.567	508.19
741.008	508.19
741.45	550.19
741.892	577.19
742.334	574.19
742.775	554.19
743.217	593.19
743.658	508.19
744.1	498.19
744.542	543.19
744.983	568.19
745.425	569.19
745.866	628.19
746.307	556.19
746.749	512.19
747.19	600.19
747.632	999.19
748.073	1886.19
748.514	2927.19
748.956	3545.19
749.397	4842.19
749.838	3971.19
750.279	3234.19
750.72	2403.19
751.162	1098.19
751.603	586.19
752.044	428.19
752.485	392.19
752.926	368.19
753.367	364.19
753.808	361.19
754.249	358.19
754.69	340.19
755.131	344.19
755.572	330.19
756.013	336.19
756.453	333.19
756.894	351.19
757.335	344.19
757.776	346.19
758.216	347.19
758.657	363.19
759.098	374.19
759.538	436.19
759.979	505.19
760.42	800.19
760.86	1812.19
761.301	4336.19
761.741	6439.19
762.182	6664.19
762.622	6191.19
763.063	2891.19
763.503	1174.19
763.943	597.19
764.384	467.19
764.824	423.19
765.264	365.19
765.705	367.19
766.145	319.19
766.585	322.19
767.025	303.19
767.465	319.19
767.906	311.19
768.346	321.19
768.786	332.19
769.226	419.19
769.666	674.19
770.106	1488.19
770.546	2537.19
770.986	2746.19
771.426	2739.19
771.866	1533.19
772.306	697.19
772.745	418.19
773.185	337.19
773.625	306.19
774.065	303.19
774.505	368.19
774.944	559.19
775.384	878.19
775.824	990.19
776.263	983.19
776.703	699.19
777.142	433.19
777.582	302.19
778.021	268.19
778.461	255.19
778.9	264.19
779.34	249.19
779.779	269.19
780.219	264.19
780.658	250.19
781.097	224.19
781.537	223.19
781.976	227.19
782.415	255.19
782.855	222.19
783.294	224.19
783.733	219.19
784.172	224.19
784.611	212.19
785.05	244.19
785.489	236.19
785.928	261.19
786.367	248.19
786.806	244.19
787.245	260.19
787.684	275.19
788.123	280.19
788.562	273.19
789.001	253.19
789.44	270.19
789.879	262.19
790.317	255.19
790.756	272.19
791.195	282.19
791.634	326.19
792.072	453.19
792.511	886.19
792.95	1964.19
793.388	2445.19
793.827	2144.19
794.265	1258.19
794.704	632.19
795.142	384.19
795.581	299.19
796.019	278.19
796.458	255.19
796.896	258.19
797.334	288.19
797.773	340.19
798.211	460.19
798.649	966.19
799.087	1570.19
799.526	2392.19
799.964	2642.19
800.402	2254.19
800.84	1310.19
801.278	701.19
801.716	385.19
802.154	336.19
802.592	282.19
803.03	303.19
803.468	301.19
803.906	277.19
804.344	290.19
804.782	297.19
805.22	283.19
805.658	282.19
806.096	288.19
806.533	330.19
806.971	362.19
807.409	452.19
807.847	700.19
808.284	1578.19
808.722	3166.19
809.16	4370.19
809.597	6157.19
810.035	7845.19
810.472	6695.19
810.91	3722.19
811.347	1780.19
811.785	839.19
812.222	498.19
812.66	386.19
813.097	331.19
813.535	294.19
813.972	291.19
814.409	260.19
814.846	250.19
815.284	246.19
815.721	238.19
816.158	246.19
816.595	278.19
817.032	364.19
817.47	338.19
817.907	314.19
818.344	294.19
818.781	254.19
819.218	261.19
819.655	322.19
820.092	433.19
820.529	465.19
820.966	397.19
821.403	312.19
821.839	266.19
822.276	260.19
822.713	280.19
823.15	287.19
823.587	274.19
824.023	367.19
824.46	759.19
824.897	1408.19
825.333	1479.19
825.77	900.19
826.206	500.19
826.643	318.19
827.08	236.19
827.516	204.19
827.953	217.19
828.389	196.19
828.825	195.19
829.262	173.19
829.698	164.19
830.135	176.19
830.571	174.19
831.007	167.19
831.443	171.19
831.88	197.19
832.316	178.19
832.752	183.19
833.188	179.19
833.624	173.19
834.06	186.19
834.497	173.19
834.933	168.19
835.369	177.19
835.805	189.19
836.241	183.19
836.677	192.19
837.112	227.19
837.548	258.19
837.984	295.19
838.42	488.19
838.856	1146.19
839.292	2442.19
839.727	2663.19
840.163	1745.19
840.599	2090.19
841.034	3066.19
841.47	2382.19
841.906	1350.19
842.341	802.19
842.777	470.19
843.212	424.19
843.648	371.19
844.083	282.19
844.519	211.19
844.954	220.19
845.39	168.19
845.825	175.19
846.261	157.19
846.696	159.19
847.131	185.19
847.566	156.19
848.002	164.19
848.437	182.19
848.872	187.19
849.307	196.19
849.742	248.19
850.177	472.19
850.613	916.19
851.048	1036.19
851.483	595.19
851.918	402.19
852.353	243.19
852.788	176.19
853.223	161.19
853.657	156.19
854.092	149.19
854.527	148.19
854.962	172.19
855.397	180.19
855.832	151.19
856.266	149.19
856.701	149.19
857.136	136.19
857.57	153.19
858.005	178.19
858.44	146.19
858.874	172.19
859.309	148.19
859.743	162.19
860.178	172.19
860.612	139.19
861.047	169.19
861.481	198.19
861.915	196.19
862.35	178.19
862.784	139.19
863.218	150.19
863.653	125.19
864.087	154.19
864.521	154.19
864.955	208.19
865.39	319.19
865.824	319.19
866.258	327.19
866.692	426.19
867.126	403.19
867.56	275.19
867.994	213.19
868.428	170.19
868.862	190.19
869.296	196.19
869.73	188.19
870.164	184.19
870.598	159.19
871.031	149.19
871.465	126.19
871.899	124.19
872.333	136.19
872.766	139.19
873.2	135.19
873.634	125.19
874.067	120.19
874.501	132.19
874.935	136.19
875.368	138.19
875.802	130.19
876.235	137.19
876.669	118.19
877.102	125.19
877.535	105.19
877.969	134.19
878.402	120.19
878.836	124.19
879.269	114.19
879.702	94.19
880.135	121.19
880.569	130.19
881.002	120.19
881.435	116.19
881.868	121.19
882.301	105.19
882.734	115.19
883.167	118.19
883.601	102.19
884.034	113.19
884.467	100.19
884.899	111.19
885.332	113.19
885.765	117.19
886.198	103.19
886.631	104.19
887.064	103.19
887.497	94.19
887.929	114.19
888.362	102.19
888.795	96.19
889.228	101.19
889.66	100.19
890.093	100.19
890.526	93.19
890.958	123.19
891.391	112.19
891.823	105.19
892.256	96.19
892.688	101.19
893.121	114.19
893.553	112.19
893.985	100.19
894.418	111.19
894.85	111.19
895.282	119.19
895.715	108.19
896.147	107.19
896.579	106.19
897.011	122.19
897.444	103.19
897.876	109.19
898.308	87.19
898.74	114.19
899.172	114.19
899.604	106.19
900.036	89.19
900.468	120.19
900.9	112.19
901.332	110.19
901.764	109.19
902.196	120.19
902.628	130.19
903.06	118.19
903.491	136.19
903.923	139.19
904.355	102.19
904.787	110.19
905.218	114.19
905.65	108.19
906.082	124.19
906.513	110.19
906.945	104.19
907.376	120.19
907.808	100.19
908.239	104.19
908.671	124.19
909.102	127.19
909.534	137.19
909.965	156.19
910.397	236.19
910.828	616.19
911.259	638.19
911.691	413.19
912.122	312.19
912.553	189.19
912.984	136.19
913.415	125.19
913.847	128.19
914.278	105.19
914.709	111.19
915.14	116.19
915.571	115.19
916.002	94.19
916.433	102.19
916.864	109.19
917.295	104.19
917.726	107.19
918.157	117.19
918.587	109.19
919.018	126.19
919.449	135.19
919.88	128.19
920.311	122.19
920.741	189.19
921.172	308.19
921.603	270.19
922.033	220.19
922.464	180.19
922.895	125.19
923.325	136.19
923.756	112.19
924.186	118.19
924.617	136.19
925.047	146.19
925.478	157.19
925.908	136.19
926.338	136.19
926.769	103.19
927.199	108.19
927.629	96.19
928.06	107.19
928.49	107.19
928.92	97.19
929.35	96.19
929.78	103.19
930.21	108.19
930.641	87.19
931.071	111.19
931.501	118.19
931.931	98.19
932.361	106.19
932.791	102.19
933.221	90.19
933.651	118.19
934.08	104.19
934.51	101.19
934.94	91.19
935.37	100.19
935.8	90.19
936.229	93.19
936.659	118.19
937.089	94.19
937.519	100.19
937.948	110.19
938.378	123.19
938.807	112.19
939.237	122.19
939.666	67.19
940.096	76.19
940.525	87.19
940.955	89.19
941.384	100.19
941.814	86.19
942.243	110.19
942.672	84.19
943.102	100.19
943.531	96.19
943.96	88.19
944.39	77.19
944.819	82.19
945.248	77.19
945.677	84.19
946.106	94.19
946.535	84.19
946.964	98.19
947.393	88.19
947.822	95.19
948.251	85.19
948.68	92.19
949.109	89.19
949.538	83.19
949.967	86.19
950.396	102.19
950.825	83.19
951.254	93.19
951.682	97.19
952.111	84.19
952.54	100.19
952.969	94.19
953.397	81.19
953.826	88.19
954.254	83.19
954.683	75.19
955.112	96.19
955.54	76.19
955.969	67.19
956.397	98.19
956.826	92.19
957.254	96.19
957.682	95.19
958.111	98.19
958.539	91.19
958.967	94.19
959.396	86.19
959.824	87.19
960.252	104.19
960.68	89.19
961.109	95.19
961.537	84.19
961.965	91.19
962.393	95.19
962.821	103.19
963.249	100.19
963.677	97.19
964.105	116.19
964.533	165.19
964.961	126.19
965.389	106.19
965.817	104.19
966.245	98.19
966.672	86.19
967.1	81.19
967.528	100.19
967.956	93.19
968.383	84.19
968.811	85.19
969.239	102.19
969.666	100.19
970.094	78.19
970.522	95.19
970.949	92.19
971.377	102.19
971.804	82.19
972.232	93.19
972.659	87.19
973.087	84.19
973.514	97.19
973.941	74.19
974.369	81.19
974.796	96.19
975.223	71.19
975.651	96.19
976.078	93.19
976.505	85.19
976.932	95.19
977.359	122.19
977.786	118.19
978.214	99.19
978.641	98.19
979.068	89.19
979.495	78.19
979.922	96.19
980.349	88.19
980.776	87.19
981.202	81.19
981.629	87.19
982.056	79.19
982.483	86.19
982.91	98.19
983.337	74.19
983.763	102.19
984.19	87.19
984.617	80.19
985.043	88.19
985.47	102.19
985.897	72.19
986.323	85.19
986.75	87.19
987.176	88.19
987.603	90.19
988.029	84.19
988.456	74.19
988.882	86.19
989.308	70.19
989.735	82.19
990.161	92.19
990.587	94.19
991.014	81.19
991.44	80.19
991.866	86.19
992.292	87.19
992.719	93.19
993.145	66.19
993.571	97.19
993.997	96.19
994.423	78.19
994.849	91.19
995.275	99.19
995.701	84.19
996.127	79.19
996.553	97.19
996.979	84.19
997.405	89.19
997.83	96.19
998.256	89.19
998.682	72.19
999.108	85.19
999.534	79.19
999.959	90.19
1000.385	84.19
1000.811	87.19
1001.236	96.19
1001.662	102.19
1002.087	84.19
1002.513	83.19
1002.938	90.19
1003.364	80.19
1003.789	82.19
1004.215	116.19
1004.64	89.19
1005.066	90.19
1005.491	84.19
1005.916	83.19
1006.342	62.19
1006.767	88.19
1007.192	81.19
1007.617	78.19
1008.042	83.19
1008.468	77.19
1008.893	100.19
1009.318	82.19
1009.743	81.19
1010.168	101.19
1010.593	102.19
1011.018	95.19
1011.443	85.19
1011.868	76.19
1012.293	94.19
1012.718	92.19
1013.143	80.19
1013.567	92.19
1013.992	91.19
1014.417	79.19
1014.842	77.19
1015.267	107.19
1015.691	89.19
1016.116	90.19
1016.541	90.19
1016.965	82.19
1017.39	77.19
1017.814	72.19
1018.239	98.19
1018.663	91.19
1019.088	90.19
1019.512	74.19
1019.937	79.19
1020.361	90.19
1020.785	94.19
1021.21	88.19
1021.634	85.19
1022.058	94.19
1022.483	97.19
1022.907	78.19
1023.331	66.19
1023.755	75.19
1024.179	83.19
1024.604	96.19
1025.028	88.19
1025.452	85.19
1025.876	79.19
1026.3	100.19
1026.724	93.19
1027.148	74.19
1027.572	99.19
1027.996	86.19
1028.42	83.19
1028.843	98.19
1029.267	94.19
1029.691	80.19
1030.115	102.19
1030.539	84.19
1030.962	70.19
1031.386	90.19
1031.81	80.19
1032.233	90.19
1032.657	94.19
1033.08	70.19
1033.504	90.19
1033.927	78.19
1034.351	80.19
1034.774	85.19
1035.198	81.19
1035.621	79.19
1036.045	86.19
1036.468	83.19
1036.891	86.19
1037.315	91.19
1037.738	78.19
1038.161	100.19
1038.584	74.19
1039.008	77.19
1039.431	76.19
1039.854	95.19
1040.277	76.19
1040.7	71.19
1041.123	83.19
1041.546	82.19
1041.969	95.19
1042.392	71.19
1042.815	74.19
1043.238	84.19
1043.661	92.19
1044.084	57.19
1044.507	62.19
1044.93	78.19
1045.352	90.19
1045.775	98.19
1046.198	97.19
1046.621	86.19
1047.043	84.19
1047.466	84.19
1047.889	86.19
1048.311	74.19
1048.734	98.19
1049.156	86.19
1049.579	97.19
1050.001	83.19
1050.424	80.19
1050.846	71.19
1051.269	81.19
1051.691	80.19
1052.113	86.19
1052.536	84.19
1052.958	86.19
1053.38	92.19
1053.802	68.19
1054.225	64.19
1054.647	72.19
1055.069	84.19
1055.491	84.19
1055.913	89.19
1056.335	86.19
1056.757	91.19
1057.179	80.19
1057.601	82.19
1058.023	78.19
1058.445	79.19
1058.867	69.19
1059.289	72.19
1059.711	70.19
1060.133	69.19
1060.555	80.19
1060.976	75.19
1061.398	81.19
1061.82	87.19
1062.241	84.19
1062.663	79.19
1063.085	97.19
1063.506	81.19
1063.928	73.19
1064.35	92.19
1064.771	68.19
1065.193	82.19
1065.614	91.19
1066.035	92.19
1066.457	96.19
1066.878	79.19
1067.3	94.19
1067.721	91.19
1068.142	72.19
1068.564	81.19
1068.985	69.19
1069.406	72.19
1069.827	90.19
1070.248	74.19
1070.67	80.19
1071.091	88.19
1071.512	77.19
1071.933	92.19
1072.354	72.19
1072.775	81.19
1073.196	95.19
1073.617	69.19
1074.038	81.19
1074.459	79.19
1074.88	87.19
1075.3	75.19
1075.721	82.19
1076.142	80.19
1076.563	96.19
1076.983	89.19
1077.404	89.19
1077.825	76.19
1078.246	77.19
1078.666	81.19
1079.087	73.19
1079.507	78.19
1079.928	81.19
1080.348	86.19
1080.769	82.19
1081.189	67.19
1081.61	91.19
1082.03	89.19
1082.451	91.19
1082.871	73.19
1083.291	86.19
1083.711	60.19
1084.132	82.19
1084.552	92.19
1084.972	81.19
1085.392	91.19
1085.813	74.19
1086.233	86.19
1086.653	93.19
1087.073	78.19
1087.493	80.19
1087.913	59.19
1088.333	81.19
1088.753	73.19
1089.173	90.19
1089.593	74.19
1090.013	82.19
1090.433	72.19
1090.852	69.19
1091.272	82.19
1091.692	69.19
1092.112	92.19
1092.531	70.19
1092.951	84.19
1093.371	92.19
1093.79	73.19
1094.21	75.19
1094.63	90.19
1095.049	90.19
1095.469	86.19
1095.888	85.19
1096.308	70.19
1096.727	86.19
1097.146	70.19
1097.566	75.19
1097.985	83.19
1098.405	86.19
1098.824	74.19
1099.243	80.19
1099.662	85.19
1100.082	63.19
1100.501	88.19
1100.92	74.19
1101.339	74.19
1101.758	76.19
