Data from 20170802-ORNL-NYSim-Air_HRD10391_10-37-37-641.txt Node
Date: Wed Aug 02 10:37:37 EDT 2017
User: Ender
Spectrometer: HR+D1039
Trigger mode: 0
Integration Time (sec): 1.510000E-3
Scans to average: 1
Electric dark correction enabled: true
Nonlinearity correction enabled: false
Boxcar width: 0
XAxis mode: Wavelengths
Number of Pixels in Spectrum: 2048
>>>>>Begin Spectral Data<<<<<
187.836	-8.44
188.309	-8.44
188.782	-8.44
189.255	-7.44
189.728	-7.44
190.201	-4.44
190.674	-1.44
191.147	-18.44
191.619	-13.44
192.092	-9.44
192.565	-5.44
193.038	17.56
193.511	-3.44
193.984	0.56
194.456	9.56
194.929	19.56
195.402	15.56
195.874	16.56
196.347	27.56
196.82	24.56
197.292	40.56
197.765	34.56
198.237	41.56
198.71	52.56
199.182	54.56
199.655	77.56
200.127	54.56
200.6	55.56
201.072	67.56
201.544	60.56
202.017	60.56
202.489	66.56
202.961	64.56
203.433	72.56
203.906	62.56
204.378	81.56
204.85	79.56
205.322	68.56
205.794	74.56
206.266	63.56
206.739	86.56
207.211	97.56
207.683	65.56
208.155	81.56
208.627	88.56
209.099	86.56
209.57	72.56
210.042	94.56
210.514	76.56
210.986	83.56
211.458	82.56
211.93	78.56
212.402	79.56
212.873	70.56
213.345	66.56
213.817	73.56
214.288	92.56
214.76	74.56
215.232	70.56
215.703	89.56
216.175	77.56
216.646	80.56
217.118	89.56
217.589	64.56
218.061	79.56
218.532	84.56
219.004	86.56
219.475	86.56
219.946	84.56
220.418	79.56
220.889	74.56
221.36	79.56
221.832	86.56
222.303	85.56
222.774	104.56
223.245	87.56
223.717	72.56
224.188	83.56
224.659	80.56
225.13	83.56
225.601	71.56
226.072	57.56
226.543	77.56
227.014	59.56
227.485	86.56
227.956	68.56
228.427	94.56
228.898	73.56
229.369	74.56
229.839	81.56
230.31	75.56
230.781	95.56
231.252	85.56
231.722	73.56
232.193	86.56
232.664	63.56
233.135	101.56
233.605	78.56
234.076	79.56
234.546	84.56
235.017	70.56
235.487	74.56
235.958	94.56
236.428	82.56
236.899	93.56
237.369	82.56
237.84	83.56
238.31	76.56
238.78	70.56
239.251	92.56
239.721	82.56
240.191	88.56
240.662	91.56
241.132	75.56
241.602	88.56
242.072	93.56
242.542	98.56
243.013	95.56
243.483	95.56
243.953	84.56
244.423	70.56
244.893	86.56
245.363	100.56
245.833	89.56
246.303	100.56
246.773	79.56
247.243	88.56
247.712	89.56
248.182	100.56
248.652	77.56
249.122	114.56
249.592	88.56
250.061	88.56
250.531	106.56
251.001	98.56
251.471	98.56
251.94	96.56
252.41	83.56
252.879	102.56
253.349	82.56
253.818	93.56
254.288	88.56
254.757	98.56
255.227	103.56
255.696	112.56
256.166	91.56
256.635	92.56
257.105	85.56
257.574	102.56
258.043	89.56
258.513	90.56
258.982	96.56
259.451	97.56
259.92	122.56
260.389	96.56
260.859	100.56
261.328	95.56
261.797	82.56
262.266	87.56
262.735	104.56
263.204	110.56
263.673	112.56
264.142	104.56
264.611	90.56
265.08	81.56
265.549	100.56
266.018	90.56
266.487	89.56
266.955	103.56
267.424	110.56
267.893	103.56
268.362	97.56
268.83	111.56
269.299	87.56
269.768	102.56
270.236	104.56
270.705	102.56
271.174	96.56
271.642	110.56
272.111	107.56
272.579	117.56
273.048	102.56
273.516	97.56
273.985	106.56
274.453	109.56
274.922	92.56
275.39	88.56
275.858	107.56
276.327	106.56
276.795	105.56
277.263	97.56
277.731	110.56
278.2	97.56
278.668	115.56
279.136	118.56
279.604	93.56
280.072	100.56
280.54	106.56
281.008	102.56
281.477	126.56
281.945	122.56
282.413	110.56
282.881	124.56
283.348	124.56
283.816	105.56
284.284	122.56
284.752	114.56
285.22	122.56
285.688	133.56
286.156	113.56
286.623	123.56
287.091	133.56
287.559	138.56
288.026	120.56
288.494	119.56
288.962	119.56
289.429	121.56
289.897	112.56
290.364	130.56
290.832	104.56
291.3	118.56
291.767	107.56
292.234	120.56
292.702	126.56
293.169	132.56
293.637	120.56
294.104	124.56
294.571	127.56
295.039	128.56
295.506	112.56
295.973	132.56
296.44	136.56
296.908	124.56
297.375	135.56
297.842	116.56
298.309	126.56
298.776	112.56
299.243	122.56
299.71	125.56
300.177	101.56
300.644	129.56
301.111	133.56
301.578	129.56
302.045	140.56
302.512	126.56
302.979	144.56
303.446	133.56
303.913	131.56
304.379	124.56
304.846	137.56
305.313	141.56
305.78	125.56
306.246	145.56
306.713	144.56
307.18	135.56
307.646	122.56
308.113	137.56
308.579	136.56
309.046	133.56
309.512	131.56
309.979	131.56
310.445	122.56
310.912	149.56
311.378	143.56
311.845	151.56
312.311	150.56
312.777	135.56
313.244	157.56
313.71	136.56
314.176	140.56
314.642	158.56
315.109	155.56
315.575	160.56
316.041	149.56
316.507	142.56
316.973	152.56
317.439	161.56
317.905	172.56
318.371	153.56
318.837	131.56
319.303	152.56
319.769	160.56
320.235	149.56
320.701	158.56
321.167	140.56
321.633	152.56
322.099	158.56
322.564	153.56
323.03	166.56
323.496	153.56
323.962	144.56
324.427	185.56
324.893	146.56
325.359	161.56
325.824	159.56
326.29	155.56
326.755	160.56
327.221	160.56
327.686	168.56
328.152	161.56
328.617	165.56
329.083	163.56
329.548	179.56
330.014	161.56
330.479	186.56
330.944	179.56
331.41	176.56
331.875	169.56
332.34	177.56
332.805	173.56
333.271	170.56
333.736	179.56
334.201	189.56
334.666	179.56
335.131	178.56
335.596	177.56
336.061	186.56
336.526	175.56
336.991	176.56
337.456	193.56
337.921	179.56
338.386	171.56
338.851	166.56
339.316	188.56
339.781	182.56
340.246	177.56
340.711	190.56
341.175	190.56
341.64	191.56
342.105	187.56
342.569	179.56
343.034	187.56
343.499	194.56
343.963	176.56
344.428	186.56
344.893	200.56
345.357	185.56
345.822	198.56
346.286	187.56
346.751	203.56
347.215	198.56
347.679	205.56
348.144	200.56
348.608	236.56
349.073	230.56
349.537	204.56
350.001	223.56
350.465	225.56
350.93	229.56
351.394	230.56
351.858	225.56
352.322	230.56
352.786	229.56
353.25	226.56
353.715	238.56
354.179	233.56
354.643	254.56
355.107	248.56
355.571	236.56
356.035	234.56
356.498	235.56
356.962	221.56
357.426	255.56
357.89	249.56
358.354	208.56
358.818	240.56
359.281	224.56
359.745	211.56
360.209	229.56
360.673	224.56
361.136	232.56
361.6	248.56
362.064	230.56
362.527	240.56
362.991	233.56
363.454	248.56
363.918	273.56
364.381	240.56
364.845	250.56
365.308	234.56
365.772	254.56
366.235	253.56
366.698	286.56
367.162	248.56
367.625	247.56
368.088	251.56
368.552	255.56
369.015	238.56
369.478	254.56
369.941	276.56
370.404	266.56
370.867	263.56
371.331	276.56
371.794	310.56
372.257	262.56
372.72	264.56
373.183	269.56
373.646	300.56
374.109	269.56
374.572	280.56
375.035	297.56
375.497	285.56
375.96	292.56
376.423	277.56
376.886	274.56
377.349	293.56
377.811	303.56
378.274	289.56
378.737	287.56
379.199	281.56
379.662	286.56
380.125	288.56
380.587	302.56
381.05	302.56
381.512	299.56
381.975	306.56
382.437	307.56
382.9	326.56
383.362	324.56
383.825	317.56
384.287	313.56
384.75	324.56
385.212	314.56
385.674	324.56
386.136	319.56
386.599	316.56
387.061	319.56
387.523	335.56
387.985	321.56
388.447	329.56
388.91	337.56
389.372	322.56
389.834	337.56
390.296	331.56
390.758	338.56
391.22	321.56
391.682	351.56
392.144	328.56
392.606	332.56
393.068	348.56
393.529	358.56
393.991	352.56
394.453	367.56
394.915	332.56
395.377	346.56
395.838	354.56
396.3	351.56
396.762	333.56
397.224	339.56
397.685	349.56
398.147	351.56
398.608	349.56
399.07	346.56
399.531	376.56
399.993	341.56
400.454	360.56
400.916	357.56
401.377	343.56
401.839	386.56
402.3	364.56
402.762	404.56
403.223	395.56
403.684	390.56
404.145	424.56
404.607	364.56
405.068	396.56
405.529	389.56
405.99	396.56
406.451	407.56
406.913	388.56
407.374	363.56
407.835	386.56
408.296	389.56
408.757	371.56
409.218	390.56
409.679	397.56
410.14	430.56
410.601	436.56
411.062	432.56
411.522	447.56
411.983	434.56
412.444	422.56
412.905	451.56
413.366	465.56
413.826	471.56
414.287	516.56
414.748	586.56
415.208	617.56
415.669	518.56
416.13	503.56
416.59	478.56
417.051	492.56
417.511	500.56
417.972	546.56
418.432	574.56
418.893	639.56
419.353	602.56
419.814	488.56
420.274	453.56
420.734	461.56
421.195	471.56
421.655	458.56
422.115	435.56
422.576	433.56
423.036	454.56
423.496	489.56
423.956	496.56
424.416	534.56
424.876	568.56
425.336	555.56
425.797	558.56
426.257	539.56
426.717	538.56
427.177	477.56
427.637	490.56
428.097	519.56
428.556	531.56
429.016	559.56
429.476	563.56
429.936	568.56
430.396	578.56
430.856	589.56
431.315	587.56
431.775	665.56
432.235	672.56
432.694	644.56
433.154	618.56
433.614	602.56
434.073	602.56
434.533	554.56
434.993	544.56
435.452	539.56
435.912	517.56
436.371	523.56
436.83	526.56
437.29	506.56
437.749	494.56
438.209	483.56
438.668	504.56
439.127	502.56
439.587	521.56
440.046	484.56
440.505	490.56
440.964	498.56
441.424	566.56
441.883	552.56
442.342	495.56
442.801	484.56
443.26	512.56
443.719	496.56
444.178	502.56
444.637	494.56
445.096	513.56
445.555	476.56
446.014	494.56
446.473	501.56
446.932	494.56
447.391	494.56
447.849	505.56
448.308	500.56
448.767	522.56
449.226	539.56
449.685	482.56
450.143	535.56
450.602	550.56
451.061	548.56
451.519	536.56
451.978	517.56
452.436	507.56
452.895	502.56
453.353	512.56
453.812	534.56
454.27	510.56
454.729	534.56
455.187	511.56
455.646	505.56
456.104	526.56
456.562	516.56
457.021	547.56
457.479	511.56
457.937	528.56
458.395	556.56
458.854	555.56
459.312	536.56
459.77	548.56
460.228	529.56
460.686	542.56
461.144	553.56
461.602	540.56
462.06	546.56
462.518	546.56
462.976	531.56
463.434	550.56
463.892	558.56
464.35	574.56
464.808	586.56
465.266	613.56
465.724	564.56
466.181	603.56
466.639	583.56
467.097	604.56
467.555	627.56
468.012	622.56
468.47	605.56
468.928	649.56
469.385	655.56
469.843	683.56
470.3	660.56
470.758	668.56
471.215	679.56
471.673	687.56
472.13	688.56
472.588	741.56
473.045	735.56
473.503	734.56
473.96	755.56
474.417	782.56
474.875	780.56
475.332	828.56
475.789	846.56
476.246	855.56
476.704	870.56
477.161	905.56
477.618	939.56
478.075	991.56
478.532	1055.56
478.989	1083.56
479.446	1205.56
479.903	1272.56
480.36	1334.56
480.817	1460.56
481.274	1496.56
481.731	1628.56
482.188	1793.56
482.645	1862.56
483.102	1928.56
483.558	2096.56
484.015	2195.56
484.472	2163.56
484.929	2127.56
485.385	2084.56
485.842	1989.56
486.299	1967.56
486.755	1825.56
487.212	1648.56
487.668	1499.56
488.125	1395.56
488.582	1310.56
489.038	1294.56
489.494	1228.56
489.951	1178.56
490.407	1152.56
490.864	1139.56
491.32	1150.56
491.776	1094.56
492.233	1150.56
492.689	1094.56
493.145	1074.56
493.602	1085.56
494.058	1114.56
494.514	1093.56
494.97	1117.56
495.426	1122.56
495.882	1126.56
496.338	1114.56
496.794	1124.56
497.251	1117.56
497.707	1099.56
498.163	1110.56
498.618	1090.56
499.074	1116.56
499.53	1146.56
499.986	1146.56
500.442	1106.56
500.898	1119.56
501.354	1122.56
501.809	1145.56
502.265	1144.56
502.721	1139.56
503.177	1138.56
503.632	1129.56
504.088	1169.56
504.543	1178.56
504.999	1190.56
505.455	1152.56
505.91	1186.56
506.366	1174.56
506.821	1184.56
507.277	1150.56
507.732	1162.56
508.187	1173.56
508.643	1175.56
509.098	1153.56
509.553	1160.56
510.009	1198.56
510.464	1237.56
510.919	1239.56
511.375	1249.56
511.83	1232.56
512.285	1305.56
512.74	1308.56
513.195	1323.56
513.65	1343.56
514.105	1321.56
514.56	1298.56
515.015	1394.56
515.47	1397.56
515.925	1394.56
516.38	1426.56
516.835	1382.56
517.29	1345.56
517.745	1382.56
518.2	1338.56
518.655	1352.56
519.109	1289.56
519.564	1280.56
520.019	1258.56
520.474	1317.56
520.928	1272.56
521.383	1271.56
521.838	1214.56
522.292	1232.56
522.747	1239.56
523.201	1238.56
523.656	1227.56
524.11	1238.56
524.565	1185.56
525.019	1212.56
525.474	1257.56
525.928	1198.56
526.382	1187.56
526.837	1219.56
527.291	1213.56
527.745	1214.56
528.2	1225.56
528.654	1206.56
529.108	1248.56
529.562	1236.56
530.016	1188.56
530.47	1180.56
530.925	1197.56
531.379	1177.56
531.833	1212.56
532.287	1218.56
532.741	1195.56
533.195	1170.56
533.649	1203.56
534.103	1218.56
534.556	1196.56
535.01	1208.56
535.464	1196.56
535.918	1192.56
536.372	1222.56
536.826	1220.56
537.279	1228.56
537.733	1212.56
538.187	1231.56
538.64	1220.56
539.094	1213.56
539.548	1213.56
540.001	1212.56
540.455	1232.56
540.908	1239.56
541.362	1252.56
541.815	1278.56
542.269	1304.56
542.722	1306.56
543.175	1265.56
543.629	1291.56
544.082	1318.56
544.536	1308.56
544.989	1302.56
545.442	1336.56
545.895	1342.56
546.349	1367.56
546.802	1331.56
547.255	1326.56
547.708	1352.56
548.161	1351.56
548.614	1358.56
549.067	1378.56
549.52	1376.56
549.973	1321.56
550.426	1340.56
550.879	1336.56
551.332	1359.56
551.785	1330.56
552.238	1376.56
552.691	1348.56
553.144	1428.56
553.596	1387.56
554.049	1395.56
554.502	1460.56
554.955	1438.56
555.407	1464.56
555.86	1483.56
556.313	1473.56
556.765	1434.56
557.218	1430.56
557.67	1427.56
558.123	1401.56
558.576	1406.56
559.028	1417.56
559.48	1407.56
559.933	1404.56
560.385	1396.56
560.838	1326.56
561.29	1294.56
561.742	1293.56
562.195	1256.56
562.647	1248.56
563.099	1282.56
563.551	1221.56
564.004	1252.56
564.456	1267.56
564.908	1228.56
565.36	1198.56
565.812	1192.56
566.264	1162.56
566.716	1111.56
567.168	1148.56
567.62	1139.56
568.072	1163.56
568.524	1134.56
568.976	1122.56
569.428	1088.56
569.88	1128.56
570.332	1106.56
570.784	1120.56
571.235	1112.56
571.687	1109.56
572.139	1100.56
572.59	1153.56
573.042	1097.56
573.494	1130.56
573.945	1133.56
574.397	1126.56
574.849	1120.56
575.3	1079.56
575.752	1088.56
576.203	1063.56
576.655	1092.56
577.106	1088.56
577.557	1093.56
578.009	1050.56
578.46	1083.56
578.912	1076.56
579.363	1062.56
579.814	1014.56
580.265	1032.56
580.717	1044.56
581.168	1074.56
581.619	1076.56
582.07	1086.56
582.521	1103.56
582.972	1066.56
583.423	1062.56
583.875	1110.56
584.326	1092.56
584.777	1098.56
585.227	1168.56
585.678	1182.56
586.129	1206.56
586.58	1241.56
587.031	1249.56
587.482	1236.56
587.933	1372.56
588.384	1364.56
588.834	1280.56
589.285	1242.56
589.736	1222.56
590.186	1179.56
590.637	1161.56
591.088	1190.56
591.538	1146.56
591.989	1100.56
592.439	1083.56
592.89	1107.56
593.34	1099.56
593.791	1091.56
594.241	1080.56
594.692	1122.56
595.142	1108.56
595.593	1086.56
596.043	1098.56
596.493	1085.56
596.943	1074.56
597.394	1098.56
597.844	1130.56
598.294	1140.56
598.744	1173.56
599.195	1208.56
599.645	1276.56
600.095	1351.56
600.545	1395.56
600.995	1501.56
601.445	1528.56
601.895	1626.56
602.345	1622.56
602.795	1651.56
603.245	1583.56
603.695	1514.56
604.145	1406.56
604.594	1380.56
605.044	1278.56
605.494	1192.56
605.944	1120.56
606.393	1116.56
606.843	1102.56
607.293	1132.56
607.743	1134.56
608.192	1121.56
608.642	1106.56
609.091	1078.56
609.541	1104.56
609.99	1101.56
610.44	1097.56
610.889	1059.56
611.339	1065.56
611.788	1054.56
612.238	1050.56
612.687	1076.56
613.136	1060.56
613.586	1065.56
614.035	1059.56
614.484	1045.56
614.933	1089.56
615.383	1066.56
615.832	1024.56
616.281	1032.56
616.73	1013.56
617.179	976.56
617.628	971.56
618.077	987.56
618.526	948.56
618.975	918.56
619.424	897.56
619.873	941.56
620.322	878.56
620.771	922.56
621.22	913.56
621.669	850.56
622.118	873.56
622.567	870.56
623.015	867.56
623.464	874.56
623.913	823.56
624.361	868.56
624.81	852.56
625.259	843.56
625.707	848.56
626.156	810.56
626.604	833.56
627.053	864.56
627.501	862.56
627.95	885.56
628.398	831.56
628.847	867.56
629.295	842.56
629.744	836.56
630.192	846.56
630.64	829.56
631.089	859.56
631.537	826.56
631.985	793.56
632.433	826.56
632.881	804.56
633.33	789.56
633.778	792.56
634.226	779.56
634.674	806.56
635.122	775.56
635.57	809.56
636.018	826.56
636.466	825.56
636.914	805.56
637.362	833.56
637.81	860.56
638.258	868.56
638.705	865.56
639.153	913.56
639.601	912.56
640.049	923.56
640.497	944.56
640.944	954.56
641.392	948.56
641.84	899.56
642.287	864.56
642.735	829.56
643.182	811.56
643.63	832.56
644.078	828.56
644.525	828.56
644.973	855.56
645.42	867.56
645.867	864.56
646.315	885.56
646.762	922.56
647.21	944.56
647.657	1005.56
648.104	1013.56
648.551	1039.56
648.999	1166.56
649.446	1216.56
649.893	1296.56
650.34	1468.56
650.787	1780.56
651.234	2188.56
651.682	2854.56
652.129	3943.56
652.576	5608.56
653.023	7790.56
653.47	9541.56
653.917	10516.56
654.363	11061.56
654.81	11812.56
655.257	12382.56
655.704	9465.56
656.151	5788.56
656.598	3698.56
657.044	2669.56
657.491	2014.56
657.938	1711.56
658.385	1456.56
658.831	1309.56
659.278	1167.56
659.724	1060.56
660.171	964.56
660.618	920.56
661.064	890.56
661.511	855.56
661.957	840.56
662.404	814.56
662.85	782.56
663.296	771.56
663.743	776.56
664.189	778.56
664.635	758.56
665.082	746.56
665.528	744.56
665.974	720.56
666.42	705.56
666.867	735.56
667.313	695.56
667.759	665.56
668.205	660.56
668.651	678.56
669.097	680.56
669.543	678.56
669.989	679.56
670.435	661.56
670.881	654.56
671.327	692.56
671.773	730.56
672.219	836.56
672.665	830.56
673.11	840.56
673.556	875.56
674.002	908.56
674.448	912.56
674.893	825.56
675.339	705.56
675.785	669.56
676.23	614.56
676.676	572.56
677.122	596.56
677.567	567.56
678.013	557.56
678.458	572.56
678.904	560.56
679.349	543.56
679.794	560.56
680.24	551.56
680.685	541.56
681.131	556.56
681.576	549.56
682.021	520.56
682.466	548.56
682.912	555.56
683.357	568.56
683.802	620.56
684.247	660.56
684.692	653.56
685.137	718.56
685.583	713.56
686.028	746.56
686.473	746.56
686.918	665.56
687.363	633.56
687.807	591.56
688.252	557.56
688.697	519.56
689.142	513.56
689.587	538.56
690.032	498.56
690.477	526.56
690.921	562.56
691.366	604.56
691.811	648.56
692.255	654.56
692.7	746.56
693.145	944.56
693.589	1383.56
694.034	1842.56
694.478	2040.56
694.923	1878.56
695.367	2286.56
695.812	2138.56
696.256	912.56
696.701	623.56
697.145	509.56
697.59	522.56
698.034	510.56
698.478	488.56
698.922	494.56
699.367	522.56
699.811	520.56
700.255	563.56
700.699	613.56
701.143	670.56
701.588	713.56
702.032	754.56
702.476	772.56
702.92	764.56
703.364	854.56
703.808	1275.56
704.252	1735.56
704.696	1939.56
705.14	1817.56
705.584	2238.56
706.027	1865.56
706.471	894.56
706.915	638.56
707.359	559.56
707.803	493.56
708.246	489.56
708.69	465.56
709.134	482.56
709.577	476.56
710.021	498.56
710.465	506.56
710.908	483.56
711.352	481.56
711.795	530.56
712.239	580.56
712.682	600.56
713.126	584.56
713.569	620.56
714.012	568.56
714.456	490.56
714.899	461.56
715.342	451.56
715.786	431.56
716.229	407.56
716.672	431.56
717.115	424.56
717.558	408.56
718.002	399.56
718.445	429.56
718.888	461.56
719.331	479.56
719.774	465.56
720.217	440.56
720.66	449.56
721.103	416.56
721.546	401.56
721.989	381.56
722.432	396.56
722.874	401.56
723.317	404.56
723.76	419.56
724.203	442.56
724.645	597.56
725.088	690.56
725.531	760.56
725.974	752.56
726.416	762.56
726.859	538.56
727.301	455.56
727.744	377.56
728.187	390.56
728.629	405.56
729.071	406.56
729.514	426.56
729.956	413.56
730.399	452.56
730.841	474.56
731.283	447.56
731.726	430.56
732.168	440.56
732.61	444.56
733.053	468.56
733.495	510.56
733.937	571.56
734.379	622.56
734.821	746.56
735.263	1010.56
735.705	1656.56
736.148	2788.56
736.59	3193.56
737.032	2968.56
737.474	3220.56
737.916	1590.56
738.357	783.56
738.799	566.56
739.241	484.56
739.683	493.56
740.125	506.56
740.567	511.56
741.008	486.56
741.45	533.56
741.892	523.56
742.334	556.56
742.775	538.56
743.217	554.56
743.658	501.56
744.1	462.56
744.542	528.56
744.983	517.56
745.425	567.56
745.866	600.56
746.307	502.56
746.749	487.56
747.19	563.56
747.632	989.56
748.073	1838.56
748.514	2874.56
748.956	3450.56
749.397	4710.56
749.838	3898.56
750.279	3083.56
750.72	2356.56
751.162	1092.56
751.603	571.56
752.044	440.56
752.485	394.56
752.926	359.56
753.367	338.56
753.808	358.56
754.249	339.56
754.69	341.56
755.131	314.56
755.572	322.56
756.013	329.56
756.453	324.56
756.894	324.56
757.335	326.56
757.776	331.56
758.216	337.56
758.657	356.56
759.098	375.56
759.538	408.56
759.979	534.56
760.42	809.56
760.86	1814.56
761.301	4201.56
761.741	6292.56
762.182	6473.56
762.622	6065.56
763.063	2804.56
763.503	1145.56
763.943	674.56
764.384	610.56
764.824	642.56
765.264	565.56
765.705	477.56
766.145	353.56
766.585	326.56
767.025	333.56
767.465	374.56
767.906	446.56
768.346	470.56
768.786	484.56
769.226	449.56
769.666	680.56
770.106	1426.56
770.546	2492.56
770.986	2712.56
771.426	2596.56
771.866	1512.56
772.306	677.56
772.745	426.56
773.185	322.56
773.625	301.56
774.065	285.56
774.505	356.56
774.944	532.56
775.384	813.56
775.824	936.56
776.263	919.56
776.703	682.56
777.142	400.56
777.582	294.56
778.021	270.56
778.461	261.56
778.9	252.56
779.34	239.56
779.779	246.56
780.219	253.56
780.658	230.56
781.097	240.56
781.537	229.56
781.976	216.56
782.415	219.56
782.855	230.56
783.294	221.56
783.733	207.56
784.172	216.56
784.611	236.56
785.05	227.56
785.489	217.56
785.928	251.56
786.367	250.56
786.806	242.56
787.245	278.56
787.684	276.56
788.123	282.56
788.562	268.56
789.001	272.56
789.44	254.56
789.879	263.56
790.317	256.56
790.756	252.56
791.195	289.56
791.634	313.56
792.072	421.56
792.511	875.56
792.95	1944.56
793.388	2399.56
793.827	2118.56
794.265	1242.56
794.704	617.56
795.142	370.56
795.581	289.56
796.019	248.56
796.458	262.56
796.896	244.56
797.334	279.56
797.773	331.56
798.211	497.56
798.649	924.56
799.087	1566.56
799.526	2330.56
799.964	2562.56
800.402	2197.56
800.84	1301.56
801.278	669.56
801.716	416.56
802.154	332.56
802.592	293.56
803.03	296.56
803.468	277.56
803.906	286.56
804.344	300.56
804.782	279.56
805.22	267.56
805.658	278.56
806.096	274.56
806.533	296.56
806.971	349.56
807.409	444.56
807.847	694.56
808.284	1545.56
808.722	3094.56
809.16	4274.56
809.597	6052.56
810.035	7554.56
810.472	6402.56
810.91	3531.56
811.347	1741.56
811.785	812.56
812.222	488.56
812.66	378.56
813.097	315.56
813.535	287.56
813.972	261.56
814.409	259.56
814.846	228.56
815.284	219.56
815.721	232.56
816.158	218.56
816.595	275.56
817.032	354.56
817.47	330.56
817.907	292.56
818.344	258.56
818.781	237.56
819.218	256.56
819.655	309.56
820.092	400.56
820.529	431.56
820.966	389.56
821.403	305.56
821.839	246.56
822.276	262.56
822.713	264.56
823.15	280.56
823.587	274.56
824.023	356.56
824.46	728.56
824.897	1348.56
825.333	1484.56
825.77	873.56
826.206	516.56
826.643	325.56
827.08	226.56
827.516	190.56
827.953	191.56
828.389	173.56
828.825	182.56
829.262	182.56
829.698	186.56
830.135	172.56
830.571	157.56
831.007	186.56
831.443	184.56
831.88	163.56
832.316	170.56
832.752	168.56
833.188	184.56
833.624	171.56
834.06	184.56
834.497	172.56
834.933	174.56
835.369	191.56
835.805	195.56
836.241	195.56
836.677	204.56
837.112	233.56
837.548	254.56
837.984	292.56
838.42	463.56
838.856	1131.56
839.292	2412.56
839.727	2566.56
840.163	1752.56
840.599	2060.56
841.034	2998.56
841.47	2390.56
841.906	1371.56
842.341	741.56
842.777	470.56
843.212	452.56
843.648	336.56
844.083	277.56
844.519	228.56
844.954	182.56
845.39	176.56
845.825	170.56
846.261	163.56
846.696	183.56
847.131	183.56
847.566	161.56
848.002	165.56
848.437	160.56
848.872	168.56
849.307	184.56
849.742	234.56
850.177	451.56
850.613	930.56
851.048	987.56
851.483	613.56
851.918	374.56
852.353	254.56
852.788	184.56
853.223	163.56
853.657	139.56
854.092	142.56
854.527	146.56
854.962	160.56
855.397	160.56
855.832	145.56
856.266	136.56
856.701	131.56
857.136	154.56
857.57	149.56
858.005	184.56
858.44	170.56
858.874	157.56
859.309	156.56
859.743	152.56
860.178	144.56
860.612	134.56
861.047	156.56
861.481	193.56
861.915	181.56
862.35	172.56
862.784	143.56
863.218	139.56
863.653	124.56
864.087	170.56
864.521	162.56
864.955	194.56
865.39	280.56
865.824	282.56
866.258	286.56
866.692	404.56
867.126	390.56
867.56	266.56
867.994	209.56
868.428	167.56
868.862	177.56
869.296	172.56
869.73	187.56
870.164	191.56
870.598	155.56
871.031	156.56
871.465	162.56
871.899	144.56
872.333	127.56
872.766	109.56
873.2	119.56
873.634	110.56
874.067	132.56
874.501	124.56
874.935	126.56
875.368	125.56
875.802	114.56
876.235	122.56
876.669	127.56
877.102	136.56
877.535	112.56
877.969	122.56
878.402	112.56
878.836	109.56
879.269	113.56
879.702	128.56
880.135	112.56
880.569	133.56
881.002	115.56
881.435	134.56
881.868	106.56
882.301	110.56
882.734	120.56
883.167	128.56
883.601	114.56
884.034	111.56
884.467	123.56
884.899	117.56
885.332	97.56
885.765	122.56
886.198	107.56
886.631	100.56
887.064	107.56
887.497	106.56
887.929	92.56
888.362	117.56
888.795	112.56
889.228	113.56
889.66	107.56
890.093	113.56
890.526	97.56
890.958	118.56
891.391	116.56
891.823	115.56
892.256	112.56
892.688	106.56
893.121	111.56
893.553	117.56
893.985	107.56
894.418	91.56
894.85	100.56
895.282	105.56
895.715	103.56
896.147	109.56
896.579	104.56
897.011	108.56
897.444	105.56
897.876	99.56
898.308	104.56
898.74	110.56
899.172	102.56
899.604	107.56
900.036	116.56
900.468	101.56
900.9	114.56
901.332	104.56
901.764	121.56
902.196	114.56
902.628	109.56
903.06	120.56
903.491	137.56
903.923	123.56
904.355	123.56
904.787	121.56
905.218	119.56
905.65	136.56
906.082	139.56
906.513	112.56
906.945	100.56
907.376	96.56
907.808	115.56
908.239	114.56
908.671	122.56
909.102	112.56
909.534	136.56
909.965	170.56
910.397	247.56
910.828	581.56
911.259	612.56
911.691	423.56
912.122	301.56
912.553	193.56
912.984	123.56
913.415	114.56
913.847	123.56
914.278	106.56
914.709	108.56
915.14	98.56
915.571	108.56
916.002	121.56
916.433	105.56
916.864	112.56
917.295	104.56
917.726	119.56
918.157	127.56
918.587	100.56
919.018	113.56
919.449	110.56
919.88	117.56
920.311	131.56
920.741	178.56
921.172	308.56
921.603	268.56
922.033	197.56
922.464	164.56
922.895	127.56
923.325	115.56
923.756	101.56
924.186	112.56
924.617	99.56
925.047	132.56
925.478	134.56
925.908	127.56
926.338	123.56
926.769	110.56
927.199	107.56
927.629	119.56
928.06	95.56
928.49	105.56
928.92	114.56
929.35	97.56
929.78	83.56
930.21	85.56
930.641	91.56
931.071	107.56
931.501	107.56
931.931	106.56
932.361	102.56
932.791	102.56
933.221	106.56
933.651	104.56
934.08	115.56
934.51	104.56
934.94	103.56
935.37	103.56
935.8	97.56
936.229	88.56
936.659	92.56
937.089	102.56
937.519	126.56
937.948	117.56
938.378	126.56
938.807	112.56
939.237	101.56
939.666	81.56
940.096	101.56
940.525	90.56
940.955	92.56
941.384	81.56
941.814	93.56
942.243	104.56
942.672	90.56
943.102	83.56
943.531	86.56
943.96	102.56
944.39	94.56
944.819	86.56
945.248	89.56
945.677	81.56
946.106	98.56
946.535	94.56
946.964	92.56
947.393	85.56
947.822	83.56
948.251	85.56
948.68	88.56
949.109	104.56
949.538	91.56
949.967	93.56
950.396	87.56
950.825	77.56
951.254	81.56
951.682	109.56
952.111	94.56
952.54	83.56
952.969	94.56
953.397	88.56
953.826	87.56
954.254	99.56
954.683	92.56
955.112	102.56
955.54	97.56
955.969	90.56
956.397	86.56
956.826	82.56
957.254	80.56
957.682	101.56
958.111	88.56
958.539	88.56
958.967	103.56
959.396	95.56
959.824	94.56
960.252	85.56
960.68	75.56
961.109	81.56
961.537	81.56
961.965	108.56
962.393	90.56
962.821	91.56
963.249	89.56
963.677	93.56
964.105	94.56
964.533	145.56
964.961	138.56
965.389	118.56
965.817	137.56
966.245	103.56
966.672	106.56
967.1	85.56
967.528	97.56
967.956	91.56
968.383	83.56
968.811	100.56
969.239	99.56
969.666	90.56
970.094	80.56
970.522	79.56
970.949	86.56
971.377	73.56
971.804	96.56
972.232	94.56
972.659	88.56
973.087	86.56
973.514	84.56
973.941	101.56
974.369	82.56
974.796	88.56
975.223	82.56
975.651	73.56
976.078	94.56
976.505	82.56
976.932	99.56
977.359	104.56
977.786	106.56
978.214	101.56
978.641	99.56
979.068	74.56
979.495	104.56
979.922	98.56
980.349	90.56
980.776	80.56
981.202	76.56
981.629	78.56
982.056	73.56
982.483	103.56
982.91	98.56
983.337	78.56
983.763	108.56
984.19	101.56
984.617	104.56
985.043	86.56
985.47	85.56
985.897	69.56
986.323	97.56
986.75	86.56
987.176	90.56
987.603	77.56
988.029	86.56
988.456	78.56
988.882	68.56
989.308	77.56
989.735	78.56
990.161	98.56
990.587	88.56
991.014	82.56
991.44	86.56
991.866	99.56
992.292	94.56
992.719	71.56
993.145	81.56
993.571	80.56
993.997	85.56
994.423	90.56
994.849	73.56
995.275	86.56
995.701	76.56
996.127	69.56
996.553	74.56
996.979	93.56
997.405	75.56
997.83	104.56
998.256	89.56
998.682	99.56
999.108	89.56
999.534	93.56
999.959	86.56
1000.385	80.56
1000.811	79.56
1001.236	77.56
1001.662	75.56
1002.087	77.56
1002.513	66.56
1002.938	88.56
1003.364	92.56
1003.789	78.56
1004.215	81.56
1004.64	86.56
1005.066	77.56
1005.491	72.56
1005.916	98.56
1006.342	100.56
1006.767	95.56
1007.192	93.56
1007.617	85.56
1008.042	93.56
1008.468	93.56
1008.893	77.56
1009.318	92.56
1009.743	113.56
1010.168	101.56
1010.593	98.56
1011.018	95.56
1011.443	97.56
1011.868	111.56
1012.293	80.56
1012.718	72.56
1013.143	89.56
1013.567	80.56
1013.992	71.56
1014.417	79.56
1014.842	96.56
1015.267	93.56
1015.691	89.56
1016.116	80.56
1016.541	93.56
1016.965	99.56
1017.39	106.56
1017.814	83.56
1018.239	90.56
1018.663	77.56
1019.088	86.56
1019.512	94.56
1019.937	82.56
1020.361	91.56
1020.785	72.56
1021.21	86.56
1021.634	94.56
1022.058	70.56
1022.483	91.56
1022.907	69.56
1023.331	76.56
1023.755	84.56
1024.179	79.56
1024.604	81.56
1025.028	88.56
1025.452	83.56
1025.876	72.56
1026.3	76.56
1026.724	82.56
1027.148	91.56
1027.572	79.56
1027.996	96.56
1028.42	88.56
1028.843	90.56
1029.267	93.56
1029.691	88.56
1030.115	83.56
1030.539	80.56
1030.962	87.56
1031.386	88.56
1031.81	79.56
1032.233	90.56
1032.657	83.56
1033.08	82.56
1033.504	95.56
1033.927	85.56
1034.351	80.56
1034.774	98.56
1035.198	72.56
1035.621	75.56
1036.045	87.56
1036.468	76.56
1036.891	83.56
1037.315	84.56
1037.738	82.56
1038.161	83.56
1038.584	80.56
1039.008	64.56
1039.431	64.56
1039.854	91.56
1040.277	84.56
1040.7	75.56
1041.123	86.56
1041.546	87.56
1041.969	95.56
1042.392	76.56
1042.815	87.56
1043.238	96.56
1043.661	88.56
1044.084	78.56
1044.507	94.56
1044.93	89.56
1045.352	83.56
1045.775	64.56
1046.198	69.56
1046.621	90.56
1047.043	90.56
1047.466	86.56
1047.889	88.56
1048.311	94.56
1048.734	73.56
1049.156	79.56
1049.579	80.56
1050.001	79.56
1050.424	78.56
1050.846	79.56
1051.269	69.56
1051.691	91.56
1052.113	86.56
1052.536	93.56
1052.958	77.56
1053.38	82.56
1053.802	70.56
1054.225	82.56
1054.647	84.56
1055.069	82.56
1055.491	69.56
1055.913	89.56
1056.335	88.56
1056.757	73.56
1057.179	76.56
1057.601	68.56
1058.023	89.56
1058.445	81.56
1058.867	69.56
1059.289	93.56
1059.711	82.56
1060.133	78.56
1060.555	80.56
1060.976	91.56
1061.398	91.56
1061.82	86.56
1062.241	92.56
1062.663	88.56
1063.085	78.56
1063.506	87.56
1063.928	84.56
1064.35	78.56
1064.771	101.56
1065.193	84.56
1065.614	71.56
1066.035	81.56
1066.457	88.56
1066.878	86.56
1067.3	100.56
1067.721	87.56
1068.142	90.56
1068.564	89.56
1068.985	91.56
1069.406	96.56
1069.827	98.56
1070.248	93.56
1070.67	80.56
1071.091	82.56
1071.512	68.56
1071.933	101.56
1072.354	98.56
1072.775	86.56
1073.196	80.56
1073.617	88.56
1074.038	91.56
1074.459	91.56
1074.88	82.56
1075.3	84.56
1075.721	94.56
1076.142	78.56
1076.563	84.56
1076.983	85.56
1077.404	86.56
1077.825	102.56
1078.246	104.56
1078.666	82.56
1079.087	80.56
1079.507	101.56
1079.928	79.56
1080.348	73.56
1080.769	84.56
1081.189	59.56
1081.61	78.56
1082.03	84.56
1082.451	79.56
1082.871	83.56
1083.291	72.56
1083.711	88.56
1084.132	71.56
1084.552	71.56
1084.972	97.56
1085.392	83.56
1085.813	77.56
1086.233	80.56
1086.653	58.56
1087.073	78.56
1087.493	80.56
1087.913	66.56
1088.333	82.56
1088.753	89.56
1089.173	84.56
1089.593	72.56
1090.013	78.56
1090.433	62.56
1090.852	77.56
1091.272	86.56
1091.692	82.56
1092.112	83.56
1092.531	85.56
1092.951	86.56
1093.371	82.56
1093.79	76.56
1094.21	86.56
1094.63	86.56
1095.049	82.56
1095.469	82.56
1095.888	77.56
1096.308	97.56
1096.727	92.56
1097.146	93.56
1097.566	75.56
1097.985	78.56
1098.405	85.56
1098.824	92.56
1099.243	83.56
1099.662	65.56
1100.082	83.56
1100.501	85.56
1100.92	109.56
1101.339	93.56
1101.758	80.56
