Data from 20170802-ORNL-NYSim-Air_HRD10391_10-37-19-634.txt Node
Date: Wed Aug 02 10:37:19 EDT 2017
User: Ender
Spectrometer: HR+D1039
Trigger mode: 0
Integration Time (sec): 1.510000E-3
Scans to average: 1
Electric dark correction enabled: true
Nonlinearity correction enabled: false
Boxcar width: 0
XAxis mode: Wavelengths
Number of Pixels in Spectrum: 2048
>>>>>Begin Spectral Data<<<<<
187.836	3.44
188.309	3.44
188.782	3.44
189.255	6.44
189.728	3.44
190.201	-14.56
190.674	-13.56
191.147	-15.56
191.619	3.44
192.092	-8.56
192.565	-7.56
193.038	-3.56
193.511	-3.56
193.984	17.44
194.456	-0.56
194.929	2.44
195.402	6.44
195.874	24.44
196.347	21.44
196.82	42.44
197.292	42.44
197.765	34.44
198.237	43.44
198.71	32.44
199.182	57.44
199.655	44.44
200.127	43.44
200.6	52.44
201.072	57.44
201.544	58.44
202.017	80.44
202.489	51.44
202.961	73.44
203.433	76.44
203.906	81.44
204.378	71.44
204.85	103.44
205.322	61.44
205.794	93.44
206.266	87.44
206.739	91.44
207.211	87.44
207.683	72.44
208.155	80.44
208.627	84.44
209.099	67.44
209.57	87.44
210.042	95.44
210.514	80.44
210.986	90.44
211.458	103.44
211.93	90.44
212.402	96.44
212.873	71.44
213.345	82.44
213.817	74.44
214.288	79.44
214.76	88.44
215.232	72.44
215.703	89.44
216.175	87.44
216.646	71.44
217.118	84.44
217.589	77.44
218.061	83.44
218.532	76.44
219.004	71.44
219.475	81.44
219.946	94.44
220.418	88.44
220.889	88.44
221.36	65.44
221.832	75.44
222.303	77.44
222.774	80.44
223.245	85.44
223.717	62.44
224.188	103.44
224.659	72.44
225.13	80.44
225.601	88.44
226.072	90.44
226.543	81.44
227.014	77.44
227.485	69.44
227.956	68.44
228.427	80.44
228.898	90.44
229.369	69.44
229.839	78.44
230.31	82.44
230.781	88.44
231.252	86.44
231.722	94.44
232.193	93.44
232.664	82.44
233.135	86.44
233.605	82.44
234.076	91.44
234.546	81.44
235.017	97.44
235.487	87.44
235.958	97.44
236.428	94.44
236.899	95.44
237.369	93.44
237.84	69.44
238.31	78.44
238.78	64.44
239.251	98.44
239.721	76.44
240.191	73.44
240.662	77.44
241.132	76.44
241.602	96.44
242.072	92.44
242.542	92.44
243.013	101.44
243.483	77.44
243.953	82.44
244.423	84.44
244.893	69.44
245.363	91.44
245.833	86.44
246.303	81.44
246.773	109.44
247.243	85.44
247.712	87.44
248.182	80.44
248.652	101.44
249.122	87.44
249.592	97.44
250.061	104.44
250.531	92.44
251.001	85.44
251.471	85.44
251.94	70.44
252.41	83.44
252.879	84.44
253.349	96.44
253.818	80.44
254.288	73.44
254.757	97.44
255.227	102.44
255.696	88.44
256.166	94.44
256.635	84.44
257.105	96.44
257.574	90.44
258.043	91.44
258.513	96.44
258.982	87.44
259.451	95.44
259.92	99.44
260.389	89.44
260.859	96.44
261.328	89.44
261.797	94.44
262.266	93.44
262.735	116.44
263.204	85.44
263.673	92.44
264.142	113.44
264.611	105.44
265.08	104.44
265.549	93.44
266.018	95.44
266.487	100.44
266.955	105.44
267.424	93.44
267.893	90.44
268.362	89.44
268.83	104.44
269.299	103.44
269.768	106.44
270.236	96.44
270.705	99.44
271.174	82.44
271.642	104.44
272.111	87.44
272.579	87.44
273.048	99.44
273.516	105.44
273.985	96.44
274.453	111.44
274.922	107.44
275.39	93.44
275.858	106.44
276.327	113.44
276.795	103.44
277.263	98.44
277.731	118.44
278.2	107.44
278.668	108.44
279.136	113.44
279.604	109.44
280.072	107.44
280.54	117.44
281.008	90.44
281.477	103.44
281.945	117.44
282.413	114.44
282.881	105.44
283.348	111.44
283.816	120.44
284.284	116.44
284.752	99.44
285.22	101.44
285.688	124.44
286.156	116.44
286.623	119.44
287.091	113.44
287.559	117.44
288.026	120.44
288.494	117.44
288.962	125.44
289.429	134.44
289.897	107.44
290.364	99.44
290.832	128.44
291.3	120.44
291.767	111.44
292.234	119.44
292.702	135.44
293.169	111.44
293.637	111.44
294.104	106.44
294.571	100.44
295.039	109.44
295.506	120.44
295.973	123.44
296.44	123.44
296.908	131.44
297.375	123.44
297.842	103.44
298.309	112.44
298.776	128.44
299.243	121.44
299.71	131.44
300.177	108.44
300.644	111.44
301.111	107.44
301.578	118.44
302.045	134.44
302.512	121.44
302.979	110.44
303.446	122.44
303.913	111.44
304.379	122.44
304.846	131.44
305.313	135.44
305.78	129.44
306.246	129.44
306.713	138.44
307.18	123.44
307.646	119.44
308.113	144.44
308.579	149.44
309.046	143.44
309.512	131.44
309.979	138.44
310.445	137.44
310.912	146.44
311.378	145.44
311.845	151.44
312.311	145.44
312.777	136.44
313.244	119.44
313.71	142.44
314.176	142.44
314.642	157.44
315.109	155.44
315.575	161.44
316.041	139.44
316.507	140.44
316.973	144.44
317.439	151.44
317.905	145.44
318.371	158.44
318.837	152.44
319.303	153.44
319.769	137.44
320.235	151.44
320.701	152.44
321.167	150.44
321.633	153.44
322.099	149.44
322.564	167.44
323.03	149.44
323.496	152.44
323.962	154.44
324.427	143.44
324.893	139.44
325.359	163.44
325.824	156.44
326.29	155.44
326.755	142.44
327.221	168.44
327.686	169.44
328.152	170.44
328.617	157.44
329.083	175.44
329.548	162.44
330.014	169.44
330.479	169.44
330.944	168.44
331.41	158.44
331.875	157.44
332.34	166.44
332.805	159.44
333.271	167.44
333.736	161.44
334.201	173.44
334.666	169.44
335.131	175.44
335.596	186.44
336.061	168.44
336.526	177.44
336.991	158.44
337.456	162.44
337.921	181.44
338.386	172.44
338.851	167.44
339.316	163.44
339.781	166.44
340.246	172.44
340.711	163.44
341.175	183.44
341.64	202.44
342.105	174.44
342.569	188.44
343.034	172.44
343.499	186.44
343.963	191.44
344.428	200.44
344.893	174.44
345.357	194.44
345.822	200.44
346.286	184.44
346.751	186.44
347.215	213.44
347.679	212.44
348.144	220.44
348.608	190.44
349.073	206.44
349.537	193.44
350.001	196.44
350.465	208.44
350.93	224.44
351.394	215.44
351.858	235.44
352.322	219.44
352.786	217.44
353.25	193.44
353.715	215.44
354.179	232.44
354.643	222.44
355.107	245.44
355.571	227.44
356.035	224.44
356.498	232.44
356.962	223.44
357.426	219.44
357.89	226.44
358.354	226.44
358.818	229.44
359.281	212.44
359.745	248.44
360.209	238.44
360.673	210.44
361.136	240.44
361.6	232.44
362.064	220.44
362.527	225.44
362.991	223.44
363.454	225.44
363.918	229.44
364.381	261.44
364.845	246.44
365.308	237.44
365.772	217.44
366.235	233.44
366.698	247.44
367.162	243.44
367.625	242.44
368.088	225.44
368.552	231.44
369.015	242.44
369.478	247.44
369.941	247.44
370.404	258.44
370.867	245.44
371.331	247.44
371.794	261.44
372.257	253.44
372.72	256.44
373.183	255.44
373.646	256.44
374.109	277.44
374.572	255.44
375.035	250.44
375.497	270.44
375.96	247.44
376.423	269.44
376.886	266.44
377.349	261.44
377.811	295.44
378.274	278.44
378.737	279.44
379.199	284.44
379.662	282.44
380.125	273.44
380.587	281.44
381.05	250.44
381.512	277.44
381.975	259.44
382.437	293.44
382.9	297.44
383.362	298.44
383.825	291.44
384.287	326.44
384.75	307.44
385.212	287.44
385.674	286.44
386.136	292.44
386.599	306.44
387.061	307.44
387.523	323.44
387.985	297.44
388.447	307.44
388.91	282.44
389.372	303.44
389.834	294.44
390.296	312.44
390.758	304.44
391.22	306.44
391.682	315.44
392.144	325.44
392.606	311.44
393.068	315.44
393.529	323.44
393.991	340.44
394.453	348.44
394.915	342.44
395.377	307.44
395.838	327.44
396.3	325.44
396.762	324.44
397.224	328.44
397.685	323.44
398.147	312.44
398.608	315.44
399.07	295.44
399.531	327.44
399.993	340.44
400.454	347.44
400.916	357.44
401.377	340.44
401.839	352.44
402.3	351.44
402.762	354.44
403.223	384.44
403.684	379.44
404.145	358.44
404.607	355.44
405.068	351.44
405.529	366.44
405.99	395.44
406.451	387.44
406.913	372.44
407.374	371.44
407.835	356.44
408.296	376.44
408.757	360.44
409.218	380.44
409.679	384.44
410.14	396.44
410.601	393.44
411.062	392.44
411.522	396.44
411.983	387.44
412.444	417.44
412.905	417.44
413.366	419.44
413.826	443.44
414.287	465.44
414.748	538.44
415.208	595.44
415.669	502.44
416.13	462.44
416.59	461.44
417.051	452.44
417.511	458.44
417.972	515.44
418.432	547.44
418.893	571.44
419.353	564.44
419.814	481.44
420.274	431.44
420.734	423.44
421.195	409.44
421.655	433.44
422.115	441.44
422.576	431.44
423.036	445.44
423.496	469.44
423.956	441.44
424.416	493.44
424.876	529.44
425.336	527.44
425.797	522.44
426.257	492.44
426.717	473.44
427.177	446.44
427.637	462.44
428.097	494.44
428.556	501.44
429.016	518.44
429.476	558.44
429.936	542.44
430.396	556.44
430.856	523.44
431.315	551.44
431.775	587.44
432.235	633.44
432.694	641.44
433.154	585.44
433.614	588.44
434.073	590.44
434.533	518.44
434.993	477.44
435.452	523.44
435.912	501.44
436.371	496.44
436.83	476.44
437.29	451.44
437.749	479.44
438.209	490.44
438.668	494.44
439.127	517.44
439.587	493.44
440.046	445.44
440.505	477.44
440.964	497.44
441.424	524.44
441.883	481.44
442.342	491.44
442.801	458.44
443.26	473.44
443.719	475.44
444.178	475.44
444.637	446.44
445.096	463.44
445.555	449.44
446.014	476.44
446.473	449.44
446.932	473.44
447.391	458.44
447.849	496.44
448.308	445.44
448.767	469.44
449.226	469.44
449.685	482.44
450.143	500.44
450.602	507.44
451.061	491.44
451.519	489.44
451.978	469.44
452.436	446.44
452.895	461.44
453.353	478.44
453.812	468.44
454.27	488.44
454.729	465.44
455.187	487.44
455.646	475.44
456.104	484.44
456.562	486.44
457.021	466.44
457.479	492.44
457.937	504.44
458.395	510.44
458.854	494.44
459.312	494.44
459.77	508.44
460.228	489.44
460.686	532.44
461.144	517.44
461.602	499.44
462.06	521.44
462.518	513.44
462.976	517.44
463.434	519.44
463.892	487.44
464.35	547.44
464.808	554.44
465.266	555.44
465.724	544.44
466.181	533.44
466.639	559.44
467.097	583.44
467.555	596.44
468.012	580.44
468.47	599.44
468.928	630.44
469.385	628.44
469.843	622.44
470.3	621.44
470.758	637.44
471.215	631.44
471.673	658.44
472.13	680.44
472.588	685.44
473.045	689.44
473.503	687.44
473.96	723.44
474.417	723.44
474.875	726.44
475.332	803.44
475.789	805.44
476.246	805.44
476.704	841.44
477.161	850.44
477.618	882.44
478.075	939.44
478.532	1015.44
478.989	1031.44
479.446	1135.44
479.903	1191.44
480.36	1308.44
480.817	1339.44
481.274	1465.44
481.731	1591.44
482.188	1683.44
482.645	1786.44
483.102	1868.44
483.558	2035.44
484.015	2091.44
484.472	2100.44
484.929	2043.44
485.385	1961.44
485.842	1933.44
486.299	1854.44
486.755	1719.44
487.212	1571.44
487.668	1443.44
488.125	1357.44
488.582	1262.44
489.038	1240.44
489.494	1200.44
489.951	1130.44
490.407	1112.44
490.864	1074.44
491.32	1079.44
491.776	1070.44
492.233	1056.44
492.689	1005.44
493.145	1015.44
493.602	995.44
494.058	1027.44
494.514	1067.44
494.97	1020.44
495.426	1055.44
495.882	1048.44
496.338	1023.44
496.794	1067.44
497.251	1061.44
497.707	1048.44
498.163	1071.44
498.618	1087.44
499.074	1076.44
499.53	1083.44
499.986	1059.44
500.442	1021.44
500.898	1054.44
501.354	1037.44
501.809	1080.44
502.265	1051.44
502.721	1084.44
503.177	1066.44
503.632	1084.44
504.088	1120.44
504.543	1083.44
504.999	1129.44
505.455	1074.44
505.91	1103.44
506.366	1091.44
506.821	1116.44
507.277	1120.44
507.732	1089.44
508.187	1079.44
508.643	1114.44
509.098	1091.44
509.553	1145.44
510.009	1112.44
510.464	1123.44
510.919	1129.44
511.375	1144.44
511.83	1186.44
512.285	1194.44
512.74	1208.44
513.195	1247.44
513.65	1203.44
514.105	1247.44
514.56	1262.44
515.015	1317.44
515.47	1270.44
515.925	1279.44
516.38	1309.44
516.835	1308.44
517.29	1246.44
517.745	1271.44
518.2	1289.44
518.655	1225.44
519.109	1246.44
519.564	1214.44
520.019	1219.44
520.474	1169.44
520.928	1177.44
521.383	1205.44
521.838	1175.44
522.292	1183.44
522.747	1158.44
523.201	1182.44
523.656	1143.44
524.11	1141.44
524.565	1150.44
525.019	1135.44
525.474	1159.44
525.928	1112.44
526.382	1153.44
526.837	1115.44
527.291	1152.44
527.745	1169.44
528.2	1165.44
528.654	1113.44
529.108	1115.44
529.562	1160.44
530.016	1141.44
530.47	1147.44
530.925	1127.44
531.379	1157.44
531.833	1150.44
532.287	1129.44
532.741	1112.44
533.195	1143.44
533.649	1160.44
534.103	1125.44
534.556	1109.44
535.01	1112.44
535.464	1131.44
535.918	1109.44
536.372	1123.44
536.826	1182.44
537.279	1095.44
537.733	1129.44
538.187	1117.44
538.64	1149.44
539.094	1142.44
539.548	1161.44
540.001	1183.44
540.455	1125.44
540.908	1191.44
541.362	1168.44
541.815	1197.44
542.269	1246.44
542.722	1215.44
543.175	1222.44
543.629	1236.44
544.082	1241.44
544.536	1231.44
544.989	1263.44
545.442	1252.44
545.895	1260.44
546.349	1276.44
546.802	1264.44
547.255	1277.44
547.708	1237.44
548.161	1288.44
548.614	1279.44
549.067	1284.44
549.52	1266.44
549.973	1305.44
550.426	1275.44
550.879	1277.44
551.332	1283.44
551.785	1299.44
552.238	1272.44
552.691	1287.44
553.144	1271.44
553.596	1299.44
554.049	1348.44
554.502	1365.44
554.955	1385.44
555.407	1380.44
555.86	1393.44
556.313	1353.44
556.765	1357.44
557.218	1357.44
557.67	1374.44
558.123	1338.44
558.576	1301.44
559.028	1303.44
559.48	1315.44
559.933	1317.44
560.385	1263.44
560.838	1253.44
561.29	1258.44
561.742	1243.44
562.195	1244.44
562.647	1210.44
563.099	1187.44
563.551	1165.44
564.004	1199.44
564.456	1191.44
564.908	1151.44
565.36	1133.44
565.812	1085.44
566.264	1087.44
566.716	1089.44
567.168	1083.44
567.62	1066.44
568.072	1088.44
568.524	1050.44
568.976	1055.44
569.428	1058.44
569.88	1025.44
570.332	1041.44
570.784	1009.44
571.235	1078.44
571.687	1067.44
572.139	1066.44
572.59	1072.44
573.042	1062.44
573.494	1058.44
573.945	1083.44
574.397	1055.44
574.849	1054.44
575.3	1032.44
575.752	1061.44
576.203	1024.44
576.655	1033.44
577.106	1007.44
577.557	1039.44
578.009	998.44
578.46	1017.44
578.912	989.44
579.363	989.44
579.814	997.44
580.265	1015.44
580.717	1009.44
581.168	1006.44
581.619	1025.44
582.07	1013.44
582.521	1039.44
582.972	1009.44
583.423	1027.44
583.875	1013.44
584.326	1027.44
584.777	1020.44
585.227	1086.44
585.678	1061.44
586.129	1106.44
586.58	1077.44
587.031	1094.44
587.482	1095.44
587.933	1109.44
588.384	1123.44
588.834	1151.44
589.285	1127.44
589.736	1130.44
590.186	1102.44
590.637	1117.44
591.088	1073.44
591.538	1103.44
591.989	1090.44
592.439	1017.44
592.89	1033.44
593.34	1038.44
593.791	1032.44
594.241	1034.44
594.692	1040.44
595.142	1019.44
595.593	1009.44
596.043	1030.44
596.493	1026.44
596.943	1030.44
597.394	1071.44
597.844	1088.44
598.294	1094.44
598.744	1095.44
599.195	1159.44
599.645	1195.44
600.095	1262.44
600.545	1316.44
600.995	1371.44
601.445	1421.44
601.895	1496.44
602.345	1552.44
602.795	1535.44
603.245	1473.44
603.695	1433.44
604.145	1352.44
604.594	1295.44
605.044	1232.44
605.494	1173.44
605.944	1099.44
606.393	1069.44
606.843	1046.44
607.293	1039.44
607.743	1003.44
608.192	1056.44
608.642	1011.44
609.091	1027.44
609.541	1051.44
609.99	1039.44
610.44	1020.44
610.889	1007.44
611.339	1010.44
611.788	1010.44
612.238	1017.44
612.687	996.44
613.136	1003.44
613.586	1017.44
614.035	1002.44
614.484	992.44
614.933	1034.44
615.383	1015.44
615.832	941.44
616.281	930.44
616.73	929.44
617.179	924.44
617.628	949.44
618.077	929.44
618.526	910.44
618.975	869.44
619.424	866.44
619.873	884.44
620.322	874.44
620.771	887.44
621.22	868.44
621.669	842.44
622.118	827.44
622.567	837.44
623.015	826.44
623.464	833.44
623.913	813.44
624.361	783.44
624.81	766.44
625.259	786.44
625.707	801.44
626.156	800.44
626.604	846.44
627.053	810.44
627.501	805.44
627.95	821.44
628.398	845.44
628.847	803.44
629.295	834.44
629.744	781.44
630.192	769.44
630.64	810.44
631.089	772.44
631.537	733.44
631.985	747.44
632.433	750.44
632.881	751.44
633.33	745.44
633.778	749.44
634.226	747.44
634.674	739.44
635.122	772.44
635.57	759.44
636.018	791.44
636.466	787.44
636.914	762.44
637.362	798.44
637.81	780.44
638.258	838.44
638.705	815.44
639.153	865.44
639.601	877.44
640.049	890.44
640.497	885.44
640.944	907.44
641.392	891.44
641.84	843.44
642.287	837.44
642.735	801.44
643.182	779.44
643.63	803.44
644.078	782.44
644.525	811.44
644.973	815.44
645.42	832.44
645.867	839.44
646.315	858.44
646.762	926.44
647.21	929.44
647.657	962.44
648.104	977.44
648.551	1027.44
648.999	1092.44
649.446	1155.44
649.893	1298.44
650.34	1463.44
650.787	1716.44
651.234	2136.44
651.682	2795.44
652.129	3846.44
652.576	5611.44
653.023	7574.44
653.47	9379.44
653.917	10305.44
654.363	11059.44
654.81	11599.44
655.257	12084.44
655.704	9291.44
656.151	5550.44
656.598	3595.44
657.044	2585.44
657.491	2006.44
657.938	1631.44
658.385	1408.44
658.831	1222.44
659.278	1104.44
659.724	1016.44
660.171	960.44
660.618	880.44
661.064	840.44
661.511	853.44
661.957	819.44
662.404	784.44
662.85	814.44
663.296	796.44
663.743	752.44
664.189	741.44
664.635	751.44
665.082	753.44
665.528	703.44
665.974	692.44
666.42	708.44
666.867	689.44
667.313	659.44
667.759	666.44
668.205	621.44
668.651	618.44
669.097	662.44
669.543	634.44
669.989	625.44
670.435	635.44
670.881	668.44
671.327	660.44
671.773	683.44
672.219	762.44
672.665	822.44
673.11	848.44
673.556	820.44
674.002	834.44
674.448	860.44
674.893	785.44
675.339	670.44
675.785	637.44
676.23	613.44
676.676	604.44
677.122	541.44
677.567	537.44
678.013	532.44
678.458	542.44
678.904	535.44
679.349	517.44
679.794	509.44
680.24	521.44
680.685	495.44
681.131	534.44
681.576	498.44
682.021	527.44
682.466	520.44
682.912	533.44
683.357	514.44
683.802	570.44
684.247	608.44
684.692	654.44
685.137	714.44
685.583	687.44
686.028	716.44
686.473	698.44
686.918	639.44
687.363	602.44
687.807	555.44
688.252	557.44
688.697	507.44
689.142	504.44
689.587	517.44
690.032	515.44
690.477	511.44
690.921	542.44
691.366	568.44
691.811	577.44
692.255	646.44
692.7	701.44
693.145	873.44
693.589	1305.44
694.034	1736.44
694.478	1907.44
694.923	1756.44
695.367	2143.44
695.812	2029.44
696.256	872.44
696.701	584.44
697.145	506.44
697.59	468.44
698.034	493.44
698.478	501.44
698.922	475.44
699.367	487.44
699.811	495.44
700.255	534.44
700.699	591.44
701.143	614.44
701.588	622.44
702.032	659.44
702.476	689.44
702.92	735.44
703.364	806.44
703.808	1202.44
704.252	1607.44
704.696	1767.44
705.14	1676.44
705.584	2065.44
706.027	1743.44
706.471	848.44
706.915	619.44
707.359	517.44
707.803	470.44
708.246	491.44
708.69	456.44
709.134	455.44
709.577	449.44
710.021	459.44
710.465	470.44
710.908	453.44
711.352	458.44
711.795	499.44
712.239	523.44
712.682	564.44
713.126	568.44
713.569	587.44
714.012	543.44
714.456	466.44
714.899	442.44
715.342	416.44
715.786	405.44
716.229	419.44
716.672	377.44
717.115	391.44
717.558	391.44
718.002	397.44
718.445	416.44
718.888	423.44
719.331	425.44
719.774	472.44
720.217	449.44
720.66	437.44
721.103	419.44
721.546	360.44
721.989	393.44
722.432	366.44
722.874	388.44
723.317	376.44
723.76	373.44
724.203	456.44
724.645	548.44
725.088	698.44
725.531	710.44
725.974	721.44
726.416	738.44
726.859	511.44
727.301	411.44
727.744	368.44
728.187	379.44
728.629	382.44
729.071	390.44
729.514	426.44
729.956	425.44
730.399	439.44
730.841	439.44
731.283	433.44
731.726	391.44
732.168	411.44
732.61	401.44
733.053	459.44
733.495	486.44
733.937	520.44
734.379	554.44
734.821	705.44
735.263	965.44
735.705	1571.44
736.148	2562.44
736.59	2948.44
737.032	2784.44
737.474	3042.44
737.916	1498.44
738.357	759.44
738.799	527.44
739.241	469.44
739.683	458.44
740.125	465.44
740.567	470.44
741.008	505.44
741.45	538.44
741.892	553.44
742.334	535.44
742.775	539.44
743.217	550.44
743.658	485.44
744.1	455.44
744.542	535.44
744.983	568.44
745.425	545.44
745.866	592.44
746.307	503.44
746.749	478.44
747.19	556.44
747.632	921.44
748.073	1729.44
748.514	2731.44
748.956	3335.44
749.397	4521.44
749.838	3615.44
750.279	2940.44
750.72	2235.44
751.162	1034.44
751.603	551.44
752.044	437.44
752.485	372.44
752.926	347.44
753.367	362.44
753.808	321.44
754.249	331.44
754.69	307.44
755.131	316.44
755.572	323.44
756.013	301.44
756.453	302.44
756.894	295.44
757.335	337.44
757.776	330.44
758.216	335.44
758.657	362.44
759.098	366.44
759.538	393.44
759.979	493.44
760.42	745.44
760.86	1661.44
761.301	4014.44
761.741	5951.44
762.182	6086.44
762.622	5725.44
763.063	2632.44
763.503	1122.44
763.943	569.44
764.384	426.44
764.824	356.44
765.264	352.44
765.705	338.44
766.145	322.44
766.585	333.44
767.025	306.44
767.465	289.44
767.906	304.44
768.346	319.44
768.786	349.44
769.226	393.44
769.666	663.44
770.106	1344.44
770.546	2377.44
770.986	2513.44
771.426	2504.44
771.866	1401.44
772.306	670.44
772.745	377.44
773.185	283.44
773.625	293.44
774.065	300.44
774.505	347.44
774.944	543.44
775.384	821.44
775.824	943.44
776.263	936.44
776.703	664.44
777.142	414.44
777.582	308.44
778.021	259.44
778.461	249.44
778.9	229.44
779.34	253.44
779.779	241.44
780.219	232.44
780.658	227.44
781.097	226.44
781.537	248.44
781.976	233.44
782.415	211.44
782.855	206.44
783.294	215.44
783.733	217.44
784.172	221.44
784.611	218.44
785.05	216.44
785.489	204.44
785.928	220.44
786.367	232.44
786.806	236.44
787.245	265.44
787.684	243.44
788.123	228.44
788.562	253.44
789.001	234.44
789.44	241.44
789.879	257.44
790.317	215.44
790.756	259.44
791.195	259.44
791.634	314.44
792.072	416.44
792.511	833.44
792.95	1783.44
793.388	2249.44
793.827	2004.44
794.265	1159.44
794.704	601.44
795.142	355.44
795.581	295.44
796.019	238.44
796.458	247.44
796.896	253.44
797.334	263.44
797.773	309.44
798.211	443.44
798.649	882.44
799.087	1461.44
799.526	2223.44
799.964	2459.44
800.402	2110.44
800.84	1211.44
801.278	645.44
801.716	354.44
802.154	267.44
802.592	257.44
803.03	269.44
803.468	286.44
803.906	278.44
804.344	285.44
804.782	268.44
805.22	261.44
805.658	250.44
806.096	274.44
806.533	297.44
806.971	330.44
807.409	404.44
807.847	664.44
808.284	1439.44
808.722	2859.44
809.16	4031.44
809.597	5648.44
810.035	7176.44
810.472	6071.44
810.91	3381.44
811.347	1649.44
811.785	790.44
812.222	475.44
812.66	355.44
813.097	287.44
813.535	283.44
813.972	247.44
814.409	237.44
814.846	222.44
815.284	211.44
815.721	234.44
816.158	217.44
816.595	271.44
817.032	321.44
817.47	342.44
817.907	311.44
818.344	261.44
818.781	241.44
819.218	259.44
819.655	303.44
820.092	428.44
820.529	433.44
820.966	392.44
821.403	323.44
821.839	259.44
822.276	259.44
822.713	280.44
823.15	278.44
823.587	265.44
824.023	338.44
824.46	690.44
824.897	1284.44
825.333	1368.44
825.77	811.44
826.206	515.44
826.643	303.44
827.08	251.44
827.516	184.44
827.953	207.44
828.389	173.44
828.825	169.44
829.262	186.44
829.698	169.44
830.135	171.44
830.571	184.44
831.007	172.44
831.443	156.44
831.88	153.44
832.316	173.44
832.752	178.44
833.188	168.44
833.624	154.44
834.06	158.44
834.497	178.44
834.933	179.44
835.369	179.44
835.805	179.44
836.241	197.44
836.677	179.44
837.112	206.44
837.548	234.44
837.984	305.44
838.42	434.44
838.856	1044.44
839.292	2227.44
839.727	2440.44
840.163	1643.44
840.599	1911.44
841.034	2810.44
841.47	2241.44
841.906	1260.44
842.341	703.44
842.777	464.44
843.212	416.44
843.648	350.44
844.083	266.44
844.519	227.44
844.954	192.44
845.39	167.44
845.825	162.44
846.261	165.44
846.696	143.44
847.131	163.44
847.566	153.44
848.002	170.44
848.437	171.44
848.872	171.44
849.307	167.44
849.742	231.44
850.177	435.44
850.613	882.44
851.048	928.44
851.483	555.44
851.918	359.44
852.353	221.44
852.788	179.44
853.223	151.44
853.657	163.44
854.092	145.44
854.527	145.44
854.962	158.44
855.397	134.44
855.832	156.44
856.266	151.44
856.701	132.44
857.136	147.44
857.57	147.44
858.005	176.44
858.44	181.44
858.874	160.44
859.309	161.44
859.743	141.44
860.178	135.44
860.612	138.44
861.047	172.44
861.481	215.44
861.915	195.44
862.35	161.44
862.784	145.44
863.218	133.44
863.653	145.44
864.087	144.44
864.521	155.44
864.955	199.44
865.39	275.44
865.824	291.44
866.258	301.44
866.692	421.44
867.126	395.44
867.56	287.44
867.994	192.44
868.428	179.44
868.862	165.44
869.296	171.44
869.73	202.44
870.164	185.44
870.598	196.44
871.031	154.44
871.465	137.44
871.899	103.44
872.333	119.44
872.766	117.44
873.2	123.44
873.634	107.44
874.067	123.44
874.501	117.44
874.935	127.44
875.368	114.44
875.802	135.44
876.235	107.44
876.669	119.44
877.102	112.44
877.535	114.44
877.969	101.44
878.402	118.44
878.836	120.44
879.269	112.44
879.702	133.44
880.135	104.44
880.569	109.44
881.002	116.44
881.435	107.44
881.868	105.44
882.301	103.44
882.734	111.44
883.167	124.44
883.601	125.44
884.034	112.44
884.467	121.44
884.899	120.44
885.332	93.44
885.765	104.44
886.198	101.44
886.631	114.44
887.064	100.44
887.497	100.44
887.929	97.44
888.362	103.44
888.795	120.44
889.228	104.44
889.66	103.44
890.093	111.44
890.526	104.44
890.958	118.44
891.391	110.44
891.823	109.44
892.256	102.44
892.688	101.44
893.121	114.44
893.553	108.44
893.985	108.44
894.418	98.44
894.85	99.44
895.282	91.44
895.715	128.44
896.147	105.44
896.579	111.44
897.011	94.44
897.444	93.44
897.876	103.44
898.308	121.44
898.74	100.44
899.172	108.44
899.604	104.44
900.036	100.44
900.468	116.44
900.9	99.44
901.332	125.44
901.764	114.44
902.196	112.44
902.628	90.44
903.06	99.44
903.491	139.44
903.923	119.44
904.355	132.44
904.787	141.44
905.218	128.44
905.65	128.44
906.082	131.44
906.513	116.44
906.945	101.44
907.376	107.44
907.808	100.44
908.239	118.44
908.671	124.44
909.102	138.44
909.534	141.44
909.965	139.44
910.397	256.44
910.828	568.44
911.259	611.44
911.691	402.44
912.122	279.44
912.553	187.44
912.984	141.44
913.415	122.44
913.847	121.44
914.278	103.44
914.709	115.44
915.14	111.44
915.571	131.44
916.002	114.44
916.433	113.44
916.864	95.44
917.295	98.44
917.726	92.44
918.157	133.44
918.587	130.44
919.018	114.44
919.449	127.44
919.88	124.44
920.311	137.44
920.741	161.44
921.172	300.44
921.603	261.44
922.033	231.44
922.464	163.44
922.895	130.44
923.325	119.44
923.756	112.44
924.186	113.44
924.617	122.44
925.047	140.44
925.478	139.44
925.908	126.44
926.338	115.44
926.769	101.44
927.199	111.44
927.629	101.44
928.06	107.44
928.49	113.44
928.92	98.44
929.35	108.44
929.78	81.44
930.21	105.44
930.641	87.44
931.071	102.44
931.501	88.44
931.931	95.44
932.361	86.44
932.791	111.44
933.221	95.44
933.651	93.44
934.08	106.44
934.51	116.44
934.94	103.44
935.37	97.44
935.8	101.44
936.229	81.44
936.659	89.44
937.089	110.44
937.519	112.44
937.948	116.44
938.378	116.44
938.807	108.44
939.237	102.44
939.666	104.44
940.096	93.44
940.525	96.44
940.955	92.44
941.384	99.44
941.814	90.44
942.243	94.44
942.672	85.44
943.102	90.44
943.531	95.44
943.96	107.44
944.39	91.44
944.819	95.44
945.248	88.44
945.677	90.44
946.106	92.44
946.535	85.44
946.964	83.44
947.393	74.44
947.822	91.44
948.251	102.44
948.68	96.44
949.109	91.44
949.538	87.44
949.967	107.44
950.396	81.44
950.825	91.44
951.254	99.44
951.682	76.44
952.111	89.44
952.54	93.44
952.969	90.44
953.397	78.44
953.826	89.44
954.254	95.44
954.683	87.44
955.112	72.44
955.54	82.44
955.969	83.44
956.397	76.44
956.826	83.44
957.254	99.44
957.682	100.44
958.111	94.44
958.539	85.44
958.967	76.44
959.396	87.44
959.824	104.44
960.252	85.44
960.68	79.44
961.109	71.44
961.537	84.44
961.965	101.44
962.393	69.44
962.821	86.44
963.249	79.44
963.677	93.44
964.105	109.44
964.533	151.44
964.961	137.44
965.389	110.44
965.817	89.44
966.245	72.44
966.672	91.44
967.1	99.44
967.528	85.44
967.956	103.44
968.383	115.44
968.811	93.44
969.239	89.44
969.666	95.44
970.094	79.44
970.522	90.44
970.949	74.44
971.377	96.44
971.804	95.44
972.232	99.44
972.659	90.44
973.087	73.44
973.514	79.44
973.941	82.44
974.369	89.44
974.796	85.44
975.223	88.44
975.651	69.44
976.078	90.44
976.505	106.44
976.932	81.44
977.359	103.44
977.786	104.44
978.214	105.44
978.641	91.44
979.068	85.44
979.495	75.44
979.922	91.44
980.349	99.44
980.776	72.44
981.202	75.44
981.629	81.44
982.056	75.44
982.483	92.44
982.91	86.44
983.337	77.44
983.763	81.44
984.19	88.44
984.617	84.44
985.043	96.44
985.47	83.44
985.897	87.44
986.323	97.44
986.75	96.44
987.176	91.44
987.603	85.44
988.029	94.44
988.456	87.44
988.882	71.44
989.308	89.44
989.735	95.44
990.161	101.44
990.587	87.44
991.014	98.44
991.44	84.44
991.866	77.44
992.292	81.44
992.719	98.44
993.145	89.44
993.571	87.44
993.997	89.44
994.423	84.44
994.849	96.44
995.275	89.44
995.701	93.44
996.127	102.44
996.553	76.44
996.979	88.44
997.405	81.44
997.83	93.44
998.256	77.44
998.682	87.44
999.108	89.44
999.534	103.44
999.959	95.44
1000.385	101.44
1000.811	90.44
1001.236	85.44
1001.662	96.44
1002.087	89.44
1002.513	80.44
1002.938	85.44
1003.364	86.44
1003.789	104.44
1004.215	80.44
1004.64	69.44
1005.066	68.44
1005.491	86.44
1005.916	73.44
1006.342	76.44
1006.767	69.44
1007.192	75.44
1007.617	66.44
1008.042	78.44
1008.468	84.44
1008.893	85.44
1009.318	96.44
1009.743	101.44
1010.168	101.44
1010.593	105.44
1011.018	83.44
1011.443	91.44
1011.868	74.44
1012.293	94.44
1012.718	66.44
1013.143	89.44
1013.567	89.44
1013.992	70.44
1014.417	79.44
1014.842	72.44
1015.267	76.44
1015.691	73.44
1016.116	80.44
1016.541	75.44
1016.965	99.44
1017.39	87.44
1017.814	83.44
1018.239	61.44
1018.663	80.44
1019.088	77.44
1019.512	77.44
1019.937	86.44
1020.361	85.44
1020.785	81.44
1021.21	75.44
1021.634	75.44
1022.058	87.44
1022.483	73.44
1022.907	70.44
1023.331	73.44
1023.755	73.44
1024.179	86.44
1024.604	80.44
1025.028	69.44
1025.452	79.44
1025.876	83.44
1026.3	80.44
1026.724	83.44
1027.148	93.44
1027.572	96.44
1027.996	77.44
1028.42	85.44
1028.843	99.44
1029.267	79.44
1029.691	73.44
1030.115	78.44
1030.539	55.44
1030.962	85.44
1031.386	87.44
1031.81	98.44
1032.233	75.44
1032.657	75.44
1033.08	86.44
1033.504	72.44
1033.927	85.44
1034.351	71.44
1034.774	90.44
1035.198	74.44
1035.621	78.44
1036.045	88.44
1036.468	91.44
1036.891	88.44
1037.315	76.44
1037.738	83.44
1038.161	82.44
1038.584	99.44
1039.008	98.44
1039.431	79.44
1039.854	74.44
1040.277	73.44
1040.7	81.44
1041.123	75.44
1041.546	76.44
1041.969	69.44
1042.392	79.44
1042.815	73.44
1043.238	73.44
1043.661	85.44
1044.084	95.44
1044.507	77.44
1044.93	93.44
1045.352	74.44
1045.775	87.44
1046.198	83.44
1046.621	78.44
1047.043	83.44
1047.466	81.44
1047.889	83.44
1048.311	81.44
1048.734	92.44
1049.156	76.44
1049.579	88.44
1050.001	85.44
1050.424	78.44
1050.846	80.44
1051.269	82.44
1051.691	76.44
1052.113	77.44
1052.536	80.44
1052.958	73.44
1053.38	62.44
1053.802	79.44
1054.225	87.44
1054.647	74.44
1055.069	92.44
1055.491	89.44
1055.913	84.44
1056.335	83.44
1056.757	83.44
1057.179	87.44
1057.601	74.44
1058.023	89.44
1058.445	88.44
1058.867	87.44
1059.289	81.44
1059.711	78.44
1060.133	84.44
1060.555	94.44
1060.976	78.44
1061.398	94.44
1061.82	91.44
1062.241	69.44
1062.663	83.44
1063.085	73.44
1063.506	84.44
1063.928	80.44
1064.35	88.44
1064.771	85.44
1065.193	85.44
1065.614	100.44
1066.035	94.44
1066.457	85.44
1066.878	93.44
1067.3	71.44
1067.721	78.44
1068.142	77.44
1068.564	98.44
1068.985	88.44
1069.406	86.44
1069.827	100.44
1070.248	81.44
1070.67	77.44
1071.091	97.44
1071.512	70.44
1071.933	69.44
1072.354	73.44
1072.775	91.44
1073.196	75.44
1073.617	66.44
1074.038	72.44
1074.459	90.44
1074.88	76.44
1075.3	82.44
1075.721	75.44
1076.142	73.44
1076.563	95.44
1076.983	79.44
1077.404	85.44
1077.825	91.44
1078.246	87.44
1078.666	84.44
1079.087	82.44
1079.507	83.44
1079.928	64.44
1080.348	89.44
1080.769	75.44
1081.189	69.44
1081.61	78.44
1082.03	96.44
1082.451	74.44
1082.871	73.44
1083.291	77.44
1083.711	67.44
1084.132	90.44
1084.552	80.44
1084.972	84.44
1085.392	87.44
1085.813	73.44
1086.233	84.44
1086.653	81.44
1087.073	83.44
1087.493	80.44
1087.913	89.44
1088.333	72.44
1088.753	87.44
1089.173	81.44
1089.593	80.44
1090.013	93.44
1090.433	75.44
1090.852	91.44
1091.272	83.44
1091.692	83.44
1092.112	70.44
1092.531	81.44
1092.951	95.44
1093.371	67.44
1093.79	71.44
1094.21	86.44
1094.63	84.44
1095.049	76.44
1095.469	75.44
1095.888	83.44
1096.308	85.44
1096.727	89.44
1097.146	73.44
1097.566	85.44
1097.985	89.44
1098.405	84.44
1098.824	86.44
1099.243	87.44
1099.662	80.44
1100.082	80.44
1100.501	85.44
1100.92	85.44
1101.339	94.44
1101.758	71.44
