Data from 20170802-ORNL-NYSim-Air_HRD10391_10-36-39-614.txt Node
Date: Wed Aug 02 10:36:39 EDT 2017
User: Ender
Spectrometer: HR+D1039
Trigger mode: 0
Integration Time (sec): 1.510000E-3
Scans to average: 1
Electric dark correction enabled: true
Nonlinearity correction enabled: false
Boxcar width: 0
XAxis mode: Wavelengths
Number of Pixels in Spectrum: 2048
>>>>>Begin Spectral Data<<<<<
187.836	-10.5
188.309	-10.5
188.782	-10.5
189.255	4.5
189.728	-15.5
190.201	-14.5
190.674	-26.5
191.147	-16.5
191.619	6.5
192.092	-10.5
192.565	-8.5
193.038	12.5
193.511	-11.5
193.984	8.5
194.456	14.5
194.929	14.5
195.402	26.5
195.874	26.5
196.347	7.5
196.82	14.5
197.292	9.5
197.765	11.5
198.237	39.5
198.71	38.5
199.182	41.5
199.655	46.5
200.127	67.5
200.6	53.5
201.072	73.5
201.544	49.5
202.017	56.5
202.489	68.5
202.961	70.5
203.433	55.5
203.906	65.5
204.378	69.5
204.85	73.5
205.322	73.5
205.794	66.5
206.266	74.5
206.739	76.5
207.211	79.5
207.683	81.5
208.155	96.5
208.627	78.5
209.099	78.5
209.57	79.5
210.042	79.5
210.514	80.5
210.986	77.5
211.458	88.5
211.93	83.5
212.402	75.5
212.873	58.5
213.345	84.5
213.817	85.5
214.288	88.5
214.76	88.5
215.232	82.5
215.703	77.5
216.175	77.5
216.646	80.5
217.118	68.5
217.589	86.5
218.061	85.5
218.532	81.5
219.004	69.5
219.475	55.5
219.946	96.5
220.418	76.5
220.889	71.5
221.36	75.5
221.832	92.5
222.303	66.5
222.774	51.5
223.245	76.5
223.717	60.5
224.188	67.5
224.659	67.5
225.13	75.5
225.601	73.5
226.072	78.5
226.543	81.5
227.014	80.5
227.485	78.5
227.956	73.5
228.427	74.5
228.898	90.5
229.369	74.5
229.839	73.5
230.31	74.5
230.781	78.5
231.252	76.5
231.722	82.5
232.193	68.5
232.664	81.5
233.135	82.5
233.605	75.5
234.076	86.5
234.546	89.5
235.017	87.5
235.487	79.5
235.958	81.5
236.428	71.5
236.899	85.5
237.369	73.5
237.84	60.5
238.31	74.5
238.78	79.5
239.251	83.5
239.721	96.5
240.191	78.5
240.662	90.5
241.132	80.5
241.602	79.5
242.072	94.5
242.542	85.5
243.013	75.5
243.483	77.5
243.953	94.5
244.423	93.5
244.893	89.5
245.363	86.5
245.833	100.5
246.303	83.5
246.773	84.5
247.243	75.5
247.712	75.5
248.182	86.5
248.652	80.5
249.122	87.5
249.592	85.5
250.061	79.5
250.531	97.5
251.001	87.5
251.471	71.5
251.94	101.5
252.41	84.5
252.879	81.5
253.349	94.5
253.818	83.5
254.288	97.5
254.757	83.5
255.227	68.5
255.696	88.5
256.166	79.5
256.635	103.5
257.105	85.5
257.574	92.5
258.043	82.5
258.513	82.5
258.982	102.5
259.451	77.5
259.92	101.5
260.389	103.5
260.859	112.5
261.328	90.5
261.797	95.5
262.266	95.5
262.735	116.5
263.204	112.5
263.673	89.5
264.142	89.5
264.611	89.5
265.08	85.5
265.549	113.5
266.018	96.5
266.487	101.5
266.955	99.5
267.424	92.5
267.893	104.5
268.362	100.5
268.83	104.5
269.299	104.5
269.768	98.5
270.236	122.5
270.705	93.5
271.174	101.5
271.642	102.5
272.111	97.5
272.579	103.5
273.048	112.5
273.516	95.5
273.985	112.5
274.453	99.5
274.922	98.5
275.39	98.5
275.858	114.5
276.327	101.5
276.795	113.5
277.263	106.5
277.731	95.5
278.2	110.5
278.668	96.5
279.136	124.5
279.604	103.5
280.072	112.5
280.54	115.5
281.008	121.5
281.477	101.5
281.945	102.5
282.413	97.5
282.881	105.5
283.348	122.5
283.816	128.5
284.284	124.5
284.752	117.5
285.22	125.5
285.688	122.5
286.156	97.5
286.623	114.5
287.091	114.5
287.559	119.5
288.026	121.5
288.494	119.5
288.962	107.5
289.429	119.5
289.897	125.5
290.364	126.5
290.832	125.5
291.3	113.5
291.767	125.5
292.234	125.5
292.702	112.5
293.169	100.5
293.637	131.5
294.104	127.5
294.571	124.5
295.039	103.5
295.506	111.5
295.973	111.5
296.44	120.5
296.908	117.5
297.375	147.5
297.842	110.5
298.309	123.5
298.776	125.5
299.243	142.5
299.71	126.5
300.177	122.5
300.644	106.5
301.111	138.5
301.578	130.5
302.045	139.5
302.512	127.5
302.979	131.5
303.446	133.5
303.913	129.5
304.379	135.5
304.846	136.5
305.313	152.5
305.78	136.5
306.246	129.5
306.713	150.5
307.18	137.5
307.646	149.5
308.113	137.5
308.579	136.5
309.046	117.5
309.512	144.5
309.979	137.5
310.445	155.5
310.912	147.5
311.378	152.5
311.845	123.5
312.311	147.5
312.777	151.5
313.244	134.5
313.71	153.5
314.176	151.5
314.642	125.5
315.109	141.5
315.575	152.5
316.041	149.5
316.507	155.5
316.973	142.5
317.439	181.5
317.905	163.5
318.371	175.5
318.837	161.5
319.303	149.5
319.769	138.5
320.235	157.5
320.701	176.5
321.167	182.5
321.633	173.5
322.099	153.5
322.564	160.5
323.03	165.5
323.496	161.5
323.962	156.5
324.427	165.5
324.893	144.5
325.359	175.5
325.824	180.5
326.29	160.5
326.755	180.5
327.221	156.5
327.686	170.5
328.152	164.5
328.617	172.5
329.083	178.5
329.548	177.5
330.014	169.5
330.479	181.5
330.944	181.5
331.41	190.5
331.875	181.5
332.34	165.5
332.805	162.5
333.271	173.5
333.736	174.5
334.201	173.5
334.666	172.5
335.131	175.5
335.596	185.5
336.061	179.5
336.526	189.5
336.991	207.5
337.456	189.5
337.921	185.5
338.386	194.5
338.851	183.5
339.316	193.5
339.781	180.5
340.246	192.5
340.711	181.5
341.175	176.5
341.64	182.5
342.105	181.5
342.569	200.5
343.034	192.5
343.499	200.5
343.963	203.5
344.428	227.5
344.893	196.5
345.357	207.5
345.822	207.5
346.286	208.5
346.751	211.5
347.215	196.5
347.679	238.5
348.144	237.5
348.608	205.5
349.073	227.5
349.537	240.5
350.001	254.5
350.465	248.5
350.93	239.5
351.394	240.5
351.858	240.5
352.322	229.5
352.786	250.5
353.25	234.5
353.715	236.5
354.179	235.5
354.643	264.5
355.107	250.5
355.571	245.5
356.035	253.5
356.498	266.5
356.962	239.5
357.426	261.5
357.89	257.5
358.354	247.5
358.818	256.5
359.281	245.5
359.745	255.5
360.209	266.5
360.673	230.5
361.136	239.5
361.6	260.5
362.064	264.5
362.527	265.5
362.991	261.5
363.454	251.5
363.918	250.5
364.381	270.5
364.845	274.5
365.308	276.5
365.772	280.5
366.235	279.5
366.698	251.5
367.162	264.5
367.625	292.5
368.088	273.5
368.552	267.5
369.015	263.5
369.478	281.5
369.941	275.5
370.404	295.5
370.867	279.5
371.331	269.5
371.794	283.5
372.257	294.5
372.72	281.5
373.183	286.5
373.646	268.5
374.109	302.5
374.572	289.5
375.035	315.5
375.497	299.5
375.96	311.5
376.423	294.5
376.886	273.5
377.349	303.5
377.811	305.5
378.274	297.5
378.737	315.5
379.199	315.5
379.662	302.5
380.125	325.5
380.587	320.5
381.05	337.5
381.512	322.5
381.975	319.5
382.437	319.5
382.9	324.5
383.362	340.5
383.825	359.5
384.287	354.5
384.75	317.5
385.212	364.5
385.674	341.5
386.136	340.5
386.599	354.5
387.061	355.5
387.523	322.5
387.985	349.5
388.447	328.5
388.91	357.5
389.372	355.5
389.834	353.5
390.296	365.5
390.758	342.5
391.22	362.5
391.682	354.5
392.144	374.5
392.606	368.5
393.068	370.5
393.529	386.5
393.991	364.5
394.453	362.5
394.915	358.5
395.377	389.5
395.838	368.5
396.3	356.5
396.762	373.5
397.224	372.5
397.685	360.5
398.147	365.5
398.608	387.5
399.07	368.5
399.531	404.5
399.993	393.5
400.454	403.5
400.916	365.5
401.377	389.5
401.839	397.5
402.3	414.5
402.762	426.5
403.223	437.5
403.684	433.5
404.145	404.5
404.607	411.5
405.068	425.5
405.529	437.5
405.99	460.5
406.451	432.5
406.913	437.5
407.374	429.5
407.835	440.5
408.296	418.5
408.757	452.5
409.218	463.5
409.679	449.5
410.14	473.5
410.601	472.5
411.062	448.5
411.522	475.5
411.983	486.5
412.444	476.5
412.905	449.5
413.366	491.5
413.826	497.5
414.287	567.5
414.748	609.5
415.208	671.5
415.669	575.5
416.13	513.5
416.59	529.5
417.051	504.5
417.511	580.5
417.972	584.5
418.432	610.5
418.893	682.5
419.353	664.5
419.814	541.5
420.274	515.5
420.734	463.5
421.195	493.5
421.655	489.5
422.115	496.5
422.576	475.5
423.036	495.5
423.496	511.5
423.956	545.5
424.416	543.5
424.876	615.5
425.336	620.5
425.797	598.5
426.257	601.5
426.717	598.5
427.177	543.5
427.637	572.5
428.097	566.5
428.556	579.5
429.016	623.5
429.476	603.5
429.936	613.5
430.396	627.5
430.856	637.5
431.315	647.5
431.775	677.5
432.235	712.5
432.694	733.5
433.154	704.5
433.614	711.5
434.073	682.5
434.533	609.5
434.993	613.5
435.452	611.5
435.912	587.5
436.371	588.5
436.83	569.5
437.29	565.5
437.749	558.5
438.209	551.5
438.668	544.5
439.127	571.5
439.587	558.5
440.046	536.5
440.505	567.5
440.964	545.5
441.424	567.5
441.883	565.5
442.342	523.5
442.801	514.5
443.26	532.5
443.719	543.5
444.178	507.5
444.637	547.5
445.096	553.5
445.555	564.5
446.014	562.5
446.473	546.5
446.932	547.5
447.391	574.5
447.849	564.5
448.308	545.5
448.767	543.5
449.226	547.5
449.685	579.5
450.143	570.5
450.602	578.5
451.061	555.5
451.519	569.5
451.978	575.5
452.436	525.5
452.895	547.5
453.353	549.5
453.812	546.5
454.27	572.5
454.729	565.5
455.187	547.5
455.646	554.5
456.104	572.5
456.562	576.5
457.021	578.5
457.479	559.5
457.937	596.5
458.395	598.5
458.854	574.5
459.312	551.5
459.77	562.5
460.228	574.5
460.686	600.5
461.144	589.5
461.602	597.5
462.06	565.5
462.518	601.5
462.976	613.5
463.434	604.5
463.892	622.5
464.35	602.5
464.808	647.5
465.266	639.5
465.724	638.5
466.181	629.5
466.639	625.5
467.097	665.5
467.555	685.5
468.012	650.5
468.47	707.5
468.928	698.5
469.385	718.5
469.843	723.5
470.3	749.5
470.758	745.5
471.215	780.5
471.673	776.5
472.13	807.5
472.588	793.5
473.045	801.5
473.503	816.5
473.96	836.5
474.417	835.5
474.875	879.5
475.332	927.5
475.789	954.5
476.246	966.5
476.704	995.5
477.161	1023.5
477.618	1049.5
478.075	1073.5
478.532	1219.5
478.989	1267.5
479.446	1359.5
479.903	1486.5
480.36	1558.5
480.817	1629.5
481.274	1801.5
481.731	1957.5
482.188	2004.5
482.645	2169.5
483.102	2271.5
483.558	2481.5
484.015	2608.5
484.472	2525.5
484.929	2472.5
485.385	2379.5
485.842	2394.5
486.299	2276.5
486.755	2139.5
487.212	1921.5
487.668	1748.5
488.125	1595.5
488.582	1519.5
489.038	1446.5
489.494	1381.5
489.951	1342.5
490.407	1318.5
490.864	1319.5
491.32	1260.5
491.776	1254.5
492.233	1243.5
492.689	1257.5
493.145	1205.5
493.602	1185.5
494.058	1237.5
494.514	1199.5
494.97	1203.5
495.426	1213.5
495.882	1194.5
496.338	1193.5
496.794	1261.5
497.251	1224.5
497.707	1244.5
498.163	1251.5
498.618	1238.5
499.074	1208.5
499.53	1270.5
499.986	1255.5
500.442	1261.5
500.898	1246.5
501.354	1238.5
501.809	1249.5
502.265	1262.5
502.721	1274.5
503.177	1241.5
503.632	1203.5
504.088	1259.5
504.543	1269.5
504.999	1310.5
505.455	1326.5
505.91	1281.5
506.366	1313.5
506.821	1293.5
507.277	1233.5
507.732	1296.5
508.187	1269.5
508.643	1274.5
509.098	1293.5
509.553	1304.5
510.009	1323.5
510.464	1321.5
510.919	1336.5
511.375	1353.5
511.83	1377.5
512.285	1403.5
512.74	1385.5
513.195	1460.5
513.65	1449.5
514.105	1447.5
514.56	1445.5
515.015	1472.5
515.47	1492.5
515.925	1480.5
516.38	1520.5
516.835	1526.5
517.29	1511.5
517.745	1511.5
518.2	1508.5
518.655	1460.5
519.109	1432.5
519.564	1433.5
520.019	1405.5
520.474	1406.5
520.928	1398.5
521.383	1353.5
521.838	1377.5
522.292	1370.5
522.747	1353.5
523.201	1343.5
523.656	1319.5
524.11	1353.5
524.565	1357.5
525.019	1322.5
525.474	1353.5
525.928	1331.5
526.382	1358.5
526.837	1323.5
527.291	1374.5
527.745	1351.5
528.2	1331.5
528.654	1304.5
529.108	1318.5
529.562	1331.5
530.016	1291.5
530.47	1285.5
530.925	1321.5
531.379	1332.5
531.833	1317.5
532.287	1310.5
532.741	1362.5
533.195	1327.5
533.649	1362.5
534.103	1335.5
534.556	1401.5
535.01	1353.5
535.464	1306.5
535.918	1343.5
536.372	1324.5
536.826	1339.5
537.279	1327.5
537.733	1341.5
538.187	1357.5
538.64	1343.5
539.094	1317.5
539.548	1343.5
540.001	1349.5
540.455	1305.5
540.908	1344.5
541.362	1347.5
541.815	1383.5
542.269	1430.5
542.722	1429.5
543.175	1446.5
543.629	1437.5
544.082	1456.5
544.536	1434.5
544.989	1448.5
545.442	1491.5
545.895	1450.5
546.349	1513.5
546.802	1435.5
547.255	1452.5
547.708	1496.5
548.161	1490.5
548.614	1496.5
549.067	1525.5
549.52	1502.5
549.973	1459.5
550.426	1489.5
550.879	1481.5
551.332	1494.5
551.785	1496.5
552.238	1505.5
552.691	1449.5
553.144	1537.5
553.596	1552.5
554.049	1537.5
554.502	1584.5
554.955	1634.5
555.407	1628.5
555.86	1571.5
556.313	1589.5
556.765	1593.5
557.218	1544.5
557.67	1555.5
558.123	1526.5
558.576	1524.5
559.028	1556.5
559.48	1549.5
559.933	1545.5
560.385	1524.5
560.838	1511.5
561.29	1453.5
561.742	1438.5
562.195	1359.5
562.647	1370.5
563.099	1393.5
563.551	1365.5
564.004	1372.5
564.456	1345.5
564.908	1368.5
565.36	1309.5
565.812	1287.5
566.264	1249.5
566.716	1273.5
567.168	1251.5
567.62	1227.5
568.072	1252.5
568.524	1259.5
568.976	1247.5
569.428	1243.5
569.88	1219.5
570.332	1201.5
570.784	1228.5
571.235	1242.5
571.687	1253.5
572.139	1234.5
572.59	1245.5
573.042	1247.5
573.494	1237.5
573.945	1221.5
574.397	1232.5
574.849	1182.5
575.3	1221.5
575.752	1157.5
576.203	1175.5
576.655	1187.5
577.106	1185.5
577.557	1181.5
578.009	1148.5
578.46	1147.5
578.912	1152.5
579.363	1187.5
579.814	1184.5
580.265	1171.5
580.717	1173.5
581.168	1191.5
581.619	1190.5
582.07	1170.5
582.521	1165.5
582.972	1165.5
583.423	1162.5
583.875	1159.5
584.326	1202.5
584.777	1182.5
585.227	1235.5
585.678	1230.5
586.129	1229.5
586.58	1250.5
587.031	1295.5
587.482	1288.5
587.933	1325.5
588.384	1327.5
588.834	1332.5
589.285	1305.5
589.736	1326.5
590.186	1287.5
590.637	1305.5
591.088	1227.5
591.538	1221.5
591.989	1220.5
592.439	1208.5
592.89	1199.5
593.34	1231.5
593.791	1221.5
594.241	1140.5
594.692	1175.5
595.142	1160.5
595.593	1169.5
596.043	1228.5
596.493	1209.5
596.943	1192.5
597.394	1203.5
597.844	1244.5
598.294	1251.5
598.744	1291.5
599.195	1327.5
599.645	1400.5
600.095	1457.5
600.545	1553.5
600.995	1597.5
601.445	1638.5
601.895	1673.5
602.345	1749.5
602.795	1771.5
603.245	1700.5
603.695	1646.5
604.145	1557.5
604.594	1452.5
605.044	1411.5
605.494	1358.5
605.944	1235.5
606.393	1245.5
606.843	1209.5
607.293	1214.5
607.743	1200.5
608.192	1201.5
608.642	1180.5
609.091	1249.5
609.541	1215.5
609.99	1198.5
610.44	1211.5
610.889	1169.5
611.339	1161.5
611.788	1128.5
612.238	1143.5
612.687	1161.5
613.136	1189.5
613.586	1190.5
614.035	1142.5
614.484	1179.5
614.933	1204.5
615.383	1176.5
615.832	1145.5
616.281	1136.5
616.73	1103.5
617.179	1087.5
617.628	1072.5
618.077	1035.5
618.526	1034.5
618.975	1018.5
619.424	988.5
619.873	1023.5
620.322	966.5
620.771	1017.5
621.22	970.5
621.669	933.5
622.118	970.5
622.567	975.5
623.015	964.5
623.464	919.5
623.913	913.5
624.361	924.5
624.81	935.5
625.259	926.5
625.707	936.5
626.156	915.5
626.604	921.5
627.053	946.5
627.501	983.5
627.95	958.5
628.398	939.5
628.847	904.5
629.295	930.5
629.744	915.5
630.192	950.5
630.64	889.5
631.089	907.5
631.537	876.5
631.985	852.5
632.433	861.5
632.881	825.5
633.33	829.5
633.778	860.5
634.226	857.5
634.674	875.5
635.122	878.5
635.57	904.5
636.018	915.5
636.466	868.5
636.914	869.5
637.362	911.5
637.81	918.5
638.258	961.5
638.705	991.5
639.153	1013.5
639.601	1006.5
640.049	1018.5
640.497	1063.5
640.944	1080.5
641.392	1062.5
641.84	1024.5
642.287	964.5
642.735	923.5
643.182	925.5
643.63	919.5
644.078	907.5
644.525	930.5
644.973	937.5
645.42	977.5
645.867	1005.5
646.315	1038.5
646.762	1043.5
647.21	1106.5
647.657	1161.5
648.104	1149.5
648.551	1213.5
648.999	1286.5
649.446	1439.5
649.893	1507.5
650.34	1739.5
650.787	2126.5
651.234	2605.5
651.682	3479.5
652.129	4830.5
652.576	6899.5
653.023	9470.5
653.47	11503.5
653.917	12789.5
654.363	13561.5
654.81	14281.5
655.257	14831.5
655.704	11545.5
656.151	7037.5
656.598	4466.5
657.044	3232.5
657.491	2457.5
657.938	2025.5
658.385	1681.5
658.831	1507.5
659.278	1331.5
659.724	1251.5
660.171	1143.5
660.618	1068.5
661.064	982.5
661.511	979.5
661.957	969.5
662.404	919.5
662.85	917.5
663.296	892.5
663.743	860.5
664.189	871.5
664.635	839.5
665.082	854.5
665.528	818.5
665.974	828.5
666.42	802.5
666.867	821.5
667.313	763.5
667.759	741.5
668.205	732.5
668.651	725.5
669.097	717.5
669.543	734.5
669.989	758.5
670.435	749.5
670.881	759.5
671.327	778.5
671.773	805.5
672.219	843.5
672.665	898.5
673.11	929.5
673.556	996.5
674.002	973.5
674.448	991.5
674.893	911.5
675.339	824.5
675.785	722.5
676.23	661.5
676.676	662.5
677.122	664.5
677.567	643.5
678.013	609.5
678.458	615.5
678.904	593.5
679.349	595.5
679.794	589.5
680.24	587.5
680.685	606.5
681.131	600.5
681.576	615.5
682.021	597.5
682.466	584.5
682.912	605.5
683.357	621.5
683.802	629.5
684.247	697.5
684.692	739.5
685.137	799.5
685.583	809.5
686.028	837.5
686.473	835.5
686.918	729.5
687.363	701.5
687.807	647.5
688.252	610.5
688.697	584.5
689.142	573.5
689.587	579.5
690.032	573.5
690.477	607.5
690.921	621.5
691.366	688.5
691.811	679.5
692.255	677.5
692.7	809.5
693.145	1010.5
693.589	1491.5
694.034	1953.5
694.478	2197.5
694.923	1997.5
695.367	2473.5
695.812	2323.5
696.256	982.5
696.701	662.5
697.145	611.5
697.59	553.5
698.034	555.5
698.478	551.5
698.922	551.5
699.367	571.5
699.811	549.5
700.255	596.5
700.699	659.5
701.143	686.5
701.588	749.5
702.032	753.5
702.476	796.5
702.92	832.5
703.364	908.5
703.808	1374.5
704.252	1866.5
704.696	2098.5
705.14	1959.5
705.584	2448.5
706.027	2032.5
706.471	989.5
706.915	678.5
707.359	601.5
707.803	539.5
708.246	509.5
708.69	545.5
709.134	514.5
709.577	522.5
710.021	516.5
710.465	515.5
710.908	475.5
711.352	527.5
711.795	557.5
712.239	605.5
712.682	639.5
713.126	609.5
713.569	665.5
714.012	610.5
714.456	531.5
714.899	516.5
715.342	471.5
715.786	485.5
716.229	444.5
716.672	464.5
717.115	450.5
717.558	456.5
718.002	467.5
718.445	471.5
718.888	492.5
719.331	489.5
719.774	498.5
720.217	491.5
720.66	501.5
721.103	462.5
721.546	452.5
721.989	469.5
722.432	421.5
722.874	413.5
723.317	412.5
723.76	445.5
724.203	473.5
724.645	635.5
725.088	786.5
725.531	807.5
725.974	781.5
726.416	838.5
726.859	565.5
727.301	450.5
727.744	433.5
728.187	413.5
728.629	414.5
729.071	424.5
729.514	421.5
729.956	486.5
730.399	494.5
730.841	490.5
731.283	481.5
731.726	469.5
732.168	459.5
732.61	481.5
733.053	503.5
733.495	560.5
733.937	599.5
734.379	648.5
734.821	813.5
735.263	1065.5
735.705	1829.5
736.148	2869.5
736.59	3411.5
737.032	3182.5
737.474	3456.5
737.916	1735.5
738.357	851.5
738.799	595.5
739.241	522.5
739.683	507.5
740.125	523.5
740.567	564.5
741.008	548.5
741.45	577.5
741.892	595.5
742.334	657.5
742.775	614.5
743.217	624.5
743.658	552.5
744.1	543.5
744.542	567.5
744.983	607.5
745.425	627.5
745.866	644.5
746.307	585.5
746.749	547.5
747.19	676.5
747.632	1029.5
748.073	1971.5
748.514	3055.5
748.956	3757.5
749.397	5187.5
749.838	4165.5
750.279	3382.5
750.72	2565.5
751.162	1177.5
751.603	636.5
752.044	471.5
752.485	417.5
752.926	388.5
753.367	356.5
753.808	359.5
754.249	376.5
754.69	345.5
755.131	357.5
755.572	367.5
756.013	330.5
756.453	354.5
756.894	345.5
757.335	383.5
757.776	387.5
758.216	359.5
758.657	378.5
759.098	412.5
759.538	447.5
759.979	563.5
760.42	859.5
760.86	1915.5
761.301	4547.5
761.741	6776.5
762.182	6989.5
762.622	6594.5
763.063	3024.5
763.503	1208.5
763.943	661.5
764.384	498.5
764.824	431.5
765.264	399.5
765.705	366.5
766.145	349.5
766.585	347.5
767.025	326.5
767.465	329.5
767.906	327.5
768.346	346.5
768.786	380.5
769.226	445.5
769.666	725.5
770.106	1515.5
770.546	2685.5
770.986	2881.5
771.426	2876.5
771.866	1637.5
772.306	775.5
772.745	471.5
773.185	337.5
773.625	322.5
774.065	336.5
774.505	407.5
774.944	599.5
775.384	975.5
775.824	1131.5
776.263	1129.5
776.703	800.5
777.142	455.5
777.582	330.5
778.021	273.5
778.461	280.5
778.9	263.5
779.34	271.5
779.779	247.5
780.219	266.5
780.658	251.5
781.097	276.5
781.537	243.5
781.976	239.5
782.415	237.5
782.855	238.5
783.294	240.5
783.733	246.5
784.172	229.5
784.611	252.5
785.05	239.5
785.489	270.5
785.928	247.5
786.367	246.5
786.806	257.5
787.245	277.5
787.684	277.5
788.123	307.5
788.562	272.5
789.001	268.5
789.44	266.5
789.879	275.5
790.317	280.5
790.756	256.5
791.195	281.5
791.634	348.5
792.072	449.5
792.511	961.5
792.95	2023.5
793.388	2563.5
793.827	2236.5
794.265	1344.5
794.704	685.5
795.142	403.5
795.581	295.5
796.019	277.5
796.458	292.5
796.896	285.5
797.334	294.5
797.773	359.5
798.211	486.5
798.649	977.5
799.087	1631.5
799.526	2458.5
799.964	2813.5
800.402	2401.5
800.84	1360.5
801.278	739.5
801.716	415.5
802.154	324.5
802.592	323.5
803.03	298.5
803.468	309.5
803.906	310.5
804.344	292.5
804.782	275.5
805.22	298.5
805.658	285.5
806.096	311.5
806.533	324.5
806.971	349.5
807.409	483.5
807.847	717.5
808.284	1651.5
808.722	3318.5
809.16	4620.5
809.597	6375.5
810.035	8284.5
810.472	7014.5
810.91	3893.5
811.347	1905.5
811.785	900.5
812.222	553.5
812.66	410.5
813.097	330.5
813.535	300.5
813.972	286.5
814.409	280.5
814.846	235.5
815.284	248.5
815.721	255.5
816.158	259.5
816.595	324.5
817.032	386.5
817.47	381.5
817.907	334.5
818.344	287.5
818.781	267.5
819.218	270.5
819.655	368.5
820.092	489.5
820.529	487.5
820.966	435.5
821.403	344.5
821.839	298.5
822.276	281.5
822.713	320.5
823.15	295.5
823.587	295.5
824.023	381.5
824.46	751.5
824.897	1426.5
825.333	1541.5
825.77	942.5
826.206	551.5
826.643	346.5
827.08	247.5
827.516	233.5
827.953	197.5
828.389	204.5
828.825	200.5
829.262	185.5
829.698	197.5
830.135	169.5
830.571	187.5
831.007	167.5
831.443	180.5
831.88	175.5
832.316	197.5
832.752	166.5
833.188	157.5
833.624	176.5
834.06	195.5
834.497	168.5
834.933	171.5
835.369	176.5
835.805	189.5
836.241	188.5
836.677	220.5
837.112	217.5
837.548	252.5
837.984	298.5
838.42	495.5
838.856	1220.5
839.292	2544.5
839.727	2794.5
840.163	1892.5
840.599	2181.5
841.034	3197.5
841.47	2533.5
841.906	1424.5
842.341	799.5
842.777	525.5
843.212	481.5
843.648	407.5
844.083	290.5
844.519	227.5
844.954	193.5
845.39	166.5
845.825	175.5
846.261	181.5
846.696	162.5
847.131	164.5
847.566	145.5
848.002	178.5
848.437	155.5
848.872	182.5
849.307	197.5
849.742	247.5
850.177	476.5
850.613	959.5
851.048	1069.5
851.483	643.5
851.918	395.5
852.353	261.5
852.788	189.5
853.223	147.5
853.657	163.5
854.092	141.5
854.527	149.5
854.962	156.5
855.397	165.5
855.832	162.5
856.266	143.5
856.701	163.5
857.136	146.5
857.57	152.5
858.005	180.5
858.44	177.5
858.874	157.5
859.309	175.5
859.743	169.5
860.178	152.5
860.612	133.5
861.047	173.5
861.481	229.5
861.915	229.5
862.35	177.5
862.784	169.5
863.218	143.5
863.653	154.5
864.087	151.5
864.521	163.5
864.955	211.5
865.39	328.5
865.824	327.5
866.258	324.5
866.692	478.5
867.126	438.5
867.56	310.5
867.994	217.5
868.428	178.5
868.862	198.5
869.296	194.5
869.73	199.5
870.164	186.5
870.598	204.5
871.031	154.5
871.465	142.5
871.899	118.5
872.333	121.5
872.766	120.5
873.2	119.5
873.634	129.5
874.067	113.5
874.501	119.5
874.935	136.5
875.368	137.5
875.802	126.5
876.235	116.5
876.669	118.5
877.102	118.5
877.535	120.5
877.969	104.5
878.402	119.5
878.836	114.5
879.269	121.5
879.702	130.5
880.135	115.5
880.569	136.5
881.002	130.5
881.435	104.5
881.868	105.5
882.301	110.5
882.734	124.5
883.167	107.5
883.601	133.5
884.034	126.5
884.467	120.5
884.899	103.5
885.332	103.5
885.765	105.5
886.198	119.5
886.631	101.5
887.064	101.5
887.497	122.5
887.929	100.5
888.362	118.5
888.795	105.5
889.228	102.5
889.66	113.5
890.093	109.5
890.526	107.5
890.958	112.5
891.391	91.5
891.823	111.5
892.256	103.5
892.688	99.5
893.121	99.5
893.553	123.5
893.985	112.5
894.418	118.5
894.85	98.5
895.282	100.5
895.715	105.5
896.147	115.5
896.579	105.5
897.011	104.5
897.444	105.5
897.876	101.5
898.308	109.5
898.74	104.5
899.172	101.5
899.604	102.5
900.036	111.5
900.468	102.5
900.9	88.5
901.332	123.5
901.764	128.5
902.196	120.5
902.628	106.5
903.06	103.5
903.491	119.5
903.923	134.5
904.355	122.5
904.787	118.5
905.218	123.5
905.65	123.5
906.082	112.5
906.513	120.5
906.945	107.5
907.376	107.5
907.808	103.5
908.239	113.5
908.671	118.5
909.102	118.5
909.534	132.5
909.965	149.5
910.397	260.5
910.828	635.5
911.259	659.5
911.691	439.5
912.122	314.5
912.553	184.5
912.984	139.5
913.415	129.5
913.847	123.5
914.278	102.5
914.709	103.5
915.14	120.5
915.571	85.5
916.002	111.5
916.433	118.5
916.864	103.5
917.295	102.5
917.726	97.5
918.157	126.5
918.587	113.5
919.018	101.5
919.449	118.5
919.88	125.5
920.311	130.5
920.741	161.5
921.172	327.5
921.603	263.5
922.033	192.5
922.464	174.5
922.895	121.5
923.325	103.5
923.756	119.5
924.186	94.5
924.617	115.5
925.047	141.5
925.478	141.5
925.908	136.5
926.338	110.5
926.769	119.5
927.199	111.5
927.629	110.5
928.06	111.5
928.49	111.5
928.92	95.5
929.35	101.5
929.78	106.5
930.21	108.5
930.641	92.5
931.071	91.5
931.501	95.5
931.931	98.5
932.361	99.5
932.791	106.5
933.221	112.5
933.651	100.5
934.08	110.5
934.51	101.5
934.94	95.5
935.37	102.5
935.8	102.5
936.229	87.5
936.659	92.5
937.089	95.5
937.519	115.5
937.948	138.5
938.378	126.5
938.807	109.5
939.237	100.5
939.666	96.5
940.096	81.5
940.525	70.5
940.955	90.5
941.384	90.5
941.814	90.5
942.243	73.5
942.672	91.5
943.102	97.5
943.531	92.5
943.96	81.5
944.39	80.5
944.819	92.5
945.248	96.5
945.677	80.5
946.106	68.5
946.535	85.5
946.964	109.5
947.393	85.5
947.822	73.5
948.251	81.5
948.68	86.5
949.109	76.5
949.538	89.5
949.967	84.5
950.396	93.5
950.825	86.5
951.254	80.5
951.682	77.5
952.111	66.5
952.54	87.5
952.969	94.5
953.397	89.5
953.826	86.5
954.254	81.5
954.683	107.5
955.112	88.5
955.54	91.5
955.969	82.5
956.397	82.5
956.826	84.5
957.254	79.5
957.682	73.5
958.111	77.5
958.539	93.5
958.967	87.5
959.396	103.5
959.824	63.5
960.252	82.5
960.68	77.5
961.109	103.5
961.537	91.5
961.965	72.5
962.393	80.5
962.821	72.5
963.249	88.5
963.677	77.5
964.105	99.5
964.533	164.5
964.961	122.5
965.389	135.5
965.817	99.5
966.245	94.5
966.672	88.5
967.1	83.5
967.528	77.5
967.956	69.5
968.383	100.5
968.811	77.5
969.239	87.5
969.666	80.5
970.094	74.5
970.522	86.5
970.949	86.5
971.377	101.5
971.804	83.5
972.232	84.5
972.659	85.5
973.087	99.5
973.514	80.5
973.941	87.5
974.369	82.5
974.796	85.5
975.223	91.5
975.651	94.5
976.078	79.5
976.505	93.5
976.932	93.5
977.359	108.5
977.786	92.5
978.214	99.5
978.641	90.5
979.068	87.5
979.495	74.5
979.922	79.5
980.349	69.5
980.776	78.5
981.202	95.5
981.629	65.5
982.056	76.5
982.483	76.5
982.91	87.5
983.337	91.5
983.763	78.5
984.19	84.5
984.617	90.5
985.043	82.5
985.47	74.5
985.897	65.5
986.323	69.5
986.75	77.5
987.176	78.5
987.603	99.5
988.029	97.5
988.456	88.5
988.882	90.5
989.308	68.5
989.735	78.5
990.161	90.5
990.587	90.5
991.014	85.5
991.44	87.5
991.866	70.5
992.292	92.5
992.719	101.5
993.145	87.5
993.571	90.5
993.997	91.5
994.423	65.5
994.849	77.5
995.275	72.5
995.701	92.5
996.127	80.5
996.553	75.5
996.979	78.5
997.405	75.5
997.83	75.5
998.256	76.5
998.682	89.5
999.108	83.5
999.534	96.5
999.959	95.5
1000.385	78.5
1000.811	79.5
1001.236	93.5
1001.662	76.5
1002.087	83.5
1002.513	64.5
1002.938	85.5
1003.364	84.5
1003.789	83.5
1004.215	82.5
1004.64	88.5
1005.066	99.5
1005.491	87.5
1005.916	76.5
1006.342	92.5
1006.767	101.5
1007.192	85.5
1007.617	89.5
1008.042	92.5
1008.468	86.5
1008.893	78.5
1009.318	92.5
1009.743	98.5
1010.168	99.5
1010.593	95.5
1011.018	91.5
1011.443	100.5
1011.868	80.5
1012.293	79.5
1012.718	80.5
1013.143	89.5
1013.567	79.5
1013.992	76.5
1014.417	86.5
1014.842	80.5
1015.267	97.5
1015.691	73.5
1016.116	68.5
1016.541	71.5
1016.965	80.5
1017.39	76.5
1017.814	61.5
1018.239	85.5
1018.663	69.5
1019.088	95.5
1019.512	82.5
1019.937	85.5
1020.361	90.5
1020.785	70.5
1021.21	92.5
1021.634	82.5
1022.058	74.5
1022.483	79.5
1022.907	78.5
1023.331	72.5
1023.755	70.5
1024.179	81.5
1024.604	73.5
1025.028	83.5
1025.452	69.5
1025.876	78.5
1026.3	87.5
1026.724	69.5
1027.148	84.5
1027.572	85.5
1027.996	81.5
1028.42	68.5
1028.843	75.5
1029.267	80.5
1029.691	75.5
1030.115	70.5
1030.539	85.5
1030.962	71.5
1031.386	87.5
1031.81	87.5
1032.233	76.5
1032.657	80.5
1033.08	73.5
1033.504	69.5
1033.927	65.5
1034.351	81.5
1034.774	75.5
1035.198	96.5
1035.621	92.5
1036.045	104.5
1036.468	80.5
1036.891	80.5
1037.315	78.5
1037.738	81.5
1038.161	85.5
1038.584	70.5
1039.008	92.5
1039.431	77.5
1039.854	63.5
1040.277	94.5
1040.7	86.5
1041.123	77.5
1041.546	75.5
1041.969	54.5
1042.392	90.5
1042.815	88.5
1043.238	70.5
1043.661	89.5
1044.084	78.5
1044.507	92.5
1044.93	73.5
1045.352	76.5
1045.775	81.5
1046.198	73.5
1046.621	76.5
1047.043	76.5
1047.466	63.5
1047.889	75.5
1048.311	85.5
1048.734	74.5
1049.156	65.5
1049.579	79.5
1050.001	78.5
1050.424	81.5
1050.846	91.5
1051.269	93.5
1051.691	59.5
1052.113	83.5
1052.536	78.5
1052.958	84.5
1053.38	85.5
1053.802	79.5
1054.225	91.5
1054.647	83.5
1055.069	91.5
1055.491	75.5
1055.913	83.5
1056.335	85.5
1056.757	87.5
1057.179	73.5
1057.601	70.5
1058.023	77.5
1058.445	82.5
1058.867	87.5
1059.289	78.5
1059.711	78.5
1060.133	77.5
1060.555	82.5
1060.976	85.5
1061.398	94.5
1061.82	76.5
1062.241	72.5
1062.663	69.5
1063.085	77.5
1063.506	74.5
1063.928	94.5
1064.35	73.5
1064.771	87.5
1065.193	78.5
1065.614	69.5
1066.035	76.5
1066.457	68.5
1066.878	69.5
1067.3	89.5
1067.721	66.5
1068.142	57.5
1068.564	74.5
1068.985	70.5
1069.406	72.5
1069.827	71.5
1070.248	77.5
1070.67	77.5
1071.091	64.5
1071.512	77.5
1071.933	85.5
1072.354	95.5
1072.775	96.5
1073.196	75.5
1073.617	83.5
1074.038	72.5
1074.459	84.5
1074.88	69.5
1075.3	78.5
1075.721	76.5
1076.142	78.5
1076.563	78.5
1076.983	76.5
1077.404	79.5
1077.825	91.5
1078.246	87.5
1078.666	78.5
1079.087	64.5
1079.507	68.5
1079.928	69.5
1080.348	79.5
1080.769	92.5
1081.189	65.5
1081.61	83.5
1082.03	88.5
1082.451	77.5
1082.871	91.5
1083.291	74.5
1083.711	75.5
1084.132	85.5
1084.552	84.5
1084.972	86.5
1085.392	84.5
1085.813	62.5
1086.233	67.5
1086.653	74.5
1087.073	86.5
1087.493	77.5
1087.913	69.5
1088.333	74.5
1088.753	74.5
1089.173	75.5
1089.593	88.5
1090.013	72.5
1090.433	76.5
1090.852	95.5
1091.272	69.5
1091.692	76.5
1092.112	55.5
1092.531	89.5
1092.951	88.5
1093.371	94.5
1093.79	66.5
1094.21	85.5
1094.63	83.5
1095.049	79.5
1095.469	78.5
1095.888	79.5
1096.308	74.5
1096.727	100.5
1097.146	85.5
1097.566	70.5
1097.985	87.5
1098.405	86.5
1098.824	68.5
1099.243	82.5
1099.662	99.5
1100.082	78.5
1100.501	82.5
1100.92	73.5
1101.339	85.5
1101.758	73.5
