Data from 20170802-ORNL-NYSim-Air_HRD10391_10-36-37-614.txt Node
Date: Wed Aug 02 10:36:37 EDT 2017
User: Ender
Spectrometer: HR+D1039
Trigger mode: 0
Integration Time (sec): 3.750000E-3
Scans to average: 1
Electric dark correction enabled: true
Nonlinearity correction enabled: false
Boxcar width: 0
XAxis mode: Wavelengths
Number of Pixels in Spectrum: 2048
>>>>>Begin Spectral Data<<<<<
187.836	19.06
188.309	19.06
188.782	19.06
189.255	13.06
189.728	-6.94
190.201	-16.94
190.674	-17.94
191.147	5.06
191.619	1.06
192.092	7.06
192.565	-12.94
193.038	-12.94
193.511	0.06
193.984	4.06
194.456	-14.94
194.929	0.06
195.402	13.06
195.874	20.06
196.347	9.06
196.82	28.06
197.292	29.06
197.765	32.06
198.237	45.06
198.71	49.06
199.182	36.06
199.655	50.06
200.127	45.06
200.6	63.06
201.072	57.06
201.544	67.06
202.017	56.06
202.489	57.06
202.961	63.06
203.433	55.06
203.906	70.06
204.378	97.06
204.85	88.06
205.322	77.06
205.794	74.06
206.266	83.06
206.739	87.06
207.211	78.06
207.683	93.06
208.155	82.06
208.627	82.06
209.099	80.06
209.57	88.06
210.042	86.06
210.514	97.06
210.986	83.06
211.458	73.06
211.93	75.06
212.402	83.06
212.873	89.06
213.345	79.06
213.817	65.06
214.288	93.06
214.76	67.06
215.232	84.06
215.703	94.06
216.175	76.06
216.646	94.06
217.118	83.06
217.589	87.06
218.061	91.06
218.532	72.06
219.004	85.06
219.475	73.06
219.946	77.06
220.418	71.06
220.889	79.06
221.36	88.06
221.832	83.06
222.303	84.06
222.774	86.06
223.245	76.06
223.717	87.06
224.188	81.06
224.659	77.06
225.13	84.06
225.601	72.06
226.072	69.06
226.543	99.06
227.014	89.06
227.485	91.06
227.956	87.06
228.427	87.06
228.898	84.06
229.369	76.06
229.839	84.06
230.31	85.06
230.781	73.06
231.252	75.06
231.722	96.06
232.193	91.06
232.664	91.06
233.135	92.06
233.605	78.06
234.076	93.06
234.546	97.06
235.017	105.06
235.487	90.06
235.958	96.06
236.428	81.06
236.899	89.06
237.369	75.06
237.84	64.06
238.31	95.06
238.78	93.06
239.251	89.06
239.721	88.06
240.191	92.06
240.662	97.06
241.132	88.06
241.602	91.06
242.072	99.06
242.542	98.06
243.013	78.06
243.483	98.06
243.953	95.06
244.423	101.06
244.893	88.06
245.363	97.06
245.833	101.06
246.303	98.06
246.773	108.06
247.243	90.06
247.712	98.06
248.182	101.06
248.652	79.06
249.122	105.06
249.592	100.06
250.061	96.06
250.531	87.06
251.001	94.06
251.471	97.06
251.94	105.06
252.41	112.06
252.879	101.06
253.349	111.06
253.818	114.06
254.288	104.06
254.757	118.06
255.227	102.06
255.696	102.06
256.166	100.06
256.635	95.06
257.105	101.06
257.574	107.06
258.043	114.06
258.513	113.06
258.982	102.06
259.451	109.06
259.92	103.06
260.389	118.06
260.859	112.06
261.328	117.06
261.797	109.06
262.266	119.06
262.735	118.06
263.204	123.06
263.673	107.06
264.142	113.06
264.611	110.06
265.08	118.06
265.549	122.06
266.018	112.06
266.487	123.06
266.955	114.06
267.424	109.06
267.893	118.06
268.362	117.06
268.83	127.06
269.299	126.06
269.768	122.06
270.236	134.06
270.705	129.06
271.174	139.06
271.642	131.06
272.111	126.06
272.579	133.06
273.048	137.06
273.516	138.06
273.985	132.06
274.453	120.06
274.922	123.06
275.39	121.06
275.858	138.06
276.327	126.06
276.795	138.06
277.263	135.06
277.731	124.06
278.2	112.06
278.668	141.06
279.136	142.06
279.604	146.06
280.072	146.06
280.54	137.06
281.008	143.06
281.477	140.06
281.945	145.06
282.413	157.06
282.881	135.06
283.348	150.06
283.816	141.06
284.284	154.06
284.752	159.06
285.22	135.06
285.688	163.06
286.156	140.06
286.623	155.06
287.091	153.06
287.559	143.06
288.026	156.06
288.494	171.06
288.962	154.06
289.429	153.06
289.897	147.06
290.364	157.06
290.832	161.06
291.3	158.06
291.767	160.06
292.234	146.06
292.702	153.06
293.169	173.06
293.637	157.06
294.104	174.06
294.571	164.06
295.039	178.06
295.506	174.06
295.973	168.06
296.44	180.06
296.908	178.06
297.375	183.06
297.842	160.06
298.309	173.06
298.776	192.06
299.243	191.06
299.71	148.06
300.177	165.06
300.644	184.06
301.111	182.06
301.578	186.06
302.045	186.06
302.512	191.06
302.979	192.06
303.446	188.06
303.913	201.06
304.379	200.06
304.846	186.06
305.313	215.06
305.78	207.06
306.246	191.06
306.713	200.06
307.18	193.06
307.646	203.06
308.113	207.06
308.579	232.06
309.046	208.06
309.512	198.06
309.979	218.06
310.445	230.06
310.912	227.06
311.378	213.06
311.845	225.06
312.311	215.06
312.777	217.06
313.244	225.06
313.71	204.06
314.176	242.06
314.642	222.06
315.109	228.06
315.575	239.06
316.041	225.06
316.507	241.06
316.973	235.06
317.439	212.06
317.905	233.06
318.371	231.06
318.837	234.06
319.303	241.06
319.769	232.06
320.235	234.06
320.701	254.06
321.167	235.06
321.633	236.06
322.099	258.06
322.564	241.06
323.03	277.06
323.496	271.06
323.962	259.06
324.427	261.06
324.893	270.06
325.359	253.06
325.824	260.06
326.29	240.06
326.755	265.06
327.221	293.06
327.686	268.06
328.152	288.06
328.617	278.06
329.083	283.06
329.548	285.06
330.014	289.06
330.479	295.06
330.944	266.06
331.41	281.06
331.875	310.06
332.34	284.06
332.805	304.06
333.271	277.06
333.736	302.06
334.201	287.06
334.666	322.06
335.131	327.06
335.596	311.06
336.061	296.06
336.526	297.06
336.991	283.06
337.456	321.06
337.921	292.06
338.386	309.06
338.851	288.06
339.316	315.06
339.781	303.06
340.246	312.06
340.711	302.06
341.175	330.06
341.64	330.06
342.105	315.06
342.569	330.06
343.034	339.06
343.499	337.06
343.963	326.06
344.428	337.06
344.893	348.06
345.357	359.06
345.822	349.06
346.286	366.06
346.751	361.06
347.215	353.06
347.679	375.06
348.144	386.06
348.608	385.06
349.073	390.06
349.537	390.06
350.001	407.06
350.465	427.06
350.93	411.06
351.394	382.06
351.858	420.06
352.322	396.06
352.786	410.06
353.25	431.06
353.715	403.06
354.179	421.06
354.643	449.06
355.107	469.06
355.571	458.06
356.035	423.06
356.498	411.06
356.962	452.06
357.426	462.06
357.89	438.06
358.354	423.06
358.818	425.06
359.281	425.06
359.745	453.06
360.209	445.06
360.673	464.06
361.136	445.06
361.6	417.06
362.064	443.06
362.527	457.06
362.991	450.06
363.454	456.06
363.918	435.06
364.381	450.06
364.845	485.06
365.308	459.06
365.772	468.06
366.235	450.06
366.698	465.06
367.162	467.06
367.625	463.06
368.088	469.06
368.552	478.06
369.015	475.06
369.478	478.06
369.941	511.06
370.404	521.06
370.867	496.06
371.331	490.06
371.794	505.06
372.257	503.06
372.72	515.06
373.183	512.06
373.646	518.06
374.109	532.06
374.572	522.06
375.035	533.06
375.497	541.06
375.96	531.06
376.423	559.06
376.886	550.06
377.349	540.06
377.811	555.06
378.274	549.06
378.737	563.06
379.199	578.06
379.662	567.06
380.125	576.06
380.587	577.06
381.05	575.06
381.512	584.06
381.975	557.06
382.437	579.06
382.9	595.06
383.362	584.06
383.825	609.06
384.287	635.06
384.75	633.06
385.212	598.06
385.674	622.06
386.136	616.06
386.599	631.06
387.061	670.06
387.523	640.06
387.985	638.06
388.447	649.06
388.91	648.06
389.372	641.06
389.834	636.06
390.296	661.06
390.758	683.06
391.22	661.06
391.682	657.06
392.144	678.06
392.606	676.06
393.068	672.06
393.529	718.06
393.991	735.06
394.453	696.06
394.915	663.06
395.377	675.06
395.838	689.06
396.3	680.06
396.762	679.06
397.224	695.06
397.685	676.06
398.147	655.06
398.608	677.06
399.07	682.06
399.531	715.06
399.993	695.06
400.454	736.06
400.916	763.06
401.377	765.06
401.839	723.06
402.3	757.06
402.762	782.06
403.223	829.06
403.684	838.06
404.145	799.06
404.607	781.06
405.068	777.06
405.529	812.06
405.99	815.06
406.451	780.06
406.913	828.06
407.374	785.06
407.835	790.06
408.296	817.06
408.757	805.06
409.218	840.06
409.679	870.06
410.14	839.06
410.601	838.06
411.062	875.06
411.522	877.06
411.983	879.06
412.444	887.06
412.905	917.06
413.366	942.06
413.826	974.06
414.287	1079.06
414.748	1221.06
415.208	1317.06
415.669	1098.06
416.13	995.06
416.59	979.06
417.051	1063.06
417.511	1075.06
417.972	1156.06
418.432	1243.06
418.893	1389.06
419.353	1301.06
419.814	1015.06
420.274	919.06
420.734	883.06
421.195	951.06
421.655	937.06
422.115	950.06
422.576	954.06
423.036	939.06
423.496	985.06
423.956	1032.06
424.416	1071.06
424.876	1189.06
425.336	1198.06
425.797	1210.06
426.257	1172.06
426.717	1130.06
427.177	1059.06
427.637	1041.06
428.097	1068.06
428.556	1101.06
429.016	1187.06
429.476	1203.06
429.936	1179.06
430.396	1167.06
430.856	1243.06
431.315	1252.06
431.775	1314.06
432.235	1407.06
432.694	1441.06
433.154	1318.06
433.614	1325.06
434.073	1272.06
434.533	1127.06
434.993	1122.06
435.452	1126.06
435.912	1077.06
436.371	1101.06
436.83	1085.06
437.29	1084.06
437.749	1057.06
438.209	1074.06
438.668	1038.06
439.127	1108.06
439.587	1081.06
440.046	1028.06
440.505	1123.06
440.964	1059.06
441.424	1127.06
441.883	1135.06
442.342	1058.06
442.801	1057.06
443.26	1021.06
443.719	1062.06
444.178	1014.06
444.637	1033.06
445.096	1050.06
445.555	1062.06
446.014	1045.06
446.473	1033.06
446.932	1064.06
447.391	1047.06
447.849	1088.06
448.308	1039.06
448.767	1063.06
449.226	1083.06
449.685	1105.06
450.143	1129.06
450.602	1145.06
451.061	1070.06
451.519	1097.06
451.978	1095.06
452.436	1087.06
452.895	1074.06
453.353	1086.06
453.812	1083.06
454.27	1088.06
454.729	1097.06
455.187	1077.06
455.646	1096.06
456.104	1138.06
456.562	1146.06
457.021	1161.06
457.479	1106.06
457.937	1127.06
458.395	1146.06
458.854	1121.06
459.312	1108.06
459.77	1110.06
460.228	1128.06
460.686	1162.06
461.144	1150.06
461.602	1137.06
462.06	1137.06
462.518	1200.06
462.976	1168.06
463.434	1195.06
463.892	1210.06
464.35	1203.06
464.808	1226.06
465.266	1232.06
465.724	1241.06
466.181	1266.06
466.639	1242.06
467.097	1287.06
467.555	1367.06
468.012	1327.06
468.47	1375.06
468.928	1411.06
469.385	1379.06
469.843	1472.06
470.3	1433.06
470.758	1492.06
471.215	1484.06
471.673	1527.06
472.13	1563.06
472.588	1593.06
473.045	1580.06
473.503	1613.06
473.96	1673.06
474.417	1762.06
474.875	1720.06
475.332	1839.06
475.789	1869.06
476.246	1936.06
476.704	1975.06
477.161	2005.06
477.618	2079.06
478.075	2157.06
478.532	2323.06
478.989	2437.06
479.446	2699.06
479.903	2750.06
480.36	3060.06
480.817	3191.06
481.274	3345.06
481.731	3683.06
482.188	3852.06
482.645	4123.06
483.102	4433.06
483.558	4698.06
484.015	4920.06
484.472	4871.06
484.929	4805.06
485.385	4623.06
485.842	4518.06
486.299	4371.06
486.755	4121.06
487.212	3674.06
487.668	3399.06
488.125	3194.06
488.582	2947.06
489.038	2845.06
489.494	2727.06
489.951	2728.06
490.407	2659.06
490.864	2595.06
491.32	2558.06
491.776	2521.06
492.233	2521.06
492.689	2511.06
493.145	2453.06
493.602	2439.06
494.058	2458.06
494.514	2435.06
494.97	2533.06
495.426	2499.06
495.882	2549.06
496.338	2515.06
496.794	2537.06
497.251	2510.06
497.707	2511.06
498.163	2537.06
498.618	2571.06
499.074	2523.06
499.53	2566.06
499.986	2570.06
500.442	2608.06
500.898	2565.06
501.354	2569.06
501.809	2602.06
502.265	2541.06
502.721	2556.06
503.177	2577.06
503.632	2623.06
504.088	2604.06
504.543	2672.06
504.999	2688.06
505.455	2679.06
505.91	2704.06
506.366	2670.06
506.821	2644.06
507.277	2642.06
507.732	2662.06
508.187	2642.06
508.643	2617.06
509.098	2672.06
509.553	2713.06
510.009	2717.06
510.464	2741.06
510.919	2845.06
511.375	2875.06
511.83	2881.06
512.285	2864.06
512.74	2936.06
513.195	2988.06
513.65	3051.06
514.105	3139.06
514.56	3065.06
515.015	3199.06
515.47	3145.06
515.925	3143.06
516.38	3130.06
516.835	3126.06
517.29	3100.06
517.745	3142.06
518.2	3098.06
518.655	3104.06
519.109	3012.06
519.564	3022.06
520.019	2991.06
520.474	2937.06
520.928	2953.06
521.383	2877.06
521.838	2922.06
522.292	2928.06
522.747	2801.06
523.201	2837.06
523.656	2802.06
524.11	2789.06
524.565	2807.06
525.019	2793.06
525.474	2814.06
525.928	2810.06
526.382	2820.06
526.837	2783.06
527.291	2808.06
527.745	2796.06
528.2	2753.06
528.654	2786.06
529.108	2734.06
529.562	2753.06
530.016	2717.06
530.47	2763.06
530.925	2802.06
531.379	2761.06
531.833	2822.06
532.287	2743.06
532.741	2770.06
533.195	2797.06
533.649	2743.06
534.103	2773.06
534.556	2799.06
535.01	2793.06
535.464	2755.06
535.918	2839.06
536.372	2746.06
536.826	2770.06
537.279	2755.06
537.733	2785.06
538.187	2793.06
538.64	2822.06
539.094	2759.06
539.548	2877.06
540.001	2851.06
540.455	2830.06
540.908	2875.06
541.362	2888.06
541.815	2866.06
542.269	2937.06
542.722	2945.06
543.175	2971.06
543.629	2969.06
544.082	3049.06
544.536	3044.06
544.989	3020.06
545.442	3093.06
545.895	3116.06
546.349	3089.06
546.802	3101.06
547.255	3106.06
547.708	3063.06
548.161	3149.06
548.614	3077.06
549.067	3215.06
549.52	3179.06
549.973	3088.06
550.426	3075.06
550.879	3016.06
551.332	3107.06
551.785	3067.06
552.238	3132.06
552.691	3121.06
553.144	3177.06
553.596	3209.06
554.049	3263.06
554.502	3335.06
554.955	3361.06
555.407	3414.06
555.86	3381.06
556.313	3402.06
556.765	3344.06
557.218	3271.06
557.67	3297.06
558.123	3267.06
558.576	3199.06
559.028	3276.06
559.48	3261.06
559.933	3263.06
560.385	3171.06
560.838	3024.06
561.29	2967.06
561.742	2956.06
562.195	2859.06
562.647	2933.06
563.099	2915.06
563.551	2874.06
564.004	2904.06
564.456	2851.06
564.908	2827.06
565.36	2775.06
565.812	2683.06
566.264	2662.06
566.716	2643.06
567.168	2518.06
567.62	2640.06
568.072	2597.06
568.524	2580.06
568.976	2523.06
569.428	2500.06
569.88	2545.06
570.332	2529.06
570.784	2568.06
571.235	2554.06
571.687	2535.06
572.139	2600.06
572.59	2588.06
573.042	2593.06
573.494	2625.06
573.945	2591.06
574.397	2475.06
574.849	2518.06
575.3	2470.06
575.752	2486.06
576.203	2472.06
576.655	2474.06
577.106	2452.06
577.557	2427.06
578.009	2406.06
578.46	2432.06
578.912	2378.06
579.363	2397.06
579.814	2353.06
580.265	2403.06
580.717	2379.06
581.168	2409.06
581.619	2421.06
582.07	2419.06
582.521	2442.06
582.972	2424.06
583.423	2407.06
583.875	2364.06
584.326	2455.06
584.777	2482.06
585.227	2576.06
585.678	2553.06
586.129	2603.06
586.58	2580.06
587.031	2639.06
587.482	2689.06
587.933	2711.06
588.384	2777.06
588.834	2713.06
589.285	2706.06
589.736	2755.06
590.186	2700.06
590.637	2685.06
591.088	2683.06
591.538	2625.06
591.989	2605.06
592.439	2535.06
592.89	2519.06
593.34	2461.06
593.791	2563.06
594.241	2459.06
594.692	2451.06
595.142	2452.06
595.593	2457.06
596.043	2440.06
596.493	2515.06
596.943	2439.06
597.394	2551.06
597.844	2524.06
598.294	2658.06
598.744	2699.06
599.195	2831.06
599.645	2929.06
600.095	3109.06
600.545	3223.06
600.995	3333.06
601.445	3503.06
601.895	3659.06
602.345	3695.06
602.795	3738.06
603.245	3569.06
603.695	3443.06
604.145	3258.06
604.594	3147.06
605.044	2969.06
605.494	2780.06
605.944	2685.06
606.393	2559.06
606.843	2504.06
607.293	2477.06
607.743	2500.06
608.192	2534.06
608.642	2506.06
609.091	2485.06
609.541	2488.06
609.99	2539.06
610.44	2493.06
610.889	2423.06
611.339	2390.06
611.788	2321.06
612.238	2366.06
612.687	2378.06
613.136	2388.06
613.586	2417.06
614.035	2413.06
614.484	2424.06
614.933	2443.06
615.383	2422.06
615.832	2366.06
616.281	2317.06
616.73	2295.06
617.179	2204.06
617.628	2185.06
618.077	2166.06
618.526	2119.06
618.975	2095.06
619.424	2103.06
619.873	2067.06
620.322	2018.06
620.771	2045.06
621.22	2010.06
621.669	1940.06
622.118	1948.06
622.567	1944.06
623.015	1910.06
623.464	1911.06
623.913	1885.06
624.361	1866.06
624.81	1866.06
625.259	1877.06
625.707	1882.06
626.156	1866.06
626.604	1896.06
627.053	1891.06
627.501	1896.06
627.95	1919.06
628.398	1933.06
628.847	1931.06
629.295	1822.06
629.744	1867.06
630.192	1864.06
630.64	1850.06
631.089	1832.06
631.537	1756.06
631.985	1736.06
632.433	1767.06
632.881	1772.06
633.33	1718.06
633.778	1709.06
634.226	1725.06
634.674	1765.06
635.122	1750.06
635.57	1795.06
636.018	1804.06
636.466	1805.06
636.914	1832.06
637.362	1864.06
637.81	1876.06
638.258	1963.06
638.705	1947.06
639.153	2034.06
639.601	2044.06
640.049	2096.06
640.497	2083.06
640.944	2140.06
641.392	2122.06
641.84	1994.06
642.287	1911.06
642.735	1903.06
643.182	1839.06
643.63	1874.06
644.078	1838.06
644.525	1923.06
644.973	1941.06
645.42	1882.06
645.867	2000.06
646.315	1993.06
646.762	2053.06
647.21	2165.06
647.657	2237.06
648.104	2325.06
648.551	2352.06
648.999	2441.06
649.446	2651.06
649.893	2881.06
650.34	3269.06
650.787	3865.06
651.234	4839.06
651.682	6435.06
652.129	8717.06
652.576	12355.06
653.023	15698.06
653.47	15698.06
653.917	15698.06
654.363	15698.06
654.81	15698.06
655.257	15698.06
655.704	15698.06
656.151	12443.06
656.598	8034.06
657.044	5831.06
657.491	4485.06
657.938	3709.06
658.385	3203.06
658.831	2819.06
659.278	2534.06
659.724	2255.06
660.171	2181.06
660.618	2013.06
661.064	1935.06
661.511	1851.06
661.957	1832.06
662.404	1792.06
662.85	1774.06
663.296	1678.06
663.743	1687.06
664.189	1683.06
664.635	1661.06
665.082	1711.06
665.528	1633.06
665.974	1577.06
666.42	1548.06
666.867	1570.06
667.313	1481.06
667.759	1483.06
668.205	1485.06
668.651	1414.06
669.097	1437.06
669.543	1469.06
669.989	1496.06
670.435	1459.06
670.881	1493.06
671.327	1513.06
671.773	1603.06
672.219	1730.06
672.665	1855.06
673.11	1899.06
673.556	1910.06
674.002	1973.06
674.448	2032.06
674.893	1842.06
675.339	1568.06
675.785	1417.06
676.23	1350.06
676.676	1320.06
677.122	1299.06
677.567	1231.06
678.013	1218.06
678.458	1183.06
678.904	1184.06
679.349	1197.06
679.794	1141.06
680.24	1175.06
680.685	1146.06
681.131	1119.06
681.576	1123.06
682.021	1149.06
682.466	1180.06
682.912	1174.06
683.357	1192.06
683.802	1279.06
684.247	1379.06
684.692	1511.06
685.137	1590.06
685.583	1589.06
686.028	1659.06
686.473	1650.06
686.918	1470.06
687.363	1364.06
687.807	1281.06
688.252	1165.06
688.697	1166.06
689.142	1127.06
689.587	1121.06
690.032	1118.06
690.477	1150.06
690.921	1226.06
691.366	1312.06
691.811	1321.06
692.255	1405.06
692.7	1558.06
693.145	2082.06
693.589	3223.06
694.034	4252.06
694.478	4809.06
694.923	4449.06
695.367	5451.06
695.812	4971.06
696.256	1969.06
696.701	1304.06
697.145	1150.06
697.59	1119.06
698.034	1061.06
698.478	1064.06
698.922	1109.06
699.367	1106.06
699.811	1159.06
700.255	1197.06
700.699	1315.06
701.143	1403.06
701.588	1545.06
702.032	1573.06
702.476	1619.06
702.92	1678.06
703.364	1934.06
703.808	2886.06
704.252	4059.06
704.696	4451.06
705.14	4215.06
705.584	5343.06
706.027	4249.06
706.471	1951.06
706.915	1381.06
707.359	1188.06
707.803	1085.06
708.246	1028.06
708.69	1025.06
709.134	1046.06
709.577	1020.06
710.021	1014.06
710.465	1037.06
710.908	1004.06
711.352	1024.06
711.795	1086.06
712.239	1225.06
712.682	1266.06
713.126	1259.06
713.569	1349.06
714.012	1269.06
714.456	1047.06
714.899	976.06
715.342	913.06
715.786	903.06
716.229	824.06
716.672	877.06
717.115	853.06
717.558	863.06
718.002	875.06
718.445	904.06
718.888	932.06
719.331	948.06
719.774	983.06
720.217	976.06
720.66	975.06
721.103	878.06
721.546	878.06
721.989	835.06
722.432	831.06
722.874	823.06
723.317	790.06
723.76	865.06
724.203	979.06
724.645	1265.06
725.088	1542.06
725.531	1674.06
725.974	1669.06
726.416	1735.06
726.859	1163.06
727.301	871.06
727.744	795.06
728.187	821.06
728.629	801.06
729.071	847.06
729.514	875.06
729.956	943.06
730.399	932.06
730.841	955.06
731.283	925.06
731.726	921.06
732.168	897.06
732.61	906.06
733.053	958.06
733.495	1065.06
733.937	1161.06
734.379	1351.06
734.821	1567.06
735.263	2260.06
735.705	3903.06
736.148	6472.06
736.59	7437.06
737.032	7078.06
737.474	7565.06
737.916	3517.06
738.357	1721.06
738.799	1171.06
739.241	1041.06
739.683	1002.06
740.125	1059.06
740.567	1047.06
741.008	1049.06
741.45	1188.06
741.892	1201.06
742.334	1227.06
742.775	1205.06
743.217	1259.06
743.658	1107.06
744.1	1012.06
744.542	1126.06
744.983	1269.06
745.425	1275.06
745.866	1380.06
746.307	1129.06
746.749	1057.06
747.19	1305.06
747.632	2193.06
748.073	4307.06
748.514	6827.06
748.956	8283.06
749.397	11229.06
749.838	9145.06
750.279	7336.06
750.72	5529.06
751.162	2414.06
751.603	1239.06
752.044	923.06
752.485	789.06
752.926	760.06
753.367	749.06
753.808	687.06
754.249	664.06
754.69	677.06
755.131	660.06
755.572	684.06
756.013	679.06
756.453	675.06
756.894	669.06
757.335	683.06
757.776	683.06
758.216	687.06
758.657	722.06
759.098	774.06
759.538	911.06
759.979	1127.06
760.42	1799.06
760.86	4203.06
761.301	10015.06
761.741	14709.06
762.182	14947.06
762.622	14280.06
763.063	6542.06
763.503	2458.06
763.943	1243.06
764.384	933.06
764.824	798.06
765.264	751.06
765.705	714.06
766.145	690.06
766.585	656.06
767.025	644.06
767.465	622.06
767.906	616.06
768.346	674.06
768.786	745.06
769.226	895.06
769.666	1475.06
770.106	3278.06
770.546	6019.06
770.986	6401.06
771.426	6307.06
771.866	3436.06
772.306	1471.06
772.745	861.06
773.185	668.06
773.625	589.06
774.065	613.06
774.505	769.06
774.944	1242.06
775.384	2044.06
775.824	2363.06
776.263	2331.06
776.703	1597.06
777.142	885.06
777.582	583.06
778.021	504.06
778.461	503.06
778.9	461.06
779.34	467.06
779.779	449.06
780.219	459.06
780.658	450.06
781.097	453.06
781.537	455.06
781.976	404.06
782.415	423.06
782.855	433.06
783.294	428.06
783.733	429.06
784.172	434.06
784.611	421.06
785.05	419.06
785.489	445.06
785.928	454.06
786.367	462.06
786.806	460.06
787.245	499.06
787.684	521.06
788.123	545.06
788.562	552.06
789.001	483.06
789.44	493.06
789.879	472.06
790.317	465.06
790.756	490.06
791.195	541.06
791.634	624.06
792.072	915.06
792.511	1979.06
792.95	4453.06
793.388	5739.06
793.827	5020.06
794.265	2741.06
794.704	1308.06
795.142	743.06
795.581	578.06
796.019	505.06
796.458	526.06
796.896	499.06
797.334	535.06
797.773	624.06
798.211	1004.06
798.649	2083.06
799.087	3502.06
799.526	5612.06
799.964	6262.06
800.402	5128.06
800.84	2866.06
801.278	1460.06
801.716	799.06
802.154	596.06
802.592	531.06
803.03	539.06
803.468	549.06
803.906	552.06
804.344	562.06
804.782	537.06
805.22	538.06
805.658	538.06
806.096	581.06
806.533	615.06
806.971	688.06
807.409	899.06
807.847	1495.06
808.284	3603.06
808.722	7183.06
809.16	10127.06
809.597	13929.06
810.035	15698.06
810.472	15129.06
810.91	8423.06
811.347	3901.06
811.785	1793.06
812.222	1050.06
812.66	774.06
813.097	632.06
813.535	588.06
813.972	521.06
814.409	479.06
814.846	454.06
815.284	446.06
815.721	413.06
816.158	455.06
816.595	549.06
817.032	724.06
817.47	770.06
817.907	619.06
818.344	524.06
818.781	464.06
819.218	529.06
819.655	696.06
820.092	927.06
820.529	1015.06
820.966	843.06
821.403	645.06
821.839	540.06
822.276	488.06
822.713	558.06
823.15	569.06
823.587	574.06
824.023	723.06
824.46	1639.06
824.897	3083.06
825.333	3310.06
825.77	1935.06
826.206	1087.06
826.643	621.06
827.08	458.06
827.516	369.06
827.953	361.06
828.389	334.06
828.825	325.06
829.262	302.06
829.698	301.06
830.135	304.06
830.571	307.06
831.007	299.06
831.443	283.06
831.88	276.06
832.316	312.06
832.752	292.06
833.188	294.06
833.624	289.06
834.06	313.06
834.497	315.06
834.933	324.06
835.369	317.06
835.805	331.06
836.241	337.06
836.677	355.06
837.112	410.06
837.548	443.06
837.984	585.06
838.42	1008.06
838.856	2605.06
839.292	5613.06
839.727	6137.06
840.163	3983.06
840.599	4738.06
841.034	7026.06
841.47	5547.06
841.906	2973.06
842.341	1617.06
842.777	1001.06
843.212	922.06
843.648	759.06
844.083	547.06
844.519	411.06
844.954	355.06
845.39	303.06
845.825	295.06
846.261	256.06
846.696	258.06
847.131	272.06
847.566	257.06
848.002	279.06
848.437	264.06
848.872	288.06
849.307	323.06
849.742	413.06
850.177	936.06
850.613	2043.06
851.048	2227.06
851.483	1249.06
851.918	771.06
852.353	448.06
852.788	301.06
853.223	263.06
853.657	242.06
854.092	251.06
854.527	235.06
854.962	240.06
855.397	264.06
855.832	262.06
856.266	216.06
856.701	223.06
857.136	223.06
857.57	240.06
858.005	281.06
858.44	258.06
858.874	259.06
859.309	263.06
859.743	249.06
860.178	265.06
860.612	263.06
861.047	294.06
861.481	412.06
861.915	383.06
862.35	318.06
862.784	241.06
863.218	212.06
863.653	216.06
864.087	239.06
864.521	283.06
864.955	381.06
865.39	583.06
865.824	585.06
866.258	633.06
866.692	965.06
867.126	896.06
867.56	622.06
867.994	399.06
868.428	317.06
868.862	296.06
869.296	330.06
869.73	346.06
870.164	353.06
870.598	323.06
871.031	269.06
871.465	243.06
871.899	181.06
872.333	196.06
872.766	157.06
873.2	181.06
873.634	187.06
874.067	173.06
874.501	167.06
874.935	192.06
875.368	187.06
875.802	191.06
876.235	164.06
876.669	175.06
877.102	155.06
877.535	163.06
877.969	151.06
878.402	170.06
878.836	157.06
879.269	155.06
879.702	161.06
880.135	159.06
880.569	171.06
881.002	164.06
881.435	163.06
881.868	149.06
882.301	133.06
882.734	157.06
883.167	149.06
883.601	129.06
884.034	163.06
884.467	153.06
884.899	143.06
885.332	164.06
885.765	128.06
886.198	157.06
886.631	151.06
887.064	145.06
887.497	135.06
887.929	140.06
888.362	159.06
888.795	163.06
889.228	136.06
889.66	145.06
890.093	153.06
890.526	136.06
890.958	141.06
891.391	147.06
891.823	143.06
892.256	133.06
892.688	130.06
893.121	137.06
893.553	138.06
893.985	149.06
894.418	142.06
894.85	135.06
895.282	138.06
895.715	131.06
896.147	135.06
896.579	123.06
897.011	133.06
897.444	115.06
897.876	136.06
898.308	141.06
898.74	152.06
899.172	149.06
899.604	147.06
900.036	131.06
900.468	146.06
900.9	157.06
901.332	158.06
901.764	169.06
902.196	159.06
902.628	161.06
903.06	165.06
903.491	196.06
903.923	181.06
904.355	191.06
904.787	179.06
905.218	195.06
905.65	178.06
906.082	158.06
906.513	145.06
906.945	146.06
907.376	143.06
907.808	149.06
908.239	161.06
908.671	165.06
909.102	192.06
909.534	183.06
909.965	281.06
910.397	480.06
910.828	1255.06
911.259	1417.06
911.691	847.06
912.122	591.06
912.553	327.06
912.984	201.06
913.415	182.06
913.847	169.06
914.278	159.06
914.709	151.06
915.14	119.06
915.571	141.06
916.002	153.06
916.433	131.06
916.864	135.06
917.295	151.06
917.726	143.06
918.157	127.06
918.587	150.06
919.018	173.06
919.449	155.06
919.88	173.06
920.311	199.06
920.741	299.06
921.172	622.06
921.603	529.06
922.033	361.06
922.464	262.06
922.895	211.06
923.325	154.06
923.756	149.06
924.186	145.06
924.617	173.06
925.047	231.06
925.478	218.06
925.908	208.06
926.338	178.06
926.769	155.06
927.199	138.06
927.629	136.06
928.06	140.06
928.49	119.06
928.92	141.06
929.35	130.06
929.78	133.06
930.21	114.06
930.641	112.06
931.071	123.06
931.501	117.06
931.931	98.06
932.361	112.06
932.791	122.06
933.221	106.06
933.651	120.06
934.08	165.06
934.51	162.06
934.94	133.06
935.37	126.06
935.8	123.06
936.229	116.06
936.659	130.06
937.089	110.06
937.519	139.06
937.948	182.06
938.378	149.06
938.807	145.06
939.237	117.06
939.666	123.06
940.096	100.06
940.525	111.06
940.955	96.06
941.384	90.06
941.814	110.06
942.243	104.06
942.672	111.06
943.102	108.06
943.531	114.06
943.96	105.06
944.39	122.06
944.819	109.06
945.248	82.06
945.677	95.06
946.106	99.06
946.535	103.06
946.964	102.06
947.393	94.06
947.822	109.06
948.251	100.06
948.68	102.06
949.109	86.06
949.538	104.06
949.967	108.06
950.396	103.06
950.825	102.06
951.254	77.06
951.682	101.06
952.111	98.06
952.54	90.06
952.969	91.06
953.397	118.06
953.826	94.06
954.254	85.06
954.683	82.06
955.112	80.06
955.54	77.06
955.969	103.06
956.397	77.06
956.826	94.06
957.254	110.06
957.682	88.06
958.111	90.06
958.539	97.06
958.967	110.06
959.396	106.06
959.824	100.06
960.252	98.06
960.68	93.06
961.109	102.06
961.537	80.06
961.965	94.06
962.393	91.06
962.821	84.06
963.249	103.06
963.677	103.06
964.105	154.06
964.533	233.06
964.961	220.06
965.389	176.06
965.817	149.06
966.245	110.06
966.672	91.06
967.1	87.06
967.528	88.06
967.956	96.06
968.383	109.06
968.811	82.06
969.239	88.06
969.666	92.06
970.094	111.06
970.522	97.06
970.949	91.06
971.377	97.06
971.804	92.06
972.232	95.06
972.659	83.06
973.087	102.06
973.514	84.06
973.941	87.06
974.369	76.06
974.796	101.06
975.223	73.06
975.651	95.06
976.078	79.06
976.505	95.06
976.932	112.06
977.359	158.06
977.786	124.06
978.214	105.06
978.641	97.06
979.068	113.06
979.495	96.06
979.922	83.06
980.349	98.06
980.776	106.06
981.202	88.06
981.629	99.06
982.056	95.06
982.483	95.06
982.91	92.06
983.337	96.06
983.763	94.06
984.19	79.06
984.617	107.06
985.043	104.06
985.47	101.06
985.897	95.06
986.323	71.06
986.75	91.06
987.176	91.06
987.603	103.06
988.029	98.06
988.456	95.06
988.882	83.06
989.308	93.06
989.735	111.06
990.161	84.06
990.587	82.06
991.014	78.06
991.44	97.06
991.866	101.06
992.292	85.06
992.719	92.06
993.145	90.06
993.571	98.06
993.997	87.06
994.423	91.06
994.849	92.06
995.275	104.06
995.701	99.06
996.127	93.06
996.553	96.06
996.979	77.06
997.405	95.06
997.83	94.06
998.256	95.06
998.682	98.06
999.108	94.06
999.534	81.06
999.959	97.06
1000.385	87.06
1000.811	90.06
1001.236	112.06
1001.662	101.06
1002.087	104.06
1002.513	100.06
1002.938	101.06
1003.364	80.06
1003.789	82.06
1004.215	82.06
1004.64	99.06
1005.066	95.06
1005.491	76.06
1005.916	92.06
1006.342	85.06
1006.767	80.06
1007.192	82.06
1007.617	95.06
1008.042	92.06
1008.468	103.06
1008.893	103.06
1009.318	99.06
1009.743	117.06
1010.168	126.06
1010.593	120.06
1011.018	114.06
1011.443	104.06
1011.868	109.06
1012.293	100.06
1012.718	91.06
1013.143	87.06
1013.567	95.06
1013.992	93.06
1014.417	83.06
1014.842	109.06
1015.267	92.06
1015.691	92.06
1016.116	87.06
1016.541	82.06
1016.965	77.06
1017.39	85.06
1017.814	81.06
1018.239	95.06
1018.663	85.06
1019.088	85.06
1019.512	77.06
1019.937	76.06
1020.361	66.06
1020.785	63.06
1021.21	85.06
1021.634	99.06
1022.058	89.06
1022.483	79.06
1022.907	73.06
1023.331	77.06
1023.755	96.06
1024.179	72.06
1024.604	100.06
1025.028	95.06
1025.452	87.06
1025.876	98.06
1026.3	67.06
1026.724	71.06
1027.148	95.06
1027.572	95.06
1027.996	87.06
1028.42	86.06
1028.843	100.06
1029.267	81.06
1029.691	82.06
1030.115	94.06
1030.539	79.06
1030.962	88.06
1031.386	87.06
1031.81	82.06
1032.233	79.06
1032.657	69.06
1033.08	80.06
1033.504	78.06
1033.927	85.06
1034.351	85.06
1034.774	71.06
1035.198	82.06
1035.621	86.06
1036.045	86.06
1036.468	84.06
1036.891	81.06
1037.315	85.06
1037.738	85.06
1038.161	80.06
1038.584	83.06
1039.008	81.06
1039.431	80.06
1039.854	89.06
1040.277	74.06
1040.7	63.06
1041.123	87.06
1041.546	79.06
1041.969	93.06
1042.392	75.06
1042.815	80.06
1043.238	83.06
1043.661	97.06
1044.084	88.06
1044.507	79.06
1044.93	91.06
1045.352	82.06
1045.775	94.06
1046.198	84.06
1046.621	102.06
1047.043	82.06
1047.466	81.06
1047.889	97.06
1048.311	83.06
1048.734	77.06
1049.156	85.06
1049.579	100.06
1050.001	81.06
1050.424	70.06
1050.846	81.06
1051.269	81.06
1051.691	74.06
1052.113	90.06
1052.536	97.06
1052.958	88.06
1053.38	97.06
1053.802	95.06
1054.225	71.06
1054.647	91.06
1055.069	82.06
1055.491	82.06
1055.913	91.06
1056.335	88.06
1056.757	91.06
1057.179	76.06
1057.601	91.06
1058.023	95.06
1058.445	89.06
1058.867	73.06
1059.289	80.06
1059.711	70.06
1060.133	86.06
1060.555	69.06
1060.976	67.06
1061.398	88.06
1061.82	85.06
1062.241	96.06
1062.663	87.06
1063.085	80.06
1063.506	84.06
1063.928	74.06
1064.35	90.06
1064.771	88.06
1065.193	82.06
1065.614	89.06
1066.035	93.06
1066.457	77.06
1066.878	85.06
1067.3	78.06
1067.721	63.06
1068.142	80.06
1068.564	78.06
1068.985	86.06
1069.406	76.06
1069.827	74.06
1070.248	87.06
1070.67	78.06
1071.091	90.06
1071.512	72.06
1071.933	75.06
1072.354	83.06
1072.775	84.06
1073.196	90.06
1073.617	74.06
1074.038	89.06
1074.459	87.06
1074.88	96.06
1075.3	103.06
1075.721	78.06
1076.142	78.06
1076.563	88.06
1076.983	95.06
1077.404	94.06
1077.825	88.06
1078.246	82.06
1078.666	89.06
1079.087	83.06
1079.507	79.06
1079.928	77.06
1080.348	78.06
1080.769	73.06
1081.189	77.06
1081.61	92.06
1082.03	80.06
1082.451	70.06
1082.871	88.06
1083.291	65.06
1083.711	73.06
1084.132	70.06
1084.552	89.06
1084.972	75.06
1085.392	89.06
1085.813	87.06
1086.233	73.06
1086.653	77.06
1087.073	77.06
1087.493	65.06
1087.913	57.06
1088.333	80.06
1088.753	95.06
1089.173	76.06
1089.593	69.06
1090.013	78.06
1090.433	73.06
1090.852	77.06
1091.272	76.06
1091.692	71.06
1092.112	90.06
1092.531	83.06
1092.951	63.06
1093.371	99.06
1093.79	90.06
1094.21	90.06
1094.63	94.06
1095.049	87.06
1095.469	91.06
1095.888	82.06
1096.308	79.06
1096.727	102.06
1097.146	82.06
1097.566	69.06
1097.985	86.06
1098.405	87.06
1098.824	66.06
1099.243	87.06
1099.662	78.06
1100.082	71.06
1100.501	48.06
1100.92	86.06
1101.339	79.06
1101.758	91.06
