Data from 20170802-ORNL-NYSim-Air_HRD10391_10-37-29-639.txt Node
Date: Wed Aug 02 10:37:29 EDT 2017
User: Ender
Spectrometer: HR+D1039
Trigger mode: 0
Integration Time (sec): 1.510000E-3
Scans to average: 1
Electric dark correction enabled: true
Nonlinearity correction enabled: false
Boxcar width: 0
XAxis mode: Wavelengths
Number of Pixels in Spectrum: 2048
>>>>>Begin Spectral Data<<<<<
187.836	-7.12
188.309	-7.12
188.782	-7.12
189.255	-0.12
189.728	-16.12
190.201	0.88
190.674	-14.12
191.147	-4.12
191.619	-5.12
192.092	-1.12
192.565	6.88
193.038	12.88
193.511	2.88
193.984	-15.12
194.456	-4.12
194.929	11.88
195.402	7.88
195.874	23.88
196.347	19.88
196.82	27.88
197.292	30.88
197.765	35.88
198.237	36.88
198.71	35.88
199.182	37.88
199.655	39.88
200.127	30.88
200.6	69.88
201.072	62.88
201.544	59.88
202.017	71.88
202.489	86.88
202.961	73.88
203.433	80.88
203.906	67.88
204.378	77.88
204.85	72.88
205.322	84.88
205.794	89.88
206.266	79.88
206.739	86.88
207.211	59.88
207.683	95.88
208.155	73.88
208.627	92.88
209.099	85.88
209.57	94.88
210.042	64.88
210.514	82.88
210.986	85.88
211.458	77.88
211.93	89.88
212.402	81.88
212.873	88.88
213.345	83.88
213.817	88.88
214.288	94.88
214.76	85.88
215.232	78.88
215.703	93.88
216.175	74.88
216.646	78.88
217.118	88.88
217.589	89.88
218.061	95.88
218.532	84.88
219.004	73.88
219.475	85.88
219.946	75.88
220.418	79.88
220.889	66.88
221.36	69.88
221.832	91.88
222.303	70.88
222.774	58.88
223.245	76.88
223.717	91.88
224.188	85.88
224.659	81.88
225.13	81.88
225.601	83.88
226.072	85.88
226.543	80.88
227.014	57.88
227.485	90.88
227.956	75.88
228.427	75.88
228.898	83.88
229.369	85.88
229.839	79.88
230.31	85.88
230.781	82.88
231.252	78.88
231.722	96.88
232.193	89.88
232.664	99.88
233.135	73.88
233.605	66.88
234.076	102.88
234.546	75.88
235.017	85.88
235.487	73.88
235.958	85.88
236.428	72.88
236.899	79.88
237.369	89.88
237.84	75.88
238.31	74.88
238.78	80.88
239.251	86.88
239.721	59.88
240.191	89.88
240.662	99.88
241.132	75.88
241.602	98.88
242.072	97.88
242.542	71.88
243.013	96.88
243.483	71.88
243.953	79.88
244.423	82.88
244.893	85.88
245.363	84.88
245.833	83.88
246.303	62.88
246.773	92.88
247.243	90.88
247.712	88.88
248.182	84.88
248.652	87.88
249.122	97.88
249.592	90.88
250.061	102.88
250.531	104.88
251.001	94.88
251.471	94.88
251.94	79.88
252.41	95.88
252.879	115.88
253.349	78.88
253.818	105.88
254.288	91.88
254.757	93.88
255.227	94.88
255.696	82.88
256.166	97.88
256.635	86.88
257.105	85.88
257.574	91.88
258.043	80.88
258.513	87.88
258.982	96.88
259.451	90.88
259.92	101.88
260.389	83.88
260.859	89.88
261.328	85.88
261.797	89.88
262.266	88.88
262.735	103.88
263.204	88.88
263.673	92.88
264.142	105.88
264.611	93.88
265.08	101.88
265.549	89.88
266.018	103.88
266.487	90.88
266.955	103.88
267.424	89.88
267.893	108.88
268.362	101.88
268.83	97.88
269.299	110.88
269.768	83.88
270.236	100.88
270.705	101.88
271.174	105.88
271.642	100.88
272.111	97.88
272.579	107.88
273.048	102.88
273.516	98.88
273.985	121.88
274.453	93.88
274.922	110.88
275.39	94.88
275.858	92.88
276.327	94.88
276.795	102.88
277.263	114.88
277.731	103.88
278.2	102.88
278.668	105.88
279.136	103.88
279.604	109.88
280.072	114.88
280.54	96.88
281.008	95.88
281.477	99.88
281.945	105.88
282.413	103.88
282.881	104.88
283.348	108.88
283.816	102.88
284.284	104.88
284.752	102.88
285.22	103.88
285.688	119.88
286.156	106.88
286.623	114.88
287.091	96.88
287.559	119.88
288.026	103.88
288.494	109.88
288.962	127.88
289.429	99.88
289.897	104.88
290.364	97.88
290.832	125.88
291.3	111.88
291.767	125.88
292.234	125.88
292.702	96.88
293.169	119.88
293.637	120.88
294.104	123.88
294.571	123.88
295.039	127.88
295.506	122.88
295.973	112.88
296.44	104.88
296.908	112.88
297.375	115.88
297.842	111.88
298.309	149.88
298.776	107.88
299.243	121.88
299.71	126.88
300.177	108.88
300.644	109.88
301.111	119.88
301.578	124.88
302.045	113.88
302.512	121.88
302.979	123.88
303.446	121.88
303.913	120.88
304.379	137.88
304.846	139.88
305.313	116.88
305.78	138.88
306.246	141.88
306.713	132.88
307.18	137.88
307.646	135.88
308.113	135.88
308.579	135.88
309.046	127.88
309.512	135.88
309.979	128.88
310.445	147.88
310.912	147.88
311.378	136.88
311.845	152.88
312.311	152.88
312.777	139.88
313.244	151.88
313.71	148.88
314.176	156.88
314.642	123.88
315.109	160.88
315.575	147.88
316.041	149.88
316.507	131.88
316.973	153.88
317.439	140.88
317.905	143.88
318.371	153.88
318.837	155.88
319.303	163.88
319.769	158.88
320.235	152.88
320.701	147.88
321.167	148.88
321.633	151.88
322.099	147.88
322.564	163.88
323.03	159.88
323.496	122.88
323.962	137.88
324.427	136.88
324.893	165.88
325.359	159.88
325.824	160.88
326.29	148.88
326.755	170.88
327.221	163.88
327.686	174.88
328.152	176.88
328.617	180.88
329.083	161.88
329.548	159.88
330.014	172.88
330.479	162.88
330.944	162.88
331.41	173.88
331.875	149.88
332.34	152.88
332.805	179.88
333.271	179.88
333.736	189.88
334.201	169.88
334.666	163.88
335.131	171.88
335.596	165.88
336.061	171.88
336.526	158.88
336.991	162.88
337.456	178.88
337.921	157.88
338.386	153.88
338.851	173.88
339.316	191.88
339.781	197.88
340.246	172.88
340.711	171.88
341.175	187.88
341.64	199.88
342.105	193.88
342.569	176.88
343.034	193.88
343.499	170.88
343.963	181.88
344.428	163.88
344.893	192.88
345.357	189.88
345.822	203.88
346.286	217.88
346.751	191.88
347.215	199.88
347.679	213.88
348.144	230.88
348.608	205.88
349.073	198.88
349.537	215.88
350.001	218.88
350.465	214.88
350.93	202.88
351.394	239.88
351.858	217.88
352.322	216.88
352.786	243.88
353.25	235.88
353.715	197.88
354.179	198.88
354.643	236.88
355.107	242.88
355.571	238.88
356.035	214.88
356.498	213.88
356.962	220.88
357.426	235.88
357.89	239.88
358.354	248.88
358.818	217.88
359.281	225.88
359.745	225.88
360.209	226.88
360.673	222.88
361.136	211.88
361.6	229.88
362.064	233.88
362.527	253.88
362.991	259.88
363.454	229.88
363.918	231.88
364.381	236.88
364.845	231.88
365.308	232.88
365.772	223.88
366.235	228.88
366.698	249.88
367.162	243.88
367.625	241.88
368.088	255.88
368.552	249.88
369.015	238.88
369.478	250.88
369.941	246.88
370.404	263.88
370.867	239.88
371.331	245.88
371.794	249.88
372.257	253.88
372.72	260.88
373.183	280.88
373.646	249.88
374.109	259.88
374.572	253.88
375.035	263.88
375.497	273.88
375.96	255.88
376.423	254.88
376.886	263.88
377.349	313.88
377.811	273.88
378.274	286.88
378.737	253.88
379.199	295.88
379.662	279.88
380.125	288.88
380.587	288.88
381.05	269.88
381.512	293.88
381.975	282.88
382.437	303.88
382.9	316.88
383.362	293.88
383.825	304.88
384.287	306.88
384.75	303.88
385.212	307.88
385.674	298.88
386.136	311.88
386.599	297.88
387.061	308.88
387.523	329.88
387.985	335.88
388.447	322.88
388.91	322.88
389.372	319.88
389.834	325.88
390.296	313.88
390.758	306.88
391.22	312.88
391.682	301.88
392.144	313.88
392.606	327.88
393.068	332.88
393.529	351.88
393.991	357.88
394.453	318.88
394.915	324.88
395.377	327.88
395.838	305.88
396.3	324.88
396.762	307.88
397.224	312.88
397.685	335.88
398.147	323.88
398.608	333.88
399.07	351.88
399.531	333.88
399.993	325.88
400.454	351.88
400.916	359.88
401.377	371.88
401.839	362.88
402.3	339.88
402.762	373.88
403.223	394.88
403.684	396.88
404.145	381.88
404.607	375.88
405.068	363.88
405.529	370.88
405.99	390.88
406.451	369.88
406.913	349.88
407.374	343.88
407.835	390.88
408.296	370.88
408.757	384.88
409.218	391.88
409.679	379.88
410.14	367.88
410.601	387.88
411.062	375.88
411.522	409.88
411.983	407.88
412.444	400.88
412.905	403.88
413.366	427.88
413.826	448.88
414.287	471.88
414.748	549.88
415.208	600.88
415.669	499.88
416.13	473.88
416.59	455.88
417.051	462.88
417.511	462.88
417.972	536.88
418.432	576.88
418.893	594.88
419.353	581.88
419.814	465.88
420.274	442.88
420.734	422.88
421.195	438.88
421.655	444.88
422.115	446.88
422.576	434.88
423.036	444.88
423.496	467.88
423.956	508.88
424.416	483.88
424.876	544.88
425.336	535.88
425.797	532.88
426.257	548.88
426.717	487.88
427.177	474.88
427.637	484.88
428.097	495.88
428.556	511.88
429.016	537.88
429.476	522.88
429.936	527.88
430.396	542.88
430.856	565.88
431.315	576.88
431.775	595.88
432.235	637.88
432.694	629.88
433.154	621.88
433.614	576.88
434.073	568.88
434.533	504.88
434.993	515.88
435.452	514.88
435.912	522.88
436.371	520.88
436.83	511.88
437.29	467.88
437.749	469.88
438.209	486.88
438.668	475.88
439.127	504.88
439.587	502.88
440.046	454.88
440.505	480.88
440.964	483.88
441.424	502.88
441.883	520.88
442.342	470.88
442.801	465.88
443.26	475.88
443.719	472.88
444.178	471.88
444.637	480.88
445.096	458.88
445.555	479.88
446.014	456.88
446.473	467.88
446.932	469.88
447.391	483.88
447.849	495.88
448.308	499.88
448.767	485.88
449.226	508.88
449.685	493.88
450.143	529.88
450.602	518.88
451.061	479.88
451.519	487.88
451.978	488.88
452.436	497.88
452.895	492.88
453.353	479.88
453.812	489.88
454.27	501.88
454.729	447.88
455.187	487.88
455.646	497.88
456.104	513.88
456.562	496.88
457.021	489.88
457.479	484.88
457.937	472.88
458.395	487.88
458.854	512.88
459.312	506.88
459.77	468.88
460.228	517.88
460.686	538.88
461.144	518.88
461.602	517.88
462.06	509.88
462.518	511.88
462.976	524.88
463.434	551.88
463.892	523.88
464.35	560.88
464.808	548.88
465.266	547.88
465.724	570.88
466.181	568.88
466.639	561.88
467.097	561.88
467.555	597.88
468.012	572.88
468.47	588.88
468.928	622.88
469.385	605.88
469.843	615.88
470.3	639.88
470.758	644.88
471.215	653.88
471.673	671.88
472.13	697.88
472.588	709.88
473.045	688.88
473.503	720.88
473.96	734.88
474.417	738.88
474.875	765.88
475.332	807.88
475.789	836.88
476.246	843.88
476.704	851.88
477.161	881.88
477.618	899.88
478.075	931.88
478.532	992.88
478.989	1075.88
479.446	1142.88
479.903	1229.88
480.36	1322.88
480.817	1384.88
481.274	1538.88
481.731	1627.88
482.188	1744.88
482.645	1841.88
483.102	1959.88
483.558	2069.88
484.015	2174.88
484.472	2179.88
484.929	2098.88
485.385	2004.88
485.842	1973.88
486.299	1929.88
486.755	1802.88
487.212	1585.88
487.668	1461.88
488.125	1347.88
488.582	1227.88
489.038	1221.88
489.494	1166.88
489.951	1163.88
490.407	1119.88
490.864	1107.88
491.32	1079.88
491.776	1115.88
492.233	1098.88
492.689	1049.88
493.145	1080.88
493.602	1056.88
494.058	1041.88
494.514	1035.88
494.97	1012.88
495.426	1049.88
495.882	1054.88
496.338	1052.88
496.794	1076.88
497.251	1095.88
497.707	1075.88
498.163	1077.88
498.618	1040.88
499.074	1053.88
499.53	1040.88
499.986	1071.88
500.442	1095.88
500.898	1075.88
501.354	1073.88
501.809	1051.88
502.265	1092.88
502.721	1106.88
503.177	1109.88
503.632	1111.88
504.088	1090.88
504.543	1131.88
504.999	1142.88
505.455	1158.88
505.91	1110.88
506.366	1095.88
506.821	1074.88
507.277	1134.88
507.732	1118.88
508.187	1110.88
508.643	1152.88
509.098	1090.88
509.553	1166.88
510.009	1160.88
510.464	1168.88
510.919	1183.88
511.375	1191.88
511.83	1182.88
512.285	1201.88
512.74	1223.88
513.195	1255.88
513.65	1239.88
514.105	1297.88
514.56	1267.88
515.015	1351.88
515.47	1317.88
515.925	1310.88
516.38	1300.88
516.835	1311.88
517.29	1283.88
517.745	1298.88
518.2	1271.88
518.655	1244.88
519.109	1238.88
519.564	1274.88
520.019	1248.88
520.474	1186.88
520.928	1220.88
521.383	1190.88
521.838	1184.88
522.292	1206.88
522.747	1167.88
523.201	1192.88
523.656	1175.88
524.11	1174.88
524.565	1168.88
525.019	1173.88
525.474	1150.88
525.928	1170.88
526.382	1187.88
526.837	1157.88
527.291	1168.88
527.745	1135.88
528.2	1176.88
528.654	1127.88
529.108	1142.88
529.562	1177.88
530.016	1165.88
530.47	1131.88
530.925	1135.88
531.379	1144.88
531.833	1160.88
532.287	1171.88
532.741	1163.88
533.195	1130.88
533.649	1167.88
534.103	1139.88
534.556	1167.88
535.01	1151.88
535.464	1157.88
535.918	1155.88
536.372	1146.88
536.826	1150.88
537.279	1144.88
537.733	1172.88
538.187	1161.88
538.64	1155.88
539.094	1171.88
539.548	1181.88
540.001	1178.88
540.455	1195.88
540.908	1171.88
541.362	1231.88
541.815	1199.88
542.269	1242.88
542.722	1231.88
543.175	1261.88
543.629	1241.88
544.082	1247.88
544.536	1262.88
544.989	1282.88
545.442	1279.88
545.895	1308.88
546.349	1305.88
546.802	1289.88
547.255	1303.88
547.708	1291.88
548.161	1283.88
548.614	1302.88
549.067	1316.88
549.52	1301.88
549.973	1315.88
550.426	1283.88
550.879	1291.88
551.332	1295.88
551.785	1277.88
552.238	1324.88
552.691	1320.88
553.144	1327.88
553.596	1307.88
554.049	1383.88
554.502	1388.88
554.955	1390.88
555.407	1412.88
555.86	1412.88
556.313	1420.88
556.765	1373.88
557.218	1388.88
557.67	1380.88
558.123	1342.88
558.576	1379.88
559.028	1336.88
559.48	1345.88
559.933	1331.88
560.385	1335.88
560.838	1271.88
561.29	1244.88
561.742	1284.88
562.195	1247.88
562.647	1200.88
563.099	1202.88
563.551	1228.88
564.004	1181.88
564.456	1162.88
564.908	1158.88
565.36	1152.88
565.812	1147.88
566.264	1141.88
566.716	1103.88
567.168	1095.88
567.62	1092.88
568.072	1097.88
568.524	1085.88
568.976	1065.88
569.428	1063.88
569.88	1085.88
570.332	1091.88
570.784	1077.88
571.235	1089.88
571.687	1068.88
572.139	1059.88
572.59	1057.88
573.042	1139.88
573.494	1104.88
573.945	1085.88
574.397	1069.88
574.849	1092.88
575.3	1055.88
575.752	1068.88
576.203	1045.88
576.655	1071.88
577.106	1035.88
577.557	1040.88
578.009	1015.88
578.46	1023.88
578.912	1012.88
579.363	1032.88
579.814	1035.88
580.265	1014.88
580.717	1009.88
581.168	1016.88
581.619	1022.88
582.07	1027.88
582.521	1034.88
582.972	1003.88
583.423	1045.88
583.875	1041.88
584.326	1031.88
584.777	1057.88
585.227	1109.88
585.678	1074.88
586.129	1107.88
586.58	1120.88
587.031	1089.88
587.482	1124.88
587.933	1123.88
588.384	1147.88
588.834	1129.88
589.285	1120.88
589.736	1119.88
590.186	1133.88
590.637	1113.88
591.088	1123.88
591.538	1092.88
591.989	1093.88
592.439	1074.88
592.89	1060.88
593.34	1067.88
593.791	1057.88
594.241	1007.88
594.692	1040.88
595.142	1018.88
595.593	1053.88
596.043	1027.88
596.493	1033.88
596.943	1036.88
597.394	1042.88
597.844	1105.88
598.294	1087.88
598.744	1119.88
599.195	1183.88
599.645	1213.88
600.095	1294.88
600.545	1376.88
600.995	1435.88
601.445	1407.88
601.895	1523.88
602.345	1546.88
602.795	1545.88
603.245	1518.88
603.695	1430.88
604.145	1383.88
604.594	1319.88
605.044	1249.88
605.494	1155.88
605.944	1083.88
606.393	1090.88
606.843	1046.88
607.293	1103.88
607.743	1078.88
608.192	1063.88
608.642	1051.88
609.091	1090.88
609.541	1072.88
609.99	1098.88
610.44	1087.88
610.889	1055.88
611.339	1038.88
611.788	1009.88
612.238	979.88
612.687	991.88
613.136	1011.88
613.586	1020.88
614.035	1015.88
614.484	1059.88
614.933	1037.88
615.383	1048.88
615.832	970.88
616.281	990.88
616.73	931.88
617.179	929.88
617.628	929.88
618.077	923.88
618.526	919.88
618.975	907.88
619.424	867.88
619.873	905.88
620.322	855.88
620.771	871.88
621.22	849.88
621.669	835.88
622.118	845.88
622.567	825.88
623.015	839.88
623.464	812.88
623.913	807.88
624.361	841.88
624.81	828.88
625.259	801.88
625.707	791.88
626.156	817.88
626.604	820.88
627.053	835.88
627.501	843.88
627.95	797.88
628.398	829.88
628.847	823.88
629.295	829.88
629.744	831.88
630.192	793.88
630.64	805.88
631.089	764.88
631.537	781.88
631.985	782.88
632.433	760.88
632.881	769.88
633.33	763.88
633.778	753.88
634.226	758.88
634.674	809.88
635.122	775.88
635.57	770.88
636.018	763.88
636.466	793.88
636.914	787.88
637.362	796.88
637.81	815.88
638.258	853.88
638.705	819.88
639.153	869.88
639.601	880.88
640.049	877.88
640.497	915.88
640.944	900.88
641.392	903.88
641.84	884.88
642.287	824.88
642.735	813.88
643.182	805.88
643.63	799.88
644.078	807.88
644.525	831.88
644.973	835.88
645.42	853.88
645.867	867.88
646.315	887.88
646.762	892.88
647.21	921.88
647.657	961.88
648.104	1010.88
648.551	1019.88
648.999	1101.88
649.446	1160.88
649.893	1254.88
650.34	1470.88
650.787	1795.88
651.234	2178.88
651.682	2870.88
652.129	3982.88
652.576	5692.88
653.023	7732.88
653.47	9573.88
653.917	10768.88
654.363	11383.88
654.81	12011.88
655.257	12468.88
655.704	9589.88
656.151	5822.88
656.598	3712.88
657.044	2598.88
657.491	2041.88
657.938	1653.88
658.385	1378.88
658.831	1254.88
659.278	1131.88
659.724	1082.88
660.171	1017.88
660.618	923.88
661.064	867.88
661.511	799.88
661.957	825.88
662.404	791.88
662.85	802.88
663.296	794.88
663.743	753.88
664.189	749.88
664.635	766.88
665.082	731.88
665.528	686.88
665.974	693.88
666.42	682.88
666.867	671.88
667.313	673.88
667.759	671.88
668.205	639.88
668.651	647.88
669.097	634.88
669.543	653.88
669.989	651.88
670.435	658.88
670.881	658.88
671.327	687.88
671.773	697.88
672.219	775.88
672.665	801.88
673.11	825.88
673.556	845.88
674.002	845.88
674.448	911.88
674.893	804.88
675.339	699.88
675.785	635.88
676.23	593.88
676.676	592.88
677.122	588.88
677.567	551.88
678.013	559.88
678.458	535.88
678.904	523.88
679.349	562.88
679.794	527.88
680.24	507.88
680.685	503.88
681.131	511.88
681.576	500.88
682.021	518.88
682.466	540.88
682.912	545.88
683.357	534.88
683.802	563.88
684.247	621.88
684.692	662.88
685.137	663.88
685.583	727.88
686.028	725.88
686.473	717.88
686.918	623.88
687.363	585.88
687.807	548.88
688.252	533.88
688.697	534.88
689.142	505.88
689.587	510.88
690.032	501.88
690.477	517.88
690.921	511.88
691.366	583.88
691.811	614.88
692.255	623.88
692.7	696.88
693.145	901.88
693.589	1350.88
694.034	1735.88
694.478	1963.88
694.923	1791.88
695.367	2176.88
695.812	2007.88
696.256	887.88
696.701	597.88
697.145	528.88
697.59	515.88
698.034	484.88
698.478	503.88
698.922	477.88
699.367	498.88
699.811	506.88
700.255	554.88
700.699	597.88
701.143	621.88
701.588	645.88
702.032	669.88
702.476	743.88
702.92	728.88
703.364	818.88
703.808	1191.88
704.252	1604.88
704.696	1875.88
705.14	1775.88
705.584	2141.88
706.027	1803.88
706.471	874.88
706.915	631.88
707.359	546.88
707.803	495.88
708.246	481.88
708.69	487.88
709.134	463.88
709.577	477.88
710.021	471.88
710.465	468.88
710.908	474.88
711.352	467.88
711.795	484.88
712.239	535.88
712.682	571.88
713.126	566.88
713.569	611.88
714.012	549.88
714.456	487.88
714.899	487.88
715.342	423.88
715.786	426.88
716.229	410.88
716.672	406.88
717.115	391.88
717.558	392.88
718.002	401.88
718.445	417.88
718.888	440.88
719.331	399.88
719.774	463.88
720.217	449.88
720.66	430.88
721.103	415.88
721.546	396.88
721.989	371.88
722.432	370.88
722.874	393.88
723.317	366.88
723.76	402.88
724.203	438.88
724.645	564.88
725.088	666.88
725.531	729.88
725.974	735.88
726.416	763.88
726.859	523.88
727.301	406.88
727.744	375.88
728.187	370.88
728.629	371.88
729.071	388.88
729.514	412.88
729.956	406.88
730.399	448.88
730.841	427.88
731.283	399.88
731.726	401.88
732.168	413.88
732.61	414.88
733.053	456.88
733.495	489.88
733.937	529.88
734.379	584.88
734.821	682.88
735.263	953.88
735.705	1610.88
736.148	2570.88
736.59	3033.88
737.032	2830.88
737.474	3054.88
737.916	1541.88
738.357	757.88
738.799	545.88
739.241	462.88
739.683	483.88
740.125	481.88
740.567	490.88
741.008	516.88
741.45	519.88
741.892	558.88
742.334	539.88
742.775	539.88
743.217	555.88
743.658	503.88
744.1	460.88
744.542	459.88
744.983	553.88
745.425	555.88
745.866	605.88
746.307	502.88
746.749	493.88
747.19	592.88
747.632	963.88
748.073	1756.88
748.514	2717.88
748.956	3387.88
749.397	4561.88
749.838	3673.88
750.279	2973.88
750.72	2298.88
751.162	1030.88
751.603	577.88
752.044	424.88
752.485	383.88
752.926	370.88
753.367	351.88
753.808	320.88
754.249	343.88
754.69	329.88
755.131	327.88
755.572	317.88
756.013	310.88
756.453	317.88
756.894	337.88
757.335	348.88
757.776	343.88
758.216	341.88
758.657	353.88
759.098	366.88
759.538	435.88
759.979	501.88
760.42	807.88
760.86	1787.88
761.301	4048.88
761.741	6009.88
762.182	6158.88
762.622	5846.88
763.063	2701.88
763.503	1107.88
763.943	587.88
764.384	450.88
764.824	397.88
765.264	365.88
765.705	345.88
766.145	341.88
766.585	325.88
767.025	282.88
767.465	296.88
767.906	291.88
768.346	312.88
768.786	332.88
769.226	419.88
769.666	642.88
770.106	1386.88
770.546	2441.88
770.986	2561.88
771.426	2569.88
771.866	1469.88
772.306	695.88
772.745	400.88
773.185	321.88
773.625	287.88
774.065	297.88
774.505	343.88
774.944	525.88
775.384	817.88
775.824	945.88
776.263	955.88
776.703	673.88
777.142	411.88
777.582	278.88
778.021	248.88
778.461	249.88
778.9	228.88
779.34	236.88
779.779	225.88
780.219	237.88
780.658	224.88
781.097	220.88
781.537	221.88
781.976	233.88
782.415	223.88
782.855	217.88
783.294	221.88
783.733	239.88
784.172	209.88
784.611	227.88
785.05	235.88
785.489	210.88
785.928	223.88
786.367	223.88
786.806	225.88
787.245	255.88
787.684	249.88
788.123	249.88
788.562	256.88
789.001	251.88
789.44	223.88
789.879	240.88
790.317	239.88
790.756	267.88
791.195	261.88
791.634	309.88
792.072	435.88
792.511	832.88
792.95	1874.88
793.388	2307.88
793.827	2039.88
794.265	1205.88
794.704	588.88
795.142	340.88
795.581	279.88
796.019	285.88
796.458	254.88
796.896	226.88
797.334	278.88
797.773	326.88
798.211	489.88
798.649	891.88
799.087	1453.88
799.526	2208.88
799.964	2491.88
800.402	2109.88
800.84	1238.88
801.278	672.88
801.716	396.88
802.154	301.88
802.592	267.88
803.03	256.88
803.468	284.88
803.906	267.88
804.344	283.88
804.782	257.88
805.22	256.88
805.658	274.88
806.096	295.88
806.533	302.88
806.971	348.88
807.409	443.88
807.847	668.88
808.284	1516.88
808.722	2959.88
809.16	4122.88
809.597	5738.88
810.035	7302.88
810.472	6293.88
810.91	3507.88
811.347	1690.88
811.785	795.88
812.222	466.88
812.66	377.88
813.097	283.88
813.535	283.88
813.972	265.88
814.409	251.88
814.846	226.88
815.284	227.88
815.721	235.88
816.158	216.88
816.595	269.88
817.032	354.88
817.47	341.88
817.907	297.88
818.344	248.88
818.781	244.88
819.218	239.88
819.655	344.88
820.092	434.88
820.529	440.88
820.966	366.88
821.403	293.88
821.839	258.88
822.276	251.88
822.713	269.88
823.15	293.88
823.587	268.88
824.023	341.88
824.46	697.88
824.897	1362.88
825.333	1426.88
825.77	855.88
826.206	492.88
826.643	307.88
827.08	214.88
827.516	222.88
827.953	176.88
828.389	178.88
828.825	175.88
829.262	185.88
829.698	167.88
830.135	181.88
830.571	176.88
831.007	185.88
831.443	163.88
831.88	155.88
832.316	169.88
832.752	162.88
833.188	175.88
833.624	169.88
834.06	185.88
834.497	192.88
834.933	171.88
835.369	195.88
835.805	181.88
836.241	186.88
836.677	211.88
837.112	222.88
837.548	247.88
837.984	283.88
838.42	463.88
838.856	1118.88
839.292	2285.88
839.727	2516.88
840.163	1704.88
840.599	1919.88
841.034	2893.88
841.47	2270.88
841.906	1308.88
842.341	778.88
842.777	475.88
843.212	427.88
843.648	363.88
844.083	254.88
844.519	213.88
844.954	183.88
845.39	171.88
845.825	175.88
846.261	157.88
846.696	156.88
847.131	152.88
847.566	170.88
848.002	151.88
848.437	174.88
848.872	157.88
849.307	161.88
849.742	249.88
850.177	417.88
850.613	872.88
851.048	972.88
851.483	566.88
851.918	381.88
852.353	226.88
852.788	171.88
853.223	153.88
853.657	141.88
854.092	163.88
854.527	131.88
854.962	148.88
855.397	159.88
855.832	147.88
856.266	133.88
856.701	143.88
857.136	130.88
857.57	150.88
858.005	175.88
858.44	145.88
858.874	145.88
859.309	157.88
859.743	155.88
860.178	155.88
860.612	147.88
861.047	169.88
861.481	205.88
861.915	193.88
862.35	175.88
862.784	147.88
863.218	151.88
863.653	127.88
864.087	136.88
864.521	169.88
864.955	195.88
865.39	287.88
865.824	276.88
866.258	285.88
866.692	428.88
867.126	393.88
867.56	288.88
867.994	231.88
868.428	169.88
868.862	164.88
869.296	176.88
869.73	190.88
870.164	175.88
870.598	170.88
871.031	145.88
871.465	149.88
871.899	135.88
872.333	116.88
872.766	126.88
873.2	109.88
873.634	131.88
874.067	123.88
874.501	128.88
874.935	126.88
875.368	127.88
875.802	122.88
876.235	125.88
876.669	112.88
877.102	124.88
877.535	127.88
877.969	100.88
878.402	119.88
878.836	127.88
879.269	130.88
879.702	127.88
880.135	130.88
880.569	108.88
881.002	127.88
881.435	116.88
881.868	104.88
882.301	116.88
882.734	110.88
883.167	115.88
883.601	86.88
884.034	104.88
884.467	115.88
884.899	97.88
885.332	107.88
885.765	119.88
886.198	109.88
886.631	102.88
887.064	118.88
887.497	99.88
887.929	99.88
888.362	112.88
888.795	119.88
889.228	98.88
889.66	97.88
890.093	99.88
890.526	108.88
890.958	117.88
891.391	119.88
891.823	115.88
892.256	108.88
892.688	104.88
893.121	121.88
893.553	124.88
893.985	120.88
894.418	113.88
894.85	104.88
895.282	125.88
895.715	102.88
896.147	115.88
896.579	119.88
897.011	103.88
897.444	91.88
897.876	108.88
898.308	102.88
898.74	106.88
899.172	102.88
899.604	111.88
900.036	98.88
900.468	109.88
900.9	107.88
901.332	124.88
901.764	116.88
902.196	100.88
902.628	123.88
903.06	108.88
903.491	128.88
903.923	136.88
904.355	130.88
904.787	135.88
905.218	121.88
905.65	108.88
906.082	121.88
906.513	116.88
906.945	94.88
907.376	122.88
907.808	107.88
908.239	102.88
908.671	105.88
909.102	117.88
909.534	133.88
909.965	158.88
910.397	249.88
910.828	549.88
911.259	600.88
911.691	381.88
912.122	296.88
912.553	201.88
912.984	122.88
913.415	129.88
913.847	113.88
914.278	105.88
914.709	114.88
915.14	107.88
915.571	116.88
916.002	104.88
916.433	108.88
916.864	94.88
917.295	111.88
917.726	99.88
918.157	118.88
918.587	120.88
919.018	112.88
919.449	110.88
919.88	134.88
920.311	131.88
920.741	181.88
921.172	325.88
921.603	263.88
922.033	201.88
922.464	160.88
922.895	131.88
923.325	105.88
923.756	117.88
924.186	116.88
924.617	136.88
925.047	119.88
925.478	140.88
925.908	120.88
926.338	116.88
926.769	112.88
927.199	89.88
927.629	106.88
928.06	123.88
928.49	119.88
928.92	103.88
929.35	101.88
929.78	87.88
930.21	103.88
930.641	91.88
931.071	105.88
931.501	101.88
931.931	98.88
932.361	101.88
932.791	94.88
933.221	90.88
933.651	107.88
934.08	99.88
934.51	108.88
934.94	103.88
935.37	105.88
935.8	121.88
936.229	98.88
936.659	111.88
937.089	111.88
937.519	114.88
937.948	111.88
938.378	111.88
938.807	103.88
939.237	104.88
939.666	98.88
940.096	100.88
940.525	76.88
940.955	104.88
941.384	87.88
941.814	95.88
942.243	78.88
942.672	90.88
943.102	96.88
943.531	109.88
943.96	94.88
944.39	97.88
944.819	106.88
945.248	86.88
945.677	83.88
946.106	83.88
946.535	85.88
946.964	82.88
947.393	80.88
947.822	102.88
948.251	100.88
948.68	87.88
949.109	84.88
949.538	96.88
949.967	85.88
950.396	87.88
950.825	89.88
951.254	83.88
951.682	81.88
952.111	85.88
952.54	88.88
952.969	88.88
953.397	62.88
953.826	85.88
954.254	97.88
954.683	85.88
955.112	81.88
955.54	104.88
955.969	90.88
956.397	80.88
956.826	97.88
957.254	80.88
957.682	102.88
958.111	100.88
958.539	93.88
958.967	84.88
959.396	88.88
959.824	71.88
960.252	71.88
960.68	80.88
961.109	82.88
961.537	105.88
961.965	87.88
962.393	99.88
962.821	99.88
963.249	113.88
963.677	101.88
964.105	114.88
964.533	159.88
964.961	129.88
965.389	118.88
965.817	108.88
966.245	92.88
966.672	107.88
967.1	109.88
967.528	75.88
967.956	77.88
968.383	91.88
968.811	88.88
969.239	79.88
969.666	93.88
970.094	100.88
970.522	73.88
970.949	95.88
971.377	74.88
971.804	87.88
972.232	91.88
972.659	90.88
973.087	94.88
973.514	97.88
973.941	85.88
974.369	91.88
974.796	73.88
975.223	94.88
975.651	94.88
976.078	91.88
976.505	85.88
976.932	94.88
977.359	114.88
977.786	91.88
978.214	100.88
978.641	90.88
979.068	97.88
979.495	74.88
979.922	99.88
980.349	81.88
980.776	83.88
981.202	87.88
981.629	95.88
982.056	93.88
982.483	79.88
982.91	93.88
983.337	79.88
983.763	88.88
984.19	83.88
984.617	82.88
985.043	62.88
985.47	103.88
985.897	98.88
986.323	69.88
986.75	94.88
987.176	82.88
987.603	91.88
988.029	91.88
988.456	82.88
988.882	82.88
989.308	76.88
989.735	89.88
990.161	99.88
990.587	101.88
991.014	95.88
991.44	75.88
991.866	86.88
992.292	98.88
992.719	84.88
993.145	102.88
993.571	84.88
993.997	77.88
994.423	84.88
994.849	85.88
995.275	77.88
995.701	86.88
996.127	83.88
996.553	93.88
996.979	69.88
997.405	71.88
997.83	87.88
998.256	70.88
998.682	97.88
999.108	103.88
999.534	90.88
999.959	92.88
1000.385	79.88
1000.811	91.88
1001.236	74.88
1001.662	88.88
1002.087	87.88
1002.513	88.88
1002.938	86.88
1003.364	84.88
1003.789	75.88
1004.215	96.88
1004.64	97.88
1005.066	76.88
1005.491	82.88
1005.916	77.88
1006.342	81.88
1006.767	88.88
1007.192	70.88
1007.617	102.88
1008.042	95.88
1008.468	92.88
1008.893	97.88
1009.318	101.88
1009.743	103.88
1010.168	78.88
1010.593	89.88
1011.018	85.88
1011.443	94.88
1011.868	91.88
1012.293	84.88
1012.718	81.88
1013.143	76.88
1013.567	93.88
1013.992	79.88
1014.417	90.88
1014.842	89.88
1015.267	101.88
1015.691	67.88
1016.116	89.88
1016.541	80.88
1016.965	89.88
1017.39	83.88
1017.814	77.88
1018.239	82.88
1018.663	74.88
1019.088	95.88
1019.512	84.88
1019.937	68.88
1020.361	89.88
1020.785	84.88
1021.21	81.88
1021.634	88.88
1022.058	81.88
1022.483	78.88
1022.907	92.88
1023.331	83.88
1023.755	90.88
1024.179	75.88
1024.604	91.88
1025.028	77.88
1025.452	76.88
1025.876	97.88
1026.3	94.88
1026.724	89.88
1027.148	97.88
1027.572	70.88
1027.996	71.88
1028.42	68.88
1028.843	77.88
1029.267	88.88
1029.691	72.88
1030.115	104.88
1030.539	81.88
1030.962	87.88
1031.386	96.88
1031.81	91.88
1032.233	91.88
1032.657	85.88
1033.08	99.88
1033.504	67.88
1033.927	75.88
1034.351	72.88
1034.774	79.88
1035.198	77.88
1035.621	82.88
1036.045	95.88
1036.468	69.88
1036.891	84.88
1037.315	75.88
1037.738	83.88
1038.161	70.88
1038.584	92.88
1039.008	84.88
1039.431	76.88
1039.854	81.88
1040.277	85.88
1040.7	87.88
1041.123	75.88
1041.546	72.88
1041.969	80.88
1042.392	66.88
1042.815	77.88
1043.238	65.88
1043.661	84.88
1044.084	77.88
1044.507	89.88
1044.93	77.88
1045.352	100.88
1045.775	87.88
1046.198	93.88
1046.621	83.88
1047.043	89.88
1047.466	87.88
1047.889	81.88
1048.311	78.88
1048.734	68.88
1049.156	69.88
1049.579	95.88
1050.001	78.88
1050.424	91.88
1050.846	97.88
1051.269	96.88
1051.691	76.88
1052.113	79.88
1052.536	80.88
1052.958	81.88
1053.38	81.88
1053.802	96.88
1054.225	76.88
1054.647	81.88
1055.069	86.88
1055.491	87.88
1055.913	93.88
1056.335	100.88
1056.757	97.88
1057.179	87.88
1057.601	90.88
1058.023	95.88
1058.445	82.88
1058.867	93.88
1059.289	85.88
1059.711	81.88
1060.133	97.88
1060.555	87.88
1060.976	77.88
1061.398	75.88
1061.82	81.88
1062.241	79.88
1062.663	88.88
1063.085	82.88
1063.506	93.88
1063.928	79.88
1064.35	87.88
1064.771	71.88
1065.193	78.88
1065.614	89.88
1066.035	99.88
1066.457	76.88
1066.878	87.88
1067.3	55.88
1067.721	81.88
1068.142	94.88
1068.564	75.88
1068.985	76.88
1069.406	95.88
1069.827	77.88
1070.248	89.88
1070.67	71.88
1071.091	76.88
1071.512	90.88
1071.933	89.88
1072.354	85.88
1072.775	88.88
1073.196	87.88
1073.617	78.88
1074.038	83.88
1074.459	97.88
1074.88	104.88
1075.3	84.88
1075.721	89.88
1076.142	59.88
1076.563	74.88
1076.983	74.88
1077.404	78.88
1077.825	95.88
1078.246	68.88
1078.666	79.88
1079.087	82.88
1079.507	76.88
1079.928	92.88
1080.348	81.88
1080.769	95.88
1081.189	85.88
1081.61	81.88
1082.03	85.88
1082.451	90.88
1082.871	82.88
1083.291	85.88
1083.711	79.88
1084.132	86.88
1084.552	89.88
1084.972	76.88
1085.392	79.88
1085.813	79.88
1086.233	80.88
1086.653	77.88
1087.073	74.88
1087.493	72.88
1087.913	90.88
1088.333	75.88
1088.753	97.88
1089.173	73.88
1089.593	92.88
1090.013	93.88
1090.433	86.88
1090.852	76.88
1091.272	83.88
1091.692	78.88
1092.112	87.88
1092.531	78.88
1092.951	78.88
1093.371	90.88
1093.79	67.88
1094.21	71.88
1094.63	75.88
1095.049	89.88
1095.469	69.88
1095.888	92.88
1096.308	80.88
1096.727	91.88
1097.146	75.88
1097.566	69.88
1097.985	79.88
1098.405	65.88
1098.824	77.88
1099.243	78.88
1099.662	82.88
1100.082	59.88
1100.501	73.88
1100.92	84.88
1101.339	84.88
1101.758	78.88
