Data from 20170802-ORNL-NYSim-Air_HRD10391_10-36-57-625.txt Node
Date: Wed Aug 02 10:36:57 EDT 2017
User: Ender
Spectrometer: HR+D1039
Trigger mode: 0
Integration Time (sec): 1.510000E-3
Scans to average: 1
Electric dark correction enabled: true
Nonlinearity correction enabled: false
Boxcar width: 0
XAxis mode: Wavelengths
Number of Pixels in Spectrum: 2048
>>>>>Begin Spectral Data<<<<<
187.836	-9.56
188.309	-9.56
188.782	-9.56
189.255	8.44
189.728	-10.56
190.201	11.44
190.674	-9.56
191.147	-6.56
191.619	-2.56
192.092	-8.56
192.565	-11.56
193.038	-4.56
193.511	6.44
193.984	0.44
194.456	-3.56
194.929	35.44
195.402	8.44
195.874	-3.56
196.347	23.44
196.82	31.44
197.292	30.44
197.765	44.44
198.237	31.44
198.71	35.44
199.182	32.44
199.655	71.44
200.127	56.44
200.6	54.44
201.072	67.44
201.544	58.44
202.017	63.44
202.489	67.44
202.961	58.44
203.433	76.44
203.906	53.44
204.378	73.44
204.85	66.44
205.322	94.44
205.794	63.44
206.266	77.44
206.739	81.44
207.211	69.44
207.683	94.44
208.155	69.44
208.627	95.44
209.099	78.44
209.57	94.44
210.042	98.44
210.514	86.44
210.986	61.44
211.458	88.44
211.93	83.44
212.402	92.44
212.873	90.44
213.345	82.44
213.817	90.44
214.288	82.44
214.76	84.44
215.232	85.44
215.703	77.44
216.175	82.44
216.646	80.44
217.118	78.44
217.589	72.44
218.061	85.44
218.532	85.44
219.004	74.44
219.475	70.44
219.946	76.44
220.418	82.44
220.889	75.44
221.36	73.44
221.832	80.44
222.303	80.44
222.774	77.44
223.245	73.44
223.717	92.44
224.188	85.44
224.659	72.44
225.13	80.44
225.601	67.44
226.072	86.44
226.543	87.44
227.014	74.44
227.485	75.44
227.956	90.44
228.427	90.44
228.898	82.44
229.369	88.44
229.839	97.44
230.31	58.44
230.781	81.44
231.252	94.44
231.722	83.44
232.193	79.44
232.664	90.44
233.135	92.44
233.605	82.44
234.076	72.44
234.546	69.44
235.017	85.44
235.487	94.44
235.958	86.44
236.428	104.44
236.899	72.44
237.369	70.44
237.84	74.44
238.31	70.44
238.78	79.44
239.251	85.44
239.721	86.44
240.191	93.44
240.662	76.44
241.132	94.44
241.602	76.44
242.072	91.44
242.542	80.44
243.013	98.44
243.483	84.44
243.953	91.44
244.423	105.44
244.893	80.44
245.363	113.44
245.833	76.44
246.303	101.44
246.773	79.44
247.243	81.44
247.712	89.44
248.182	99.44
248.652	78.44
249.122	90.44
249.592	100.44
250.061	106.44
250.531	102.44
251.001	90.44
251.471	98.44
251.94	83.44
252.41	88.44
252.879	93.44
253.349	94.44
253.818	84.44
254.288	86.44
254.757	93.44
255.227	94.44
255.696	104.44
256.166	99.44
256.635	90.44
257.105	100.44
257.574	78.44
258.043	79.44
258.513	94.44
258.982	82.44
259.451	102.44
259.92	97.44
260.389	94.44
260.859	93.44
261.328	100.44
261.797	85.44
262.266	95.44
262.735	94.44
263.204	84.44
263.673	117.44
264.142	83.44
264.611	108.44
265.08	95.44
265.549	108.44
266.018	123.44
266.487	96.44
266.955	101.44
267.424	115.44
267.893	130.44
268.362	111.44
268.83	108.44
269.299	101.44
269.768	108.44
270.236	118.44
270.705	99.44
271.174	98.44
271.642	107.44
272.111	112.44
272.579	88.44
273.048	107.44
273.516	108.44
273.985	106.44
274.453	106.44
274.922	101.44
275.39	104.44
275.858	119.44
276.327	101.44
276.795	100.44
277.263	100.44
277.731	112.44
278.2	112.44
278.668	110.44
279.136	94.44
279.604	109.44
280.072	110.44
280.54	114.44
281.008	123.44
281.477	101.44
281.945	110.44
282.413	109.44
282.881	123.44
283.348	119.44
283.816	118.44
284.284	131.44
284.752	125.44
285.22	114.44
285.688	120.44
286.156	112.44
286.623	119.44
287.091	126.44
287.559	120.44
288.026	129.44
288.494	120.44
288.962	109.44
289.429	113.44
289.897	119.44
290.364	147.44
290.832	117.44
291.3	114.44
291.767	121.44
292.234	122.44
292.702	115.44
293.169	126.44
293.637	116.44
294.104	99.44
294.571	114.44
295.039	117.44
295.506	129.44
295.973	132.44
296.44	132.44
296.908	105.44
297.375	124.44
297.842	122.44
298.309	118.44
298.776	120.44
299.243	120.44
299.71	125.44
300.177	132.44
300.644	132.44
301.111	127.44
301.578	138.44
302.045	134.44
302.512	152.44
302.979	138.44
303.446	112.44
303.913	140.44
304.379	131.44
304.846	130.44
305.313	137.44
305.78	145.44
306.246	137.44
306.713	139.44
307.18	128.44
307.646	138.44
308.113	152.44
308.579	140.44
309.046	157.44
309.512	151.44
309.979	137.44
310.445	153.44
310.912	142.44
311.378	149.44
311.845	139.44
312.311	127.44
312.777	146.44
313.244	138.44
313.71	138.44
314.176	154.44
314.642	155.44
315.109	151.44
315.575	149.44
316.041	147.44
316.507	152.44
316.973	155.44
317.439	158.44
317.905	152.44
318.371	144.44
318.837	154.44
319.303	166.44
319.769	152.44
320.235	164.44
320.701	161.44
321.167	159.44
321.633	176.44
322.099	149.44
322.564	175.44
323.03	146.44
323.496	163.44
323.962	161.44
324.427	171.44
324.893	175.44
325.359	164.44
325.824	177.44
326.29	167.44
326.755	168.44
327.221	175.44
327.686	184.44
328.152	174.44
328.617	171.44
329.083	160.44
329.548	161.44
330.014	161.44
330.479	163.44
330.944	173.44
331.41	192.44
331.875	182.44
332.34	172.44
332.805	167.44
333.271	174.44
333.736	174.44
334.201	188.44
334.666	194.44
335.131	183.44
335.596	200.44
336.061	169.44
336.526	203.44
336.991	168.44
337.456	167.44
337.921	168.44
338.386	182.44
338.851	168.44
339.316	180.44
339.781	166.44
340.246	170.44
340.711	176.44
341.175	206.44
341.64	201.44
342.105	184.44
342.569	202.44
343.034	192.44
343.499	197.44
343.963	188.44
344.428	195.44
344.893	207.44
345.357	193.44
345.822	212.44
346.286	219.44
346.751	221.44
347.215	216.44
347.679	198.44
348.144	217.44
348.608	191.44
349.073	214.44
349.537	218.44
350.001	219.44
350.465	222.44
350.93	221.44
351.394	206.44
351.858	212.44
352.322	198.44
352.786	209.44
353.25	234.44
353.715	239.44
354.179	238.44
354.643	211.44
355.107	244.44
355.571	262.44
356.035	241.44
356.498	238.44
356.962	243.44
357.426	250.44
357.89	231.44
358.354	231.44
358.818	230.44
359.281	243.44
359.745	254.44
360.209	235.44
360.673	234.44
361.136	232.44
361.6	218.44
362.064	249.44
362.527	251.44
362.991	259.44
363.454	235.44
363.918	256.44
364.381	237.44
364.845	250.44
365.308	242.44
365.772	254.44
366.235	255.44
366.698	259.44
367.162	250.44
367.625	251.44
368.088	274.44
368.552	261.44
369.015	259.44
369.478	271.44
369.941	249.44
370.404	252.44
370.867	233.44
371.331	255.44
371.794	288.44
372.257	266.44
372.72	259.44
373.183	251.44
373.646	252.44
374.109	259.44
374.572	286.44
375.035	274.44
375.497	273.44
375.96	267.44
376.423	305.44
376.886	310.44
377.349	281.44
377.811	292.44
378.274	281.44
378.737	272.44
379.199	282.44
379.662	278.44
380.125	312.44
380.587	287.44
381.05	297.44
381.512	296.44
381.975	328.44
382.437	316.44
382.9	309.44
383.362	308.44
383.825	326.44
384.287	328.44
384.75	307.44
385.212	296.44
385.674	334.44
386.136	320.44
386.599	318.44
387.061	323.44
387.523	336.44
387.985	313.44
388.447	327.44
388.91	297.44
389.372	323.44
389.834	327.44
390.296	340.44
390.758	332.44
391.22	320.44
391.682	345.44
392.144	326.44
392.606	331.44
393.068	349.44
393.529	339.44
393.991	358.44
394.453	341.44
394.915	358.44
395.377	342.44
395.838	315.44
396.3	319.44
396.762	337.44
397.224	330.44
397.685	325.44
398.147	354.44
398.608	361.44
399.07	342.44
399.531	338.44
399.993	351.44
400.454	353.44
400.916	376.44
401.377	377.44
401.839	356.44
402.3	378.44
402.762	374.44
403.223	398.44
403.684	403.44
404.145	379.44
404.607	403.44
405.068	364.44
405.529	377.44
405.99	368.44
406.451	365.44
406.913	409.44
407.374	393.44
407.835	394.44
408.296	399.44
408.757	382.44
409.218	391.44
409.679	422.44
410.14	430.44
410.601	435.44
411.062	407.44
411.522	446.44
411.983	428.44
412.444	410.44
412.905	436.44
413.366	421.44
413.826	449.44
414.287	494.44
414.748	575.44
415.208	582.44
415.669	521.44
416.13	480.44
416.59	475.44
417.051	497.44
417.511	504.44
417.972	535.44
418.432	548.44
418.893	604.44
419.353	584.44
419.814	460.44
420.274	457.44
420.734	423.44
421.195	436.44
421.655	431.44
422.115	443.44
422.576	444.44
423.036	457.44
423.496	486.44
423.956	482.44
424.416	506.44
424.876	560.44
425.336	558.44
425.797	532.44
426.257	523.44
426.717	515.44
427.177	464.44
427.637	494.44
428.097	502.44
428.556	533.44
429.016	564.44
429.476	570.44
429.936	553.44
430.396	577.44
430.856	567.44
431.315	604.44
431.775	622.44
432.235	653.44
432.694	650.44
433.154	628.44
433.614	642.44
434.073	630.44
434.533	575.44
434.993	552.44
435.452	516.44
435.912	539.44
436.371	535.44
436.83	528.44
437.29	498.44
437.749	506.44
438.209	498.44
438.668	493.44
439.127	487.44
439.587	520.44
440.046	501.44
440.505	507.44
440.964	503.44
441.424	544.44
441.883	524.44
442.342	517.44
442.801	469.44
443.26	468.44
443.719	486.44
444.178	472.44
444.637	506.44
445.096	490.44
445.555	501.44
446.014	490.44
446.473	485.44
446.932	510.44
447.391	500.44
447.849	490.44
448.308	501.44
448.767	501.44
449.226	516.44
449.685	503.44
450.143	525.44
450.602	545.44
451.061	486.44
451.519	516.44
451.978	533.44
452.436	508.44
452.895	520.44
453.353	508.44
453.812	507.44
454.27	513.44
454.729	522.44
455.187	498.44
455.646	507.44
456.104	490.44
456.562	523.44
457.021	529.44
457.479	515.44
457.937	517.44
458.395	540.44
458.854	534.44
459.312	530.44
459.77	538.44
460.228	542.44
460.686	530.44
461.144	533.44
461.602	518.44
462.06	544.44
462.518	525.44
462.976	500.44
463.434	570.44
463.892	554.44
464.35	547.44
464.808	544.44
465.266	560.44
465.724	565.44
466.181	583.44
466.639	580.44
467.097	610.44
467.555	590.44
468.012	595.44
468.47	612.44
468.928	647.44
469.385	654.44
469.843	630.44
470.3	610.44
470.758	660.44
471.215	674.44
471.673	673.44
472.13	708.44
472.588	704.44
473.045	706.44
473.503	719.44
473.96	730.44
474.417	764.44
474.875	793.44
475.332	840.44
475.789	844.44
476.246	848.44
476.704	865.44
477.161	928.44
477.618	942.44
478.075	979.44
478.532	1022.44
478.989	1131.44
479.446	1223.44
479.903	1271.44
480.36	1415.44
480.817	1460.44
481.274	1573.44
481.731	1697.44
482.188	1825.44
482.645	1983.44
483.102	2088.44
483.558	2204.44
484.015	2349.44
484.472	2329.44
484.929	2272.44
485.385	2178.44
485.842	2133.44
486.299	2022.44
486.755	1889.44
487.212	1681.44
487.668	1551.44
488.125	1443.44
488.582	1323.44
489.038	1289.44
489.494	1254.44
489.951	1243.44
490.407	1169.44
490.864	1134.44
491.32	1129.44
491.776	1132.44
492.233	1147.44
492.689	1108.44
493.145	1081.44
493.602	1084.44
494.058	1068.44
494.514	1086.44
494.97	1084.44
495.426	1068.44
495.882	1134.44
496.338	1054.44
496.794	1101.44
497.251	1094.44
497.707	1126.44
498.163	1118.44
498.618	1109.44
499.074	1120.44
499.53	1144.44
499.986	1124.44
500.442	1094.44
500.898	1127.44
501.354	1123.44
501.809	1088.44
502.265	1101.44
502.721	1102.44
503.177	1088.44
503.632	1105.44
504.088	1128.44
504.543	1118.44
504.999	1180.44
505.455	1202.44
505.91	1160.44
506.366	1147.44
506.821	1146.44
507.277	1146.44
507.732	1139.44
508.187	1127.44
508.643	1147.44
509.098	1155.44
509.553	1178.44
510.009	1160.44
510.464	1167.44
510.919	1222.44
511.375	1230.44
511.83	1209.44
512.285	1256.44
512.74	1228.44
513.195	1270.44
513.65	1316.44
514.105	1339.44
514.56	1332.44
515.015	1325.44
515.47	1329.44
515.925	1338.44
516.38	1315.44
516.835	1333.44
517.29	1321.44
517.745	1304.44
518.2	1293.44
518.655	1293.44
519.109	1297.44
519.564	1234.44
520.019	1213.44
520.474	1247.44
520.928	1225.44
521.383	1208.44
521.838	1206.44
522.292	1201.44
522.747	1202.44
523.201	1238.44
523.656	1206.44
524.11	1215.44
524.565	1201.44
525.019	1160.44
525.474	1195.44
525.928	1206.44
526.382	1200.44
526.837	1206.44
527.291	1213.44
527.745	1178.44
528.2	1164.44
528.654	1181.44
529.108	1193.44
529.562	1194.44
530.016	1151.44
530.47	1174.44
530.925	1191.44
531.379	1217.44
531.833	1229.44
532.287	1188.44
532.741	1170.44
533.195	1202.44
533.649	1203.44
534.103	1142.44
534.556	1182.44
535.01	1166.44
535.464	1188.44
535.918	1178.44
536.372	1168.44
536.826	1184.44
537.279	1174.44
537.733	1195.44
538.187	1176.44
538.64	1190.44
539.094	1168.44
539.548	1200.44
540.001	1211.44
540.455	1180.44
540.908	1197.44
541.362	1204.44
541.815	1240.44
542.269	1280.44
542.722	1270.44
543.175	1300.44
543.629	1279.44
544.082	1269.44
544.536	1312.44
544.989	1283.44
545.442	1272.44
545.895	1304.44
546.349	1290.44
546.802	1351.44
547.255	1310.44
547.708	1334.44
548.161	1325.44
548.614	1326.44
549.067	1347.44
549.52	1309.44
549.973	1324.44
550.426	1298.44
550.879	1304.44
551.332	1301.44
551.785	1288.44
552.238	1326.44
552.691	1344.44
553.144	1350.44
553.596	1380.44
554.049	1371.44
554.502	1406.44
554.955	1446.44
555.407	1487.44
555.86	1466.44
556.313	1423.44
556.765	1416.44
557.218	1402.44
557.67	1384.44
558.123	1365.44
558.576	1368.44
559.028	1368.44
559.48	1405.44
559.933	1395.44
560.385	1308.44
560.838	1290.44
561.29	1276.44
561.742	1282.44
562.195	1260.44
562.647	1223.44
563.099	1230.44
563.551	1204.44
564.004	1227.44
564.456	1222.44
564.908	1218.44
565.36	1184.44
565.812	1136.44
566.264	1104.44
566.716	1131.44
567.168	1102.44
567.62	1090.44
568.072	1082.44
568.524	1096.44
568.976	1071.44
569.428	1082.44
569.88	1073.44
570.332	1088.44
570.784	1109.44
571.235	1076.44
571.687	1117.44
572.139	1107.44
572.59	1088.44
573.042	1104.44
573.494	1098.44
573.945	1096.44
574.397	1090.44
574.849	1080.44
575.3	1086.44
575.752	1081.44
576.203	1076.44
576.655	1069.44
577.106	1055.44
577.557	1056.44
578.009	1029.44
578.46	1059.44
578.912	1030.44
579.363	1048.44
579.814	1017.44
580.265	1066.44
580.717	1034.44
581.168	1048.44
581.619	1042.44
582.07	1049.44
582.521	1029.44
582.972	1026.44
583.423	1036.44
583.875	1027.44
584.326	1041.44
584.777	1081.44
585.227	1063.44
585.678	1114.44
586.129	1090.44
586.58	1119.44
587.031	1112.44
587.482	1144.44
587.933	1139.44
588.384	1166.44
588.834	1168.44
589.285	1136.44
589.736	1148.44
590.186	1144.44
590.637	1176.44
591.088	1158.44
591.538	1131.44
591.989	1103.44
592.439	1111.44
592.89	1102.44
593.34	1096.44
593.791	1049.44
594.241	1024.44
594.692	1057.44
595.142	1064.44
595.593	1074.44
596.043	1041.44
596.493	1052.44
596.943	1055.44
597.394	1084.44
597.844	1078.44
598.294	1132.44
598.744	1161.44
599.195	1213.44
599.645	1231.44
600.095	1318.44
600.545	1356.44
600.995	1405.44
601.445	1476.44
601.895	1516.44
602.345	1602.44
602.795	1600.44
603.245	1530.44
603.695	1464.44
604.145	1378.44
604.594	1321.44
605.044	1235.44
605.494	1189.44
605.944	1142.44
606.393	1097.44
606.843	1102.44
607.293	1030.44
607.743	1064.44
608.192	1061.44
608.642	1071.44
609.091	1091.44
609.541	1074.44
609.99	1063.44
610.44	1072.44
610.889	1080.44
611.339	1020.44
611.788	1021.44
612.238	1032.44
612.687	992.44
613.136	1063.44
613.586	1045.44
614.035	1003.44
614.484	1072.44
614.933	1069.44
615.383	1031.44
615.832	1000.44
616.281	1019.44
616.73	980.44
617.179	978.44
617.628	936.44
618.077	936.44
618.526	916.44
618.975	920.44
619.424	884.44
619.873	900.44
620.322	895.44
620.771	900.44
621.22	864.44
621.669	840.44
622.118	842.44
622.567	840.44
623.015	821.44
623.464	871.44
623.913	790.44
624.361	837.44
624.81	811.44
625.259	793.44
625.707	839.44
626.156	819.44
626.604	830.44
627.053	824.44
627.501	819.44
627.95	846.44
628.398	846.44
628.847	842.44
629.295	834.44
629.744	833.44
630.192	814.44
630.64	824.44
631.089	782.44
631.537	786.44
631.985	763.44
632.433	789.44
632.881	774.44
633.33	779.44
633.778	781.44
634.226	780.44
634.674	775.44
635.122	794.44
635.57	778.44
636.018	822.44
636.466	806.44
636.914	804.44
637.362	852.44
637.81	815.44
638.258	856.44
638.705	872.44
639.153	882.44
639.601	901.44
640.049	908.44
640.497	924.44
640.944	959.44
641.392	912.44
641.84	894.44
642.287	872.44
642.735	834.44
643.182	804.44
643.63	846.44
644.078	854.44
644.525	834.44
644.973	848.44
645.42	892.44
645.867	892.44
646.315	888.44
646.762	939.44
647.21	1006.44
647.657	1026.44
648.104	1024.44
648.551	1092.44
648.999	1156.44
649.446	1237.44
649.893	1347.44
650.34	1550.44
650.787	1820.44
651.234	2325.44
651.682	3127.44
652.129	4301.44
652.576	6106.44
653.023	8418.44
653.47	10299.44
653.917	11560.44
654.363	12228.44
654.81	12944.44
655.257	13532.44
655.704	10373.44
656.151	6259.44
656.598	3972.44
657.044	2833.44
657.491	2189.44
657.938	1774.44
658.385	1537.44
658.831	1363.44
659.278	1199.44
659.724	1099.44
660.171	1027.44
660.618	941.44
661.064	912.44
661.511	854.44
661.957	809.44
662.404	822.44
662.85	827.44
663.296	782.44
663.743	786.44
664.189	800.44
664.635	757.44
665.082	736.44
665.528	731.44
665.974	718.44
666.42	726.44
666.867	730.44
667.313	684.44
667.759	687.44
668.205	648.44
668.651	662.44
669.097	690.44
669.543	661.44
669.989	650.44
670.435	656.44
670.881	671.44
671.327	696.44
671.773	716.44
672.219	786.44
672.665	833.44
673.11	871.44
673.556	876.44
674.002	872.44
674.448	885.44
674.893	821.44
675.339	720.44
675.785	647.44
676.23	609.44
676.676	619.44
677.122	575.44
677.567	552.44
678.013	544.44
678.458	552.44
678.904	558.44
679.349	554.44
679.794	542.44
680.24	533.44
680.685	552.44
681.131	509.44
681.576	514.44
682.021	538.44
682.466	538.44
682.912	549.44
683.357	536.44
683.802	581.44
684.247	612.44
684.692	676.44
685.137	705.44
685.583	716.44
686.028	713.44
686.473	738.44
686.918	656.44
687.363	586.44
687.807	556.44
688.252	562.44
688.697	511.44
689.142	515.44
689.587	512.44
690.032	534.44
690.477	538.44
690.921	546.44
691.366	586.44
691.811	610.44
692.255	641.44
692.7	720.44
693.145	919.44
693.589	1306.44
694.034	1799.44
694.478	1895.44
694.923	1761.44
695.367	2181.44
695.812	2044.44
696.256	878.44
696.701	588.44
697.145	542.44
697.59	495.44
698.034	505.44
698.478	497.44
698.922	501.44
699.367	498.44
699.811	511.44
700.255	554.44
700.699	598.44
701.143	666.44
701.588	651.44
702.032	687.44
702.476	712.44
702.92	718.44
703.364	834.44
703.808	1194.44
704.252	1640.44
704.696	1873.44
705.14	1748.44
705.584	2130.44
706.027	1795.44
706.471	881.44
706.915	612.44
707.359	556.44
707.803	505.44
708.246	489.44
708.69	501.44
709.134	486.44
709.577	476.44
710.021	458.44
710.465	462.44
710.908	483.44
711.352	490.44
711.795	532.44
712.239	543.44
712.682	572.44
713.126	567.44
713.569	608.44
714.012	546.44
714.456	480.44
714.899	440.44
715.342	427.44
715.786	423.44
716.229	418.44
716.672	415.44
717.115	424.44
717.558	400.44
718.002	409.44
718.445	436.44
718.888	422.44
719.331	456.44
719.774	447.44
720.217	442.44
720.66	438.44
721.103	402.44
721.546	403.44
721.989	394.44
722.432	406.44
722.874	401.44
723.317	374.44
723.76	392.44
724.203	464.44
724.645	566.44
725.088	690.44
725.531	719.44
725.974	720.44
726.416	779.44
726.859	549.44
727.301	414.44
727.744	416.44
728.187	384.44
728.629	380.44
729.071	410.44
729.514	412.44
729.956	427.44
730.399	440.44
730.841	451.44
731.283	422.44
731.726	432.44
732.168	411.44
732.61	432.44
733.053	471.44
733.495	489.44
733.937	532.44
734.379	610.44
734.821	708.44
735.263	927.44
735.705	1628.44
736.148	2632.44
736.59	3044.44
737.032	2848.44
737.474	3103.44
737.916	1578.44
738.357	740.44
738.799	517.44
739.241	484.44
739.683	474.44
740.125	489.44
740.567	487.44
741.008	479.44
741.45	510.44
741.892	574.44
742.334	574.44
742.775	575.44
743.217	567.44
743.658	503.44
744.1	456.44
744.542	510.44
744.983	572.44
745.425	564.44
745.866	598.44
746.307	532.44
746.749	502.44
747.19	554.44
747.632	954.44
748.073	1793.44
748.514	2719.44
748.956	3370.44
749.397	4643.44
749.838	3729.44
750.279	3002.44
750.72	2275.44
751.162	1041.44
751.603	557.44
752.044	441.44
752.485	372.44
752.926	374.44
753.367	371.44
753.808	316.44
754.249	341.44
754.69	332.44
755.131	350.44
755.572	330.44
756.013	324.44
756.453	326.44
756.894	341.44
757.335	341.44
757.776	323.44
758.216	334.44
758.657	360.44
759.098	374.44
759.538	415.44
759.979	510.44
760.42	820.44
760.86	1763.44
761.301	4007.44
761.741	6038.44
762.182	6194.44
762.622	5919.44
763.063	2752.44
763.503	1075.44
763.943	544.44
764.384	446.44
764.824	412.44
765.264	370.44
765.705	336.44
766.145	325.44
766.585	339.44
767.025	312.44
767.465	300.44
767.906	314.44
768.346	307.44
768.786	343.44
769.226	399.44
769.666	663.44
770.106	1378.44
770.546	2436.44
770.986	2611.44
771.426	2604.44
771.866	1441.44
772.306	662.44
772.745	399.44
773.185	344.44
773.625	272.44
774.065	322.44
774.505	344.44
774.944	550.44
775.384	861.44
775.824	986.44
776.263	987.44
776.703	693.44
777.142	414.44
777.582	298.44
778.021	254.44
778.461	242.44
778.9	252.44
779.34	253.44
779.779	250.44
780.219	245.44
780.658	226.44
781.097	245.44
781.537	240.44
781.976	234.44
782.415	220.44
782.855	230.44
783.294	236.44
783.733	188.44
784.172	223.44
784.611	213.44
785.05	234.44
785.489	210.44
785.928	242.44
786.367	243.44
786.806	262.44
787.245	245.44
787.684	280.44
788.123	264.44
788.562	264.44
789.001	243.44
789.44	258.44
789.879	240.44
790.317	264.44
790.756	248.44
791.195	276.44
791.634	311.44
792.072	428.44
792.511	825.44
792.95	1811.44
793.388	2295.44
793.827	2051.44
794.265	1221.44
794.704	606.44
795.142	346.44
795.581	297.44
796.019	259.44
796.458	260.44
796.896	298.44
797.334	274.44
797.773	311.44
798.211	465.44
798.649	913.44
799.087	1473.44
799.526	2254.44
799.964	2458.44
800.402	2083.44
800.84	1242.44
801.278	662.44
801.716	379.44
802.154	303.44
802.592	273.44
803.03	270.44
803.468	271.44
803.906	265.44
804.344	281.44
804.782	276.44
805.22	282.44
805.658	274.44
806.096	250.44
806.533	313.44
806.971	341.44
807.409	435.44
807.847	643.44
808.284	1488.44
808.722	2962.44
809.16	4103.44
809.597	5815.44
810.035	7396.44
810.472	6239.44
810.91	3573.44
811.347	1738.44
811.785	800.44
812.222	477.44
812.66	373.44
813.097	318.44
813.535	286.44
813.972	276.44
814.409	233.44
814.846	234.44
815.284	218.44
815.721	242.44
816.158	236.44
816.595	287.44
817.032	344.44
817.47	372.44
817.907	311.44
818.344	258.44
818.781	232.44
819.218	247.44
819.655	350.44
820.092	418.44
820.529	425.44
820.966	368.44
821.403	321.44
821.839	245.44
822.276	250.44
822.713	271.44
823.15	262.44
823.587	291.44
824.023	336.44
824.46	714.44
824.897	1321.44
825.333	1397.44
825.77	914.44
826.206	508.44
826.643	316.44
827.08	220.44
827.516	219.44
827.953	204.44
828.389	198.44
828.825	181.44
829.262	192.44
829.698	178.44
830.135	190.44
830.571	183.44
831.007	182.44
831.443	196.44
831.88	166.44
832.316	163.44
832.752	162.44
833.188	168.44
833.624	194.44
834.06	176.44
834.497	181.44
834.933	178.44
835.369	204.44
835.805	171.44
836.241	180.44
836.677	222.44
837.112	222.44
837.548	258.44
837.984	310.44
838.42	474.44
838.856	1101.44
839.292	2259.44
839.727	2496.44
840.163	1672.44
840.599	1984.44
841.034	2919.44
841.47	2301.44
841.906	1297.44
842.341	752.44
842.777	464.44
843.212	427.44
843.648	357.44
844.083	271.44
844.519	223.44
844.954	186.44
845.39	175.44
845.825	178.44
846.261	174.44
846.696	170.44
847.131	168.44
847.566	147.44
848.002	156.44
848.437	163.44
848.872	162.44
849.307	166.44
849.742	217.44
850.177	430.44
850.613	860.44
851.048	954.44
851.483	583.44
851.918	393.44
852.353	245.44
852.788	190.44
853.223	162.44
853.657	156.44
854.092	146.44
854.527	127.44
854.962	156.44
855.397	151.44
855.832	152.44
856.266	151.44
856.701	148.44
857.136	147.44
857.57	148.44
858.005	184.44
858.44	184.44
858.874	162.44
859.309	156.44
859.743	142.44
860.178	149.44
860.612	146.44
861.047	181.44
861.481	196.44
861.915	186.44
862.35	159.44
862.784	144.44
863.218	146.44
863.653	135.44
864.087	152.44
864.521	177.44
864.955	193.44
865.39	275.44
865.824	286.44
866.258	310.44
866.692	411.44
867.126	407.44
867.56	298.44
867.994	221.44
868.428	187.44
868.862	162.44
869.296	163.44
869.73	185.44
870.164	192.44
870.598	189.44
871.031	166.44
871.465	148.44
871.899	127.44
872.333	120.44
872.766	110.44
873.2	126.44
873.634	108.44
874.067	134.44
874.501	123.44
874.935	121.44
875.368	134.44
875.802	118.44
876.235	119.44
876.669	127.44
877.102	110.44
877.535	123.44
877.969	116.44
878.402	131.44
878.836	125.44
879.269	113.44
879.702	108.44
880.135	119.44
880.569	119.44
881.002	122.44
881.435	120.44
881.868	119.44
882.301	110.44
882.734	107.44
883.167	98.44
883.601	111.44
884.034	104.44
884.467	129.44
884.899	104.44
885.332	110.44
885.765	108.44
886.198	113.44
886.631	101.44
887.064	117.44
887.497	112.44
887.929	103.44
888.362	96.44
888.795	99.44
889.228	112.44
889.66	106.44
890.093	108.44
890.526	113.44
890.958	104.44
891.391	113.44
891.823	91.44
892.256	112.44
892.688	112.44
893.121	110.44
893.553	99.44
893.985	91.44
894.418	106.44
894.85	90.44
895.282	119.44
895.715	98.44
896.147	103.44
896.579	99.44
897.011	112.44
897.444	111.44
897.876	129.44
898.308	114.44
898.74	104.44
899.172	106.44
899.604	96.44
900.036	114.44
900.468	112.44
900.9	114.44
901.332	106.44
901.764	111.44
902.196	127.44
902.628	106.44
903.06	120.44
903.491	128.44
903.923	128.44
904.355	140.44
904.787	150.44
905.218	125.44
905.65	118.44
906.082	114.44
906.513	126.44
906.945	107.44
907.376	134.44
907.808	111.44
908.239	116.44
908.671	126.44
909.102	114.44
909.534	130.44
909.965	173.44
910.397	236.44
910.828	566.44
911.259	605.44
911.691	391.44
912.122	292.44
912.553	194.44
912.984	146.44
913.415	113.44
913.847	104.44
914.278	111.44
914.709	102.44
915.14	113.44
915.571	113.44
916.002	107.44
916.433	105.44
916.864	104.44
917.295	108.44
917.726	114.44
918.157	123.44
918.587	110.44
919.018	134.44
919.449	126.44
919.88	125.44
920.311	124.44
920.741	161.44
921.172	312.44
921.603	253.44
922.033	202.44
922.464	148.44
922.895	118.44
923.325	97.44
923.756	112.44
924.186	108.44
924.617	126.44
925.047	160.44
925.478	152.44
925.908	144.44
926.338	105.44
926.769	110.44
927.199	108.44
927.629	107.44
928.06	106.44
928.49	97.44
928.92	99.44
929.35	82.44
929.78	89.44
930.21	103.44
930.641	106.44
931.071	99.44
931.501	96.44
931.931	97.44
932.361	87.44
932.791	105.44
933.221	104.44
933.651	91.44
934.08	109.44
934.51	117.44
934.94	105.44
935.37	91.44
935.8	100.44
936.229	92.44
936.659	110.44
937.089	91.44
937.519	115.44
937.948	120.44
938.378	116.44
938.807	108.44
939.237	103.44
939.666	106.44
940.096	95.44
940.525	63.44
940.955	88.44
941.384	87.44
941.814	78.44
942.243	105.44
942.672	90.44
943.102	94.44
943.531	100.44
943.96	93.44
944.39	91.44
944.819	95.44
945.248	102.44
945.677	99.44
946.106	97.44
946.535	80.44
946.964	90.44
947.393	86.44
947.822	84.44
948.251	97.44
948.68	64.44
949.109	89.44
949.538	94.44
949.967	83.44
950.396	98.44
950.825	101.44
951.254	90.44
951.682	92.44
952.111	84.44
952.54	88.44
952.969	93.44
953.397	92.44
953.826	103.44
954.254	90.44
954.683	95.44
955.112	80.44
955.54	85.44
955.969	94.44
956.397	95.44
956.826	89.44
957.254	108.44
957.682	82.44
958.111	95.44
958.539	91.44
958.967	110.44
959.396	101.44
959.824	103.44
960.252	96.44
960.68	93.44
961.109	96.44
961.537	87.44
961.965	90.44
962.393	99.44
962.821	88.44
963.249	104.44
963.677	101.44
964.105	94.44
964.533	137.44
964.961	138.44
965.389	113.44
965.817	107.44
966.245	95.44
966.672	100.44
967.1	88.44
967.528	93.44
967.956	73.44
968.383	85.44
968.811	83.44
969.239	82.44
969.666	77.44
970.094	112.44
970.522	100.44
970.949	88.44
971.377	89.44
971.804	93.44
972.232	98.44
972.659	87.44
973.087	86.44
973.514	74.44
973.941	80.44
974.369	102.44
974.796	88.44
975.223	90.44
975.651	92.44
976.078	82.44
976.505	99.44
976.932	102.44
977.359	125.44
977.786	78.44
978.214	97.44
978.641	99.44
979.068	101.44
979.495	75.44
979.922	90.44
980.349	80.44
980.776	86.44
981.202	94.44
981.629	93.44
982.056	91.44
982.483	77.44
982.91	95.44
983.337	87.44
983.763	99.44
984.19	85.44
984.617	84.44
985.043	92.44
985.47	83.44
985.897	93.44
986.323	74.44
986.75	88.44
987.176	92.44
987.603	90.44
988.029	77.44
988.456	88.44
988.882	79.44
989.308	78.44
989.735	93.44
990.161	82.44
990.587	94.44
991.014	74.44
991.44	101.44
991.866	82.44
992.292	86.44
992.719	91.44
993.145	100.44
993.571	91.44
993.997	74.44
994.423	81.44
994.849	81.44
995.275	89.44
995.701	90.44
996.127	88.44
996.553	88.44
996.979	74.44
997.405	91.44
997.83	82.44
998.256	76.44
998.682	94.44
999.108	87.44
999.534	87.44
999.959	93.44
1000.385	92.44
1000.811	74.44
1001.236	83.44
1001.662	76.44
1002.087	72.44
1002.513	81.44
1002.938	76.44
1003.364	91.44
1003.789	90.44
1004.215	90.44
1004.64	88.44
1005.066	90.44
1005.491	96.44
1005.916	78.44
1006.342	93.44
1006.767	71.44
1007.192	104.44
1007.617	80.44
1008.042	94.44
1008.468	91.44
1008.893	74.44
1009.318	81.44
1009.743	102.44
1010.168	87.44
1010.593	78.44
1011.018	94.44
1011.443	102.44
1011.868	96.44
1012.293	103.44
1012.718	84.44
1013.143	85.44
1013.567	81.44
1013.992	91.44
1014.417	82.44
1014.842	79.44
1015.267	89.44
1015.691	79.44
1016.116	83.44
1016.541	92.44
1016.965	80.44
1017.39	98.44
1017.814	79.44
1018.239	96.44
1018.663	92.44
1019.088	100.44
1019.512	84.44
1019.937	90.44
1020.361	82.44
1020.785	93.44
1021.21	91.44
1021.634	93.44
1022.058	81.44
1022.483	86.44
1022.907	89.44
1023.331	89.44
1023.755	77.44
1024.179	98.44
1024.604	100.44
1025.028	92.44
1025.452	83.44
1025.876	82.44
1026.3	82.44
1026.724	80.44
1027.148	72.44
1027.572	81.44
1027.996	91.44
1028.42	85.44
1028.843	88.44
1029.267	65.44
1029.691	83.44
1030.115	97.44
1030.539	84.44
1030.962	88.44
1031.386	87.44
1031.81	81.44
1032.233	115.44
1032.657	74.44
1033.08	80.44
1033.504	62.44
1033.927	91.44
1034.351	92.44
1034.774	68.44
1035.198	81.44
1035.621	103.44
1036.045	94.44
1036.468	85.44
1036.891	86.44
1037.315	94.44
1037.738	94.44
1038.161	91.44
1038.584	80.44
1039.008	87.44
1039.431	79.44
1039.854	72.44
1040.277	86.44
1040.7	82.44
1041.123	91.44
1041.546	87.44
1041.969	92.44
1042.392	85.44
1042.815	81.44
1043.238	93.44
1043.661	73.44
1044.084	100.44
1044.507	91.44
1044.93	82.44
1045.352	66.44
1045.775	65.44
1046.198	76.44
1046.621	62.44
1047.043	100.44
1047.466	98.44
1047.889	86.44
1048.311	82.44
1048.734	81.44
1049.156	88.44
1049.579	72.44
1050.001	87.44
1050.424	84.44
1050.846	92.44
1051.269	92.44
1051.691	91.44
1052.113	78.44
1052.536	98.44
1052.958	78.44
1053.38	79.44
1053.802	96.44
1054.225	85.44
1054.647	70.44
1055.069	96.44
1055.491	85.44
1055.913	70.44
1056.335	62.44
1056.757	81.44
1057.179	80.44
1057.601	88.44
1058.023	85.44
1058.445	83.44
1058.867	79.44
1059.289	83.44
1059.711	73.44
1060.133	75.44
1060.555	90.44
1060.976	89.44
1061.398	83.44
1061.82	75.44
1062.241	72.44
1062.663	84.44
1063.085	92.44
1063.506	103.44
1063.928	83.44
1064.35	88.44
1064.771	88.44
1065.193	80.44
1065.614	90.44
1066.035	67.44
1066.457	94.44
1066.878	76.44
1067.3	73.44
1067.721	88.44
1068.142	71.44
1068.564	87.44
1068.985	88.44
1069.406	92.44
1069.827	74.44
1070.248	81.44
1070.67	81.44
1071.091	78.44
1071.512	86.44
1071.933	80.44
1072.354	89.44
1072.775	60.44
1073.196	86.44
1073.617	73.44
1074.038	84.44
1074.459	64.44
1074.88	82.44
1075.3	80.44
1075.721	80.44
1076.142	103.44
1076.563	83.44
1076.983	85.44
1077.404	66.44
1077.825	80.44
1078.246	70.44
1078.666	68.44
1079.087	79.44
1079.507	88.44
1079.928	74.44
1080.348	81.44
1080.769	82.44
1081.189	98.44
1081.61	106.44
1082.03	104.44
1082.451	84.44
1082.871	84.44
1083.291	68.44
1083.711	91.44
1084.132	90.44
1084.552	102.44
1084.972	88.44
1085.392	93.44
1085.813	102.44
1086.233	72.44
1086.653	76.44
1087.073	78.44
1087.493	80.44
1087.913	79.44
1088.333	67.44
1088.753	80.44
1089.173	80.44
1089.593	96.44
1090.013	80.44
1090.433	83.44
1090.852	61.44
1091.272	90.44
1091.692	81.44
1092.112	76.44
1092.531	100.44
1092.951	93.44
1093.371	83.44
1093.79	92.44
1094.21	92.44
1094.63	94.44
1095.049	77.44
1095.469	74.44
1095.888	84.44
1096.308	90.44
1096.727	90.44
1097.146	77.44
1097.566	78.44
1097.985	86.44
1098.405	75.44
1098.824	69.44
1099.243	77.44
1099.662	80.44
1100.082	90.44
1100.501	69.44
1100.92	79.44
1101.339	83.44
1101.758	90.44
