Data from 20170802-ORNL-NYSim-Air_HRD10391_10-37-17-634.txt Node
Date: Wed Aug 02 10:37:17 EDT 2017
User: Ender
Spectrometer: HR+D1039
Trigger mode: 0
Integration Time (sec): 1.510000E-3
Scans to average: 1
Electric dark correction enabled: true
Nonlinearity correction enabled: false
Boxcar width: 0
XAxis mode: Wavelengths
Number of Pixels in Spectrum: 2048
>>>>>Begin Spectral Data<<<<<
187.836	9.56
188.309	9.56
188.782	9.56
189.255	1.56
189.728	-23.44
190.201	-10.44
190.674	-5.44
191.147	-6.44
191.619	-6.44
192.092	-0.44
192.565	-5.44
193.038	-2.44
193.511	6.56
193.984	2.56
194.456	13.56
194.929	8.56
195.402	6.56
195.874	11.56
196.347	14.56
196.82	26.56
197.292	38.56
197.765	31.56
198.237	42.56
198.71	34.56
199.182	56.56
199.655	59.56
200.127	62.56
200.6	49.56
201.072	66.56
201.544	61.56
202.017	82.56
202.489	72.56
202.961	76.56
203.433	60.56
203.906	83.56
204.378	74.56
204.85	66.56
205.322	78.56
205.794	79.56
206.266	93.56
206.739	82.56
207.211	79.56
207.683	72.56
208.155	85.56
208.627	81.56
209.099	75.56
209.57	71.56
210.042	80.56
210.514	98.56
210.986	88.56
211.458	100.56
211.93	78.56
212.402	67.56
212.873	96.56
213.345	80.56
213.817	68.56
214.288	102.56
214.76	84.56
215.232	96.56
215.703	86.56
216.175	92.56
216.646	73.56
217.118	85.56
217.589	76.56
218.061	80.56
218.532	88.56
219.004	73.56
219.475	82.56
219.946	85.56
220.418	68.56
220.889	87.56
221.36	77.56
221.832	71.56
222.303	67.56
222.774	70.56
223.245	68.56
223.717	83.56
224.188	67.56
224.659	99.56
225.13	91.56
225.601	83.56
226.072	86.56
226.543	62.56
227.014	72.56
227.485	88.56
227.956	84.56
228.427	71.56
228.898	82.56
229.369	70.56
229.839	82.56
230.31	78.56
230.781	81.56
231.252	74.56
231.722	85.56
232.193	63.56
232.664	90.56
233.135	91.56
233.605	82.56
234.076	88.56
234.546	98.56
235.017	76.56
235.487	82.56
235.958	82.56
236.428	99.56
236.899	92.56
237.369	77.56
237.84	70.56
238.31	81.56
238.78	102.56
239.251	91.56
239.721	87.56
240.191	95.56
240.662	84.56
241.132	78.56
241.602	65.56
242.072	88.56
242.542	89.56
243.013	84.56
243.483	106.56
243.953	69.56
244.423	84.56
244.893	65.56
245.363	96.56
245.833	77.56
246.303	84.56
246.773	86.56
247.243	90.56
247.712	100.56
248.182	86.56
248.652	98.56
249.122	94.56
249.592	92.56
250.061	89.56
250.531	92.56
251.001	88.56
251.471	88.56
251.94	97.56
252.41	77.56
252.879	102.56
253.349	100.56
253.818	79.56
254.288	97.56
254.757	101.56
255.227	100.56
255.696	80.56
256.166	80.56
256.635	74.56
257.105	95.56
257.574	104.56
258.043	93.56
258.513	81.56
258.982	88.56
259.451	82.56
259.92	98.56
260.389	94.56
260.859	89.56
261.328	84.56
261.797	113.56
262.266	95.56
262.735	114.56
263.204	92.56
263.673	87.56
264.142	92.56
264.611	106.56
265.08	100.56
265.549	96.56
266.018	105.56
266.487	93.56
266.955	95.56
267.424	96.56
267.893	97.56
268.362	121.56
268.83	89.56
269.299	87.56
269.768	99.56
270.236	126.56
270.705	100.56
271.174	91.56
271.642	105.56
272.111	103.56
272.579	128.56
273.048	104.56
273.516	107.56
273.985	91.56
274.453	99.56
274.922	95.56
275.39	115.56
275.858	112.56
276.327	117.56
276.795	96.56
277.263	94.56
277.731	115.56
278.2	110.56
278.668	108.56
279.136	105.56
279.604	94.56
280.072	106.56
280.54	123.56
281.008	108.56
281.477	99.56
281.945	108.56
282.413	106.56
282.881	109.56
283.348	104.56
283.816	113.56
284.284	102.56
284.752	101.56
285.22	124.56
285.688	118.56
286.156	114.56
286.623	112.56
287.091	115.56
287.559	108.56
288.026	112.56
288.494	100.56
288.962	114.56
289.429	115.56
289.897	104.56
290.364	112.56
290.832	121.56
291.3	121.56
291.767	115.56
292.234	110.56
292.702	120.56
293.169	130.56
293.637	134.56
294.104	126.56
294.571	128.56
295.039	114.56
295.506	135.56
295.973	129.56
296.44	126.56
296.908	117.56
297.375	124.56
297.842	115.56
298.309	120.56
298.776	136.56
299.243	122.56
299.71	109.56
300.177	110.56
300.644	123.56
301.111	126.56
301.578	144.56
302.045	118.56
302.512	131.56
302.979	127.56
303.446	122.56
303.913	130.56
304.379	122.56
304.846	133.56
305.313	125.56
305.78	132.56
306.246	139.56
306.713	117.56
307.18	116.56
307.646	136.56
308.113	148.56
308.579	164.56
309.046	126.56
309.512	131.56
309.979	155.56
310.445	139.56
310.912	169.56
311.378	120.56
311.845	140.56
312.311	145.56
312.777	143.56
313.244	138.56
313.71	153.56
314.176	152.56
314.642	149.56
315.109	152.56
315.575	154.56
316.041	135.56
316.507	152.56
316.973	134.56
317.439	147.56
317.905	144.56
318.371	173.56
318.837	163.56
319.303	159.56
319.769	147.56
320.235	139.56
320.701	143.56
321.167	158.56
321.633	152.56
322.099	165.56
322.564	162.56
323.03	152.56
323.496	174.56
323.962	153.56
324.427	162.56
324.893	152.56
325.359	151.56
325.824	169.56
326.29	156.56
326.755	177.56
327.221	171.56
327.686	161.56
328.152	164.56
328.617	170.56
329.083	188.56
329.548	164.56
330.014	170.56
330.479	171.56
330.944	162.56
331.41	165.56
331.875	175.56
332.34	179.56
332.805	178.56
333.271	179.56
333.736	154.56
334.201	159.56
334.666	179.56
335.131	159.56
335.596	180.56
336.061	184.56
336.526	181.56
336.991	169.56
337.456	181.56
337.921	167.56
338.386	171.56
338.851	171.56
339.316	180.56
339.781	184.56
340.246	184.56
340.711	190.56
341.175	184.56
341.64	191.56
342.105	176.56
342.569	191.56
343.034	196.56
343.499	168.56
343.963	197.56
344.428	189.56
344.893	190.56
345.357	179.56
345.822	205.56
346.286	206.56
346.751	200.56
347.215	217.56
347.679	194.56
348.144	212.56
348.608	227.56
349.073	211.56
349.537	232.56
350.001	204.56
350.465	219.56
350.93	225.56
351.394	204.56
351.858	216.56
352.322	221.56
352.786	213.56
353.25	217.56
353.715	233.56
354.179	225.56
354.643	237.56
355.107	251.56
355.571	221.56
356.035	223.56
356.498	225.56
356.962	209.56
357.426	217.56
357.89	242.56
358.354	213.56
358.818	240.56
359.281	212.56
359.745	225.56
360.209	214.56
360.673	235.56
361.136	235.56
361.6	251.56
362.064	241.56
362.527	229.56
362.991	246.56
363.454	246.56
363.918	227.56
364.381	246.56
364.845	213.56
365.308	250.56
365.772	254.56
366.235	262.56
366.698	236.56
367.162	252.56
367.625	259.56
368.088	246.56
368.552	246.56
369.015	240.56
369.478	245.56
369.941	260.56
370.404	262.56
370.867	226.56
371.331	265.56
371.794	265.56
372.257	265.56
372.72	278.56
373.183	262.56
373.646	270.56
374.109	255.56
374.572	272.56
375.035	278.56
375.497	261.56
375.96	266.56
376.423	272.56
376.886	280.56
377.349	277.56
377.811	308.56
378.274	278.56
378.737	266.56
379.199	274.56
379.662	286.56
380.125	286.56
380.587	303.56
381.05	280.56
381.512	286.56
381.975	295.56
382.437	315.56
382.9	294.56
383.362	328.56
383.825	304.56
384.287	318.56
384.75	313.56
385.212	299.56
385.674	312.56
386.136	298.56
386.599	318.56
387.061	311.56
387.523	302.56
387.985	312.56
388.447	310.56
388.91	315.56
389.372	313.56
389.834	313.56
390.296	335.56
390.758	326.56
391.22	322.56
391.682	344.56
392.144	352.56
392.606	329.56
393.068	317.56
393.529	342.56
393.991	335.56
394.453	337.56
394.915	323.56
395.377	351.56
395.838	339.56
396.3	324.56
396.762	351.56
397.224	341.56
397.685	358.56
398.147	350.56
398.608	364.56
399.07	344.56
399.531	342.56
399.993	352.56
400.454	377.56
400.916	371.56
401.377	372.56
401.839	372.56
402.3	366.56
402.762	366.56
403.223	412.56
403.684	392.56
404.145	378.56
404.607	402.56
405.068	382.56
405.529	357.56
405.99	390.56
406.451	404.56
406.913	377.56
407.374	389.56
407.835	411.56
408.296	397.56
408.757	402.56
409.218	407.56
409.679	423.56
410.14	404.56
410.601	422.56
411.062	414.56
411.522	448.56
411.983	423.56
412.444	424.56
412.905	428.56
413.366	447.56
413.826	491.56
414.287	505.56
414.748	576.56
415.208	584.56
415.669	523.56
416.13	468.56
416.59	448.56
417.051	482.56
417.511	474.56
417.972	509.56
418.432	546.56
418.893	610.56
419.353	613.56
419.814	470.56
420.274	432.56
420.734	408.56
421.195	475.56
421.655	435.56
422.115	444.56
422.576	441.56
423.036	455.56
423.496	464.56
423.956	486.56
424.416	501.56
424.876	542.56
425.336	559.56
425.797	553.56
426.257	537.56
426.717	521.56
427.177	496.56
427.637	502.56
428.097	510.56
428.556	511.56
429.016	567.56
429.476	551.56
429.936	555.56
430.396	562.56
430.856	589.56
431.315	561.56
431.775	615.56
432.235	630.56
432.694	649.56
433.154	625.56
433.614	606.56
434.073	630.56
434.533	550.56
434.993	529.56
435.452	524.56
435.912	524.56
436.371	517.56
436.83	501.56
437.29	501.56
437.749	484.56
438.209	507.56
438.668	479.56
439.127	491.56
439.587	522.56
440.046	485.56
440.505	492.56
440.964	482.56
441.424	506.56
441.883	506.56
442.342	474.56
442.801	493.56
443.26	490.56
443.719	472.56
444.178	486.56
444.637	497.56
445.096	499.56
445.555	523.56
446.014	478.56
446.473	504.56
446.932	505.56
447.391	489.56
447.849	516.56
448.308	471.56
448.767	514.56
449.226	507.56
449.685	495.56
450.143	535.56
450.602	520.56
451.061	504.56
451.519	505.56
451.978	499.56
452.436	500.56
452.895	508.56
453.353	519.56
453.812	515.56
454.27	510.56
454.729	491.56
455.187	518.56
455.646	484.56
456.104	487.56
456.562	486.56
457.021	539.56
457.479	520.56
457.937	527.56
458.395	524.56
458.854	527.56
459.312	538.56
459.77	502.56
460.228	528.56
460.686	535.56
461.144	548.56
461.602	525.56
462.06	529.56
462.518	522.56
462.976	572.56
463.434	558.56
463.892	536.56
464.35	564.56
464.808	531.56
465.266	563.56
465.724	568.56
466.181	579.56
466.639	566.56
467.097	568.56
467.555	605.56
468.012	578.56
468.47	677.56
468.928	632.56
469.385	634.56
469.843	653.56
470.3	643.56
470.758	662.56
471.215	674.56
471.673	693.56
472.13	685.56
472.588	738.56
473.045	714.56
473.503	703.56
473.96	800.56
474.417	780.56
474.875	821.56
475.332	819.56
475.789	819.56
476.246	856.56
476.704	880.56
477.161	912.56
477.618	909.56
478.075	994.56
478.532	1008.56
478.989	1091.56
479.446	1205.56
479.903	1272.56
480.36	1329.56
480.817	1464.56
481.274	1528.56
481.731	1678.56
482.188	1746.56
482.645	1881.56
483.102	1950.56
483.558	2176.56
484.015	2249.56
484.472	2209.56
484.929	2150.56
485.385	2088.56
485.842	2010.56
486.299	1988.56
486.755	1802.56
487.212	1663.56
487.668	1504.56
488.125	1406.56
488.582	1331.56
489.038	1280.56
489.494	1231.56
489.951	1162.56
490.407	1154.56
490.864	1146.56
491.32	1085.56
491.776	1083.56
492.233	1104.56
492.689	1098.56
493.145	1075.56
493.602	1073.56
494.058	1082.56
494.514	1057.56
494.97	1103.56
495.426	1120.56
495.882	1105.56
496.338	1055.56
496.794	1103.56
497.251	1096.56
497.707	1120.56
498.163	1123.56
498.618	1116.56
499.074	1134.56
499.53	1093.56
499.986	1100.56
500.442	1129.56
500.898	1128.56
501.354	1120.56
501.809	1100.56
502.265	1105.56
502.721	1133.56
503.177	1115.56
503.632	1142.56
504.088	1150.56
504.543	1140.56
504.999	1165.56
505.455	1138.56
505.91	1148.56
506.366	1136.56
506.821	1136.56
507.277	1112.56
507.732	1181.56
508.187	1118.56
508.643	1137.56
509.098	1106.56
509.553	1165.56
510.009	1178.56
510.464	1221.56
510.919	1216.56
511.375	1235.56
511.83	1222.56
512.285	1216.56
512.74	1230.56
513.195	1294.56
513.65	1337.56
514.105	1312.56
514.56	1298.56
515.015	1355.56
515.47	1364.56
515.925	1346.56
516.38	1352.56
516.835	1398.56
517.29	1372.56
517.745	1366.56
518.2	1348.56
518.655	1293.56
519.109	1291.56
519.564	1276.56
520.019	1238.56
520.474	1259.56
520.928	1228.56
521.383	1254.56
521.838	1238.56
522.292	1211.56
522.747	1217.56
523.201	1234.56
523.656	1195.56
524.11	1210.56
524.565	1214.56
525.019	1217.56
525.474	1200.56
525.928	1190.56
526.382	1219.56
526.837	1196.56
527.291	1193.56
527.745	1188.56
528.2	1214.56
528.654	1178.56
529.108	1224.56
529.562	1229.56
530.016	1180.56
530.47	1194.56
530.925	1171.56
531.379	1203.56
531.833	1181.56
532.287	1204.56
532.741	1199.56
533.195	1203.56
533.649	1204.56
534.103	1220.56
534.556	1199.56
535.01	1167.56
535.464	1158.56
535.918	1212.56
536.372	1199.56
536.826	1194.56
537.279	1173.56
537.733	1204.56
538.187	1203.56
538.64	1190.56
539.094	1197.56
539.548	1223.56
540.001	1213.56
540.455	1236.56
540.908	1216.56
541.362	1233.56
541.815	1290.56
542.269	1276.56
542.722	1272.56
543.175	1282.56
543.629	1301.56
544.082	1280.56
544.536	1292.56
544.989	1299.56
545.442	1324.56
545.895	1342.56
546.349	1292.56
546.802	1288.56
547.255	1305.56
547.708	1343.56
548.161	1348.56
548.614	1349.56
549.067	1335.56
549.52	1345.56
549.973	1325.56
550.426	1289.56
550.879	1331.56
551.332	1293.56
551.785	1347.56
552.238	1321.56
552.691	1343.56
553.144	1392.56
553.596	1402.56
554.049	1379.56
554.502	1433.56
554.955	1456.56
555.407	1445.56
555.86	1473.56
556.313	1446.56
556.765	1434.56
557.218	1391.56
557.67	1399.56
558.123	1442.56
558.576	1387.56
559.028	1393.56
559.48	1402.56
559.933	1395.56
560.385	1351.56
560.838	1322.56
561.29	1308.56
561.742	1267.56
562.195	1262.56
562.647	1231.56
563.099	1187.56
563.551	1235.56
564.004	1245.56
564.456	1222.56
564.908	1226.56
565.36	1184.56
565.812	1166.56
566.264	1159.56
566.716	1156.56
567.168	1126.56
567.62	1133.56
568.072	1111.56
568.524	1112.56
568.976	1126.56
569.428	1099.56
569.88	1112.56
570.332	1136.56
570.784	1101.56
571.235	1094.56
571.687	1095.56
572.139	1094.56
572.59	1090.56
573.042	1119.56
573.494	1125.56
573.945	1088.56
574.397	1094.56
574.849	1103.56
575.3	1069.56
575.752	1061.56
576.203	1049.56
576.655	1077.56
577.106	1067.56
577.557	1042.56
578.009	1073.56
578.46	1052.56
578.912	1037.56
579.363	1085.56
579.814	1060.56
580.265	1040.56
580.717	1028.56
581.168	1065.56
581.619	1028.56
582.07	1094.56
582.521	1031.56
582.972	1060.56
583.423	1062.56
583.875	1080.56
584.326	1054.56
584.777	1036.56
585.227	1125.56
585.678	1090.56
586.129	1112.56
586.58	1099.56
587.031	1162.56
587.482	1182.56
587.933	1156.56
588.384	1192.56
588.834	1182.56
589.285	1151.56
589.736	1145.56
590.186	1182.56
590.637	1170.56
591.088	1138.56
591.538	1128.56
591.989	1099.56
592.439	1095.56
592.89	1085.56
593.34	1084.56
593.791	1075.56
594.241	1090.56
594.692	1052.56
595.142	1088.56
595.593	1062.56
596.043	1058.56
596.493	1050.56
596.943	1077.56
597.394	1085.56
597.844	1084.56
598.294	1140.56
598.744	1164.56
599.195	1186.56
599.645	1311.56
600.095	1281.56
600.545	1368.56
600.995	1466.56
601.445	1536.56
601.895	1530.56
602.345	1613.56
602.795	1595.56
603.245	1556.56
603.695	1452.56
604.145	1385.56
604.594	1338.56
605.044	1296.56
605.494	1190.56
605.944	1120.56
606.393	1129.56
606.843	1098.56
607.293	1084.56
607.743	1056.56
608.192	1082.56
608.642	1054.56
609.091	1084.56
609.541	1058.56
609.99	1060.56
610.44	1036.56
610.889	1046.56
611.339	992.56
611.788	1034.56
612.238	1058.56
612.687	1044.56
613.136	1043.56
613.586	1038.56
614.035	1050.56
614.484	1050.56
614.933	1053.56
615.383	1056.56
615.832	1016.56
616.281	1017.56
616.73	967.56
617.179	986.56
617.628	952.56
618.077	953.56
618.526	927.56
618.975	917.56
619.424	916.56
619.873	906.56
620.322	913.56
620.771	901.56
621.22	891.56
621.669	860.56
622.118	874.56
622.567	876.56
623.015	832.56
623.464	830.56
623.913	836.56
624.361	819.56
624.81	850.56
625.259	822.56
625.707	825.56
626.156	821.56
626.604	851.56
627.053	848.56
627.501	843.56
627.95	847.56
628.398	843.56
628.847	846.56
629.295	854.56
629.744	856.56
630.192	824.56
630.64	828.56
631.089	802.56
631.537	803.56
631.985	765.56
632.433	796.56
632.881	803.56
633.33	794.56
633.778	773.56
634.226	774.56
634.674	815.56
635.122	786.56
635.57	796.56
636.018	806.56
636.466	819.56
636.914	833.56
637.362	826.56
637.81	831.56
638.258	884.56
638.705	868.56
639.153	884.56
639.601	897.56
640.049	940.56
640.497	930.56
640.944	941.56
641.392	952.56
641.84	917.56
642.287	848.56
642.735	834.56
643.182	835.56
643.63	792.56
644.078	839.56
644.525	828.56
644.973	846.56
645.42	854.56
645.867	891.56
646.315	879.56
646.762	928.56
647.21	974.56
647.657	1024.56
648.104	1026.56
648.551	1069.56
648.999	1138.56
649.446	1250.56
649.893	1358.56
650.34	1562.56
650.787	1818.56
651.234	2243.56
651.682	3026.56
652.129	4121.56
652.576	5910.56
653.023	8038.56
653.47	9920.56
653.917	10934.56
654.363	11666.56
654.81	12298.56
655.257	12910.56
655.704	9912.56
656.151	5923.56
656.598	3812.56
657.044	2725.56
657.491	2128.56
657.938	1711.56
658.385	1472.56
658.831	1321.56
659.278	1186.56
659.724	1103.56
660.171	1032.56
660.618	904.56
661.064	873.56
661.511	838.56
661.957	865.56
662.404	814.56
662.85	820.56
663.296	802.56
663.743	790.56
664.189	794.56
664.635	759.56
665.082	731.56
665.528	737.56
665.974	722.56
666.42	685.56
666.867	724.56
667.313	719.56
667.759	678.56
668.205	675.56
668.651	664.56
669.097	655.56
669.543	689.56
669.989	644.56
670.435	689.56
670.881	692.56
671.327	694.56
671.773	732.56
672.219	787.56
672.665	846.56
673.11	869.56
673.556	868.56
674.002	871.56
674.448	917.56
674.893	825.56
675.339	705.56
675.785	673.56
676.23	604.56
676.676	595.56
677.122	581.56
677.567	557.56
678.013	578.56
678.458	542.56
678.904	542.56
679.349	542.56
679.794	533.56
680.24	549.56
680.685	555.56
681.131	540.56
681.576	522.56
682.021	540.56
682.466	517.56
682.912	530.56
683.357	548.56
683.802	609.56
684.247	635.56
684.692	678.56
685.137	743.56
685.583	727.56
686.028	776.56
686.473	750.56
686.918	665.56
687.363	610.56
687.807	588.56
688.252	584.56
688.697	541.56
689.142	545.56
689.587	517.56
690.032	522.56
690.477	544.56
690.921	569.56
691.366	578.56
691.811	629.56
692.255	624.56
692.7	676.56
693.145	947.56
693.589	1336.56
694.034	1796.56
694.478	1981.56
694.923	1880.56
695.367	2258.56
695.812	2072.56
696.256	898.56
696.701	589.56
697.145	553.56
697.59	508.56
698.034	506.56
698.478	520.56
698.922	500.56
699.367	499.56
699.811	526.56
700.255	553.56
700.699	578.56
701.143	635.56
701.588	696.56
702.032	703.56
702.476	715.56
702.92	770.56
703.364	873.56
703.808	1217.56
704.252	1667.56
704.696	1898.56
705.14	1814.56
705.584	2190.56
706.027	1856.56
706.471	892.56
706.915	582.56
707.359	547.56
707.803	492.56
708.246	484.56
708.69	462.56
709.134	471.56
709.577	480.56
710.021	508.56
710.465	473.56
710.908	464.56
711.352	480.56
711.795	530.56
712.239	566.56
712.682	574.56
713.126	548.56
713.569	612.56
714.012	558.56
714.456	504.56
714.899	463.56
715.342	425.56
715.786	418.56
716.229	417.56
716.672	414.56
717.115	397.56
717.558	414.56
718.002	410.56
718.445	453.56
718.888	439.56
719.331	463.56
719.774	466.56
720.217	444.56
720.66	443.56
721.103	443.56
721.546	401.56
721.989	394.56
722.432	380.56
722.874	384.56
723.317	378.56
723.76	398.56
724.203	441.56
724.645	550.56
725.088	700.56
725.531	720.56
725.974	705.56
726.416	766.56
726.859	498.56
727.301	395.56
727.744	393.56
728.187	372.56
728.629	400.56
729.071	412.56
729.514	415.56
729.956	438.56
730.399	427.56
730.841	435.56
731.283	421.56
731.726	409.56
732.168	404.56
732.61	424.56
733.053	470.56
733.495	513.56
733.937	534.56
734.379	639.56
734.821	740.56
735.263	974.56
735.705	1630.56
736.148	2664.56
736.59	3068.56
737.032	2976.56
737.474	3217.56
737.916	1570.56
738.357	772.56
738.799	538.56
739.241	492.56
739.683	464.56
740.125	513.56
740.567	494.56
741.008	481.56
741.45	538.56
741.892	548.56
742.334	586.56
742.775	584.56
743.217	574.56
743.658	506.56
744.1	479.56
744.542	512.56
744.983	570.56
745.425	562.56
745.866	611.56
746.307	516.56
746.749	489.56
747.19	577.56
747.632	968.56
748.073	1816.56
748.514	2806.56
748.956	3432.56
749.397	4634.56
749.838	3807.56
750.279	3073.56
750.72	2336.56
751.162	1059.56
751.603	578.56
752.044	452.56
752.485	378.56
752.926	366.56
753.367	345.56
753.808	358.56
754.249	347.56
754.69	349.56
755.131	325.56
755.572	333.56
756.013	329.56
756.453	335.56
756.894	344.56
757.335	336.56
757.776	338.56
758.216	338.56
758.657	370.56
759.098	366.56
759.538	418.56
759.979	498.56
760.42	812.56
760.86	1790.56
761.301	4133.56
761.741	6222.56
762.182	6336.56
762.622	5917.56
763.063	2730.56
763.503	1130.56
763.943	582.56
764.384	449.56
764.824	408.56
765.264	358.56
765.705	349.56
766.145	326.56
766.585	322.56
767.025	319.56
767.465	350.56
767.906	339.56
768.346	320.56
768.786	364.56
769.226	422.56
769.666	667.56
770.106	1384.56
770.546	2476.56
770.986	2714.56
771.426	2630.56
771.866	1480.56
772.306	685.56
772.745	389.56
773.185	329.56
773.625	304.56
774.065	307.56
774.505	353.56
774.944	544.56
775.384	840.56
775.824	967.56
776.263	978.56
776.703	663.56
777.142	406.56
777.582	287.56
778.021	280.56
778.461	271.56
778.9	244.56
779.34	248.56
779.779	241.56
780.219	242.56
780.658	233.56
781.097	215.56
781.537	241.56
781.976	213.56
782.415	247.56
782.855	236.56
783.294	239.56
783.733	236.56
784.172	233.56
784.611	234.56
785.05	220.56
785.489	228.56
785.928	238.56
786.367	266.56
786.806	244.56
787.245	265.56
787.684	258.56
788.123	269.56
788.562	281.56
789.001	270.56
789.44	274.56
789.879	248.56
790.317	252.56
790.756	260.56
791.195	278.56
791.634	309.56
792.072	418.56
792.511	877.56
792.95	1887.56
793.388	2328.56
793.827	2076.56
794.265	1248.56
794.704	616.56
795.142	368.56
795.581	297.56
796.019	256.56
796.458	270.56
796.896	242.56
797.334	265.56
797.773	345.56
798.211	448.56
798.649	906.56
799.087	1528.56
799.526	2268.56
799.964	2573.56
800.402	2165.56
800.84	1290.56
801.278	696.56
801.716	378.56
802.154	332.56
802.592	292.56
803.03	264.56
803.468	267.56
803.906	275.56
804.344	270.56
804.782	287.56
805.22	280.56
805.658	296.56
806.096	304.56
806.533	302.56
806.971	369.56
807.409	423.56
807.847	711.56
808.284	1554.56
808.722	3028.56
809.16	4212.56
809.597	5851.56
810.035	7536.56
810.472	6471.56
810.91	3547.56
811.347	1722.56
811.785	785.56
812.222	476.56
812.66	356.56
813.097	314.56
813.535	293.56
813.972	263.56
814.409	240.56
814.846	252.56
815.284	226.56
815.721	221.56
816.158	244.56
816.595	306.56
817.032	337.56
817.47	351.56
817.907	301.56
818.344	256.56
818.781	245.56
819.218	259.56
819.655	326.56
820.092	417.56
820.529	463.56
820.966	398.56
821.403	339.56
821.839	278.56
822.276	257.56
822.713	275.56
823.15	291.56
823.587	292.56
824.023	366.56
824.46	738.56
824.897	1314.56
825.333	1421.56
825.77	872.56
826.206	541.56
826.643	289.56
827.08	242.56
827.516	208.56
827.953	201.56
828.389	170.56
828.825	178.56
829.262	174.56
829.698	189.56
830.135	177.56
830.571	171.56
831.007	177.56
831.443	184.56
831.88	168.56
832.316	173.56
832.752	168.56
833.188	200.56
833.624	183.56
834.06	165.56
834.497	165.56
834.933	184.56
835.369	194.56
835.805	190.56
836.241	167.56
836.677	197.56
837.112	215.56
837.548	264.56
837.984	290.56
838.42	439.56
838.856	1140.56
839.292	2378.56
839.727	2585.56
840.163	1728.56
840.599	2051.56
841.034	2939.56
841.47	2335.56
841.906	1311.56
842.341	732.56
842.777	474.56
843.212	431.56
843.648	354.56
844.083	270.56
844.519	236.56
844.954	177.56
845.39	177.56
845.825	157.56
846.261	155.56
846.696	167.56
847.131	156.56
847.566	163.56
848.002	160.56
848.437	178.56
848.872	166.56
849.307	176.56
849.742	236.56
850.177	450.56
850.613	922.56
851.048	1000.56
851.483	592.56
851.918	376.56
852.353	239.56
852.788	186.56
853.223	159.56
853.657	142.56
854.092	138.56
854.527	134.56
854.962	152.56
855.397	167.56
855.832	140.56
856.266	160.56
856.701	134.56
857.136	136.56
857.57	169.56
858.005	169.56
858.44	186.56
858.874	161.56
859.309	170.56
859.743	142.56
860.178	136.56
860.612	133.56
861.047	178.56
861.481	210.56
861.915	213.56
862.35	171.56
862.784	172.56
863.218	140.56
863.653	129.56
864.087	153.56
864.521	166.56
864.955	200.56
865.39	315.56
865.824	298.56
866.258	304.56
866.692	429.56
867.126	425.56
867.56	294.56
867.994	216.56
868.428	176.56
868.862	161.56
869.296	197.56
869.73	200.56
870.164	188.56
870.598	194.56
871.031	136.56
871.465	151.56
871.899	140.56
872.333	118.56
872.766	125.56
873.2	129.56
873.634	144.56
874.067	113.56
874.501	126.56
874.935	122.56
875.368	124.56
875.802	122.56
876.235	124.56
876.669	114.56
877.102	118.56
877.535	112.56
877.969	110.56
878.402	119.56
878.836	120.56
879.269	119.56
879.702	113.56
880.135	122.56
880.569	135.56
881.002	112.56
881.435	106.56
881.868	112.56
882.301	138.56
882.734	115.56
883.167	123.56
883.601	115.56
884.034	121.56
884.467	107.56
884.899	113.56
885.332	100.56
885.765	114.56
886.198	108.56
886.631	118.56
887.064	120.56
887.497	115.56
887.929	110.56
888.362	113.56
888.795	110.56
889.228	116.56
889.66	118.56
890.093	120.56
890.526	116.56
890.958	107.56
891.391	118.56
891.823	113.56
892.256	110.56
892.688	96.56
893.121	102.56
893.553	101.56
893.985	129.56
894.418	116.56
894.85	118.56
895.282	113.56
895.715	108.56
896.147	108.56
896.579	119.56
897.011	110.56
897.444	108.56
897.876	108.56
898.308	120.56
898.74	100.56
899.172	112.56
899.604	110.56
900.036	96.56
900.468	118.56
900.9	114.56
901.332	100.56
901.764	117.56
902.196	110.56
902.628	131.56
903.06	128.56
903.491	137.56
903.923	120.56
904.355	104.56
904.787	125.56
905.218	117.56
905.65	106.56
906.082	104.56
906.513	104.56
906.945	113.56
907.376	100.56
907.808	94.56
908.239	113.56
908.671	117.56
909.102	105.56
909.534	132.56
909.965	169.56
910.397	256.56
910.828	593.56
911.259	634.56
911.691	399.56
912.122	292.56
912.553	187.56
912.984	140.56
913.415	131.56
913.847	119.56
914.278	123.56
914.709	107.56
915.14	86.56
915.571	111.56
916.002	136.56
916.433	98.56
916.864	119.56
917.295	102.56
917.726	99.56
918.157	114.56
918.587	122.56
919.018	123.56
919.449	112.56
919.88	138.56
920.311	127.56
920.741	186.56
921.172	313.56
921.603	252.56
922.033	197.56
922.464	164.56
922.895	150.56
923.325	127.56
923.756	107.56
924.186	112.56
924.617	118.56
925.047	136.56
925.478	142.56
925.908	130.56
926.338	124.56
926.769	110.56
927.199	96.56
927.629	100.56
928.06	101.56
928.49	112.56
928.92	115.56
929.35	98.56
929.78	85.56
930.21	79.56
930.641	100.56
931.071	92.56
931.501	78.56
931.931	94.56
932.361	95.56
932.791	101.56
933.221	102.56
933.651	101.56
934.08	108.56
934.51	124.56
934.94	95.56
935.37	98.56
935.8	113.56
936.229	103.56
936.659	106.56
937.089	114.56
937.519	114.56
937.948	112.56
938.378	120.56
938.807	106.56
939.237	100.56
939.666	103.56
940.096	97.56
940.525	80.56
940.955	96.56
941.384	100.56
941.814	96.56
942.243	77.56
942.672	82.56
943.102	81.56
943.531	98.56
943.96	96.56
944.39	85.56
944.819	98.56
945.248	100.56
945.677	95.56
946.106	80.56
946.535	90.56
946.964	99.56
947.393	97.56
947.822	78.56
948.251	88.56
948.68	88.56
949.109	89.56
949.538	80.56
949.967	87.56
950.396	88.56
950.825	78.56
951.254	77.56
951.682	81.56
952.111	66.56
952.54	94.56
952.969	101.56
953.397	95.56
953.826	80.56
954.254	99.56
954.683	91.56
955.112	93.56
955.54	87.56
955.969	84.56
956.397	91.56
956.826	90.56
957.254	89.56
957.682	82.56
958.111	85.56
958.539	92.56
958.967	89.56
959.396	85.56
959.824	91.56
960.252	79.56
960.68	76.56
961.109	85.56
961.537	97.56
961.965	98.56
962.393	105.56
962.821	85.56
963.249	104.56
963.677	91.56
964.105	102.56
964.533	136.56
964.961	128.56
965.389	109.56
965.817	104.56
966.245	102.56
966.672	96.56
967.1	88.56
967.528	82.56
967.956	76.56
968.383	106.56
968.811	91.56
969.239	83.56
969.666	86.56
970.094	81.56
970.522	91.56
970.949	88.56
971.377	76.56
971.804	88.56
972.232	108.56
972.659	79.56
973.087	83.56
973.514	77.56
973.941	96.56
974.369	94.56
974.796	98.56
975.223	95.56
975.651	92.56
976.078	90.56
976.505	88.56
976.932	86.56
977.359	111.56
977.786	102.56
978.214	88.56
978.641	83.56
979.068	99.56
979.495	100.56
979.922	79.56
980.349	97.56
980.776	77.56
981.202	83.56
981.629	90.56
982.056	84.56
982.483	65.56
982.91	100.56
983.337	97.56
983.763	80.56
984.19	80.56
984.617	77.56
985.043	110.56
985.47	76.56
985.897	75.56
986.323	89.56
986.75	104.56
987.176	92.56
987.603	93.56
988.029	73.56
988.456	94.56
988.882	90.56
989.308	73.56
989.735	83.56
990.161	92.56
990.587	73.56
991.014	97.56
991.44	76.56
991.866	64.56
992.292	87.56
992.719	92.56
993.145	95.56
993.571	92.56
993.997	85.56
994.423	91.56
994.849	79.56
995.275	79.56
995.701	98.56
996.127	93.56
996.553	72.56
996.979	98.56
997.405	90.56
997.83	78.56
998.256	101.56
998.682	94.56
999.108	90.56
999.534	85.56
999.959	65.56
1000.385	80.56
1000.811	77.56
1001.236	102.56
1001.662	82.56
1002.087	84.56
1002.513	77.56
1002.938	84.56
1003.364	92.56
1003.789	97.56
1004.215	79.56
1004.64	62.56
1005.066	69.56
1005.491	92.56
1005.916	83.56
1006.342	89.56
1006.767	97.56
1007.192	91.56
1007.617	76.56
1008.042	91.56
1008.468	74.56
1008.893	86.56
1009.318	94.56
1009.743	114.56
1010.168	120.56
1010.593	79.56
1011.018	108.56
1011.443	99.56
1011.868	96.56
1012.293	91.56
1012.718	91.56
1013.143	84.56
1013.567	94.56
1013.992	91.56
1014.417	105.56
1014.842	86.56
1015.267	93.56
1015.691	94.56
1016.116	83.56
1016.541	83.56
1016.965	89.56
1017.39	94.56
1017.814	86.56
1018.239	97.56
1018.663	81.56
1019.088	91.56
1019.512	90.56
1019.937	79.56
1020.361	80.56
1020.785	89.56
1021.21	81.56
1021.634	94.56
1022.058	79.56
1022.483	74.56
1022.907	83.56
1023.331	89.56
1023.755	84.56
1024.179	74.56
1024.604	77.56
1025.028	82.56
1025.452	90.56
1025.876	93.56
1026.3	78.56
1026.724	69.56
1027.148	98.56
1027.572	78.56
1027.996	91.56
1028.42	84.56
1028.843	78.56
1029.267	88.56
1029.691	88.56
1030.115	82.56
1030.539	87.56
1030.962	95.56
1031.386	96.56
1031.81	92.56
1032.233	75.56
1032.657	73.56
1033.08	84.56
1033.504	91.56
1033.927	94.56
1034.351	87.56
1034.774	87.56
1035.198	87.56
1035.621	72.56
1036.045	81.56
1036.468	85.56
1036.891	79.56
1037.315	98.56
1037.738	100.56
1038.161	80.56
1038.584	73.56
1039.008	82.56
1039.431	83.56
1039.854	74.56
1040.277	87.56
1040.7	77.56
1041.123	82.56
1041.546	88.56
1041.969	92.56
1042.392	82.56
1042.815	85.56
1043.238	76.56
1043.661	85.56
1044.084	82.56
1044.507	88.56
1044.93	78.56
1045.352	73.56
1045.775	80.56
1046.198	87.56
1046.621	74.56
1047.043	79.56
1047.466	84.56
1047.889	90.56
1048.311	97.56
1048.734	89.56
1049.156	77.56
1049.579	80.56
1050.001	77.56
1050.424	76.56
1050.846	73.56
1051.269	63.56
1051.691	80.56
1052.113	85.56
1052.536	100.56
1052.958	82.56
1053.38	90.56
1053.802	75.56
1054.225	69.56
1054.647	64.56
1055.069	74.56
1055.491	70.56
1055.913	78.56
1056.335	79.56
1056.757	80.56
1057.179	88.56
1057.601	80.56
1058.023	71.56
1058.445	87.56
1058.867	86.56
1059.289	72.56
1059.711	89.56
1060.133	75.56
1060.555	90.56
1060.976	84.56
1061.398	73.56
1061.82	88.56
1062.241	90.56
1062.663	78.56
1063.085	85.56
1063.506	75.56
1063.928	84.56
1064.35	77.56
1064.771	88.56
1065.193	75.56
1065.614	80.56
1066.035	75.56
1066.457	69.56
1066.878	82.56
1067.3	94.56
1067.721	86.56
1068.142	94.56
1068.564	98.56
1068.985	85.56
1069.406	92.56
1069.827	92.56
1070.248	85.56
1070.67	94.56
1071.091	73.56
1071.512	79.56
1071.933	79.56
1072.354	86.56
1072.775	84.56
1073.196	82.56
1073.617	86.56
1074.038	92.56
1074.459	89.56
1074.88	70.56
1075.3	87.56
1075.721	94.56
1076.142	90.56
1076.563	74.56
1076.983	65.56
1077.404	94.56
1077.825	90.56
1078.246	77.56
1078.666	97.56
1079.087	88.56
1079.507	94.56
1079.928	76.56
1080.348	84.56
1080.769	88.56
1081.189	80.56
1081.61	83.56
1082.03	100.56
1082.451	71.56
1082.871	96.56
1083.291	82.56
1083.711	87.56
1084.132	81.56
1084.552	82.56
1084.972	84.56
1085.392	96.56
1085.813	94.56
1086.233	66.56
1086.653	72.56
1087.073	93.56
1087.493	88.56
1087.913	82.56
1088.333	73.56
1088.753	95.56
1089.173	77.56
1089.593	102.56
1090.013	75.56
1090.433	94.56
1090.852	93.56
1091.272	77.56
1091.692	90.56
1092.112	78.56
1092.531	98.56
1092.951	82.56
1093.371	78.56
1093.79	84.56
1094.21	86.56
1094.63	95.56
1095.049	100.56
1095.469	86.56
1095.888	84.56
1096.308	78.56
1096.727	78.56
1097.146	88.56
1097.566	86.56
1097.985	78.56
1098.405	75.56
1098.824	76.56
1099.243	87.56
1099.662	88.56
1100.082	71.56
1100.501	98.56
1100.92	93.56
1101.339	82.56
1101.758	92.56
