Data from 20170802-ORNL-NYSim-Air_HRD10391_10-36-59-625.txt Node
Date: Wed Aug 02 10:36:59 EDT 2017
User: Ender
Spectrometer: HR+D1039
Trigger mode: 0
Integration Time (sec): 1.510000E-3
Scans to average: 1
Electric dark correction enabled: true
Nonlinearity correction enabled: false
Boxcar width: 0
XAxis mode: Wavelengths
Number of Pixels in Spectrum: 2048
>>>>>Begin Spectral Data<<<<<
187.836	4.38
188.309	4.38
188.782	4.38
189.255	9.38
189.728	4.38
190.201	-20.62
190.674	-12.62
191.147	-10.62
191.619	-17.62
192.092	-1.62
192.565	-14.62
193.038	-2.62
193.511	0.38
193.984	-0.62
194.456	11.38
194.929	9.38
195.402	21.38
195.874	20.38
196.347	20.38
196.82	30.38
197.292	32.38
197.765	30.38
198.237	34.38
198.71	49.38
199.182	64.38
199.655	50.38
200.127	51.38
200.6	57.38
201.072	58.38
201.544	48.38
202.017	66.38
202.489	64.38
202.961	58.38
203.433	63.38
203.906	68.38
204.378	76.38
204.85	74.38
205.322	70.38
205.794	87.38
206.266	72.38
206.739	77.38
207.211	90.38
207.683	105.38
208.155	95.38
208.627	83.38
209.099	93.38
209.57	88.38
210.042	97.38
210.514	98.38
210.986	80.38
211.458	80.38
211.93	88.38
212.402	100.38
212.873	97.38
213.345	84.38
213.817	90.38
214.288	69.38
214.76	88.38
215.232	90.38
215.703	91.38
216.175	77.38
216.646	64.38
217.118	97.38
217.589	87.38
218.061	87.38
218.532	65.38
219.004	90.38
219.475	69.38
219.946	93.38
220.418	66.38
220.889	79.38
221.36	53.38
221.832	96.38
222.303	70.38
222.774	76.38
223.245	63.38
223.717	81.38
224.188	80.38
224.659	88.38
225.13	81.38
225.601	69.38
226.072	82.38
226.543	65.38
227.014	69.38
227.485	65.38
227.956	63.38
228.427	67.38
228.898	74.38
229.369	91.38
229.839	74.38
230.31	73.38
230.781	58.38
231.252	87.38
231.722	66.38
232.193	77.38
232.664	95.38
233.135	74.38
233.605	71.38
234.076	86.38
234.546	81.38
235.017	82.38
235.487	72.38
235.958	83.38
236.428	77.38
236.899	104.38
237.369	86.38
237.84	82.38
238.31	82.38
238.78	77.38
239.251	97.38
239.721	79.38
240.191	96.38
240.662	80.38
241.132	97.38
241.602	88.38
242.072	103.38
242.542	87.38
243.013	82.38
243.483	77.38
243.953	73.38
244.423	110.38
244.893	96.38
245.363	93.38
245.833	90.38
246.303	79.38
246.773	100.38
247.243	90.38
247.712	93.38
248.182	82.38
248.652	99.38
249.122	84.38
249.592	94.38
250.061	95.38
250.531	83.38
251.001	91.38
251.471	82.38
251.94	99.38
252.41	100.38
252.879	77.38
253.349	75.38
253.818	91.38
254.288	86.38
254.757	95.38
255.227	92.38
255.696	102.38
256.166	88.38
256.635	103.38
257.105	102.38
257.574	100.38
258.043	101.38
258.513	97.38
258.982	107.38
259.451	103.38
259.92	91.38
260.389	108.38
260.859	99.38
261.328	87.38
261.797	92.38
262.266	84.38
262.735	101.38
263.204	81.38
263.673	102.38
264.142	93.38
264.611	89.38
265.08	93.38
265.549	113.38
266.018	101.38
266.487	100.38
266.955	104.38
267.424	108.38
267.893	105.38
268.362	92.38
268.83	96.38
269.299	103.38
269.768	100.38
270.236	106.38
270.705	99.38
271.174	107.38
271.642	110.38
272.111	100.38
272.579	86.38
273.048	97.38
273.516	105.38
273.985	120.38
274.453	125.38
274.922	88.38
275.39	118.38
275.858	103.38
276.327	84.38
276.795	115.38
277.263	115.38
277.731	108.38
278.2	100.38
278.668	102.38
279.136	108.38
279.604	106.38
280.072	111.38
280.54	96.38
281.008	120.38
281.477	100.38
281.945	125.38
282.413	120.38
282.881	117.38
283.348	117.38
283.816	116.38
284.284	113.38
284.752	98.38
285.22	108.38
285.688	123.38
286.156	119.38
286.623	115.38
287.091	100.38
287.559	114.38
288.026	120.38
288.494	132.38
288.962	105.38
289.429	114.38
289.897	108.38
290.364	98.38
290.832	112.38
291.3	99.38
291.767	127.38
292.234	120.38
292.702	119.38
293.169	123.38
293.637	131.38
294.104	137.38
294.571	132.38
295.039	143.38
295.506	110.38
295.973	142.38
296.44	131.38
296.908	121.38
297.375	125.38
297.842	113.38
298.309	118.38
298.776	128.38
299.243	139.38
299.71	120.38
300.177	129.38
300.644	109.38
301.111	119.38
301.578	123.38
302.045	130.38
302.512	130.38
302.979	137.38
303.446	140.38
303.913	135.38
304.379	144.38
304.846	143.38
305.313	143.38
305.78	148.38
306.246	122.38
306.713	127.38
307.18	135.38
307.646	110.38
308.113	134.38
308.579	140.38
309.046	150.38
309.512	170.38
309.979	136.38
310.445	140.38
310.912	146.38
311.378	142.38
311.845	144.38
312.311	138.38
312.777	137.38
313.244	156.38
313.71	139.38
314.176	144.38
314.642	156.38
315.109	161.38
315.575	157.38
316.041	139.38
316.507	144.38
316.973	150.38
317.439	150.38
317.905	165.38
318.371	138.38
318.837	156.38
319.303	150.38
319.769	148.38
320.235	157.38
320.701	147.38
321.167	154.38
321.633	147.38
322.099	161.38
322.564	155.38
323.03	150.38
323.496	151.38
323.962	156.38
324.427	170.38
324.893	155.38
325.359	167.38
325.824	169.38
326.29	172.38
326.755	185.38
327.221	163.38
327.686	165.38
328.152	176.38
328.617	178.38
329.083	166.38
329.548	161.38
330.014	183.38
330.479	176.38
330.944	168.38
331.41	176.38
331.875	159.38
332.34	180.38
332.805	166.38
333.271	174.38
333.736	155.38
334.201	179.38
334.666	188.38
335.131	174.38
335.596	193.38
336.061	171.38
336.526	179.38
336.991	181.38
337.456	180.38
337.921	159.38
338.386	174.38
338.851	181.38
339.316	192.38
339.781	181.38
340.246	183.38
340.711	170.38
341.175	203.38
341.64	209.38
342.105	195.38
342.569	173.38
343.034	213.38
343.499	198.38
343.963	197.38
344.428	179.38
344.893	179.38
345.357	185.38
345.822	196.38
346.286	203.38
346.751	212.38
347.215	204.38
347.679	215.38
348.144	214.38
348.608	202.38
349.073	211.38
349.537	224.38
350.001	229.38
350.465	216.38
350.93	229.38
351.394	222.38
351.858	247.38
352.322	217.38
352.786	229.38
353.25	201.38
353.715	227.38
354.179	205.38
354.643	248.38
355.107	242.38
355.571	262.38
356.035	258.38
356.498	243.38
356.962	230.38
357.426	224.38
357.89	219.38
358.354	206.38
358.818	228.38
359.281	232.38
359.745	220.38
360.209	232.38
360.673	251.38
361.136	242.38
361.6	226.38
362.064	258.38
362.527	253.38
362.991	248.38
363.454	254.38
363.918	243.38
364.381	261.38
364.845	254.38
365.308	261.38
365.772	236.38
366.235	250.38
366.698	252.38
367.162	264.38
367.625	260.38
368.088	257.38
368.552	249.38
369.015	256.38
369.478	256.38
369.941	266.38
370.404	259.38
370.867	266.38
371.331	256.38
371.794	262.38
372.257	276.38
372.72	257.38
373.183	255.38
373.646	260.38
374.109	269.38
374.572	271.38
375.035	283.38
375.497	269.38
375.96	284.38
376.423	281.38
376.886	262.38
377.349	282.38
377.811	284.38
378.274	296.38
378.737	286.38
379.199	300.38
379.662	274.38
380.125	292.38
380.587	295.38
381.05	315.38
381.512	309.38
381.975	277.38
382.437	318.38
382.9	301.38
383.362	335.38
383.825	335.38
384.287	324.38
384.75	311.38
385.212	308.38
385.674	321.38
386.136	335.38
386.599	319.38
387.061	317.38
387.523	307.38
387.985	309.38
388.447	317.38
388.91	333.38
389.372	329.38
389.834	335.38
390.296	318.38
390.758	313.38
391.22	321.38
391.682	333.38
392.144	347.38
392.606	306.38
393.068	357.38
393.529	357.38
393.991	364.38
394.453	341.38
394.915	336.38
395.377	321.38
395.838	312.38
396.3	318.38
396.762	324.38
397.224	321.38
397.685	340.38
398.147	349.38
398.608	337.38
399.07	359.38
399.531	355.38
399.993	372.38
400.454	373.38
400.916	349.38
401.377	361.38
401.839	366.38
402.3	372.38
402.762	368.38
403.223	388.38
403.684	411.38
404.145	390.38
404.607	374.38
405.068	382.38
405.529	387.38
405.99	397.38
406.451	386.38
406.913	394.38
407.374	370.38
407.835	396.38
408.296	410.38
408.757	398.38
409.218	384.38
409.679	430.38
410.14	418.38
410.601	426.38
411.062	418.38
411.522	417.38
411.983	412.38
412.444	426.38
412.905	433.38
413.366	450.38
413.826	443.38
414.287	486.38
414.748	561.38
415.208	597.38
415.669	497.38
416.13	487.38
416.59	484.38
417.051	483.38
417.511	516.38
417.972	506.38
418.432	568.38
418.893	593.38
419.353	572.38
419.814	477.38
420.274	429.38
420.734	430.38
421.195	447.38
421.655	435.38
422.115	444.38
422.576	450.38
423.036	471.38
423.496	477.38
423.956	490.38
424.416	476.38
424.876	560.38
425.336	556.38
425.797	548.38
426.257	550.38
426.717	513.38
427.177	487.38
427.637	472.38
428.097	503.38
428.556	532.38
429.016	556.38
429.476	584.38
429.936	566.38
430.396	585.38
430.856	593.38
431.315	566.38
431.775	597.38
432.235	646.38
432.694	690.38
433.154	648.38
433.614	612.38
434.073	622.38
434.533	560.38
434.993	515.38
435.452	557.38
435.912	527.38
436.371	541.38
436.83	501.38
437.29	494.38
437.749	488.38
438.209	520.38
438.668	507.38
439.127	513.38
439.587	510.38
440.046	504.38
440.505	490.38
440.964	495.38
441.424	512.38
441.883	535.38
442.342	498.38
442.801	497.38
443.26	495.38
443.719	472.38
444.178	494.38
444.637	522.38
445.096	504.38
445.555	504.38
446.014	472.38
446.473	470.38
446.932	490.38
447.391	469.38
447.849	513.38
448.308	476.38
448.767	493.38
449.226	486.38
449.685	507.38
450.143	526.38
450.602	529.38
451.061	505.38
451.519	503.38
451.978	490.38
452.436	502.38
452.895	510.38
453.353	501.38
453.812	488.38
454.27	504.38
454.729	522.38
455.187	511.38
455.646	514.38
456.104	494.38
456.562	508.38
457.021	522.38
457.479	507.38
457.937	501.38
458.395	553.38
458.854	511.38
459.312	532.38
459.77	508.38
460.228	517.38
460.686	537.38
461.144	532.38
461.602	527.38
462.06	508.38
462.518	542.38
462.976	520.38
463.434	552.38
463.892	540.38
464.35	549.38
464.808	580.38
465.266	590.38
465.724	573.38
466.181	564.38
466.639	558.38
467.097	602.38
467.555	589.38
468.012	586.38
468.47	564.38
468.928	656.38
469.385	668.38
469.843	645.38
470.3	631.38
470.758	646.38
471.215	658.38
471.673	671.38
472.13	722.38
472.588	727.38
473.045	728.38
473.503	728.38
473.96	796.38
474.417	788.38
474.875	779.38
475.332	809.38
475.789	836.38
476.246	873.38
476.704	896.38
477.161	894.38
477.618	989.38
478.075	956.38
478.532	1033.38
478.989	1088.38
479.446	1207.38
479.903	1285.38
480.36	1377.38
480.817	1475.38
481.274	1564.38
481.731	1676.38
482.188	1807.38
482.645	1912.38
483.102	2050.38
483.558	2177.38
484.015	2284.38
484.472	2273.38
484.929	2223.38
485.385	2174.38
485.842	2102.38
486.299	1995.38
486.755	1932.38
487.212	1734.38
487.668	1532.38
488.125	1414.38
488.582	1337.38
489.038	1257.38
489.494	1236.38
489.951	1200.38
490.407	1199.38
490.864	1146.38
491.32	1081.38
491.776	1095.38
492.233	1126.38
492.689	1092.38
493.145	1112.38
493.602	1089.38
494.058	1086.38
494.514	1069.38
494.97	1061.38
495.426	1078.38
495.882	1097.38
496.338	1094.38
496.794	1102.38
497.251	1096.38
497.707	1120.38
498.163	1111.38
498.618	1172.38
499.074	1090.38
499.53	1117.38
499.986	1143.38
500.442	1134.38
500.898	1084.38
501.354	1103.38
501.809	1112.38
502.265	1147.38
502.721	1108.38
503.177	1094.38
503.632	1116.38
504.088	1100.38
504.543	1134.38
504.999	1162.38
505.455	1156.38
505.91	1144.38
506.366	1108.38
506.821	1115.38
507.277	1122.38
507.732	1140.38
508.187	1128.38
508.643	1142.38
509.098	1165.38
509.553	1140.38
510.009	1211.38
510.464	1200.38
510.919	1216.38
511.375	1189.38
511.83	1208.38
512.285	1196.38
512.74	1244.38
513.195	1236.38
513.65	1295.38
514.105	1293.38
514.56	1289.38
515.015	1296.38
515.47	1318.38
515.925	1328.38
516.38	1350.38
516.835	1364.38
517.29	1360.38
517.745	1345.38
518.2	1317.38
518.655	1286.38
519.109	1300.38
519.564	1280.38
520.019	1256.38
520.474	1243.38
520.928	1229.38
521.383	1220.38
521.838	1186.38
522.292	1198.38
522.747	1202.38
523.201	1217.38
523.656	1188.38
524.11	1172.38
524.565	1157.38
525.019	1203.38
525.474	1190.38
525.928	1185.38
526.382	1190.38
526.837	1189.38
527.291	1187.38
527.745	1175.38
528.2	1191.38
528.654	1197.38
529.108	1181.38
529.562	1159.38
530.016	1157.38
530.47	1155.38
530.925	1210.38
531.379	1203.38
531.833	1190.38
532.287	1199.38
532.741	1168.38
533.195	1177.38
533.649	1194.38
534.103	1220.38
534.556	1201.38
535.01	1168.38
535.464	1166.38
535.918	1240.38
536.372	1197.38
536.826	1224.38
537.279	1173.38
537.733	1186.38
538.187	1209.38
538.64	1183.38
539.094	1198.38
539.548	1203.38
540.001	1267.38
540.455	1223.38
540.908	1227.38
541.362	1223.38
541.815	1236.38
542.269	1251.38
542.722	1261.38
543.175	1277.38
543.629	1272.38
544.082	1267.38
544.536	1308.38
544.989	1314.38
545.442	1303.38
545.895	1302.38
546.349	1288.38
546.802	1327.38
547.255	1300.38
547.708	1331.38
548.161	1314.38
548.614	1334.38
549.067	1344.38
549.52	1286.38
549.973	1339.38
550.426	1302.38
550.879	1328.38
551.332	1302.38
551.785	1318.38
552.238	1315.38
552.691	1346.38
553.144	1338.38
553.596	1353.38
554.049	1392.38
554.502	1408.38
554.955	1423.38
555.407	1467.38
555.86	1466.38
556.313	1431.38
556.765	1414.38
557.218	1395.38
557.67	1410.38
558.123	1378.38
558.576	1368.38
559.028	1403.38
559.48	1393.38
559.933	1380.38
560.385	1363.38
560.838	1334.38
561.29	1293.38
561.742	1264.38
562.195	1253.38
562.647	1249.38
563.099	1216.38
563.551	1224.38
564.004	1239.38
564.456	1233.38
564.908	1232.38
565.36	1165.38
565.812	1172.38
566.264	1132.38
566.716	1137.38
567.168	1101.38
567.62	1104.38
568.072	1090.38
568.524	1106.38
568.976	1104.38
569.428	1108.38
569.88	1078.38
570.332	1102.38
570.784	1094.38
571.235	1139.38
571.687	1096.38
572.139	1092.38
572.59	1121.38
573.042	1125.38
573.494	1071.38
573.945	1105.38
574.397	1060.38
574.849	1104.38
575.3	1074.38
575.752	1068.38
576.203	1070.38
576.655	1093.38
577.106	1063.38
577.557	1031.38
578.009	1062.38
578.46	1037.38
578.912	1023.38
579.363	1069.38
579.814	1022.38
580.265	1021.38
580.717	1010.38
581.168	1040.38
581.619	1039.38
582.07	1050.38
582.521	1040.38
582.972	1065.38
583.423	1031.38
583.875	1061.38
584.326	1042.38
584.777	1062.38
585.227	1085.38
585.678	1087.38
586.129	1107.38
586.58	1105.38
587.031	1122.38
587.482	1182.38
587.933	1140.38
588.384	1160.38
588.834	1150.38
589.285	1158.38
589.736	1165.38
590.186	1165.38
590.637	1174.38
591.088	1132.38
591.538	1096.38
591.989	1128.38
592.439	1098.38
592.89	1069.38
593.34	1062.38
593.791	1058.38
594.241	1023.38
594.692	1051.38
595.142	1036.38
595.593	1040.38
596.043	1079.38
596.493	1034.38
596.943	1076.38
597.394	1068.38
597.844	1105.38
598.294	1125.38
598.744	1163.38
599.195	1194.38
599.645	1252.38
600.095	1309.38
600.545	1362.38
600.995	1401.38
601.445	1485.38
601.895	1528.38
602.345	1588.38
602.795	1590.38
603.245	1484.38
603.695	1446.38
604.145	1399.38
604.594	1314.38
605.044	1274.38
605.494	1213.38
605.944	1121.38
606.393	1111.38
606.843	1080.38
607.293	1090.38
607.743	1069.38
608.192	1077.38
608.642	1077.38
609.091	1045.38
609.541	1063.38
609.99	1080.38
610.44	1038.38
610.889	1046.38
611.339	1051.38
611.788	1023.38
612.238	1047.38
612.687	1023.38
613.136	1028.38
613.586	1033.38
614.035	1064.38
614.484	1026.38
614.933	1034.38
615.383	1051.38
615.832	1024.38
616.281	1004.38
616.73	984.38
617.179	940.38
617.628	933.38
618.077	910.38
618.526	924.38
618.975	924.38
619.424	914.38
619.873	900.38
620.322	900.38
620.771	895.38
621.22	858.38
621.669	852.38
622.118	832.38
622.567	856.38
623.015	830.38
623.464	847.38
623.913	827.38
624.361	785.38
624.81	819.38
625.259	836.38
625.707	828.38
626.156	824.38
626.604	858.38
627.053	856.38
627.501	832.38
627.95	831.38
628.398	861.38
628.847	840.38
629.295	861.38
629.744	860.38
630.192	847.38
630.64	851.38
631.089	815.38
631.537	782.38
631.985	762.38
632.433	754.38
632.881	781.38
633.33	766.38
633.778	735.38
634.226	771.38
634.674	783.38
635.122	797.38
635.57	805.38
636.018	800.38
636.466	811.38
636.914	825.38
637.362	802.38
637.81	841.38
638.258	867.38
638.705	854.38
639.153	896.38
639.601	917.38
640.049	905.38
640.497	938.38
640.944	945.38
641.392	932.38
641.84	875.38
642.287	835.38
642.735	806.38
643.182	825.38
643.63	803.38
644.078	824.38
644.525	839.38
644.973	887.38
645.42	856.38
645.867	879.38
646.315	899.38
646.762	922.38
647.21	944.38
647.657	1016.38
648.104	1047.38
648.551	1118.38
648.999	1130.38
649.446	1238.38
649.893	1334.38
650.34	1498.38
650.787	1825.38
651.234	2264.38
651.682	3028.38
652.129	4235.38
652.576	6064.38
653.023	8268.38
653.47	10245.38
653.917	11310.38
654.363	12010.38
654.81	12570.38
655.257	13228.38
655.704	10130.38
656.151	6216.38
656.598	3937.38
657.044	2797.38
657.491	2188.38
657.938	1773.38
658.385	1464.38
658.831	1327.38
659.278	1168.38
659.724	1088.38
660.171	1016.38
660.618	934.38
661.064	895.38
661.511	882.38
661.957	842.38
662.404	778.38
662.85	822.38
663.296	813.38
663.743	778.38
664.189	761.38
664.635	733.38
665.082	749.38
665.528	743.38
665.974	698.38
666.42	721.38
666.867	700.38
667.313	685.38
667.759	676.38
668.205	687.38
668.651	682.38
669.097	683.38
669.543	663.38
669.989	659.38
670.435	656.38
670.881	661.38
671.327	690.38
671.773	726.38
672.219	767.38
672.665	839.38
673.11	866.38
673.556	880.38
674.002	875.38
674.448	922.38
674.893	808.38
675.339	718.38
675.785	672.38
676.23	620.38
676.676	624.38
677.122	595.38
677.567	569.38
678.013	581.38
678.458	569.38
678.904	561.38
679.349	526.38
679.794	538.38
680.24	565.38
680.685	518.38
681.131	547.38
681.576	514.38
682.021	542.38
682.466	562.38
682.912	577.38
683.357	563.38
683.802	586.38
684.247	622.38
684.692	676.38
685.137	730.38
685.583	716.38
686.028	738.38
686.473	736.38
686.918	647.38
687.363	612.38
687.807	578.38
688.252	532.38
688.697	523.38
689.142	493.38
689.587	510.38
690.032	522.38
690.477	545.38
690.921	543.38
691.366	613.38
691.811	595.38
692.255	622.38
692.7	725.38
693.145	917.38
693.589	1333.38
694.034	1753.38
694.478	1960.38
694.923	1881.38
695.367	2257.38
695.812	2050.38
696.256	912.38
696.701	608.38
697.145	542.38
697.59	497.38
698.034	507.38
698.478	478.38
698.922	502.38
699.367	522.38
699.811	526.38
700.255	562.38
700.699	598.38
701.143	646.38
701.588	685.38
702.032	721.38
702.476	710.38
702.92	723.38
703.364	865.38
703.808	1225.38
704.252	1656.38
704.696	1876.38
705.14	1754.38
705.584	2159.38
706.027	1793.38
706.471	880.38
706.915	623.38
707.359	561.38
707.803	514.38
708.246	472.38
708.69	490.38
709.134	468.38
709.577	470.38
710.021	470.38
710.465	478.38
710.908	485.38
711.352	474.38
711.795	545.38
712.239	552.38
712.682	581.38
713.126	562.38
713.569	612.38
714.012	556.38
714.456	487.38
714.899	469.38
715.342	445.38
715.786	410.38
716.229	402.38
716.672	399.38
717.115	416.38
717.558	393.38
718.002	412.38
718.445	413.38
718.888	434.38
719.331	440.38
719.774	454.38
720.217	454.38
720.66	435.38
721.103	426.38
721.546	426.38
721.989	406.38
722.432	391.38
722.874	418.38
723.317	372.38
723.76	403.38
724.203	436.38
724.645	578.38
725.088	696.38
725.531	706.38
725.974	743.38
726.416	768.38
726.859	538.38
727.301	434.38
727.744	406.38
728.187	368.38
728.629	398.38
729.071	403.38
729.514	425.38
729.956	447.38
730.399	463.38
730.841	449.38
731.283	464.38
731.726	434.38
732.168	436.38
732.61	434.38
733.053	460.38
733.495	496.38
733.937	520.38
734.379	616.38
734.821	725.38
735.263	998.38
735.705	1650.38
736.148	2640.38
736.59	2999.38
737.032	2837.38
737.474	3100.38
737.916	1583.38
738.357	768.38
738.799	531.38
739.241	459.38
739.683	458.38
740.125	462.38
740.567	496.38
741.008	496.38
741.45	545.38
741.892	567.38
742.334	606.38
742.775	558.38
743.217	596.38
743.658	505.38
744.1	492.38
744.542	511.38
744.983	546.38
745.425	579.38
745.866	618.38
746.307	527.38
746.749	472.38
747.19	591.38
747.632	937.38
748.073	1795.38
748.514	2722.38
748.956	3332.38
749.397	4622.38
749.838	3724.38
750.279	3038.38
750.72	2300.38
751.162	1081.38
751.603	562.38
752.044	442.38
752.485	380.38
752.926	344.38
753.367	352.38
753.808	340.38
754.249	333.38
754.69	342.38
755.131	324.38
755.572	341.38
756.013	322.38
756.453	306.38
756.894	329.38
757.335	330.38
757.776	324.38
758.216	337.38
758.657	331.38
759.098	368.38
759.538	397.38
759.979	534.38
760.42	820.38
760.86	1731.38
761.301	4016.38
761.741	6006.38
762.182	6207.38
762.622	5880.38
763.063	2710.38
763.503	1096.38
763.943	555.38
764.384	471.38
764.824	376.38
765.264	365.38
765.705	368.38
766.145	351.38
766.585	336.38
767.025	310.38
767.465	307.38
767.906	306.38
768.346	323.38
768.786	355.38
769.226	412.38
769.666	654.38
770.106	1370.38
770.546	2393.38
770.986	2599.38
771.426	2590.38
771.866	1447.38
772.306	689.38
772.745	413.38
773.185	336.38
773.625	292.38
774.065	311.38
774.505	362.38
774.944	549.38
775.384	855.38
775.824	987.38
776.263	980.38
776.703	710.38
777.142	433.38
777.582	297.38
778.021	249.38
778.461	251.38
778.9	243.38
779.34	246.38
779.779	243.38
780.219	231.38
780.658	222.38
781.097	234.38
781.537	236.38
781.976	243.38
782.415	221.38
782.855	230.38
783.294	220.38
783.733	222.38
784.172	214.38
784.611	205.38
785.05	226.38
785.489	230.38
785.928	222.38
786.367	248.38
786.806	250.38
787.245	246.38
787.684	258.38
788.123	269.38
788.562	280.38
789.001	245.38
789.44	248.38
789.879	224.38
790.317	265.38
790.756	248.38
791.195	258.38
791.634	322.38
792.072	432.38
792.511	828.38
792.95	1862.38
793.388	2307.38
793.827	2071.38
794.265	1190.38
794.704	609.38
795.142	346.38
795.581	291.38
796.019	245.38
796.458	266.38
796.896	253.38
797.334	266.38
797.773	336.38
798.211	459.38
798.649	914.38
799.087	1484.38
799.526	2226.38
799.964	2507.38
800.402	2150.38
800.84	1291.38
801.278	682.38
801.716	379.38
802.154	318.38
802.592	284.38
803.03	260.38
803.468	280.38
803.906	282.38
804.344	274.38
804.782	253.38
805.22	264.38
805.658	285.38
806.096	290.38
806.533	312.38
806.971	325.38
807.409	438.38
807.847	660.38
808.284	1480.38
808.722	2920.38
809.16	4144.38
809.597	5748.38
810.035	7300.38
810.472	6194.38
810.91	3562.38
811.347	1704.38
811.785	796.38
812.222	463.38
812.66	383.38
813.097	317.38
813.535	296.38
813.972	251.38
814.409	250.38
814.846	253.38
815.284	242.38
815.721	222.38
816.158	244.38
816.595	286.38
817.032	344.38
817.47	361.38
817.907	289.38
818.344	246.38
818.781	243.38
819.218	245.38
819.655	340.38
820.092	423.38
820.529	435.38
820.966	403.38
821.403	309.38
821.839	257.38
822.276	246.38
822.713	300.38
823.15	302.38
823.587	299.38
824.023	329.38
824.46	717.38
824.897	1331.38
825.333	1402.38
825.77	842.38
826.206	504.38
826.643	330.38
827.08	242.38
827.516	220.38
827.953	189.38
828.389	181.38
828.825	180.38
829.262	170.38
829.698	181.38
830.135	164.38
830.571	187.38
831.007	151.38
831.443	163.38
831.88	161.38
832.316	170.38
832.752	187.38
833.188	177.38
833.624	192.38
834.06	178.38
834.497	181.38
834.933	181.38
835.369	183.38
835.805	186.38
836.241	210.38
836.677	205.38
837.112	238.38
837.548	266.38
837.984	285.38
838.42	460.38
838.856	1108.38
839.292	2325.38
839.727	2522.38
840.163	1676.38
840.599	1946.38
841.034	2917.38
841.47	2314.38
841.906	1284.38
842.341	741.38
842.777	490.38
843.212	424.38
843.648	355.38
844.083	254.38
844.519	224.38
844.954	189.38
845.39	174.38
845.825	186.38
846.261	176.38
846.696	166.38
847.131	174.38
847.566	167.38
848.002	186.38
848.437	154.38
848.872	172.38
849.307	186.38
849.742	226.38
850.177	423.38
850.613	880.38
851.048	960.38
851.483	595.38
851.918	372.38
852.353	244.38
852.788	193.38
853.223	166.38
853.657	132.38
854.092	145.38
854.527	136.38
854.962	157.38
855.397	171.38
855.832	160.38
856.266	144.38
856.701	163.38
857.136	146.38
857.57	162.38
858.005	188.38
858.44	166.38
858.874	163.38
859.309	154.38
859.743	169.38
860.178	157.38
860.612	146.38
861.047	164.38
861.481	210.38
861.915	205.38
862.35	166.38
862.784	160.38
863.218	142.38
863.653	134.38
864.087	129.38
864.521	153.38
864.955	176.38
865.39	302.38
865.824	283.38
866.258	290.38
866.692	430.38
867.126	426.38
867.56	284.38
867.994	220.38
868.428	194.38
868.862	192.38
869.296	183.38
869.73	180.38
870.164	197.38
870.598	186.38
871.031	163.38
871.465	142.38
871.899	132.38
872.333	129.38
872.766	126.38
873.2	122.38
873.634	137.38
874.067	135.38
874.501	123.38
874.935	128.38
875.368	110.38
875.802	118.38
876.235	128.38
876.669	109.38
877.102	115.38
877.535	124.38
877.969	123.38
878.402	136.38
878.836	110.38
879.269	132.38
879.702	125.38
880.135	104.38
880.569	118.38
881.002	112.38
881.435	110.38
881.868	117.38
882.301	105.38
882.734	122.38
883.167	117.38
883.601	122.38
884.034	98.38
884.467	132.38
884.899	117.38
885.332	122.38
885.765	118.38
886.198	113.38
886.631	115.38
887.064	116.38
887.497	113.38
887.929	118.38
888.362	108.38
888.795	104.38
889.228	111.38
889.66	106.38
890.093	105.38
890.526	122.38
890.958	101.38
891.391	116.38
891.823	109.38
892.256	119.38
892.688	114.38
893.121	121.38
893.553	112.38
893.985	100.38
894.418	112.38
894.85	112.38
895.282	103.38
895.715	97.38
896.147	108.38
896.579	109.38
897.011	110.38
897.444	103.38
897.876	101.38
898.308	106.38
898.74	119.38
899.172	103.38
899.604	104.38
900.036	104.38
900.468	112.38
900.9	106.38
901.332	105.38
901.764	126.38
902.196	127.38
902.628	137.38
903.06	130.38
903.491	121.38
903.923	122.38
904.355	116.38
904.787	123.38
905.218	123.38
905.65	124.38
906.082	107.38
906.513	109.38
906.945	107.38
907.376	120.38
907.808	104.38
908.239	133.38
908.671	105.38
909.102	110.38
909.534	130.38
909.965	148.38
910.397	254.38
910.828	571.38
911.259	654.38
911.691	416.38
912.122	297.38
912.553	203.38
912.984	151.38
913.415	117.38
913.847	116.38
914.278	107.38
914.709	125.38
915.14	110.38
915.571	110.38
916.002	112.38
916.433	99.38
916.864	105.38
917.295	131.38
917.726	106.38
918.157	125.38
918.587	114.38
919.018	122.38
919.449	112.38
919.88	118.38
920.311	120.38
920.741	156.38
921.172	322.38
921.603	258.38
922.033	200.38
922.464	157.38
922.895	136.38
923.325	110.38
923.756	116.38
924.186	125.38
924.617	117.38
925.047	127.38
925.478	135.38
925.908	122.38
926.338	120.38
926.769	114.38
927.199	111.38
927.629	131.38
928.06	113.38
928.49	105.38
928.92	117.38
929.35	109.38
929.78	103.38
930.21	98.38
930.641	82.38
931.071	99.38
931.501	102.38
931.931	102.38
932.361	106.38
932.791	90.38
933.221	83.38
933.651	88.38
934.08	105.38
934.51	110.38
934.94	108.38
935.37	94.38
935.8	88.38
936.229	88.38
936.659	100.38
937.089	108.38
937.519	112.38
937.948	127.38
938.378	123.38
938.807	95.38
939.237	104.38
939.666	104.38
940.096	110.38
940.525	92.38
940.955	102.38
941.384	96.38
941.814	100.38
942.243	88.38
942.672	90.38
943.102	98.38
943.531	99.38
943.96	107.38
944.39	87.38
944.819	111.38
945.248	92.38
945.677	94.38
946.106	100.38
946.535	99.38
946.964	103.38
947.393	92.38
947.822	96.38
948.251	91.38
948.68	93.38
949.109	76.38
949.538	86.38
949.967	84.38
950.396	79.38
950.825	82.38
951.254	86.38
951.682	106.38
952.111	92.38
952.54	103.38
952.969	74.38
953.397	72.38
953.826	100.38
954.254	81.38
954.683	90.38
955.112	90.38
955.54	98.38
955.969	96.38
956.397	91.38
956.826	85.38
957.254	91.38
957.682	90.38
958.111	89.38
958.539	103.38
958.967	76.38
959.396	99.38
959.824	99.38
960.252	82.38
960.68	95.38
961.109	92.38
961.537	86.38
961.965	84.38
962.393	94.38
962.821	89.38
963.249	100.38
963.677	95.38
964.105	99.38
964.533	153.38
964.961	144.38
965.389	138.38
965.817	114.38
966.245	92.38
966.672	108.38
967.1	82.38
967.528	81.38
967.956	86.38
968.383	98.38
968.811	89.38
969.239	90.38
969.666	87.38
970.094	94.38
970.522	96.38
970.949	83.38
971.377	100.38
971.804	77.38
972.232	79.38
972.659	87.38
973.087	74.38
973.514	93.38
973.941	88.38
974.369	91.38
974.796	81.38
975.223	106.38
975.651	89.38
976.078	82.38
976.505	93.38
976.932	93.38
977.359	108.38
977.786	107.38
978.214	85.38
978.641	91.38
979.068	88.38
979.495	87.38
979.922	88.38
980.349	88.38
980.776	89.38
981.202	81.38
981.629	90.38
982.056	88.38
982.483	83.38
982.91	98.38
983.337	92.38
983.763	83.38
984.19	85.38
984.617	72.38
985.043	91.38
985.47	78.38
985.897	78.38
986.323	80.38
986.75	79.38
987.176	76.38
987.603	86.38
988.029	90.38
988.456	108.38
988.882	95.38
989.308	87.38
989.735	88.38
990.161	91.38
990.587	99.38
991.014	79.38
991.44	94.38
991.866	99.38
992.292	78.38
992.719	107.38
993.145	84.38
993.571	76.38
993.997	84.38
994.423	100.38
994.849	85.38
995.275	92.38
995.701	72.38
996.127	73.38
996.553	96.38
996.979	80.38
997.405	79.38
997.83	87.38
998.256	74.38
998.682	106.38
999.108	76.38
999.534	92.38
999.959	83.38
1000.385	82.38
1000.811	88.38
1001.236	94.38
1001.662	110.38
1002.087	93.38
1002.513	90.38
1002.938	87.38
1003.364	82.38
1003.789	83.38
1004.215	87.38
1004.64	86.38
1005.066	86.38
1005.491	91.38
1005.916	97.38
1006.342	94.38
1006.767	71.38
1007.192	102.38
1007.617	96.38
1008.042	86.38
1008.468	102.38
1008.893	82.38
1009.318	93.38
1009.743	87.38
1010.168	100.38
1010.593	90.38
1011.018	97.38
1011.443	114.38
1011.868	100.38
1012.293	85.38
1012.718	90.38
1013.143	98.38
1013.567	82.38
1013.992	83.38
1014.417	72.38
1014.842	82.38
1015.267	97.38
1015.691	96.38
1016.116	84.38
1016.541	88.38
1016.965	88.38
1017.39	81.38
1017.814	96.38
1018.239	90.38
1018.663	86.38
1019.088	93.38
1019.512	84.38
1019.937	86.38
1020.361	98.38
1020.785	92.38
1021.21	86.38
1021.634	77.38
1022.058	77.38
1022.483	65.38
1022.907	90.38
1023.331	88.38
1023.755	75.38
1024.179	81.38
1024.604	97.38
1025.028	85.38
1025.452	74.38
1025.876	82.38
1026.3	86.38
1026.724	79.38
1027.148	81.38
1027.572	87.38
1027.996	79.38
1028.42	74.38
1028.843	92.38
1029.267	80.38
1029.691	70.38
1030.115	82.38
1030.539	83.38
1030.962	78.38
1031.386	87.38
1031.81	87.38
1032.233	85.38
1032.657	101.38
1033.08	63.38
1033.504	92.38
1033.927	79.38
1034.351	78.38
1034.774	85.38
1035.198	87.38
1035.621	98.38
1036.045	100.38
1036.468	81.38
1036.891	88.38
1037.315	77.38
1037.738	85.38
1038.161	79.38
1038.584	102.38
1039.008	89.38
1039.431	76.38
1039.854	98.38
1040.277	84.38
1040.7	93.38
1041.123	74.38
1041.546	70.38
1041.969	93.38
1042.392	86.38
1042.815	75.38
1043.238	78.38
1043.661	80.38
1044.084	75.38
1044.507	90.38
1044.93	78.38
1045.352	81.38
1045.775	90.38
1046.198	90.38
1046.621	94.38
1047.043	76.38
1047.466	78.38
1047.889	84.38
1048.311	83.38
1048.734	83.38
1049.156	88.38
1049.579	75.38
1050.001	83.38
1050.424	72.38
1050.846	69.38
1051.269	89.38
1051.691	73.38
1052.113	89.38
1052.536	84.38
1052.958	98.38
1053.38	86.38
1053.802	102.38
1054.225	76.38
1054.647	88.38
1055.069	86.38
1055.491	76.38
1055.913	77.38
1056.335	89.38
1056.757	86.38
1057.179	95.38
1057.601	83.38
1058.023	96.38
1058.445	78.38
1058.867	86.38
1059.289	81.38
1059.711	91.38
1060.133	78.38
1060.555	79.38
1060.976	89.38
1061.398	78.38
1061.82	85.38
1062.241	80.38
1062.663	76.38
1063.085	70.38
1063.506	79.38
1063.928	95.38
1064.35	68.38
1064.771	92.38
1065.193	72.38
1065.614	91.38
1066.035	81.38
1066.457	95.38
1066.878	88.38
1067.3	77.38
1067.721	91.38
1068.142	92.38
1068.564	106.38
1068.985	97.38
1069.406	91.38
1069.827	82.38
1070.248	75.38
1070.67	79.38
1071.091	64.38
1071.512	83.38
1071.933	65.38
1072.354	98.38
1072.775	81.38
1073.196	93.38
1073.617	84.38
1074.038	88.38
1074.459	84.38
1074.88	85.38
1075.3	68.38
1075.721	83.38
1076.142	78.38
1076.563	72.38
1076.983	83.38
1077.404	91.38
1077.825	94.38
1078.246	83.38
1078.666	86.38
1079.087	74.38
1079.507	90.38
1079.928	90.38
1080.348	78.38
1080.769	89.38
1081.189	88.38
1081.61	72.38
1082.03	80.38
1082.451	79.38
1082.871	80.38
1083.291	70.38
1083.711	83.38
1084.132	74.38
1084.552	70.38
1084.972	73.38
1085.392	98.38
1085.813	83.38
1086.233	93.38
1086.653	79.38
1087.073	56.38
1087.493	76.38
1087.913	82.38
1088.333	88.38
1088.753	90.38
1089.173	77.38
1089.593	82.38
1090.013	88.38
1090.433	78.38
1090.852	76.38
1091.272	86.38
1091.692	81.38
1092.112	76.38
1092.531	74.38
1092.951	73.38
1093.371	80.38
1093.79	88.38
1094.21	90.38
1094.63	67.38
1095.049	77.38
1095.469	70.38
1095.888	65.38
1096.308	76.38
1096.727	74.38
1097.146	70.38
1097.566	72.38
1097.985	71.38
1098.405	86.38
1098.824	72.38
1099.243	85.38
1099.662	80.38
1100.082	88.38
1100.501	91.38
1100.92	73.38
1101.339	101.38
1101.758	80.38
