Data from 20170802-ORNL-NYSim-Air_HRD10391_10-37-27-638.txt Node
Date: Wed Aug 02 10:37:27 EDT 2017
User: Ender
Spectrometer: HR+D1039
Trigger mode: 0
Integration Time (sec): 1.510000E-3
Scans to average: 1
Electric dark correction enabled: true
Nonlinearity correction enabled: false
Boxcar width: 0
XAxis mode: Wavelengths
Number of Pixels in Spectrum: 2048
>>>>>Begin Spectral Data<<<<<
187.836	13.94
188.309	13.94
188.782	13.94
189.255	-1.06
189.728	2.94
190.201	-6.06
190.674	-4.06
191.147	-0.06
191.619	4.94
192.092	-18.06
192.565	-4.06
193.038	-10.06
193.511	1.94
193.984	-2.06
194.456	11.94
194.929	1.94
195.402	11.94
195.874	-4.06
196.347	28.94
196.82	32.94
197.292	40.94
197.765	43.94
198.237	28.94
198.71	29.94
199.182	52.94
199.655	44.94
200.127	44.94
200.6	48.94
201.072	57.94
201.544	67.94
202.017	71.94
202.489	70.94
202.961	55.94
203.433	58.94
203.906	74.94
204.378	73.94
204.85	49.94
205.322	83.94
205.794	71.94
206.266	75.94
206.739	73.94
207.211	79.94
207.683	77.94
208.155	70.94
208.627	79.94
209.099	75.94
209.57	83.94
210.042	75.94
210.514	74.94
210.986	85.94
211.458	78.94
211.93	82.94
212.402	74.94
212.873	88.94
213.345	61.94
213.817	77.94
214.288	97.94
214.76	92.94
215.232	96.94
215.703	80.94
216.175	89.94
216.646	91.94
217.118	84.94
217.589	87.94
218.061	83.94
218.532	61.94
219.004	79.94
219.475	78.94
219.946	85.94
220.418	90.94
220.889	69.94
221.36	87.94
221.832	83.94
222.303	80.94
222.774	80.94
223.245	81.94
223.717	84.94
224.188	69.94
224.659	93.94
225.13	78.94
225.601	79.94
226.072	76.94
226.543	97.94
227.014	88.94
227.485	80.94
227.956	78.94
228.427	100.94
228.898	66.94
229.369	75.94
229.839	69.94
230.31	78.94
230.781	78.94
231.252	78.94
231.722	78.94
232.193	91.94
232.664	78.94
233.135	79.94
233.605	94.94
234.076	71.94
234.546	73.94
235.017	72.94
235.487	87.94
235.958	83.94
236.428	83.94
236.899	95.94
237.369	79.94
237.84	87.94
238.31	69.94
238.78	83.94
239.251	89.94
239.721	90.94
240.191	84.94
240.662	79.94
241.132	100.94
241.602	83.94
242.072	98.94
242.542	79.94
243.013	90.94
243.483	91.94
243.953	93.94
244.423	89.94
244.893	99.94
245.363	89.94
245.833	88.94
246.303	85.94
246.773	73.94
247.243	98.94
247.712	72.94
248.182	78.94
248.652	99.94
249.122	86.94
249.592	106.94
250.061	89.94
250.531	87.94
251.001	90.94
251.471	102.94
251.94	87.94
252.41	97.94
252.879	86.94
253.349	88.94
253.818	96.94
254.288	96.94
254.757	91.94
255.227	107.94
255.696	92.94
256.166	87.94
256.635	101.94
257.105	94.94
257.574	99.94
258.043	93.94
258.513	99.94
258.982	93.94
259.451	87.94
259.92	88.94
260.389	99.94
260.859	89.94
261.328	81.94
261.797	88.94
262.266	99.94
262.735	92.94
263.204	91.94
263.673	111.94
264.142	98.94
264.611	98.94
265.08	80.94
265.549	97.94
266.018	85.94
266.487	91.94
266.955	95.94
267.424	94.94
267.893	90.94
268.362	93.94
268.83	100.94
269.299	107.94
269.768	99.94
270.236	92.94
270.705	98.94
271.174	90.94
271.642	99.94
272.111	113.94
272.579	89.94
273.048	104.94
273.516	101.94
273.985	89.94
274.453	109.94
274.922	95.94
275.39	104.94
275.858	81.94
276.327	103.94
276.795	106.94
277.263	101.94
277.731	114.94
278.2	84.94
278.668	102.94
279.136	101.94
279.604	113.94
280.072	99.94
280.54	107.94
281.008	123.94
281.477	104.94
281.945	101.94
282.413	108.94
282.881	107.94
283.348	110.94
283.816	120.94
284.284	104.94
284.752	103.94
285.22	117.94
285.688	109.94
286.156	116.94
286.623	115.94
287.091	114.94
287.559	120.94
288.026	115.94
288.494	107.94
288.962	108.94
289.429	99.94
289.897	119.94
290.364	115.94
290.832	122.94
291.3	114.94
291.767	123.94
292.234	113.94
292.702	115.94
293.169	120.94
293.637	125.94
294.104	123.94
294.571	105.94
295.039	115.94
295.506	114.94
295.973	109.94
296.44	112.94
296.908	128.94
297.375	105.94
297.842	139.94
298.309	127.94
298.776	131.94
299.243	126.94
299.71	105.94
300.177	111.94
300.644	132.94
301.111	128.94
301.578	112.94
302.045	111.94
302.512	127.94
302.979	129.94
303.446	120.94
303.913	121.94
304.379	119.94
304.846	133.94
305.313	127.94
305.78	120.94
306.246	126.94
306.713	112.94
307.18	131.94
307.646	130.94
308.113	121.94
308.579	135.94
309.046	134.94
309.512	130.94
309.979	149.94
310.445	134.94
310.912	136.94
311.378	135.94
311.845	141.94
312.311	123.94
312.777	143.94
313.244	135.94
313.71	139.94
314.176	132.94
314.642	133.94
315.109	153.94
315.575	139.94
316.041	143.94
316.507	156.94
316.973	154.94
317.439	155.94
317.905	141.94
318.371	142.94
318.837	135.94
319.303	149.94
319.769	132.94
320.235	167.94
320.701	164.94
321.167	145.94
321.633	156.94
322.099	149.94
322.564	129.94
323.03	138.94
323.496	142.94
323.962	160.94
324.427	149.94
324.893	154.94
325.359	142.94
325.824	152.94
326.29	147.94
326.755	167.94
327.221	156.94
327.686	154.94
328.152	150.94
328.617	165.94
329.083	165.94
329.548	154.94
330.014	165.94
330.479	154.94
330.944	165.94
331.41	171.94
331.875	166.94
332.34	167.94
332.805	145.94
333.271	163.94
333.736	163.94
334.201	167.94
334.666	164.94
335.131	165.94
335.596	167.94
336.061	160.94
336.526	174.94
336.991	184.94
337.456	183.94
337.921	163.94
338.386	168.94
338.851	191.94
339.316	161.94
339.781	168.94
340.246	169.94
340.711	181.94
341.175	175.94
341.64	179.94
342.105	177.94
342.569	171.94
343.034	185.94
343.499	181.94
343.963	176.94
344.428	172.94
344.893	191.94
345.357	158.94
345.822	205.94
346.286	180.94
346.751	205.94
347.215	199.94
347.679	212.94
348.144	213.94
348.608	219.94
349.073	223.94
349.537	227.94
350.001	194.94
350.465	203.94
350.93	204.94
351.394	210.94
351.858	211.94
352.322	223.94
352.786	216.94
353.25	211.94
353.715	233.94
354.179	227.94
354.643	231.94
355.107	220.94
355.571	228.94
356.035	234.94
356.498	230.94
356.962	209.94
357.426	221.94
357.89	221.94
358.354	241.94
358.818	227.94
359.281	226.94
359.745	238.94
360.209	226.94
360.673	214.94
361.136	193.94
361.6	226.94
362.064	223.94
362.527	232.94
362.991	240.94
363.454	218.94
363.918	241.94
364.381	225.94
364.845	258.94
365.308	240.94
365.772	246.94
366.235	225.94
366.698	238.94
367.162	247.94
367.625	219.94
368.088	219.94
368.552	248.94
369.015	225.94
369.478	252.94
369.941	257.94
370.404	240.94
370.867	243.94
371.331	257.94
371.794	261.94
372.257	252.94
372.72	282.94
373.183	260.94
373.646	239.94
374.109	243.94
374.572	261.94
375.035	255.94
375.497	273.94
375.96	286.94
376.423	267.94
376.886	267.94
377.349	265.94
377.811	264.94
378.274	279.94
378.737	277.94
379.199	254.94
379.662	279.94
380.125	272.94
380.587	251.94
381.05	291.94
381.512	279.94
381.975	304.94
382.437	304.94
382.9	293.94
383.362	306.94
383.825	293.94
384.287	305.94
384.75	314.94
385.212	305.94
385.674	312.94
386.136	315.94
386.599	293.94
387.061	284.94
387.523	318.94
387.985	300.94
388.447	320.94
388.91	333.94
389.372	317.94
389.834	322.94
390.296	311.94
390.758	343.94
391.22	316.94
391.682	317.94
392.144	323.94
392.606	319.94
393.068	326.94
393.529	332.94
393.991	333.94
394.453	318.94
394.915	321.94
395.377	331.94
395.838	304.94
396.3	313.94
396.762	321.94
397.224	339.94
397.685	307.94
398.147	308.94
398.608	308.94
399.07	340.94
399.531	331.94
399.993	326.94
400.454	346.94
400.916	343.94
401.377	343.94
401.839	343.94
402.3	364.94
402.762	359.94
403.223	395.94
403.684	413.94
404.145	377.94
404.607	362.94
405.068	348.94
405.529	376.94
405.99	359.94
406.451	373.94
406.913	372.94
407.374	379.94
407.835	357.94
408.296	399.94
408.757	399.94
409.218	381.94
409.679	393.94
410.14	408.94
410.601	405.94
411.062	402.94
411.522	415.94
411.983	408.94
412.444	414.94
412.905	423.94
413.366	418.94
413.826	441.94
414.287	481.94
414.748	568.94
415.208	554.94
415.669	503.94
416.13	443.94
416.59	435.94
417.051	469.94
417.511	462.94
417.972	518.94
418.432	541.94
418.893	606.94
419.353	569.94
419.814	455.94
420.274	419.94
420.734	435.94
421.195	429.94
421.655	425.94
422.115	418.94
422.576	425.94
423.036	417.94
423.496	449.94
423.956	458.94
424.416	492.94
424.876	513.94
425.336	533.94
425.797	516.94
426.257	545.94
426.717	502.94
427.177	457.94
427.637	497.94
428.097	504.94
428.556	492.94
429.016	571.94
429.476	544.94
429.936	545.94
430.396	537.94
430.856	551.94
431.315	562.94
431.775	606.94
432.235	611.94
432.694	630.94
433.154	597.94
433.614	608.94
434.073	580.94
434.533	532.94
434.993	496.94
435.452	506.94
435.912	543.94
436.371	504.94
436.83	497.94
437.29	489.94
437.749	469.94
438.209	459.94
438.668	474.94
439.127	479.94
439.587	485.94
440.046	468.94
440.505	473.94
440.964	501.94
441.424	508.94
441.883	537.94
442.342	491.94
442.801	455.94
443.26	462.94
443.719	455.94
444.178	460.94
444.637	471.94
445.096	489.94
445.555	471.94
446.014	468.94
446.473	475.94
446.932	485.94
447.391	475.94
447.849	485.94
448.308	461.94
448.767	506.94
449.226	495.94
449.685	503.94
450.143	487.94
450.602	485.94
451.061	496.94
451.519	469.94
451.978	488.94
452.436	447.94
452.895	486.94
453.353	489.94
453.812	468.94
454.27	489.94
454.729	493.94
455.187	485.94
455.646	439.94
456.104	495.94
456.562	457.94
457.021	506.94
457.479	462.94
457.937	493.94
458.395	491.94
458.854	524.94
459.312	474.94
459.77	497.94
460.228	507.94
460.686	492.94
461.144	502.94
461.602	498.94
462.06	526.94
462.518	544.94
462.976	514.94
463.434	539.94
463.892	495.94
464.35	554.94
464.808	548.94
465.266	547.94
465.724	557.94
466.181	561.94
466.639	547.94
467.097	558.94
467.555	586.94
468.012	591.94
468.47	590.94
468.928	644.94
469.385	619.94
469.843	641.94
470.3	628.94
470.758	641.94
471.215	659.94
471.673	657.94
472.13	667.94
472.588	714.94
473.045	696.94
473.503	697.94
473.96	717.94
474.417	739.94
474.875	753.94
475.332	754.94
475.789	794.94
476.246	830.94
476.704	803.94
477.161	863.94
477.618	914.94
478.075	929.94
478.532	1011.94
478.989	1055.94
479.446	1127.94
479.903	1219.94
480.36	1317.94
480.817	1343.94
481.274	1493.94
481.731	1603.94
482.188	1667.94
482.645	1781.94
483.102	1929.94
483.558	2031.94
484.015	2104.94
484.472	2116.94
484.929	2025.94
485.385	2039.94
485.842	1929.94
486.299	1917.94
486.755	1769.94
487.212	1543.94
487.668	1431.94
488.125	1331.94
488.582	1272.94
489.038	1212.94
489.494	1175.94
489.951	1093.94
490.407	1122.94
490.864	1133.94
491.32	1060.94
491.776	1076.94
492.233	1075.94
492.689	1059.94
493.145	1021.94
493.602	1035.94
494.058	986.94
494.514	1015.94
494.97	1042.94
495.426	1045.94
495.882	1031.94
496.338	1013.94
496.794	1080.94
497.251	1064.94
497.707	1025.94
498.163	1043.94
498.618	1039.94
499.074	1076.94
499.53	1047.94
499.986	1101.94
500.442	1079.94
500.898	1056.94
501.354	1066.94
501.809	1096.94
502.265	1083.94
502.721	1100.94
503.177	1052.94
503.632	1079.94
504.088	1063.94
504.543	1058.94
504.999	1104.94
505.455	1074.94
505.91	1102.94
506.366	1121.94
506.821	1099.94
507.277	1068.94
507.732	1077.94
508.187	1116.94
508.643	1109.94
509.098	1155.94
509.553	1135.94
510.009	1116.94
510.464	1138.94
510.919	1173.94
511.375	1137.94
511.83	1194.94
512.285	1190.94
512.74	1209.94
513.195	1242.94
513.65	1283.94
514.105	1276.94
514.56	1256.94
515.015	1308.94
515.47	1313.94
515.925	1297.94
516.38	1295.94
516.835	1301.94
517.29	1283.94
517.745	1285.94
518.2	1297.94
518.655	1275.94
519.109	1253.94
519.564	1179.94
520.019	1195.94
520.474	1180.94
520.928	1189.94
521.383	1178.94
521.838	1195.94
522.292	1173.94
522.747	1182.94
523.201	1146.94
523.656	1151.94
524.11	1116.94
524.565	1151.94
525.019	1157.94
525.474	1152.94
525.928	1144.94
526.382	1105.94
526.837	1150.94
527.291	1135.94
527.745	1121.94
528.2	1156.94
528.654	1120.94
529.108	1133.94
529.562	1149.94
530.016	1141.94
530.47	1141.94
530.925	1161.94
531.379	1139.94
531.833	1142.94
532.287	1131.94
532.741	1170.94
533.195	1155.94
533.649	1146.94
534.103	1137.94
534.556	1141.94
535.01	1163.94
535.464	1154.94
535.918	1138.94
536.372	1137.94
536.826	1147.94
537.279	1120.94
537.733	1131.94
538.187	1168.94
538.64	1143.94
539.094	1160.94
539.548	1155.94
540.001	1137.94
540.455	1178.94
540.908	1175.94
541.362	1186.94
541.815	1217.94
542.269	1203.94
542.722	1198.94
543.175	1185.94
543.629	1230.94
544.082	1239.94
544.536	1200.94
544.989	1269.94
545.442	1280.94
545.895	1277.94
546.349	1261.94
546.802	1292.94
547.255	1259.94
547.708	1270.94
548.161	1226.94
548.614	1301.94
549.067	1260.94
549.52	1307.94
549.973	1259.94
550.426	1261.94
550.879	1271.94
551.332	1311.94
551.785	1273.94
552.238	1271.94
552.691	1274.94
553.144	1303.94
553.596	1293.94
554.049	1297.94
554.502	1340.94
554.955	1362.94
555.407	1385.94
555.86	1397.94
556.313	1373.94
556.765	1415.94
557.218	1341.94
557.67	1364.94
558.123	1332.94
558.576	1346.94
559.028	1329.94
559.48	1344.94
559.933	1329.94
560.385	1323.94
560.838	1257.94
561.29	1219.94
561.742	1183.94
562.195	1192.94
562.647	1184.94
563.099	1188.94
563.551	1170.94
564.004	1199.94
564.456	1135.94
564.908	1164.94
565.36	1118.94
565.812	1124.94
566.264	1080.94
566.716	1110.94
567.168	1074.94
567.62	1067.94
568.072	1101.94
568.524	1056.94
568.976	1067.94
569.428	1091.94
569.88	1012.94
570.332	1034.94
570.784	1055.94
571.235	1035.94
571.687	1063.94
572.139	1050.94
572.59	1064.94
573.042	1052.94
573.494	1070.94
573.945	1062.94
574.397	1012.94
574.849	1015.94
575.3	1043.94
575.752	1002.94
576.203	1016.94
576.655	1037.94
577.106	1009.94
577.557	1023.94
578.009	998.94
578.46	1003.94
578.912	992.94
579.363	1001.94
579.814	997.94
580.265	1031.94
580.717	1033.94
581.168	1008.94
581.619	988.94
582.07	996.94
582.521	1018.94
582.972	1035.94
583.423	1029.94
583.875	1023.94
584.326	1035.94
584.777	1008.94
585.227	1042.94
585.678	1050.94
586.129	1073.94
586.58	1052.94
587.031	1094.94
587.482	1152.94
587.933	1129.94
588.384	1153.94
588.834	1109.94
589.285	1139.94
589.736	1142.94
590.186	1149.94
590.637	1113.94
591.088	1097.94
591.538	1069.94
591.989	1039.94
592.439	1041.94
592.89	1079.94
593.34	1027.94
593.791	1032.94
594.241	1013.94
594.692	993.94
595.142	1005.94
595.593	1016.94
596.043	1006.94
596.493	1052.94
596.943	1023.94
597.394	1027.94
597.844	1081.94
598.294	1092.94
598.744	1104.94
599.195	1116.94
599.645	1189.94
600.095	1262.94
600.545	1296.94
600.995	1386.94
601.445	1391.94
601.895	1451.94
602.345	1502.94
602.795	1568.94
603.245	1468.94
603.695	1402.94
604.145	1333.94
604.594	1267.94
605.044	1181.94
605.494	1110.94
605.944	1072.94
606.393	1054.94
606.843	1000.94
607.293	1037.94
607.743	1021.94
608.192	1015.94
608.642	1020.94
609.091	1043.94
609.541	1007.94
609.99	1035.94
610.44	1026.94
610.889	1024.94
611.339	970.94
611.788	973.94
612.238	959.94
612.687	969.94
613.136	984.94
613.586	1030.94
614.035	981.94
614.484	996.94
614.933	1049.94
615.383	1004.94
615.832	971.94
616.281	980.94
616.73	945.94
617.179	947.94
617.628	889.94
618.077	893.94
618.526	882.94
618.975	881.94
619.424	852.94
619.873	876.94
620.322	856.94
620.771	855.94
621.22	866.94
621.669	826.94
622.118	851.94
622.567	822.94
623.015	791.94
623.464	810.94
623.913	762.94
624.361	806.94
624.81	779.94
625.259	791.94
625.707	783.94
626.156	793.94
626.604	799.94
627.053	799.94
627.501	822.94
627.95	796.94
628.398	803.94
628.847	809.94
629.295	801.94
629.744	787.94
630.192	773.94
630.64	808.94
631.089	769.94
631.537	767.94
631.985	749.94
632.433	764.94
632.881	709.94
633.33	751.94
633.778	769.94
634.226	735.94
634.674	735.94
635.122	771.94
635.57	751.94
636.018	787.94
636.466	757.94
636.914	789.94
637.362	803.94
637.81	809.94
638.258	819.94
638.705	817.94
639.153	858.94
639.601	875.94
640.049	880.94
640.497	894.94
640.944	933.94
641.392	911.94
641.84	868.94
642.287	822.94
642.735	806.94
643.182	795.94
643.63	772.94
644.078	810.94
644.525	823.94
644.973	830.94
645.42	821.94
645.867	841.94
646.315	862.94
646.762	881.94
647.21	922.94
647.657	974.94
648.104	1007.94
648.551	1024.94
648.999	1061.94
649.446	1147.94
649.893	1273.94
650.34	1459.94
650.787	1727.94
651.234	2123.94
651.682	2766.94
652.129	3834.94
652.576	5627.94
653.023	7614.94
653.47	9463.94
653.917	10535.94
654.363	11044.94
654.81	11687.94
655.257	12342.94
655.704	9397.94
656.151	5688.94
656.598	3647.94
657.044	2557.94
657.491	2033.94
657.938	1669.94
658.385	1406.94
658.831	1220.94
659.278	1125.94
659.724	1014.94
660.171	974.94
660.618	887.94
661.064	811.94
661.511	821.94
661.957	795.94
662.404	776.94
662.85	776.94
663.296	746.94
663.743	751.94
664.189	708.94
664.635	732.94
665.082	728.94
665.528	707.94
665.974	695.94
666.42	720.94
666.867	702.94
667.313	653.94
667.759	615.94
668.205	626.94
668.651	643.94
669.097	619.94
669.543	656.94
669.989	642.94
670.435	660.94
670.881	640.94
671.327	668.94
671.773	726.94
672.219	742.94
672.665	801.94
673.11	835.94
673.556	840.94
674.002	832.94
674.448	893.94
674.893	759.94
675.339	672.94
675.785	612.94
676.23	597.94
676.676	602.94
677.122	544.94
677.567	551.94
678.013	529.94
678.458	519.94
678.904	535.94
679.349	491.94
679.794	510.94
680.24	490.94
680.685	519.94
681.131	530.94
681.576	521.94
682.021	499.94
682.466	508.94
682.912	508.94
683.357	539.94
683.802	589.94
684.247	606.94
684.692	661.94
685.137	671.94
685.583	705.94
686.028	719.94
686.473	702.94
686.918	645.94
687.363	563.94
687.807	554.94
688.252	551.94
688.697	513.94
689.142	493.94
689.587	469.94
690.032	516.94
690.477	536.94
690.921	524.94
691.366	541.94
691.811	610.94
692.255	619.94
692.7	693.94
693.145	881.94
693.589	1301.94
694.034	1727.94
694.478	1909.94
694.923	1777.94
695.367	2155.94
695.812	1971.94
696.256	875.94
696.701	567.94
697.145	512.94
697.59	487.94
698.034	487.94
698.478	463.94
698.922	491.94
699.367	497.94
699.811	535.94
700.255	523.94
700.699	592.94
701.143	619.94
701.588	650.94
702.032	663.94
702.476	698.94
702.92	741.94
703.364	839.94
703.808	1183.94
704.252	1614.94
704.696	1773.94
705.14	1681.94
705.584	2093.94
706.027	1749.94
706.471	857.94
706.915	593.94
707.359	514.94
707.803	489.94
708.246	488.94
708.69	447.94
709.134	456.94
709.577	458.94
710.021	474.94
710.465	470.94
710.908	443.94
711.352	465.94
711.795	495.94
712.239	547.94
712.682	541.94
713.126	558.94
713.569	575.94
714.012	546.94
714.456	453.94
714.899	439.94
715.342	413.94
715.786	402.94
716.229	402.94
716.672	385.94
717.115	382.94
717.558	395.94
718.002	395.94
718.445	411.94
718.888	431.94
719.331	417.94
719.774	455.94
720.217	455.94
720.66	421.94
721.103	405.94
721.546	415.94
721.989	408.94
722.432	375.94
722.874	365.94
723.317	389.94
723.76	420.94
724.203	431.94
724.645	554.94
725.088	643.94
725.531	711.94
725.974	686.94
726.416	759.94
726.859	505.94
727.301	412.94
727.744	385.94
728.187	373.94
728.629	385.94
729.071	377.94
729.514	384.94
729.956	402.94
730.399	423.94
730.841	425.94
731.283	403.94
731.726	415.94
732.168	412.94
732.61	431.94
733.053	438.94
733.495	483.94
733.937	523.94
734.379	571.94
734.821	698.94
735.263	931.94
735.705	1565.94
736.148	2541.94
736.59	2978.94
737.032	2783.94
737.474	3005.94
737.916	1485.94
738.357	741.94
738.799	511.94
739.241	452.94
739.683	453.94
740.125	490.94
740.567	493.94
741.008	495.94
741.45	491.94
741.892	525.94
742.334	522.94
742.775	581.94
743.217	510.94
743.658	454.94
744.1	458.94
744.542	470.94
744.983	553.94
745.425	526.94
745.866	551.94
746.307	477.94
746.749	488.94
747.19	549.94
747.632	906.94
748.073	1692.94
748.514	2665.94
748.956	3184.94
749.397	4483.94
749.838	3649.94
750.279	2945.94
750.72	2222.94
751.162	1037.94
751.603	588.94
752.044	391.94
752.485	367.94
752.926	367.94
753.367	337.94
753.808	341.94
754.249	339.94
754.69	306.94
755.131	301.94
755.572	318.94
756.013	333.94
756.453	337.94
756.894	307.94
757.335	324.94
757.776	329.94
758.216	344.94
758.657	346.94
759.098	380.94
759.538	383.94
759.979	503.94
760.42	769.94
760.86	1704.94
761.301	3980.94
761.741	5930.94
762.182	6084.94
762.622	5705.94
763.063	2615.94
763.503	1081.94
763.943	582.94
764.384	432.94
764.824	369.94
765.264	353.94
765.705	326.94
766.145	324.94
766.585	313.94
767.025	323.94
767.465	311.94
767.906	293.94
768.346	313.94
768.786	316.94
769.226	425.94
769.666	641.94
770.106	1346.94
770.546	2363.94
770.986	2585.94
771.426	2505.94
771.866	1404.94
772.306	663.94
772.745	381.94
773.185	307.94
773.625	271.94
774.065	300.94
774.505	339.94
774.944	509.94
775.384	834.94
775.824	951.94
776.263	925.94
776.703	648.94
777.142	404.94
777.582	277.94
778.021	261.94
778.461	257.94
778.9	223.94
779.34	236.94
779.779	230.94
780.219	246.94
780.658	255.94
781.097	219.94
781.537	230.94
781.976	214.94
782.415	219.94
782.855	206.94
783.294	229.94
783.733	208.94
784.172	218.94
784.611	218.94
785.05	230.94
785.489	219.94
785.928	221.94
786.367	231.94
786.806	240.94
787.245	245.94
787.684	256.94
788.123	262.94
788.562	252.94
789.001	217.94
789.44	250.94
789.879	236.94
790.317	242.94
790.756	255.94
791.195	241.94
791.634	324.94
792.072	411.94
792.511	835.94
792.95	1788.94
793.388	2236.94
793.827	1983.94
794.265	1173.94
794.704	603.94
795.142	332.94
795.581	286.94
796.019	250.94
796.458	263.94
796.896	235.94
797.334	273.94
797.773	307.94
798.211	451.94
798.649	902.94
799.087	1447.94
799.526	2226.94
799.964	2449.94
800.402	2090.94
800.84	1195.94
801.278	639.94
801.716	375.94
802.154	271.94
802.592	264.94
803.03	254.94
803.468	277.94
803.906	284.94
804.344	286.94
804.782	275.94
805.22	246.94
805.658	249.94
806.096	297.94
806.533	300.94
806.971	336.94
807.409	433.94
807.847	664.94
808.284	1470.94
808.722	2890.94
809.16	3985.94
809.597	5607.94
810.035	7089.94
810.472	6099.94
810.91	3375.94
811.347	1687.94
811.785	761.94
812.222	481.94
812.66	359.94
813.097	299.94
813.535	282.94
813.972	256.94
814.409	240.94
814.846	216.94
815.284	220.94
815.721	219.94
816.158	214.94
816.595	273.94
817.032	349.94
817.47	330.94
817.907	284.94
818.344	251.94
818.781	243.94
819.218	252.94
819.655	333.94
820.092	423.94
820.529	441.94
820.966	383.94
821.403	293.94
821.839	266.94
822.276	249.94
822.713	279.94
823.15	300.94
823.587	276.94
824.023	311.94
824.46	701.94
824.897	1275.94
825.333	1343.94
825.77	838.94
826.206	497.94
826.643	312.94
827.08	227.94
827.516	201.94
827.953	194.94
828.389	187.94
828.825	172.94
829.262	180.94
829.698	178.94
830.135	165.94
830.571	167.94
831.007	178.94
831.443	171.94
831.88	161.94
832.316	172.94
832.752	167.94
833.188	159.94
833.624	181.94
834.06	164.94
834.497	181.94
834.933	171.94
835.369	200.94
835.805	187.94
836.241	181.94
836.677	197.94
837.112	225.94
837.548	229.94
837.984	278.94
838.42	461.94
838.856	1057.94
839.292	2225.94
839.727	2421.94
840.163	1633.94
840.599	1925.94
841.034	2816.94
841.47	2212.94
841.906	1257.94
842.341	715.94
842.777	463.94
843.212	426.94
843.648	337.94
844.083	252.94
844.519	223.94
844.954	185.94
845.39	171.94
845.825	175.94
846.261	164.94
846.696	157.94
847.131	158.94
847.566	193.94
848.002	142.94
848.437	156.94
848.872	152.94
849.307	184.94
849.742	220.94
850.177	446.94
850.613	861.94
851.048	969.94
851.483	561.94
851.918	330.94
852.353	219.94
852.788	167.94
853.223	159.94
853.657	147.94
854.092	137.94
854.527	145.94
854.962	134.94
855.397	162.94
855.832	145.94
856.266	162.94
856.701	122.94
857.136	121.94
857.57	159.94
858.005	154.94
858.44	178.94
858.874	146.94
859.309	151.94
859.743	140.94
860.178	157.94
860.612	145.94
861.047	170.94
861.481	195.94
861.915	195.94
862.35	178.94
862.784	137.94
863.218	145.94
863.653	127.94
864.087	147.94
864.521	160.94
864.955	190.94
865.39	282.94
865.824	271.94
866.258	309.94
866.692	402.94
867.126	373.94
867.56	278.94
867.994	207.94
868.428	167.94
868.862	174.94
869.296	181.94
869.73	189.94
870.164	186.94
870.598	176.94
871.031	156.94
871.465	147.94
871.899	123.94
872.333	121.94
872.766	120.94
873.2	135.94
873.634	110.94
874.067	111.94
874.501	118.94
874.935	106.94
875.368	131.94
875.802	122.94
876.235	114.94
876.669	111.94
877.102	119.94
877.535	120.94
877.969	108.94
878.402	109.94
878.836	109.94
879.269	114.94
879.702	106.94
880.135	124.94
880.569	111.94
881.002	124.94
881.435	123.94
881.868	111.94
882.301	109.94
882.734	105.94
883.167	97.94
883.601	100.94
884.034	111.94
884.467	109.94
884.899	114.94
885.332	113.94
885.765	94.94
886.198	117.94
886.631	111.94
887.064	113.94
887.497	116.94
887.929	101.94
888.362	111.94
888.795	106.94
889.228	109.94
889.66	124.94
890.093	107.94
890.526	114.94
890.958	109.94
891.391	124.94
891.823	105.94
892.256	101.94
892.688	96.94
893.121	97.94
893.553	95.94
893.985	112.94
894.418	112.94
894.85	100.94
895.282	108.94
895.715	132.94
896.147	114.94
896.579	105.94
897.011	111.94
897.444	100.94
897.876	107.94
898.308	115.94
898.74	121.94
899.172	112.94
899.604	119.94
900.036	115.94
900.468	127.94
900.9	105.94
901.332	108.94
901.764	123.94
902.196	117.94
902.628	124.94
903.06	119.94
903.491	123.94
903.923	138.94
904.355	111.94
904.787	111.94
905.218	132.94
905.65	111.94
906.082	115.94
906.513	99.94
906.945	115.94
907.376	91.94
907.808	101.94
908.239	124.94
908.671	104.94
909.102	122.94
909.534	131.94
909.965	140.94
910.397	253.94
910.828	565.94
911.259	613.94
911.691	394.94
912.122	289.94
912.553	183.94
912.984	130.94
913.415	125.94
913.847	118.94
914.278	115.94
914.709	105.94
915.14	105.94
915.571	87.94
916.002	115.94
916.433	95.94
916.864	109.94
917.295	99.94
917.726	104.94
918.157	109.94
918.587	116.94
919.018	96.94
919.449	107.94
919.88	111.94
920.311	125.94
920.741	176.94
921.172	304.94
921.603	269.94
922.033	201.94
922.464	162.94
922.895	130.94
923.325	117.94
923.756	122.94
924.186	113.94
924.617	114.94
925.047	132.94
925.478	119.94
925.908	136.94
926.338	94.94
926.769	115.94
927.199	104.94
927.629	101.94
928.06	97.94
928.49	100.94
928.92	108.94
929.35	95.94
929.78	98.94
930.21	103.94
930.641	103.94
931.071	99.94
931.501	88.94
931.931	90.94
932.361	95.94
932.791	100.94
933.221	78.94
933.651	105.94
934.08	103.94
934.51	109.94
934.94	106.94
935.37	99.94
935.8	92.94
936.229	74.94
936.659	93.94
937.089	115.94
937.519	100.94
937.948	129.94
938.378	111.94
938.807	93.94
939.237	97.94
939.666	104.94
940.096	75.94
940.525	95.94
940.955	83.94
941.384	92.94
941.814	94.94
942.243	73.94
942.672	90.94
943.102	85.94
943.531	96.94
943.96	84.94
944.39	80.94
944.819	83.94
945.248	96.94
945.677	90.94
946.106	83.94
946.535	103.94
946.964	78.94
947.393	103.94
947.822	73.94
948.251	90.94
948.68	71.94
949.109	95.94
949.538	84.94
949.967	82.94
950.396	84.94
950.825	72.94
951.254	107.94
951.682	99.94
952.111	88.94
952.54	85.94
952.969	85.94
953.397	87.94
953.826	85.94
954.254	91.94
954.683	75.94
955.112	87.94
955.54	87.94
955.969	92.94
956.397	95.94
956.826	77.94
957.254	98.94
957.682	80.94
958.111	79.94
958.539	88.94
958.967	88.94
959.396	84.94
959.824	89.94
960.252	87.94
960.68	89.94
961.109	102.94
961.537	103.94
961.965	99.94
962.393	107.94
962.821	83.94
963.249	86.94
963.677	104.94
964.105	101.94
964.533	147.94
964.961	133.94
965.389	110.94
965.817	97.94
966.245	94.94
966.672	93.94
967.1	99.94
967.528	77.94
967.956	83.94
968.383	93.94
968.811	78.94
969.239	89.94
969.666	70.94
970.094	89.94
970.522	97.94
970.949	99.94
971.377	93.94
971.804	87.94
972.232	87.94
972.659	87.94
973.087	99.94
973.514	85.94
973.941	71.94
974.369	86.94
974.796	84.94
975.223	89.94
975.651	86.94
976.078	93.94
976.505	87.94
976.932	89.94
977.359	113.94
977.786	97.94
978.214	103.94
978.641	87.94
979.068	95.94
979.495	86.94
979.922	86.94
980.349	79.94
980.776	84.94
981.202	95.94
981.629	91.94
982.056	82.94
982.483	87.94
982.91	92.94
983.337	91.94
983.763	95.94
984.19	73.94
984.617	93.94
985.043	59.94
985.47	86.94
985.897	96.94
986.323	79.94
986.75	86.94
987.176	87.94
987.603	89.94
988.029	86.94
988.456	72.94
988.882	110.94
989.308	95.94
989.735	89.94
990.161	73.94
990.587	78.94
991.014	85.94
991.44	82.94
991.866	102.94
992.292	72.94
992.719	88.94
993.145	65.94
993.571	76.94
993.997	79.94
994.423	87.94
994.849	111.94
995.275	81.94
995.701	86.94
996.127	79.94
996.553	97.94
996.979	73.94
997.405	77.94
997.83	73.94
998.256	81.94
998.682	89.94
999.108	81.94
999.534	91.94
999.959	80.94
1000.385	90.94
1000.811	92.94
1001.236	78.94
1001.662	89.94
1002.087	91.94
1002.513	83.94
1002.938	96.94
1003.364	103.94
1003.789	86.94
1004.215	81.94
1004.64	96.94
1005.066	105.94
1005.491	96.94
1005.916	94.94
1006.342	94.94
1006.767	74.94
1007.192	75.94
1007.617	82.94
1008.042	70.94
1008.468	92.94
1008.893	80.94
1009.318	94.94
1009.743	94.94
1010.168	87.94
1010.593	111.94
1011.018	89.94
1011.443	97.94
1011.868	90.94
1012.293	75.94
1012.718	77.94
1013.143	88.94
1013.567	83.94
1013.992	100.94
1014.417	98.94
1014.842	83.94
1015.267	80.94
1015.691	90.94
1016.116	88.94
1016.541	85.94
1016.965	94.94
1017.39	99.94
1017.814	87.94
1018.239	93.94
1018.663	75.94
1019.088	66.94
1019.512	83.94
1019.937	89.94
1020.361	86.94
1020.785	89.94
1021.21	90.94
1021.634	92.94
1022.058	95.94
1022.483	84.94
1022.907	93.94
1023.331	74.94
1023.755	87.94
1024.179	63.94
1024.604	87.94
1025.028	82.94
1025.452	76.94
1025.876	94.94
1026.3	78.94
1026.724	88.94
1027.148	78.94
1027.572	81.94
1027.996	88.94
1028.42	74.94
1028.843	106.94
1029.267	83.94
1029.691	90.94
1030.115	76.94
1030.539	88.94
1030.962	97.94
1031.386	90.94
1031.81	92.94
1032.233	82.94
1032.657	85.94
1033.08	76.94
1033.504	66.94
1033.927	95.94
1034.351	92.94
1034.774	68.94
1035.198	90.94
1035.621	71.94
1036.045	64.94
1036.468	93.94
1036.891	99.94
1037.315	91.94
1037.738	87.94
1038.161	90.94
1038.584	80.94
1039.008	87.94
1039.431	94.94
1039.854	78.94
1040.277	66.94
1040.7	85.94
1041.123	76.94
1041.546	91.94
1041.969	91.94
1042.392	89.94
1042.815	70.94
1043.238	92.94
1043.661	78.94
1044.084	78.94
1044.507	69.94
1044.93	86.94
1045.352	79.94
1045.775	100.94
1046.198	83.94
1046.621	62.94
1047.043	93.94
1047.466	81.94
1047.889	87.94
1048.311	86.94
1048.734	71.94
1049.156	80.94
1049.579	79.94
1050.001	88.94
1050.424	78.94
1050.846	80.94
1051.269	84.94
1051.691	83.94
1052.113	90.94
1052.536	67.94
1052.958	66.94
1053.38	79.94
1053.802	98.94
1054.225	77.94
1054.647	93.94
1055.069	83.94
1055.491	90.94
1055.913	101.94
1056.335	74.94
1056.757	89.94
1057.179	67.94
1057.601	69.94
1058.023	76.94
1058.445	85.94
1058.867	91.94
1059.289	84.94
1059.711	85.94
1060.133	84.94
1060.555	83.94
1060.976	84.94
1061.398	76.94
1061.82	75.94
1062.241	100.94
1062.663	79.94
1063.085	76.94
1063.506	87.94
1063.928	91.94
1064.35	76.94
1064.771	91.94
1065.193	85.94
1065.614	95.94
1066.035	67.94
1066.457	73.94
1066.878	85.94
1067.3	80.94
1067.721	76.94
1068.142	89.94
1068.564	84.94
1068.985	70.94
1069.406	80.94
1069.827	72.94
1070.248	90.94
1070.67	70.94
1071.091	87.94
1071.512	70.94
1071.933	93.94
1072.354	85.94
1072.775	78.94
1073.196	96.94
1073.617	56.94
1074.038	75.94
1074.459	90.94
1074.88	64.94
1075.3	83.94
1075.721	78.94
1076.142	89.94
1076.563	91.94
1076.983	97.94
1077.404	77.94
1077.825	64.94
1078.246	83.94
1078.666	87.94
1079.087	85.94
1079.507	74.94
1079.928	91.94
1080.348	66.94
1080.769	79.94
1081.189	80.94
1081.61	93.94
1082.03	84.94
1082.451	82.94
1082.871	79.94
1083.291	83.94
1083.711	69.94
1084.132	81.94
1084.552	76.94
1084.972	97.94
1085.392	85.94
1085.813	94.94
1086.233	89.94
1086.653	90.94
1087.073	98.94
1087.493	97.94
1087.913	86.94
1088.333	87.94
1088.753	89.94
1089.173	83.94
1089.593	97.94
1090.013	78.94
1090.433	95.94
1090.852	86.94
1091.272	79.94
1091.692	68.94
1092.112	78.94
1092.531	78.94
1092.951	86.94
1093.371	68.94
1093.79	71.94
1094.21	89.94
1094.63	83.94
1095.049	94.94
1095.469	82.94
1095.888	84.94
1096.308	89.94
1096.727	89.94
1097.146	77.94
1097.566	77.94
1097.985	90.94
1098.405	87.94
1098.824	77.94
1099.243	80.94
1099.662	82.94
1100.082	96.94
1100.501	87.94
1100.92	76.94
1101.339	83.94
1101.758	75.94
