Data from 20170802-ORNL-NYSim-Air_HRD10391_10-37-24-637.txt Node
Date: Wed Aug 02 10:37:24 EDT 2017
User: Ender
Spectrometer: HR+D1039
Trigger mode: 0
Integration Time (sec): 1.510000E-3
Scans to average: 1
Electric dark correction enabled: true
Nonlinearity correction enabled: false
Boxcar width: 0
XAxis mode: Wavelengths
Number of Pixels in Spectrum: 2048
>>>>>Begin Spectral Data<<<<<
187.836	-3.62
188.309	-3.62
188.782	-3.62
189.255	-8.62
189.728	3.38
190.201	-2.62
190.674	-10.62
191.147	3.38
191.619	-10.62
192.092	-18.62
192.565	-1.62
193.038	-0.62
193.511	3.38
193.984	19.38
194.456	6.38
194.929	4.38
195.402	15.38
195.874	1.38
196.347	22.38
196.82	29.38
197.292	31.38
197.765	37.38
198.237	37.38
198.71	44.38
199.182	36.38
199.655	51.38
200.127	48.38
200.6	48.38
201.072	52.38
201.544	55.38
202.017	67.38
202.489	73.38
202.961	75.38
203.433	66.38
203.906	61.38
204.378	64.38
204.85	79.38
205.322	81.38
205.794	101.38
206.266	73.38
206.739	74.38
207.211	75.38
207.683	69.38
208.155	76.38
208.627	91.38
209.099	83.38
209.57	90.38
210.042	89.38
210.514	79.38
210.986	73.38
211.458	86.38
211.93	81.38
212.402	71.38
212.873	85.38
213.345	79.38
213.817	69.38
214.288	67.38
214.76	86.38
215.232	87.38
215.703	88.38
216.175	73.38
216.646	79.38
217.118	84.38
217.589	76.38
218.061	74.38
218.532	91.38
219.004	82.38
219.475	73.38
219.946	89.38
220.418	98.38
220.889	85.38
221.36	80.38
221.832	63.38
222.303	76.38
222.774	63.38
223.245	68.38
223.717	65.38
224.188	71.38
224.659	75.38
225.13	70.38
225.601	75.38
226.072	66.38
226.543	86.38
227.014	89.38
227.485	66.38
227.956	97.38
228.427	68.38
228.898	84.38
229.369	72.38
229.839	97.38
230.31	95.38
230.781	84.38
231.252	85.38
231.722	91.38
232.193	89.38
232.664	73.38
233.135	64.38
233.605	88.38
234.076	79.38
234.546	78.38
235.017	80.38
235.487	76.38
235.958	79.38
236.428	96.38
236.899	70.38
237.369	87.38
237.84	83.38
238.31	71.38
238.78	105.38
239.251	69.38
239.721	90.38
240.191	87.38
240.662	74.38
241.132	90.38
241.602	95.38
242.072	92.38
242.542	85.38
243.013	81.38
243.483	85.38
243.953	83.38
244.423	75.38
244.893	78.38
245.363	79.38
245.833	96.38
246.303	93.38
246.773	89.38
247.243	72.38
247.712	89.38
248.182	93.38
248.652	79.38
249.122	87.38
249.592	88.38
250.061	95.38
250.531	94.38
251.001	80.38
251.471	95.38
251.94	101.38
252.41	93.38
252.879	73.38
253.349	96.38
253.818	95.38
254.288	90.38
254.757	110.38
255.227	89.38
255.696	98.38
256.166	100.38
256.635	101.38
257.105	106.38
257.574	85.38
258.043	100.38
258.513	100.38
258.982	100.38
259.451	90.38
259.92	89.38
260.389	89.38
260.859	93.38
261.328	90.38
261.797	98.38
262.266	87.38
262.735	97.38
263.204	93.38
263.673	99.38
264.142	104.38
264.611	89.38
265.08	86.38
265.549	99.38
266.018	117.38
266.487	96.38
266.955	108.38
267.424	96.38
267.893	103.38
268.362	73.38
268.83	99.38
269.299	88.38
269.768	92.38
270.236	102.38
270.705	99.38
271.174	88.38
271.642	83.38
272.111	93.38
272.579	99.38
273.048	118.38
273.516	115.38
273.985	112.38
274.453	100.38
274.922	103.38
275.39	105.38
275.858	116.38
276.327	103.38
276.795	94.38
277.263	106.38
277.731	109.38
278.2	117.38
278.668	121.38
279.136	115.38
279.604	106.38
280.072	99.38
280.54	110.38
281.008	105.38
281.477	109.38
281.945	103.38
282.413	129.38
282.881	121.38
283.348	102.38
283.816	113.38
284.284	121.38
284.752	116.38
285.22	108.38
285.688	102.38
286.156	97.38
286.623	119.38
287.091	135.38
287.559	93.38
288.026	102.38
288.494	115.38
288.962	122.38
289.429	119.38
289.897	123.38
290.364	116.38
290.832	116.38
291.3	122.38
291.767	114.38
292.234	136.38
292.702	116.38
293.169	119.38
293.637	131.38
294.104	123.38
294.571	133.38
295.039	124.38
295.506	109.38
295.973	117.38
296.44	111.38
296.908	112.38
297.375	118.38
297.842	128.38
298.309	119.38
298.776	120.38
299.243	125.38
299.71	122.38
300.177	115.38
300.644	107.38
301.111	107.38
301.578	129.38
302.045	125.38
302.512	129.38
302.979	132.38
303.446	129.38
303.913	141.38
304.379	137.38
304.846	130.38
305.313	118.38
305.78	115.38
306.246	134.38
306.713	128.38
307.18	139.38
307.646	147.38
308.113	133.38
308.579	131.38
309.046	159.38
309.512	167.38
309.979	154.38
310.445	147.38
310.912	123.38
311.378	146.38
311.845	150.38
312.311	143.38
312.777	125.38
313.244	149.38
313.71	142.38
314.176	141.38
314.642	172.38
315.109	147.38
315.575	156.38
316.041	144.38
316.507	134.38
316.973	130.38
317.439	155.38
317.905	163.38
318.371	150.38
318.837	151.38
319.303	163.38
319.769	144.38
320.235	150.38
320.701	144.38
321.167	157.38
321.633	167.38
322.099	145.38
322.564	146.38
323.03	169.38
323.496	169.38
323.962	164.38
324.427	176.38
324.893	178.38
325.359	167.38
325.824	151.38
326.29	170.38
326.755	165.38
327.221	144.38
327.686	168.38
328.152	171.38
328.617	169.38
329.083	166.38
329.548	174.38
330.014	176.38
330.479	165.38
330.944	181.38
331.41	183.38
331.875	192.38
332.34	185.38
332.805	156.38
333.271	182.38
333.736	171.38
334.201	161.38
334.666	167.38
335.131	177.38
335.596	176.38
336.061	179.38
336.526	163.38
336.991	185.38
337.456	186.38
337.921	176.38
338.386	171.38
338.851	171.38
339.316	166.38
339.781	179.38
340.246	176.38
340.711	177.38
341.175	184.38
341.64	178.38
342.105	174.38
342.569	202.38
343.034	185.38
343.499	189.38
343.963	185.38
344.428	193.38
344.893	202.38
345.357	220.38
345.822	209.38
346.286	199.38
346.751	224.38
347.215	201.38
347.679	205.38
348.144	196.38
348.608	204.38
349.073	199.38
349.537	211.38
350.001	240.38
350.465	206.38
350.93	238.38
351.394	232.38
351.858	218.38
352.322	233.38
352.786	223.38
353.25	234.38
353.715	215.38
354.179	227.38
354.643	249.38
355.107	239.38
355.571	235.38
356.035	256.38
356.498	221.38
356.962	250.38
357.426	253.38
357.89	252.38
358.354	222.38
358.818	228.38
359.281	229.38
359.745	233.38
360.209	241.38
360.673	230.38
361.136	229.38
361.6	250.38
362.064	259.38
362.527	228.38
362.991	256.38
363.454	258.38
363.918	241.38
364.381	244.38
364.845	265.38
365.308	231.38
365.772	262.38
366.235	237.38
366.698	255.38
367.162	244.38
367.625	252.38
368.088	253.38
368.552	275.38
369.015	278.38
369.478	237.38
369.941	261.38
370.404	242.38
370.867	271.38
371.331	268.38
371.794	252.38
372.257	271.38
372.72	264.38
373.183	279.38
373.646	281.38
374.109	275.38
374.572	248.38
375.035	253.38
375.497	273.38
375.96	286.38
376.423	291.38
376.886	301.38
377.349	275.38
377.811	289.38
378.274	300.38
378.737	283.38
379.199	298.38
379.662	287.38
380.125	312.38
380.587	288.38
381.05	315.38
381.512	305.38
381.975	344.38
382.437	288.38
382.9	325.38
383.362	295.38
383.825	307.38
384.287	323.38
384.75	324.38
385.212	334.38
385.674	313.38
386.136	337.38
386.599	321.38
387.061	317.38
387.523	318.38
387.985	316.38
388.447	355.38
388.91	338.38
389.372	332.38
389.834	341.38
390.296	344.38
390.758	325.38
391.22	335.38
391.682	324.38
392.144	322.38
392.606	354.38
393.068	337.38
393.529	336.38
393.991	351.38
394.453	342.38
394.915	362.38
395.377	356.38
395.838	338.38
396.3	343.38
396.762	325.38
397.224	343.38
397.685	353.38
398.147	353.38
398.608	346.38
399.07	344.38
399.531	345.38
399.993	374.38
400.454	356.38
400.916	386.38
401.377	394.38
401.839	387.38
402.3	375.38
402.762	385.38
403.223	418.38
403.684	395.38
404.145	377.38
404.607	383.38
405.068	386.38
405.529	395.38
405.99	430.38
406.451	413.38
406.913	388.38
407.374	404.38
407.835	385.38
408.296	401.38
408.757	395.38
409.218	428.38
409.679	410.38
410.14	423.38
410.601	429.38
411.062	405.38
411.522	439.38
411.983	433.38
412.444	437.38
412.905	449.38
413.366	449.38
413.826	469.38
414.287	504.38
414.748	601.38
415.208	603.38
415.669	544.38
416.13	491.38
416.59	480.38
417.051	487.38
417.511	515.38
417.972	565.38
418.432	525.38
418.893	635.38
419.353	619.38
419.814	489.38
420.274	425.38
420.734	438.38
421.195	423.38
421.655	416.38
422.115	455.38
422.576	455.38
423.036	489.38
423.496	493.38
423.956	492.38
424.416	499.38
424.876	587.38
425.336	579.38
425.797	563.38
426.257	572.38
426.717	523.38
427.177	485.38
427.637	468.38
428.097	509.38
428.556	543.38
429.016	569.38
429.476	565.38
429.936	559.38
430.396	586.38
430.856	577.38
431.315	580.38
431.775	626.38
432.235	665.38
432.694	691.38
433.154	650.38
433.614	649.38
434.073	603.38
434.533	579.38
434.993	531.38
435.452	550.38
435.912	545.38
436.371	537.38
436.83	526.38
437.29	515.38
437.749	535.38
438.209	514.38
438.668	519.38
439.127	519.38
439.587	502.38
440.046	484.38
440.505	514.38
440.964	509.38
441.424	549.38
441.883	546.38
442.342	514.38
442.801	478.38
443.26	479.38
443.719	465.38
444.178	493.38
444.637	485.38
445.096	526.38
445.555	479.38
446.014	491.38
446.473	496.38
446.932	496.38
447.391	503.38
447.849	521.38
448.308	481.38
448.767	520.38
449.226	561.38
449.685	539.38
450.143	548.38
450.602	525.38
451.061	514.38
451.519	511.38
451.978	500.38
452.436	491.38
452.895	514.38
453.353	505.38
453.812	495.38
454.27	488.38
454.729	505.38
455.187	525.38
455.646	512.38
456.104	518.38
456.562	533.38
457.021	514.38
457.479	515.38
457.937	529.38
458.395	555.38
458.854	538.38
459.312	531.38
459.77	545.38
460.228	539.38
460.686	528.38
461.144	563.38
461.602	539.38
462.06	547.38
462.518	551.38
462.976	562.38
463.434	553.38
463.892	559.38
464.35	562.38
464.808	587.38
465.266	568.38
465.724	568.38
466.181	605.38
466.639	587.38
467.097	619.38
467.555	622.38
468.012	650.38
468.47	643.38
468.928	635.38
469.385	676.38
469.843	661.38
470.3	647.38
470.758	683.38
471.215	697.38
471.673	696.38
472.13	723.38
472.588	757.38
473.045	773.38
473.503	763.38
473.96	760.38
474.417	776.38
474.875	802.38
475.332	843.38
475.789	850.38
476.246	847.38
476.704	901.38
477.161	951.38
477.618	956.38
478.075	990.38
478.532	1065.38
478.989	1130.38
479.446	1230.38
479.903	1291.38
480.36	1420.38
480.817	1451.38
481.274	1613.38
481.731	1707.38
482.188	1854.38
482.645	1969.38
483.102	2092.38
483.558	2171.38
484.015	2253.38
484.472	2313.38
484.929	2240.38
485.385	2159.38
485.842	2093.38
486.299	2016.38
486.755	1876.38
487.212	1693.38
487.668	1544.38
488.125	1447.38
488.582	1360.38
489.038	1317.38
489.494	1259.38
489.951	1242.38
490.407	1199.38
490.864	1149.38
491.32	1179.38
491.776	1156.38
492.233	1116.38
492.689	1125.38
493.145	1104.38
493.602	1091.38
494.058	1111.38
494.514	1127.38
494.97	1086.38
495.426	1105.38
495.882	1131.38
496.338	1092.38
496.794	1105.38
497.251	1103.38
497.707	1134.38
498.163	1160.38
498.618	1137.38
499.074	1097.38
499.53	1176.38
499.986	1173.38
500.442	1178.38
500.898	1122.38
501.354	1127.38
501.809	1152.38
502.265	1148.38
502.721	1133.38
503.177	1156.38
503.632	1169.38
504.088	1174.38
504.543	1160.38
504.999	1197.38
505.455	1180.38
505.91	1174.38
506.366	1194.38
506.821	1208.38
507.277	1153.38
507.732	1187.38
508.187	1179.38
508.643	1173.38
509.098	1180.38
509.553	1200.38
510.009	1243.38
510.464	1230.38
510.919	1247.38
511.375	1228.38
511.83	1258.38
512.285	1301.38
512.74	1293.38
513.195	1318.38
513.65	1335.38
514.105	1359.38
514.56	1364.38
515.015	1387.38
515.47	1406.38
515.925	1390.38
516.38	1379.38
516.835	1361.38
517.29	1387.38
517.745	1431.38
518.2	1383.38
518.655	1338.38
519.109	1340.38
519.564	1358.38
520.019	1320.38
520.474	1307.38
520.928	1327.38
521.383	1252.38
521.838	1263.38
522.292	1297.38
522.747	1264.38
523.201	1241.38
523.656	1242.38
524.11	1219.38
524.565	1231.38
525.019	1253.38
525.474	1215.38
525.928	1211.38
526.382	1265.38
526.837	1232.38
527.291	1258.38
527.745	1241.38
528.2	1254.38
528.654	1237.38
529.108	1223.38
529.562	1235.38
530.016	1239.38
530.47	1245.38
530.925	1231.38
531.379	1242.38
531.833	1235.38
532.287	1225.38
532.741	1231.38
533.195	1220.38
533.649	1189.38
534.103	1223.38
534.556	1231.38
535.01	1266.38
535.464	1197.38
535.918	1201.38
536.372	1234.38
536.826	1246.38
537.279	1216.38
537.733	1227.38
538.187	1208.38
538.64	1229.38
539.094	1251.38
539.548	1286.38
540.001	1237.38
540.455	1241.38
540.908	1251.38
541.362	1316.38
541.815	1275.38
542.269	1316.38
542.722	1300.38
543.175	1370.38
543.629	1341.38
544.082	1321.38
544.536	1359.38
544.989	1377.38
545.442	1367.38
545.895	1381.38
546.349	1379.38
546.802	1397.38
547.255	1389.38
547.708	1378.38
548.161	1384.38
548.614	1375.38
549.067	1409.38
549.52	1378.38
549.973	1383.38
550.426	1383.38
550.879	1331.38
551.332	1367.38
551.785	1372.38
552.238	1366.38
552.691	1392.38
553.144	1411.38
553.596	1421.38
554.049	1464.38
554.502	1479.38
554.955	1478.38
555.407	1514.38
555.86	1500.38
556.313	1464.38
556.765	1482.38
557.218	1472.38
557.67	1450.38
558.123	1404.38
558.576	1439.38
559.028	1443.38
559.48	1432.38
559.933	1438.38
560.385	1411.38
560.838	1345.38
561.29	1300.38
561.742	1337.38
562.195	1305.38
562.647	1333.38
563.099	1279.38
563.551	1278.38
564.004	1271.38
564.456	1277.38
564.908	1232.38
565.36	1227.38
565.812	1209.38
566.264	1186.38
566.716	1197.38
567.168	1148.38
567.62	1173.38
568.072	1130.38
568.524	1153.38
568.976	1141.38
569.428	1127.38
569.88	1127.38
570.332	1132.38
570.784	1131.38
571.235	1153.38
571.687	1156.38
572.139	1133.38
572.59	1166.38
573.042	1188.38
573.494	1184.38
573.945	1150.38
574.397	1108.38
574.849	1129.38
575.3	1137.38
575.752	1115.38
576.203	1087.38
576.655	1115.38
577.106	1107.38
577.557	1092.38
578.009	1084.38
578.46	1099.38
578.912	1069.38
579.363	1088.38
579.814	1081.38
580.265	1104.38
580.717	1091.38
581.168	1095.38
581.619	1061.38
582.07	1093.38
582.521	1041.38
582.972	1066.38
583.423	1078.38
583.875	1071.38
584.326	1089.38
584.777	1117.38
585.227	1134.38
585.678	1139.38
586.129	1157.38
586.58	1156.38
587.031	1209.38
587.482	1205.38
587.933	1235.38
588.384	1222.38
588.834	1212.38
589.285	1202.38
589.736	1206.38
590.186	1196.38
590.637	1188.38
591.088	1187.38
591.538	1150.38
591.989	1151.38
592.439	1126.38
592.89	1125.38
593.34	1103.38
593.791	1092.38
594.241	1090.38
594.692	1087.38
595.142	1073.38
595.593	1098.38
596.043	1079.38
596.493	1105.38
596.943	1091.38
597.394	1117.38
597.844	1113.38
598.294	1151.38
598.744	1174.38
599.195	1255.38
599.645	1285.38
600.095	1375.38
600.545	1423.38
600.995	1467.38
601.445	1547.38
601.895	1597.38
602.345	1648.38
602.795	1667.38
603.245	1587.38
603.695	1556.38
604.145	1448.38
604.594	1399.38
605.044	1319.38
605.494	1277.38
605.944	1180.38
606.393	1147.38
606.843	1126.38
607.293	1109.38
607.743	1138.38
608.192	1140.38
608.642	1110.38
609.091	1118.38
609.541	1128.38
609.99	1121.38
610.44	1109.38
610.889	1059.38
611.339	1072.38
611.788	1086.38
612.238	1090.38
612.687	1062.38
613.136	1074.38
613.586	1108.38
614.035	1082.38
614.484	1121.38
614.933	1097.38
615.383	1099.38
615.832	1054.38
616.281	1049.38
616.73	1033.38
617.179	1020.38
617.628	971.38
618.077	967.38
618.526	954.38
618.975	951.38
619.424	943.38
619.873	915.38
620.322	944.38
620.771	897.38
621.22	913.38
621.669	863.38
622.118	889.38
622.567	883.38
623.015	868.38
623.464	868.38
623.913	858.38
624.361	863.38
624.81	838.38
625.259	873.38
625.707	873.38
626.156	880.38
626.604	868.38
627.053	858.38
627.501	842.38
627.95	846.38
628.398	869.38
628.847	894.38
629.295	858.38
629.744	865.38
630.192	867.38
630.64	849.38
631.089	828.38
631.537	835.38
631.985	799.38
632.433	825.38
632.881	805.38
633.33	814.38
633.778	801.38
634.226	818.38
634.674	830.38
635.122	791.38
635.57	828.38
636.018	835.38
636.466	860.38
636.914	861.38
637.362	857.38
637.81	912.38
638.258	891.38
638.705	924.38
639.153	938.38
639.601	947.38
640.049	944.38
640.497	959.38
640.944	952.38
641.392	969.38
641.84	938.38
642.287	859.38
642.735	833.38
643.182	825.38
643.63	859.38
644.078	833.38
644.525	891.38
644.973	904.38
645.42	885.38
645.867	904.38
646.315	940.38
646.762	985.38
647.21	1017.38
647.657	1057.38
648.104	1084.38
648.551	1103.38
648.999	1175.38
649.446	1219.38
649.893	1409.38
650.34	1598.38
650.787	1847.38
651.234	2302.38
651.682	3067.38
652.129	4256.38
652.576	6047.38
653.023	8311.38
653.47	10114.38
653.917	11287.38
654.363	12023.38
654.81	12737.38
655.257	13193.38
655.704	10157.38
656.151	6128.38
656.598	3979.38
657.044	2848.38
657.491	2199.38
657.938	1829.38
658.385	1528.38
658.831	1335.38
659.278	1247.38
659.724	1111.38
660.171	1059.38
660.618	914.38
661.064	929.38
661.511	916.38
661.957	864.38
662.404	857.38
662.85	844.38
663.296	816.38
663.743	787.38
664.189	790.38
664.635	805.38
665.082	783.38
665.528	767.38
665.974	756.38
666.42	711.38
666.867	721.38
667.313	688.38
667.759	701.38
668.205	676.38
668.651	677.38
669.097	676.38
669.543	681.38
669.989	737.38
670.435	696.38
670.881	723.38
671.327	721.38
671.773	744.38
672.219	812.38
672.665	850.38
673.11	879.38
673.556	900.38
674.002	911.38
674.448	932.38
674.893	844.38
675.339	715.38
675.785	690.38
676.23	623.38
676.676	617.38
677.122	590.38
677.567	584.38
678.013	561.38
678.458	536.38
678.904	591.38
679.349	565.38
679.794	583.38
680.24	550.38
680.685	560.38
681.131	538.38
681.576	519.38
682.021	553.38
682.466	529.38
682.912	596.38
683.357	574.38
683.802	626.38
684.247	672.38
684.692	672.38
685.137	739.38
685.583	742.38
686.028	800.38
686.473	766.38
686.918	683.38
687.363	611.38
687.807	608.38
688.252	558.38
688.697	547.38
689.142	551.38
689.587	507.38
690.032	551.38
690.477	562.38
690.921	587.38
691.366	609.38
691.811	657.38
692.255	659.38
692.7	773.38
693.145	919.38
693.589	1381.38
694.034	1898.38
694.478	2068.38
694.923	1919.38
695.367	2335.38
695.812	2187.38
696.256	917.38
696.701	634.38
697.145	578.38
697.59	551.38
698.034	531.38
698.478	514.38
698.922	524.38
699.367	497.38
699.811	563.38
700.255	572.38
700.699	631.38
701.143	673.38
701.588	693.38
702.032	748.38
702.476	741.38
702.92	785.38
703.364	879.38
703.808	1273.38
704.252	1731.38
704.696	1987.38
705.14	1795.38
705.584	2229.38
706.027	1872.38
706.471	913.38
706.915	643.38
707.359	577.38
707.803	523.38
708.246	498.38
708.69	509.38
709.134	502.38
709.577	494.38
710.021	498.38
710.465	510.38
710.908	473.38
711.352	495.38
711.795	513.38
712.239	588.38
712.682	594.38
713.126	605.38
713.569	618.38
714.012	600.38
714.456	518.38
714.899	475.38
715.342	447.38
715.786	425.38
716.229	430.38
716.672	395.38
717.115	414.38
717.558	408.38
718.002	411.38
718.445	437.38
718.888	461.38
719.331	467.38
719.774	479.38
720.217	460.38
720.66	477.38
721.103	433.38
721.546	419.38
721.989	433.38
722.432	416.38
722.874	377.38
723.317	398.38
723.76	421.38
724.203	439.38
724.645	592.38
725.088	688.38
725.531	768.38
725.974	746.38
726.416	814.38
726.859	554.38
727.301	431.38
727.744	386.38
728.187	407.38
728.629	411.38
729.071	399.38
729.514	447.38
729.956	445.38
730.399	444.38
730.841	450.38
731.283	473.38
731.726	447.38
732.168	438.38
732.61	457.38
733.053	457.38
733.495	519.38
733.937	567.38
734.379	629.38
734.821	791.38
735.263	1046.38
735.705	1653.38
736.148	2754.38
736.59	3194.38
737.032	2983.38
737.474	3244.38
737.916	1614.38
738.357	811.38
738.799	559.38
739.241	485.38
739.683	500.38
740.125	501.38
740.567	535.38
741.008	525.38
741.45	567.38
741.892	574.38
742.334	581.38
742.775	611.38
743.217	601.38
743.658	526.38
744.1	489.38
744.542	529.38
744.983	573.38
745.425	565.38
745.866	622.38
746.307	523.38
746.749	520.38
747.19	585.38
747.632	1001.38
748.073	1884.38
748.514	2911.38
748.956	3571.38
749.397	4880.38
749.838	3907.38
750.279	3180.38
750.72	2400.38
751.162	1119.38
751.603	621.38
752.044	454.38
752.485	379.38
752.926	363.38
753.367	354.38
753.808	364.38
754.249	323.38
754.69	332.38
755.131	319.38
755.572	348.38
756.013	331.38
756.453	355.38
756.894	347.38
757.335	355.38
757.776	324.38
758.216	347.38
758.657	354.38
759.098	381.38
759.538	407.38
759.979	544.38
760.42	849.38
760.86	1851.38
761.301	4269.38
761.741	6285.38
762.182	6502.38
762.622	6180.38
763.063	2879.38
763.503	1158.38
763.943	619.38
764.384	468.38
764.824	393.38
765.264	387.38
765.705	358.38
766.145	364.38
766.585	310.38
767.025	340.38
767.465	332.38
767.906	312.38
768.346	354.38
768.786	353.38
769.226	405.38
769.666	689.38
770.106	1472.38
770.546	2526.38
770.986	2738.38
771.426	2679.38
771.866	1541.38
772.306	719.38
772.745	407.38
773.185	349.38
773.625	303.38
774.065	293.38
774.505	357.38
774.944	569.38
775.384	879.38
775.824	1043.38
776.263	991.38
776.703	701.38
777.142	438.38
777.582	317.38
778.021	261.38
778.461	248.38
778.9	239.38
779.34	256.38
779.779	258.38
780.219	247.38
780.658	263.38
781.097	247.38
781.537	236.38
781.976	232.38
782.415	244.38
782.855	231.38
783.294	221.38
783.733	240.38
784.172	234.38
784.611	223.38
785.05	232.38
785.489	251.38
785.928	267.38
786.367	246.38
786.806	233.38
787.245	252.38
787.684	271.38
788.123	266.38
788.562	268.38
789.001	259.38
789.44	247.38
789.879	251.38
790.317	267.38
790.756	253.38
791.195	299.38
791.634	312.38
792.072	434.38
792.511	911.38
792.95	1899.38
793.388	2413.38
793.827	2148.38
794.265	1269.38
794.704	626.38
795.142	390.38
795.581	294.38
796.019	251.38
796.458	259.38
796.896	282.38
797.334	288.38
797.773	337.38
798.211	487.38
798.649	910.38
799.087	1555.38
799.526	2399.38
799.964	2613.38
800.402	2260.38
800.84	1347.38
801.278	713.38
801.716	399.38
802.154	319.38
802.592	287.38
803.03	301.38
803.468	277.38
803.906	275.38
804.344	304.38
804.782	267.38
805.22	289.38
805.658	288.38
806.096	299.38
806.533	337.38
806.971	352.38
807.409	460.38
807.847	731.38
808.284	1551.38
808.722	3144.38
809.16	4316.38
809.597	6051.38
810.035	7687.38
810.472	6547.38
810.91	3703.38
811.347	1787.38
811.785	843.38
812.222	493.38
812.66	383.38
813.097	330.38
813.535	285.38
813.972	271.38
814.409	265.38
814.846	230.38
815.284	245.38
815.721	219.38
816.158	243.38
816.595	289.38
817.032	354.38
817.47	359.38
817.907	303.38
818.344	271.38
818.781	248.38
819.218	261.38
819.655	342.38
820.092	435.38
820.529	446.38
820.966	411.38
821.403	285.38
821.839	246.38
822.276	281.38
822.713	266.38
823.15	335.38
823.587	281.38
824.023	388.38
824.46	764.38
824.897	1383.38
825.333	1462.38
825.77	904.38
826.206	545.38
826.643	320.38
827.08	249.38
827.516	201.38
827.953	215.38
828.389	205.38
828.825	191.38
829.262	179.38
829.698	161.38
830.135	168.38
830.571	188.38
831.007	181.38
831.443	162.38
831.88	170.38
832.316	181.38
832.752	177.38
833.188	170.38
833.624	167.38
834.06	189.38
834.497	176.38
834.933	177.38
835.369	176.38
835.805	179.38
836.241	186.38
836.677	215.38
837.112	237.38
837.548	239.38
837.984	321.38
838.42	498.38
838.856	1159.38
839.292	2407.38
839.727	2649.38
840.163	1798.38
840.599	2054.38
841.034	3027.38
841.47	2371.38
841.906	1359.38
842.341	785.38
842.777	463.38
843.212	455.38
843.648	372.38
844.083	293.38
844.519	205.38
844.954	210.38
845.39	181.38
845.825	163.38
846.261	175.38
846.696	156.38
847.131	167.38
847.566	169.38
848.002	169.38
848.437	171.38
848.872	168.38
849.307	178.38
849.742	220.38
850.177	446.38
850.613	919.38
851.048	1007.38
851.483	598.38
851.918	369.38
852.353	248.38
852.788	183.38
853.223	163.38
853.657	142.38
854.092	131.38
854.527	154.38
854.962	155.38
855.397	152.38
855.832	163.38
856.266	149.38
856.701	150.38
857.136	137.38
857.57	149.38
858.005	175.38
858.44	153.38
858.874	157.38
859.309	170.38
859.743	139.38
860.178	171.38
860.612	157.38
861.047	171.38
861.481	203.38
861.915	217.38
862.35	169.38
862.784	146.38
863.218	143.38
863.653	144.38
864.087	141.38
864.521	164.38
864.955	213.38
865.39	296.38
865.824	301.38
866.258	321.38
866.692	434.38
867.126	425.38
867.56	312.38
867.994	232.38
868.428	178.38
868.862	166.38
869.296	175.38
869.73	192.38
870.164	193.38
870.598	189.38
871.031	168.38
871.465	134.38
871.899	125.38
872.333	131.38
872.766	114.38
873.2	125.38
873.634	115.38
874.067	125.38
874.501	124.38
874.935	125.38
875.368	133.38
875.802	120.38
876.235	127.38
876.669	106.38
877.102	120.38
877.535	100.38
877.969	113.38
878.402	121.38
878.836	113.38
879.269	119.38
879.702	107.38
880.135	128.38
880.569	119.38
881.002	108.38
881.435	107.38
881.868	107.38
882.301	106.38
882.734	108.38
883.167	120.38
883.601	112.38
884.034	109.38
884.467	111.38
884.899	135.38
885.332	115.38
885.765	110.38
886.198	102.38
886.631	95.38
887.064	92.38
887.497	106.38
887.929	112.38
888.362	98.38
888.795	110.38
889.228	110.38
889.66	103.38
890.093	94.38
890.526	103.38
890.958	113.38
891.391	104.38
891.823	104.38
892.256	117.38
892.688	129.38
893.121	114.38
893.553	94.38
893.985	111.38
894.418	123.38
894.85	100.38
895.282	113.38
895.715	93.38
896.147	119.38
896.579	130.38
897.011	111.38
897.444	110.38
897.876	123.38
898.308	101.38
898.74	106.38
899.172	113.38
899.604	109.38
900.036	103.38
900.468	102.38
900.9	123.38
901.332	107.38
901.764	135.38
902.196	98.38
902.628	112.38
903.06	102.38
903.491	123.38
903.923	114.38
904.355	126.38
904.787	136.38
905.218	124.38
905.65	131.38
906.082	116.38
906.513	119.38
906.945	122.38
907.376	122.38
907.808	106.38
908.239	112.38
908.671	119.38
909.102	106.38
909.534	111.38
909.965	144.38
910.397	255.38
910.828	600.38
911.259	626.38
911.691	438.38
912.122	309.38
912.553	191.38
912.984	136.38
913.415	114.38
913.847	99.38
914.278	127.38
914.709	106.38
915.14	110.38
915.571	103.38
916.002	93.38
916.433	108.38
916.864	112.38
917.295	121.38
917.726	116.38
918.157	119.38
918.587	129.38
919.018	118.38
919.449	103.38
919.88	106.38
920.311	126.38
920.741	183.38
921.172	309.38
921.603	253.38
922.033	221.38
922.464	167.38
922.895	138.38
923.325	92.38
923.756	108.38
924.186	121.38
924.617	125.38
925.047	141.38
925.478	129.38
925.908	117.38
926.338	134.38
926.769	128.38
927.199	95.38
927.629	126.38
928.06	91.38
928.49	99.38
928.92	112.38
929.35	113.38
929.78	106.38
930.21	87.38
930.641	97.38
931.071	96.38
931.501	93.38
931.931	83.38
932.361	94.38
932.791	91.38
933.221	93.38
933.651	100.38
934.08	112.38
934.51	125.38
934.94	113.38
935.37	107.38
935.8	94.38
936.229	105.38
936.659	95.38
937.089	106.38
937.519	112.38
937.948	120.38
938.378	122.38
938.807	105.38
939.237	105.38
939.666	79.38
940.096	85.38
940.525	90.38
940.955	76.38
941.384	82.38
941.814	78.38
942.243	100.38
942.672	88.38
943.102	93.38
943.531	81.38
943.96	76.38
944.39	99.38
944.819	83.38
945.248	83.38
945.677	97.38
946.106	91.38
946.535	103.38
946.964	105.38
947.393	86.38
947.822	98.38
948.251	103.38
948.68	96.38
949.109	101.38
949.538	82.38
949.967	98.38
950.396	86.38
950.825	105.38
951.254	95.38
951.682	75.38
952.111	93.38
952.54	93.38
952.969	93.38
953.397	65.38
953.826	103.38
954.254	91.38
954.683	92.38
955.112	92.38
955.54	80.38
955.969	79.38
956.397	93.38
956.826	90.38
957.254	96.38
957.682	92.38
958.111	85.38
958.539	90.38
958.967	93.38
959.396	95.38
959.824	89.38
960.252	79.38
960.68	98.38
961.109	94.38
961.537	80.38
961.965	81.38
962.393	98.38
962.821	101.38
963.249	93.38
963.677	92.38
964.105	121.38
964.533	149.38
964.961	141.38
965.389	125.38
965.817	94.38
966.245	96.38
966.672	94.38
967.1	92.38
967.528	82.38
967.956	78.38
968.383	81.38
968.811	86.38
969.239	69.38
969.666	101.38
970.094	89.38
970.522	74.38
970.949	89.38
971.377	78.38
971.804	83.38
972.232	77.38
972.659	104.38
973.087	104.38
973.514	95.38
973.941	85.38
974.369	74.38
974.796	68.38
975.223	91.38
975.651	83.38
976.078	76.38
976.505	104.38
976.932	95.38
977.359	100.38
977.786	107.38
978.214	99.38
978.641	99.38
979.068	85.38
979.495	86.38
979.922	84.38
980.349	83.38
980.776	82.38
981.202	75.38
981.629	74.38
982.056	85.38
982.483	93.38
982.91	65.38
983.337	80.38
983.763	83.38
984.19	65.38
984.617	80.38
985.043	69.38
985.47	83.38
985.897	89.38
986.323	83.38
986.75	93.38
987.176	96.38
987.603	91.38
988.029	89.38
988.456	91.38
988.882	70.38
989.308	84.38
989.735	81.38
990.161	83.38
990.587	97.38
991.014	87.38
991.44	81.38
991.866	95.38
992.292	91.38
992.719	66.38
993.145	91.38
993.571	81.38
993.997	79.38
994.423	81.38
994.849	92.38
995.275	92.38
995.701	91.38
996.127	107.38
996.553	97.38
996.979	78.38
997.405	80.38
997.83	85.38
998.256	85.38
998.682	96.38
999.108	84.38
999.534	88.38
999.959	85.38
1000.385	99.38
1000.811	78.38
1001.236	91.38
1001.662	75.38
1002.087	93.38
1002.513	73.38
1002.938	91.38
1003.364	86.38
1003.789	76.38
1004.215	94.38
1004.64	79.38
1005.066	94.38
1005.491	71.38
1005.916	81.38
1006.342	78.38
1006.767	86.38
1007.192	110.38
1007.617	100.38
1008.042	93.38
1008.468	100.38
1008.893	72.38
1009.318	91.38
1009.743	96.38
1010.168	96.38
1010.593	87.38
1011.018	117.38
1011.443	87.38
1011.868	77.38
1012.293	74.38
1012.718	71.38
1013.143	60.38
1013.567	78.38
1013.992	98.38
1014.417	91.38
1014.842	92.38
1015.267	86.38
1015.691	91.38
1016.116	91.38
1016.541	82.38
1016.965	96.38
1017.39	73.38
1017.814	87.38
1018.239	89.38
1018.663	100.38
1019.088	91.38
1019.512	82.38
1019.937	89.38
1020.361	89.38
1020.785	97.38
1021.21	76.38
1021.634	79.38
1022.058	65.38
1022.483	85.38
1022.907	96.38
1023.331	87.38
1023.755	86.38
1024.179	81.38
1024.604	95.38
1025.028	74.38
1025.452	87.38
1025.876	88.38
1026.3	78.38
1026.724	81.38
1027.148	77.38
1027.572	84.38
1027.996	73.38
1028.42	87.38
1028.843	76.38
1029.267	90.38
1029.691	75.38
1030.115	77.38
1030.539	96.38
1030.962	91.38
1031.386	79.38
1031.81	82.38
1032.233	71.38
1032.657	80.38
1033.08	77.38
1033.504	78.38
1033.927	74.38
1034.351	72.38
1034.774	71.38
1035.198	83.38
1035.621	81.38
1036.045	93.38
1036.468	81.38
1036.891	92.38
1037.315	79.38
1037.738	87.38
1038.161	67.38
1038.584	90.38
1039.008	74.38
1039.431	66.38
1039.854	83.38
1040.277	69.38
1040.7	92.38
1041.123	76.38
1041.546	73.38
1041.969	75.38
1042.392	81.38
1042.815	83.38
1043.238	71.38
1043.661	60.38
1044.084	91.38
1044.507	89.38
1044.93	87.38
1045.352	84.38
1045.775	91.38
1046.198	72.38
1046.621	88.38
1047.043	82.38
1047.466	80.38
1047.889	77.38
1048.311	90.38
1048.734	85.38
1049.156	69.38
1049.579	76.38
1050.001	96.38
1050.424	67.38
1050.846	73.38
1051.269	89.38
1051.691	85.38
1052.113	67.38
1052.536	79.38
1052.958	75.38
1053.38	91.38
1053.802	69.38
1054.225	77.38
1054.647	75.38
1055.069	70.38
1055.491	66.38
1055.913	88.38
1056.335	78.38
1056.757	65.38
1057.179	82.38
1057.601	70.38
1058.023	87.38
1058.445	97.38
1058.867	64.38
1059.289	63.38
1059.711	75.38
1060.133	80.38
1060.555	89.38
1060.976	77.38
1061.398	76.38
1061.82	87.38
1062.241	89.38
1062.663	74.38
1063.085	88.38
1063.506	97.38
1063.928	75.38
1064.35	85.38
1064.771	92.38
1065.193	96.38
1065.614	72.38
1066.035	81.38
1066.457	98.38
1066.878	99.38
1067.3	94.38
1067.721	81.38
1068.142	79.38
1068.564	68.38
1068.985	72.38
1069.406	78.38
1069.827	83.38
1070.248	79.38
1070.67	85.38
1071.091	81.38
1071.512	85.38
1071.933	90.38
1072.354	83.38
1072.775	73.38
1073.196	80.38
1073.617	72.38
1074.038	69.38
1074.459	88.38
1074.88	87.38
1075.3	90.38
1075.721	88.38
1076.142	81.38
1076.563	85.38
1076.983	86.38
1077.404	68.38
1077.825	77.38
1078.246	87.38
1078.666	91.38
1079.087	88.38
1079.507	88.38
1079.928	87.38
1080.348	75.38
1080.769	92.38
1081.189	79.38
1081.61	89.38
1082.03	73.38
1082.451	89.38
1082.871	91.38
1083.291	86.38
1083.711	93.38
1084.132	71.38
1084.552	68.38
1084.972	88.38
1085.392	86.38
1085.813	82.38
1086.233	73.38
1086.653	75.38
1087.073	86.38
1087.493	87.38
1087.913	87.38
1088.333	75.38
1088.753	90.38
1089.173	82.38
1089.593	99.38
1090.013	58.38
1090.433	99.38
1090.852	79.38
1091.272	72.38
1091.692	83.38
1092.112	85.38
1092.531	78.38
1092.951	89.38
1093.371	97.38
1093.79	82.38
1094.21	78.38
1094.63	88.38
1095.049	90.38
1095.469	90.38
1095.888	93.38
1096.308	86.38
1096.727	76.38
1097.146	89.38
1097.566	88.38
1097.985	91.38
1098.405	74.38
1098.824	95.38
1099.243	86.38
1099.662	61.38
1100.082	88.38
1100.501	77.38
1100.92	83.38
1101.339	65.38
1101.758	74.38
