Data from 20170802-ORNL-NYSim-Air_HRD10391_10-36-43-619.txt Node
Date: Wed Aug 02 10:36:43 EDT 2017
User: Ender
Spectrometer: HR+D1039
Trigger mode: 0
Integration Time (sec): 1.510000E-3
Scans to average: 1
Electric dark correction enabled: true
Nonlinearity correction enabled: false
Boxcar width: 0
XAxis mode: Wavelengths
Number of Pixels in Spectrum: 2048
>>>>>Begin Spectral Data<<<<<
187.836	12.12
188.309	12.12
188.782	12.12
189.255	-5.88
189.728	-13.88
190.201	-3.88
190.674	8.12
191.147	-2.88
191.619	-19.88
192.092	-5.88
192.565	0.12
193.038	-8.88
193.511	-3.88
193.984	15.12
194.456	-2.88
194.929	11.12
195.402	9.12
195.874	12.12
196.347	21.12
196.82	12.12
197.292	16.12
197.765	18.12
198.237	45.12
198.71	38.12
199.182	35.12
199.655	45.12
200.127	48.12
200.6	36.12
201.072	58.12
201.544	67.12
202.017	55.12
202.489	62.12
202.961	68.12
203.433	62.12
203.906	76.12
204.378	63.12
204.85	87.12
205.322	82.12
205.794	93.12
206.266	78.12
206.739	78.12
207.211	79.12
207.683	88.12
208.155	100.12
208.627	74.12
209.099	80.12
209.57	87.12
210.042	76.12
210.514	76.12
210.986	93.12
211.458	89.12
211.93	86.12
212.402	70.12
212.873	100.12
213.345	96.12
213.817	86.12
214.288	87.12
214.76	81.12
215.232	69.12
215.703	71.12
216.175	73.12
216.646	91.12
217.118	86.12
217.589	85.12
218.061	91.12
218.532	77.12
219.004	72.12
219.475	76.12
219.946	67.12
220.418	70.12
220.889	93.12
221.36	73.12
221.832	82.12
222.303	78.12
222.774	65.12
223.245	83.12
223.717	73.12
224.188	69.12
224.659	90.12
225.13	77.12
225.601	91.12
226.072	66.12
226.543	73.12
227.014	70.12
227.485	86.12
227.956	61.12
228.427	68.12
228.898	75.12
229.369	75.12
229.839	66.12
230.31	77.12
230.781	75.12
231.252	62.12
231.722	86.12
232.193	68.12
232.664	75.12
233.135	73.12
233.605	63.12
234.076	77.12
234.546	70.12
235.017	75.12
235.487	81.12
235.958	80.12
236.428	69.12
236.899	85.12
237.369	86.12
237.84	70.12
238.31	94.12
238.78	75.12
239.251	86.12
239.721	83.12
240.191	82.12
240.662	93.12
241.132	90.12
241.602	84.12
242.072	102.12
242.542	94.12
243.013	65.12
243.483	85.12
243.953	89.12
244.423	84.12
244.893	84.12
245.363	81.12
245.833	84.12
246.303	83.12
246.773	102.12
247.243	86.12
247.712	94.12
248.182	88.12
248.652	98.12
249.122	91.12
249.592	82.12
250.061	84.12
250.531	96.12
251.001	87.12
251.471	74.12
251.94	78.12
252.41	92.12
252.879	79.12
253.349	92.12
253.818	85.12
254.288	93.12
254.757	103.12
255.227	98.12
255.696	75.12
256.166	98.12
256.635	87.12
257.105	102.12
257.574	85.12
258.043	84.12
258.513	102.12
258.982	98.12
259.451	86.12
259.92	87.12
260.389	84.12
260.859	91.12
261.328	76.12
261.797	88.12
262.266	85.12
262.735	107.12
263.204	74.12
263.673	96.12
264.142	87.12
264.611	94.12
265.08	103.12
265.549	76.12
266.018	100.12
266.487	88.12
266.955	84.12
267.424	89.12
267.893	89.12
268.362	97.12
268.83	118.12
269.299	102.12
269.768	90.12
270.236	102.12
270.705	90.12
271.174	96.12
271.642	98.12
272.111	90.12
272.579	98.12
273.048	111.12
273.516	94.12
273.985	97.12
274.453	100.12
274.922	111.12
275.39	98.12
275.858	108.12
276.327	100.12
276.795	106.12
277.263	100.12
277.731	110.12
278.2	116.12
278.668	119.12
279.136	124.12
279.604	116.12
280.072	132.12
280.54	103.12
281.008	110.12
281.477	84.12
281.945	103.12
282.413	97.12
282.881	105.12
283.348	108.12
283.816	108.12
284.284	114.12
284.752	106.12
285.22	105.12
285.688	106.12
286.156	103.12
286.623	102.12
287.091	108.12
287.559	94.12
288.026	105.12
288.494	117.12
288.962	104.12
289.429	96.12
289.897	101.12
290.364	108.12
290.832	114.12
291.3	106.12
291.767	121.12
292.234	100.12
292.702	119.12
293.169	110.12
293.637	105.12
294.104	116.12
294.571	112.12
295.039	124.12
295.506	117.12
295.973	130.12
296.44	113.12
296.908	106.12
297.375	122.12
297.842	118.12
298.309	121.12
298.776	117.12
299.243	128.12
299.71	109.12
300.177	124.12
300.644	124.12
301.111	106.12
301.578	116.12
302.045	122.12
302.512	126.12
302.979	133.12
303.446	129.12
303.913	130.12
304.379	118.12
304.846	128.12
305.313	134.12
305.78	135.12
306.246	131.12
306.713	153.12
307.18	129.12
307.646	146.12
308.113	147.12
308.579	138.12
309.046	134.12
309.512	155.12
309.979	150.12
310.445	128.12
310.912	143.12
311.378	144.12
311.845	140.12
312.311	132.12
312.777	133.12
313.244	138.12
313.71	146.12
314.176	139.12
314.642	157.12
315.109	129.12
315.575	163.12
316.041	156.12
316.507	135.12
316.973	135.12
317.439	159.12
317.905	167.12
318.371	139.12
318.837	147.12
319.303	146.12
319.769	158.12
320.235	139.12
320.701	146.12
321.167	147.12
321.633	157.12
322.099	152.12
322.564	149.12
323.03	146.12
323.496	159.12
323.962	163.12
324.427	155.12
324.893	159.12
325.359	168.12
325.824	151.12
326.29	173.12
326.755	172.12
327.221	169.12
327.686	154.12
328.152	164.12
328.617	159.12
329.083	160.12
329.548	163.12
330.014	170.12
330.479	171.12
330.944	171.12
331.41	169.12
331.875	166.12
332.34	172.12
332.805	164.12
333.271	163.12
333.736	169.12
334.201	188.12
334.666	172.12
335.131	168.12
335.596	187.12
336.061	181.12
336.526	168.12
336.991	182.12
337.456	165.12
337.921	184.12
338.386	168.12
338.851	180.12
339.316	166.12
339.781	194.12
340.246	193.12
340.711	197.12
341.175	190.12
341.64	188.12
342.105	182.12
342.569	187.12
343.034	184.12
343.499	192.12
343.963	174.12
344.428	199.12
344.893	194.12
345.357	186.12
345.822	193.12
346.286	206.12
346.751	193.12
347.215	213.12
347.679	192.12
348.144	210.12
348.608	224.12
349.073	195.12
349.537	231.12
350.001	222.12
350.465	224.12
350.93	224.12
351.394	232.12
351.858	225.12
352.322	217.12
352.786	228.12
353.25	220.12
353.715	212.12
354.179	245.12
354.643	237.12
355.107	246.12
355.571	237.12
356.035	256.12
356.498	226.12
356.962	209.12
357.426	232.12
357.89	258.12
358.354	238.12
358.818	236.12
359.281	218.12
359.745	229.12
360.209	260.12
360.673	257.12
361.136	234.12
361.6	244.12
362.064	215.12
362.527	229.12
362.991	238.12
363.454	230.12
363.918	237.12
364.381	243.12
364.845	258.12
365.308	229.12
365.772	261.12
366.235	256.12
366.698	275.12
367.162	244.12
367.625	264.12
368.088	256.12
368.552	260.12
369.015	233.12
369.478	226.12
369.941	266.12
370.404	251.12
370.867	237.12
371.331	274.12
371.794	260.12
372.257	279.12
372.72	279.12
373.183	257.12
373.646	259.12
374.109	283.12
374.572	268.12
375.035	283.12
375.497	267.12
375.96	269.12
376.423	277.12
376.886	282.12
377.349	290.12
377.811	305.12
378.274	290.12
378.737	292.12
379.199	306.12
379.662	289.12
380.125	291.12
380.587	301.12
381.05	303.12
381.512	298.12
381.975	333.12
382.437	306.12
382.9	302.12
383.362	316.12
383.825	299.12
384.287	337.12
384.75	323.12
385.212	331.12
385.674	330.12
386.136	329.12
386.599	333.12
387.061	335.12
387.523	321.12
387.985	304.12
388.447	342.12
388.91	338.12
389.372	347.12
389.834	333.12
390.296	308.12
390.758	326.12
391.22	343.12
391.682	337.12
392.144	346.12
392.606	328.12
393.068	345.12
393.529	352.12
393.991	380.12
394.453	367.12
394.915	347.12
395.377	314.12
395.838	338.12
396.3	331.12
396.762	360.12
397.224	365.12
397.685	363.12
398.147	330.12
398.608	367.12
399.07	348.12
399.531	362.12
399.993	359.12
400.454	361.12
400.916	376.12
401.377	387.12
401.839	364.12
402.3	384.12
402.762	396.12
403.223	396.12
403.684	425.12
404.145	429.12
404.607	395.12
405.068	390.12
405.529	396.12
405.99	391.12
406.451	391.12
406.913	396.12
407.374	379.12
407.835	391.12
408.296	400.12
408.757	395.12
409.218	416.12
409.679	416.12
410.14	440.12
410.601	444.12
411.062	430.12
411.522	462.12
411.983	445.12
412.444	427.12
412.905	439.12
413.366	458.12
413.826	500.12
414.287	528.12
414.748	594.12
415.208	626.12
415.669	538.12
416.13	476.12
416.59	504.12
417.051	492.12
417.511	537.12
417.972	563.12
418.432	609.12
418.893	655.12
419.353	608.12
419.814	498.12
420.274	459.12
420.734	438.12
421.195	468.12
421.655	428.12
422.115	482.12
422.576	460.12
423.036	440.12
423.496	503.12
423.956	486.12
424.416	528.12
424.876	567.12
425.336	569.12
425.797	570.12
426.257	556.12
426.717	531.12
427.177	508.12
427.637	509.12
428.097	532.12
428.556	529.12
429.016	559.12
429.476	585.12
429.936	594.12
430.396	566.12
430.856	603.12
431.315	597.12
431.775	599.12
432.235	692.12
432.694	692.12
433.154	639.12
433.614	653.12
434.073	604.12
434.533	588.12
434.993	554.12
435.452	542.12
435.912	545.12
436.371	538.12
436.83	543.12
437.29	524.12
437.749	522.12
438.209	477.12
438.668	504.12
439.127	498.12
439.587	500.12
440.046	520.12
440.505	525.12
440.964	529.12
441.424	532.12
441.883	528.12
442.342	515.12
442.801	532.12
443.26	486.12
443.719	492.12
444.178	491.12
444.637	493.12
445.096	494.12
445.555	514.12
446.014	520.12
446.473	506.12
446.932	498.12
447.391	492.12
447.849	517.12
448.308	523.12
448.767	529.12
449.226	531.12
449.685	522.12
450.143	541.12
450.602	527.12
451.061	493.12
451.519	548.12
451.978	508.12
452.436	522.12
452.895	486.12
453.353	537.12
453.812	516.12
454.27	519.12
454.729	516.12
455.187	534.12
455.646	506.12
456.104	511.12
456.562	520.12
457.021	533.12
457.479	521.12
457.937	525.12
458.395	545.12
458.854	553.12
459.312	522.12
459.77	524.12
460.228	548.12
460.686	522.12
461.144	537.12
461.602	538.12
462.06	540.12
462.518	544.12
462.976	536.12
463.434	559.12
463.892	566.12
464.35	564.12
464.808	581.12
465.266	592.12
465.724	598.12
466.181	596.12
466.639	592.12
467.097	622.12
467.555	625.12
468.012	612.12
468.47	623.12
468.928	679.12
469.385	660.12
469.843	664.12
470.3	688.12
470.758	693.12
471.215	708.12
471.673	710.12
472.13	750.12
472.588	736.12
473.045	733.12
473.503	742.12
473.96	787.12
474.417	765.12
474.875	779.12
475.332	878.12
475.789	894.12
476.246	873.12
476.704	932.12
477.161	942.12
477.618	951.12
478.075	1010.12
478.532	1079.12
478.989	1141.12
479.446	1245.12
479.903	1321.12
480.36	1430.12
480.817	1536.12
481.274	1588.12
481.731	1790.12
482.188	1901.12
482.645	2018.12
483.102	2104.12
483.558	2270.12
484.015	2398.12
484.472	2400.12
484.929	2298.12
485.385	2190.12
485.842	2225.12
486.299	2037.12
486.755	1958.12
487.212	1752.12
487.668	1582.12
488.125	1487.12
488.582	1388.12
489.038	1319.12
489.494	1242.12
489.951	1242.12
490.407	1225.12
490.864	1200.12
491.32	1168.12
491.776	1149.12
492.233	1192.12
492.689	1151.12
493.145	1142.12
493.602	1135.12
494.058	1124.12
494.514	1121.12
494.97	1093.12
495.426	1133.12
495.882	1140.12
496.338	1132.12
496.794	1156.12
497.251	1130.12
497.707	1146.12
498.163	1166.12
498.618	1165.12
499.074	1147.12
499.53	1154.12
499.986	1160.12
500.442	1164.12
500.898	1112.12
501.354	1183.12
501.809	1170.12
502.265	1140.12
502.721	1175.12
503.177	1132.12
503.632	1197.12
504.088	1161.12
504.543	1152.12
504.999	1211.12
505.455	1202.12
505.91	1176.12
506.366	1197.12
506.821	1188.12
507.277	1169.12
507.732	1211.12
508.187	1211.12
508.643	1191.12
509.098	1202.12
509.553	1212.12
510.009	1227.12
510.464	1224.12
510.919	1227.12
511.375	1241.12
511.83	1264.12
512.285	1282.12
512.74	1278.12
513.195	1342.12
513.65	1381.12
514.105	1366.12
514.56	1382.12
515.015	1420.12
515.47	1410.12
515.925	1401.12
516.38	1379.12
516.835	1378.12
517.29	1367.12
517.745	1404.12
518.2	1360.12
518.655	1313.12
519.109	1321.12
519.564	1309.12
520.019	1326.12
520.474	1310.12
520.928	1280.12
521.383	1280.12
521.838	1294.12
522.292	1306.12
522.747	1272.12
523.201	1277.12
523.656	1260.12
524.11	1238.12
524.565	1248.12
525.019	1272.12
525.474	1267.12
525.928	1223.12
526.382	1246.12
526.837	1218.12
527.291	1234.12
527.745	1229.12
528.2	1210.12
528.654	1244.12
529.108	1223.12
529.562	1239.12
530.016	1236.12
530.47	1228.12
530.925	1234.12
531.379	1230.12
531.833	1253.12
532.287	1198.12
532.741	1217.12
533.195	1204.12
533.649	1231.12
534.103	1222.12
534.556	1235.12
535.01	1280.12
535.464	1264.12
535.918	1187.12
536.372	1260.12
536.826	1274.12
537.279	1227.12
537.733	1264.12
538.187	1261.12
538.64	1274.12
539.094	1277.12
539.548	1278.12
540.001	1295.12
540.455	1293.12
540.908	1275.12
541.362	1282.12
541.815	1314.12
542.269	1318.12
542.722	1296.12
543.175	1342.12
543.629	1328.12
544.082	1331.12
544.536	1329.12
544.989	1366.12
545.442	1343.12
545.895	1368.12
546.349	1375.12
546.802	1374.12
547.255	1374.12
547.708	1381.12
548.161	1384.12
548.614	1372.12
549.067	1425.12
549.52	1407.12
549.973	1371.12
550.426	1398.12
550.879	1408.12
551.332	1367.12
551.785	1372.12
552.238	1383.12
552.691	1397.12
553.144	1435.12
553.596	1429.12
554.049	1453.12
554.502	1490.12
554.955	1507.12
555.407	1528.12
555.86	1484.12
556.313	1492.12
556.765	1458.12
557.218	1462.12
557.67	1466.12
558.123	1424.12
558.576	1438.12
559.028	1401.12
559.48	1450.12
559.933	1449.12
560.385	1385.12
560.838	1376.12
561.29	1344.12
561.742	1331.12
562.195	1260.12
562.647	1292.12
563.099	1289.12
563.551	1248.12
564.004	1298.12
564.456	1269.12
564.908	1225.12
565.36	1233.12
565.812	1197.12
566.264	1184.12
566.716	1175.12
567.168	1170.12
567.62	1168.12
568.072	1136.12
568.524	1176.12
568.976	1121.12
569.428	1160.12
569.88	1142.12
570.332	1147.12
570.784	1146.12
571.235	1135.12
571.687	1156.12
572.139	1154.12
572.59	1155.12
573.042	1154.12
573.494	1175.12
573.945	1165.12
574.397	1156.12
574.849	1164.12
575.3	1082.12
575.752	1113.12
576.203	1106.12
576.655	1113.12
577.106	1089.12
577.557	1119.12
578.009	1077.12
578.46	1067.12
578.912	1102.12
579.363	1072.12
579.814	1094.12
580.265	1083.12
580.717	1082.12
581.168	1100.12
581.619	1136.12
582.07	1084.12
582.521	1081.12
582.972	1105.12
583.423	1084.12
583.875	1083.12
584.326	1092.12
584.777	1126.12
585.227	1136.12
585.678	1150.12
586.129	1193.12
586.58	1183.12
587.031	1192.12
587.482	1193.12
587.933	1212.12
588.384	1223.12
588.834	1204.12
589.285	1216.12
589.736	1179.12
590.186	1254.12
590.637	1181.12
591.088	1179.12
591.538	1186.12
591.989	1141.12
592.439	1094.12
592.89	1113.12
593.34	1116.12
593.791	1134.12
594.241	1122.12
594.692	1087.12
595.142	1110.12
595.593	1099.12
596.043	1116.12
596.493	1107.12
596.943	1112.12
597.394	1105.12
597.844	1130.12
598.294	1168.12
598.744	1200.12
599.195	1239.12
599.645	1313.12
600.095	1368.12
600.545	1408.12
600.995	1452.12
601.445	1565.12
601.895	1628.12
602.345	1626.12
602.795	1650.12
603.245	1579.12
603.695	1569.12
604.145	1426.12
604.594	1396.12
605.044	1312.12
605.494	1258.12
605.944	1181.12
606.393	1154.12
606.843	1114.12
607.293	1138.12
607.743	1138.12
608.192	1137.12
608.642	1132.12
609.091	1128.12
609.541	1138.12
609.99	1133.12
610.44	1087.12
610.889	1116.12
611.339	1119.12
611.788	1067.12
612.238	1061.12
612.687	1052.12
613.136	1076.12
613.586	1120.12
614.035	1075.12
614.484	1069.12
614.933	1088.12
615.383	1084.12
615.832	1044.12
616.281	1000.12
616.73	1040.12
617.179	998.12
617.628	992.12
618.077	990.12
618.526	938.12
618.975	957.12
619.424	950.12
619.873	944.12
620.322	912.12
620.771	955.12
621.22	931.12
621.669	893.12
622.118	921.12
622.567	881.12
623.015	880.12
623.464	883.12
623.913	862.12
624.361	854.12
624.81	864.12
625.259	871.12
625.707	882.12
626.156	880.12
626.604	844.12
627.053	850.12
627.501	874.12
627.95	873.12
628.398	901.12
628.847	886.12
629.295	860.12
629.744	869.12
630.192	852.12
630.64	830.12
631.089	823.12
631.537	784.12
631.985	808.12
632.433	813.12
632.881	833.12
633.33	814.12
633.778	820.12
634.226	813.12
634.674	809.12
635.122	795.12
635.57	808.12
636.018	822.12
636.466	863.12
636.914	839.12
637.362	854.12
637.81	830.12
638.258	874.12
638.705	918.12
639.153	974.12
639.601	944.12
640.049	958.12
640.497	967.12
640.944	1004.12
641.392	978.12
641.84	882.12
642.287	899.12
642.735	872.12
643.182	851.12
643.63	866.12
644.078	875.12
644.525	860.12
644.973	878.12
645.42	910.12
645.867	904.12
646.315	906.12
646.762	954.12
647.21	1028.12
647.657	1064.12
648.104	1124.12
648.551	1107.12
648.999	1146.12
649.446	1296.12
649.893	1411.12
650.34	1655.12
650.787	1921.12
651.234	2373.12
651.682	3143.12
652.129	4364.12
652.576	6236.12
653.023	8531.12
653.47	10480.12
653.917	11638.12
654.363	12431.12
654.81	13074.12
655.257	13589.12
655.704	10374.12
656.151	6372.12
656.598	4134.12
657.044	2910.12
657.491	2306.12
657.938	1820.12
658.385	1544.12
658.831	1347.12
659.278	1177.12
659.724	1119.12
660.171	1026.12
660.618	968.12
661.064	942.12
661.511	880.12
661.957	863.12
662.404	848.12
662.85	831.12
663.296	821.12
663.743	802.12
664.189	783.12
664.635	800.12
665.082	768.12
665.528	754.12
665.974	749.12
666.42	741.12
666.867	739.12
667.313	693.12
667.759	686.12
668.205	663.12
668.651	684.12
669.097	681.12
669.543	720.12
669.989	680.12
670.435	730.12
670.881	748.12
671.327	725.12
671.773	778.12
672.219	807.12
672.665	852.12
673.11	909.12
673.556	907.12
674.002	907.12
674.448	939.12
674.893	843.12
675.339	738.12
675.785	690.12
676.23	640.12
676.676	605.12
677.122	610.12
677.567	584.12
678.013	555.12
678.458	560.12
678.904	552.12
679.349	549.12
679.794	517.12
680.24	547.12
680.685	532.12
681.131	552.12
681.576	562.12
682.021	556.12
682.466	540.12
682.912	553.12
683.357	562.12
683.802	623.12
684.247	677.12
684.692	716.12
685.137	750.12
685.583	782.12
686.028	747.12
686.473	800.12
686.918	700.12
687.363	642.12
687.807	580.12
688.252	585.12
688.697	544.12
689.142	521.12
689.587	529.12
690.032	515.12
690.477	577.12
690.921	588.12
691.366	594.12
691.811	600.12
692.255	645.12
692.7	744.12
693.145	956.12
693.589	1383.12
694.034	1800.12
694.478	2034.12
694.923	1912.12
695.367	2329.12
695.812	2136.12
696.256	884.12
696.701	607.12
697.145	540.12
697.59	507.12
698.034	526.12
698.478	535.12
698.922	496.12
699.367	502.12
699.811	550.12
700.255	581.12
700.699	623.12
701.143	681.12
701.588	681.12
702.032	737.12
702.476	746.12
702.92	772.12
703.364	884.12
703.808	1281.12
704.252	1719.12
704.696	1897.12
705.14	1840.12
705.584	2280.12
706.027	1856.12
706.471	881.12
706.915	640.12
707.359	553.12
707.803	544.12
708.246	481.12
708.69	519.12
709.134	512.12
709.577	472.12
710.021	480.12
710.465	490.12
710.908	494.12
711.352	498.12
711.795	522.12
712.239	568.12
712.682	594.12
713.126	586.12
713.569	634.12
714.012	577.12
714.456	492.12
714.899	468.12
715.342	461.12
715.786	406.12
716.229	414.12
716.672	424.12
717.115	427.12
717.558	401.12
718.002	425.12
718.445	425.12
718.888	448.12
719.331	434.12
719.774	454.12
720.217	461.12
720.66	433.12
721.103	423.12
721.546	422.12
721.989	390.12
722.432	381.12
722.874	391.12
723.317	384.12
723.76	407.12
724.203	454.12
724.645	563.12
725.088	707.12
725.531	755.12
725.974	748.12
726.416	800.12
726.859	543.12
727.301	426.12
727.744	385.12
728.187	385.12
728.629	389.12
729.071	415.12
729.514	436.12
729.956	435.12
730.399	461.12
730.841	464.12
731.283	441.12
731.726	431.12
732.168	459.12
732.61	435.12
733.053	479.12
733.495	501.12
733.937	548.12
734.379	630.12
734.821	744.12
735.263	1024.12
735.705	1682.12
736.148	2718.12
736.59	3180.12
737.032	2998.12
737.474	3232.12
737.916	1591.12
738.357	802.12
738.799	545.12
739.241	487.12
739.683	482.12
740.125	507.12
740.567	528.12
741.008	519.12
741.45	552.12
741.892	553.12
742.334	589.12
742.775	570.12
743.217	567.12
743.658	502.12
744.1	480.12
744.542	555.12
744.983	606.12
745.425	581.12
745.866	602.12
746.307	528.12
746.749	474.12
747.19	588.12
747.632	926.12
748.073	1816.12
748.514	2799.12
748.956	3538.12
749.397	4764.12
749.838	3817.12
750.279	3161.12
750.72	2380.12
751.162	1090.12
751.603	576.12
752.044	427.12
752.485	373.12
752.926	367.12
753.367	372.12
753.808	343.12
754.249	348.12
754.69	367.12
755.131	333.12
755.572	332.12
756.013	322.12
756.453	325.12
756.894	308.12
757.335	334.12
757.776	330.12
758.216	367.12
758.657	366.12
759.098	384.12
759.538	432.12
759.979	541.12
760.42	825.12
760.86	1795.12
761.301	4255.12
761.741	6280.12
762.182	6428.12
762.622	6022.12
763.063	2812.12
763.503	1153.12
763.943	596.12
764.384	452.12
764.824	406.12
765.264	370.12
765.705	345.12
766.145	344.12
766.585	318.12
767.025	336.12
767.465	306.12
767.906	315.12
768.346	337.12
768.786	361.12
769.226	445.12
769.666	705.12
770.106	1420.12
770.546	2480.12
770.986	2702.12
771.426	2658.12
771.866	1463.12
772.306	678.12
772.745	411.12
773.185	330.12
773.625	314.12
774.065	319.12
774.505	370.12
774.944	562.12
775.384	927.12
775.824	1083.12
776.263	1034.12
776.703	717.12
777.142	433.12
777.582	300.12
778.021	262.12
778.461	245.12
778.9	250.12
779.34	240.12
779.779	238.12
780.219	250.12
780.658	259.12
781.097	242.12
781.537	245.12
781.976	220.12
782.415	225.12
782.855	250.12
783.294	238.12
783.733	216.12
784.172	214.12
784.611	234.12
785.05	228.12
785.489	248.12
785.928	239.12
786.367	231.12
786.806	242.12
787.245	261.12
787.684	268.12
788.123	274.12
788.562	268.12
789.001	258.12
789.44	216.12
789.879	250.12
790.317	271.12
790.756	258.12
791.195	265.12
791.634	312.12
792.072	439.12
792.511	894.12
792.95	1918.12
793.388	2377.12
793.827	2113.12
794.265	1239.12
794.704	620.12
795.142	362.12
795.581	296.12
796.019	272.12
796.458	263.12
796.896	249.12
797.334	276.12
797.773	323.12
798.211	453.12
798.649	925.12
799.087	1541.12
799.526	2326.12
799.964	2624.12
800.402	2170.12
800.84	1290.12
801.278	648.12
801.716	381.12
802.154	292.12
802.592	278.12
803.03	266.12
803.468	285.12
803.906	298.12
804.344	284.12
804.782	291.12
805.22	281.12
805.658	258.12
806.096	300.12
806.533	323.12
806.971	354.12
807.409	428.12
807.847	717.12
808.284	1566.12
808.722	3057.12
809.16	4280.12
809.597	5970.12
810.035	7555.12
810.472	6498.12
810.91	3567.12
811.347	1767.12
811.785	836.12
812.222	494.12
812.66	362.12
813.097	312.12
813.535	308.12
813.972	278.12
814.409	240.12
814.846	244.12
815.284	242.12
815.721	233.12
816.158	242.12
816.595	285.12
817.032	360.12
817.47	324.12
817.907	322.12
818.344	285.12
818.781	251.12
819.218	252.12
819.655	332.12
820.092	445.12
820.529	456.12
820.966	420.12
821.403	322.12
821.839	258.12
822.276	266.12
822.713	301.12
823.15	308.12
823.587	297.12
824.023	357.12
824.46	713.12
824.897	1352.12
825.333	1479.12
825.77	876.12
826.206	506.12
826.643	355.12
827.08	232.12
827.516	205.12
827.953	201.12
828.389	192.12
828.825	185.12
829.262	170.12
829.698	160.12
830.135	151.12
830.571	179.12
831.007	170.12
831.443	169.12
831.88	188.12
832.316	154.12
832.752	173.12
833.188	176.12
833.624	167.12
834.06	191.12
834.497	144.12
834.933	184.12
835.369	174.12
835.805	184.12
836.241	162.12
836.677	203.12
837.112	217.12
837.548	248.12
837.984	293.12
838.42	495.12
838.856	1127.12
839.292	2374.12
839.727	2578.12
840.163	1752.12
840.599	2019.12
841.034	2965.12
841.47	2326.12
841.906	1311.12
842.341	772.12
842.777	470.12
843.212	451.12
843.648	359.12
844.083	270.12
844.519	232.12
844.954	187.12
845.39	190.12
845.825	185.12
846.261	172.12
846.696	158.12
847.131	154.12
847.566	154.12
848.002	156.12
848.437	161.12
848.872	172.12
849.307	186.12
849.742	236.12
850.177	449.12
850.613	882.12
851.048	971.12
851.483	564.12
851.918	375.12
852.353	231.12
852.788	179.12
853.223	152.12
853.657	157.12
854.092	148.12
854.527	141.12
854.962	147.12
855.397	164.12
855.832	157.12
856.266	136.12
856.701	139.12
857.136	149.12
857.57	152.12
858.005	176.12
858.44	157.12
858.874	157.12
859.309	147.12
859.743	153.12
860.178	154.12
860.612	167.12
861.047	173.12
861.481	208.12
861.915	187.12
862.35	180.12
862.784	151.12
863.218	143.12
863.653	138.12
864.087	143.12
864.521	171.12
864.955	194.12
865.39	293.12
865.824	295.12
866.258	316.12
866.692	440.12
867.126	399.12
867.56	283.12
867.994	214.12
868.428	160.12
868.862	172.12
869.296	166.12
869.73	193.12
870.164	177.12
870.598	175.12
871.031	144.12
871.465	132.12
871.899	142.12
872.333	120.12
872.766	112.12
873.2	124.12
873.634	111.12
874.067	128.12
874.501	132.12
874.935	122.12
875.368	118.12
875.802	122.12
876.235	132.12
876.669	124.12
877.102	122.12
877.535	125.12
877.969	111.12
878.402	96.12
878.836	104.12
879.269	106.12
879.702	103.12
880.135	114.12
880.569	118.12
881.002	109.12
881.435	108.12
881.868	97.12
882.301	103.12
882.734	109.12
883.167	120.12
883.601	111.12
884.034	114.12
884.467	118.12
884.899	109.12
885.332	95.12
885.765	117.12
886.198	100.12
886.631	89.12
887.064	119.12
887.497	112.12
887.929	114.12
888.362	100.12
888.795	106.12
889.228	116.12
889.66	106.12
890.093	90.12
890.526	105.12
890.958	107.12
891.391	99.12
891.823	94.12
892.256	94.12
892.688	98.12
893.121	106.12
893.553	101.12
893.985	115.12
894.418	113.12
894.85	102.12
895.282	112.12
895.715	105.12
896.147	104.12
896.579	101.12
897.011	120.12
897.444	92.12
897.876	96.12
898.308	96.12
898.74	106.12
899.172	98.12
899.604	104.12
900.036	112.12
900.468	106.12
900.9	100.12
901.332	106.12
901.764	117.12
902.196	108.12
902.628	123.12
903.06	126.12
903.491	134.12
903.923	127.12
904.355	126.12
904.787	106.12
905.218	130.12
905.65	114.12
906.082	106.12
906.513	122.12
906.945	98.12
907.376	110.12
907.808	123.12
908.239	96.12
908.671	114.12
909.102	113.12
909.534	139.12
909.965	135.12
910.397	238.12
910.828	573.12
911.259	610.12
911.691	404.12
912.122	301.12
912.553	199.12
912.984	106.12
913.415	121.12
913.847	133.12
914.278	119.12
914.709	103.12
915.14	104.12
915.571	118.12
916.002	109.12
916.433	108.12
916.864	98.12
917.295	104.12
917.726	121.12
918.157	132.12
918.587	127.12
919.018	108.12
919.449	117.12
919.88	116.12
920.311	121.12
920.741	172.12
921.172	304.12
921.603	261.12
922.033	208.12
922.464	167.12
922.895	124.12
923.325	106.12
923.756	105.12
924.186	103.12
924.617	122.12
925.047	140.12
925.478	145.12
925.908	126.12
926.338	125.12
926.769	104.12
927.199	109.12
927.629	94.12
928.06	83.12
928.49	97.12
928.92	81.12
929.35	114.12
929.78	108.12
930.21	90.12
930.641	76.12
931.071	90.12
931.501	95.12
931.931	95.12
932.361	91.12
932.791	95.12
933.221	93.12
933.651	92.12
934.08	127.12
934.51	123.12
934.94	99.12
935.37	97.12
935.8	96.12
936.229	107.12
936.659	80.12
937.089	107.12
937.519	124.12
937.948	126.12
938.378	122.12
938.807	95.12
939.237	89.12
939.666	85.12
940.096	73.12
940.525	90.12
940.955	94.12
941.384	107.12
941.814	108.12
942.243	98.12
942.672	68.12
943.102	96.12
943.531	84.12
943.96	101.12
944.39	86.12
944.819	90.12
945.248	92.12
945.677	71.12
946.106	90.12
946.535	75.12
946.964	75.12
947.393	94.12
947.822	95.12
948.251	94.12
948.68	78.12
949.109	75.12
949.538	95.12
949.967	87.12
950.396	82.12
950.825	95.12
951.254	95.12
951.682	94.12
952.111	95.12
952.54	87.12
952.969	84.12
953.397	77.12
953.826	91.12
954.254	76.12
954.683	88.12
955.112	98.12
955.54	95.12
955.969	85.12
956.397	84.12
956.826	101.12
957.254	78.12
957.682	90.12
958.111	80.12
958.539	77.12
958.967	66.12
959.396	78.12
959.824	86.12
960.252	70.12
960.68	92.12
961.109	78.12
961.537	91.12
961.965	92.12
962.393	86.12
962.821	74.12
963.249	94.12
963.677	89.12
964.105	109.12
964.533	150.12
964.961	133.12
965.389	125.12
965.817	106.12
966.245	74.12
966.672	69.12
967.1	91.12
967.528	78.12
967.956	77.12
968.383	76.12
968.811	82.12
969.239	81.12
969.666	96.12
970.094	80.12
970.522	83.12
970.949	78.12
971.377	79.12
971.804	84.12
972.232	82.12
972.659	93.12
973.087	78.12
973.514	74.12
973.941	85.12
974.369	87.12
974.796	97.12
975.223	94.12
975.651	81.12
976.078	78.12
976.505	95.12
976.932	100.12
977.359	107.12
977.786	90.12
978.214	103.12
978.641	87.12
979.068	84.12
979.495	82.12
979.922	84.12
980.349	72.12
980.776	83.12
981.202	95.12
981.629	86.12
982.056	62.12
982.483	82.12
982.91	68.12
983.337	87.12
983.763	90.12
984.19	74.12
984.617	90.12
985.043	81.12
985.47	91.12
985.897	95.12
986.323	93.12
986.75	89.12
987.176	78.12
987.603	73.12
988.029	78.12
988.456	84.12
988.882	86.12
989.308	90.12
989.735	83.12
990.161	77.12
990.587	86.12
991.014	94.12
991.44	96.12
991.866	102.12
992.292	81.12
992.719	78.12
993.145	68.12
993.571	71.12
993.997	89.12
994.423	84.12
994.849	90.12
995.275	80.12
995.701	71.12
996.127	82.12
996.553	73.12
996.979	80.12
997.405	83.12
997.83	91.12
998.256	83.12
998.682	91.12
999.108	90.12
999.534	88.12
999.959	85.12
1000.385	71.12
1000.811	73.12
1001.236	70.12
1001.662	82.12
1002.087	82.12
1002.513	94.12
1002.938	92.12
1003.364	93.12
1003.789	75.12
1004.215	84.12
1004.64	84.12
1005.066	67.12
1005.491	95.12
1005.916	82.12
1006.342	78.12
1006.767	71.12
1007.192	90.12
1007.617	94.12
1008.042	94.12
1008.468	91.12
1008.893	86.12
1009.318	69.12
1009.743	88.12
1010.168	96.12
1010.593	96.12
1011.018	97.12
1011.443	93.12
1011.868	101.12
1012.293	88.12
1012.718	81.12
1013.143	69.12
1013.567	79.12
1013.992	74.12
1014.417	87.12
1014.842	66.12
1015.267	74.12
1015.691	81.12
1016.116	78.12
1016.541	82.12
1016.965	61.12
1017.39	86.12
1017.814	98.12
1018.239	67.12
1018.663	94.12
1019.088	83.12
1019.512	78.12
1019.937	85.12
1020.361	80.12
1020.785	75.12
1021.21	71.12
1021.634	81.12
1022.058	89.12
1022.483	85.12
1022.907	84.12
1023.331	83.12
1023.755	88.12
1024.179	79.12
1024.604	78.12
1025.028	72.12
1025.452	77.12
1025.876	83.12
1026.3	84.12
1026.724	84.12
1027.148	81.12
1027.572	72.12
1027.996	89.12
1028.42	82.12
1028.843	58.12
1029.267	66.12
1029.691	75.12
1030.115	87.12
1030.539	85.12
1030.962	91.12
1031.386	82.12
1031.81	77.12
1032.233	78.12
1032.657	75.12
1033.08	73.12
1033.504	72.12
1033.927	84.12
1034.351	77.12
1034.774	62.12
1035.198	77.12
1035.621	88.12
1036.045	72.12
1036.468	86.12
1036.891	79.12
1037.315	77.12
1037.738	75.12
1038.161	81.12
1038.584	72.12
1039.008	89.12
1039.431	81.12
1039.854	82.12
1040.277	62.12
1040.7	92.12
1041.123	89.12
1041.546	96.12
1041.969	93.12
1042.392	83.12
1042.815	87.12
1043.238	84.12
1043.661	81.12
1044.084	96.12
1044.507	77.12
1044.93	69.12
1045.352	64.12
1045.775	95.12
1046.198	76.12
1046.621	80.12
1047.043	89.12
1047.466	88.12
1047.889	85.12
1048.311	67.12
1048.734	64.12
1049.156	70.12
1049.579	75.12
1050.001	74.12
1050.424	98.12
1050.846	89.12
1051.269	88.12
1051.691	93.12
1052.113	87.12
1052.536	93.12
1052.958	69.12
1053.38	88.12
1053.802	74.12
1054.225	79.12
1054.647	74.12
1055.069	85.12
1055.491	82.12
1055.913	90.12
1056.335	80.12
1056.757	80.12
1057.179	70.12
1057.601	91.12
1058.023	82.12
1058.445	76.12
1058.867	78.12
1059.289	83.12
1059.711	73.12
1060.133	82.12
1060.555	92.12
1060.976	81.12
1061.398	77.12
1061.82	72.12
1062.241	85.12
1062.663	67.12
1063.085	89.12
1063.506	78.12
1063.928	83.12
1064.35	84.12
1064.771	74.12
1065.193	91.12
1065.614	70.12
1066.035	82.12
1066.457	83.12
1066.878	100.12
1067.3	78.12
1067.721	83.12
1068.142	86.12
1068.564	86.12
1068.985	91.12
1069.406	86.12
1069.827	75.12
1070.248	72.12
1070.67	89.12
1071.091	94.12
1071.512	75.12
1071.933	73.12
1072.354	72.12
1072.775	77.12
1073.196	78.12
1073.617	90.12
1074.038	87.12
1074.459	73.12
1074.88	74.12
1075.3	86.12
1075.721	72.12
1076.142	82.12
1076.563	75.12
1076.983	71.12
1077.404	74.12
1077.825	72.12
1078.246	92.12
1078.666	85.12
1079.087	61.12
1079.507	77.12
1079.928	74.12
1080.348	83.12
1080.769	72.12
1081.189	74.12
1081.61	78.12
1082.03	89.12
1082.451	81.12
1082.871	73.12
1083.291	89.12
1083.711	73.12
1084.132	72.12
1084.552	75.12
1084.972	94.12
1085.392	96.12
1085.813	68.12
1086.233	81.12
1086.653	79.12
1087.073	77.12
1087.493	73.12
1087.913	76.12
1088.333	84.12
1088.753	75.12
1089.173	81.12
1089.593	88.12
1090.013	61.12
1090.433	86.12
1090.852	70.12
1091.272	71.12
1091.692	68.12
1092.112	88.12
1092.531	76.12
1092.951	75.12
1093.371	83.12
1093.79	85.12
1094.21	76.12
1094.63	81.12
1095.049	82.12
1095.469	76.12
1095.888	79.12
1096.308	74.12
1096.727	54.12
1097.146	63.12
1097.566	67.12
1097.985	76.12
1098.405	63.12
1098.824	88.12
1099.243	80.12
1099.662	71.12
1100.082	60.12
1100.501	88.12
1100.92	76.12
1101.339	73.12
1101.758	75.12
