Data from 20170802-ORNL-NYSim-Air_HRD10391_10-36-47-619.txt Node
Date: Wed Aug 02 10:36:47 EDT 2017
User: Ender
Spectrometer: HR+D1039
Trigger mode: 0
Integration Time (sec): 1.510000E-3
Scans to average: 1
Electric dark correction enabled: true
Nonlinearity correction enabled: false
Boxcar width: 0
XAxis mode: Wavelengths
Number of Pixels in Spectrum: 2048
>>>>>Begin Spectral Data<<<<<
187.836	7.25
188.309	7.25
188.782	7.25
189.255	0.25
189.728	-2.75
190.201	17.25
190.674	-10.75
191.147	-3.75
191.619	-5.75
192.092	-2.75
192.565	-14.75
193.038	3.25
193.511	-6.75
193.984	-7.75
194.456	6.25
194.929	7.25
195.402	-6.75
195.874	20.25
196.347	32.25
196.82	19.25
197.292	16.25
197.765	25.25
198.237	34.25
198.71	36.25
199.182	37.25
199.655	43.25
200.127	50.25
200.6	54.25
201.072	58.25
201.544	75.25
202.017	81.25
202.489	83.25
202.961	63.25
203.433	63.25
203.906	84.25
204.378	73.25
204.85	79.25
205.322	61.25
205.794	60.25
206.266	103.25
206.739	93.25
207.211	79.25
207.683	75.25
208.155	94.25
208.627	79.25
209.099	91.25
209.57	97.25
210.042	98.25
210.514	101.25
210.986	67.25
211.458	81.25
211.93	96.25
212.402	90.25
212.873	81.25
213.345	84.25
213.817	91.25
214.288	76.25
214.76	69.25
215.232	83.25
215.703	85.25
216.175	76.25
216.646	81.25
217.118	81.25
217.589	72.25
218.061	91.25
218.532	70.25
219.004	81.25
219.475	94.25
219.946	93.25
220.418	73.25
220.889	88.25
221.36	89.25
221.832	66.25
222.303	79.25
222.774	91.25
223.245	80.25
223.717	93.25
224.188	72.25
224.659	73.25
225.13	82.25
225.601	80.25
226.072	93.25
226.543	67.25
227.014	82.25
227.485	79.25
227.956	73.25
228.427	76.25
228.898	86.25
229.369	82.25
229.839	83.25
230.31	75.25
230.781	70.25
231.252	88.25
231.722	69.25
232.193	73.25
232.664	90.25
233.135	89.25
233.605	73.25
234.076	71.25
234.546	75.25
235.017	70.25
235.487	89.25
235.958	80.25
236.428	69.25
236.899	74.25
237.369	91.25
237.84	83.25
238.31	77.25
238.78	89.25
239.251	73.25
239.721	84.25
240.191	80.25
240.662	85.25
241.132	85.25
241.602	102.25
242.072	81.25
242.542	88.25
243.013	104.25
243.483	100.25
243.953	93.25
244.423	83.25
244.893	82.25
245.363	91.25
245.833	92.25
246.303	85.25
246.773	78.25
247.243	92.25
247.712	96.25
248.182	81.25
248.652	95.25
249.122	93.25
249.592	103.25
250.061	100.25
250.531	90.25
251.001	81.25
251.471	107.25
251.94	89.25
252.41	83.25
252.879	95.25
253.349	109.25
253.818	100.25
254.288	86.25
254.757	91.25
255.227	97.25
255.696	107.25
256.166	97.25
256.635	98.25
257.105	105.25
257.574	86.25
258.043	97.25
258.513	103.25
258.982	87.25
259.451	97.25
259.92	83.25
260.389	89.25
260.859	98.25
261.328	106.25
261.797	106.25
262.266	103.25
262.735	104.25
263.204	95.25
263.673	102.25
264.142	101.25
264.611	100.25
265.08	101.25
265.549	107.25
266.018	94.25
266.487	113.25
266.955	89.25
267.424	115.25
267.893	117.25
268.362	116.25
268.83	100.25
269.299	96.25
269.768	107.25
270.236	84.25
270.705	111.25
271.174	106.25
271.642	107.25
272.111	111.25
272.579	99.25
273.048	98.25
273.516	95.25
273.985	114.25
274.453	100.25
274.922	103.25
275.39	117.25
275.858	105.25
276.327	98.25
276.795	95.25
277.263	101.25
277.731	106.25
278.2	105.25
278.668	103.25
279.136	111.25
279.604	107.25
280.072	107.25
280.54	103.25
281.008	97.25
281.477	104.25
281.945	117.25
282.413	102.25
282.881	104.25
283.348	107.25
283.816	110.25
284.284	120.25
284.752	125.25
285.22	116.25
285.688	108.25
286.156	106.25
286.623	107.25
287.091	115.25
287.559	118.25
288.026	119.25
288.494	121.25
288.962	124.25
289.429	123.25
289.897	115.25
290.364	122.25
290.832	103.25
291.3	131.25
291.767	131.25
292.234	104.25
292.702	104.25
293.169	115.25
293.637	134.25
294.104	118.25
294.571	135.25
295.039	105.25
295.506	114.25
295.973	110.25
296.44	106.25
296.908	113.25
297.375	123.25
297.842	126.25
298.309	129.25
298.776	135.25
299.243	115.25
299.71	129.25
300.177	129.25
300.644	145.25
301.111	119.25
301.578	133.25
302.045	128.25
302.512	129.25
302.979	132.25
303.446	115.25
303.913	118.25
304.379	135.25
304.846	117.25
305.313	116.25
305.78	133.25
306.246	151.25
306.713	129.25
307.18	151.25
307.646	151.25
308.113	134.25
308.579	129.25
309.046	137.25
309.512	164.25
309.979	137.25
310.445	132.25
310.912	151.25
311.378	151.25
311.845	147.25
312.311	155.25
312.777	148.25
313.244	156.25
313.71	139.25
314.176	153.25
314.642	147.25
315.109	155.25
315.575	150.25
316.041	153.25
316.507	144.25
316.973	167.25
317.439	152.25
317.905	151.25
318.371	145.25
318.837	149.25
319.303	177.25
319.769	156.25
320.235	146.25
320.701	149.25
321.167	169.25
321.633	155.25
322.099	153.25
322.564	150.25
323.03	173.25
323.496	166.25
323.962	161.25
324.427	185.25
324.893	163.25
325.359	148.25
325.824	160.25
326.29	141.25
326.755	159.25
327.221	159.25
327.686	175.25
328.152	167.25
328.617	165.25
329.083	183.25
329.548	177.25
330.014	172.25
330.479	178.25
330.944	168.25
331.41	163.25
331.875	191.25
332.34	169.25
332.805	187.25
333.271	183.25
333.736	193.25
334.201	184.25
334.666	166.25
335.131	204.25
335.596	176.25
336.061	191.25
336.526	180.25
336.991	172.25
337.456	187.25
337.921	167.25
338.386	176.25
338.851	181.25
339.316	188.25
339.781	174.25
340.246	178.25
340.711	157.25
341.175	182.25
341.64	206.25
342.105	173.25
342.569	204.25
343.034	182.25
343.499	195.25
343.963	205.25
344.428	207.25
344.893	175.25
345.357	173.25
345.822	206.25
346.286	194.25
346.751	215.25
347.215	209.25
347.679	229.25
348.144	223.25
348.608	218.25
349.073	222.25
349.537	209.25
350.001	217.25
350.465	202.25
350.93	233.25
351.394	243.25
351.858	213.25
352.322	240.25
352.786	219.25
353.25	226.25
353.715	214.25
354.179	233.25
354.643	235.25
355.107	262.25
355.571	224.25
356.035	243.25
356.498	238.25
356.962	231.25
357.426	237.25
357.89	228.25
358.354	254.25
358.818	247.25
359.281	242.25
359.745	256.25
360.209	240.25
360.673	254.25
361.136	237.25
361.6	237.25
362.064	241.25
362.527	264.25
362.991	243.25
363.454	231.25
363.918	260.25
364.381	262.25
364.845	253.25
365.308	253.25
365.772	254.25
366.235	251.25
366.698	244.25
367.162	269.25
367.625	278.25
368.088	265.25
368.552	268.25
369.015	273.25
369.478	260.25
369.941	271.25
370.404	267.25
370.867	279.25
371.331	295.25
371.794	265.25
372.257	277.25
372.72	277.25
373.183	263.25
373.646	277.25
374.109	287.25
374.572	301.25
375.035	273.25
375.497	275.25
375.96	279.25
376.423	277.25
376.886	291.25
377.349	300.25
377.811	316.25
378.274	286.25
378.737	295.25
379.199	305.25
379.662	302.25
380.125	301.25
380.587	307.25
381.05	300.25
381.512	300.25
381.975	328.25
382.437	317.25
382.9	318.25
383.362	325.25
383.825	312.25
384.287	306.25
384.75	330.25
385.212	320.25
385.674	329.25
386.136	334.25
386.599	296.25
387.061	340.25
387.523	345.25
387.985	327.25
388.447	339.25
388.91	346.25
389.372	330.25
389.834	327.25
390.296	307.25
390.758	322.25
391.22	318.25
391.682	325.25
392.144	346.25
392.606	351.25
393.068	344.25
393.529	372.25
393.991	367.25
394.453	336.25
394.915	333.25
395.377	344.25
395.838	349.25
396.3	355.25
396.762	348.25
397.224	339.25
397.685	330.25
398.147	347.25
398.608	357.25
399.07	356.25
399.531	335.25
399.993	355.25
400.454	361.25
400.916	378.25
401.377	373.25
401.839	392.25
402.3	391.25
402.762	362.25
403.223	420.25
403.684	421.25
404.145	381.25
404.607	400.25
405.068	392.25
405.529	388.25
405.99	380.25
406.451	382.25
406.913	399.25
407.374	397.25
407.835	388.25
408.296	406.25
408.757	415.25
409.218	417.25
409.679	423.25
410.14	428.25
410.601	448.25
411.062	413.25
411.522	425.25
411.983	430.25
412.444	415.25
412.905	444.25
413.366	449.25
413.826	461.25
414.287	508.25
414.748	584.25
415.208	595.25
415.669	520.25
416.13	499.25
416.59	477.25
417.051	499.25
417.511	490.25
417.972	553.25
418.432	593.25
418.893	615.25
419.353	618.25
419.814	491.25
420.274	428.25
420.734	441.25
421.195	455.25
421.655	452.25
422.115	443.25
422.576	442.25
423.036	462.25
423.496	449.25
423.956	487.25
424.416	497.25
424.876	562.25
425.336	570.25
425.797	556.25
426.257	562.25
426.717	517.25
427.177	507.25
427.637	519.25
428.097	532.25
428.556	531.25
429.016	575.25
429.476	573.25
429.936	573.25
430.396	567.25
430.856	601.25
431.315	617.25
431.775	651.25
432.235	668.25
432.694	711.25
433.154	645.25
433.614	645.25
434.073	633.25
434.533	555.25
434.993	577.25
435.452	553.25
435.912	547.25
436.371	557.25
436.83	532.25
437.29	501.25
437.749	500.25
438.209	502.25
438.668	526.25
439.127	524.25
439.587	515.25
440.046	509.25
440.505	502.25
440.964	491.25
441.424	489.25
441.883	538.25
442.342	525.25
442.801	495.25
443.26	485.25
443.719	485.25
444.178	484.25
444.637	506.25
445.096	500.25
445.555	499.25
446.014	489.25
446.473	491.25
446.932	512.25
447.391	503.25
447.849	498.25
448.308	478.25
448.767	517.25
449.226	521.25
449.685	511.25
450.143	530.25
450.602	526.25
451.061	519.25
451.519	517.25
451.978	540.25
452.436	491.25
452.895	510.25
453.353	478.25
453.812	516.25
454.27	526.25
454.729	519.25
455.187	513.25
455.646	527.25
456.104	501.25
456.562	505.25
457.021	542.25
457.479	488.25
457.937	546.25
458.395	524.25
458.854	535.25
459.312	536.25
459.77	538.25
460.228	559.25
460.686	520.25
461.144	525.25
461.602	518.25
462.06	563.25
462.518	553.25
462.976	540.25
463.434	557.25
463.892	559.25
464.35	572.25
464.808	565.25
465.266	579.25
465.724	580.25
466.181	596.25
466.639	566.25
467.097	608.25
467.555	613.25
468.012	621.25
468.47	646.25
468.928	652.25
469.385	624.25
469.843	659.25
470.3	649.25
470.758	668.25
471.215	685.25
471.673	704.25
472.13	718.25
472.588	734.25
473.045	734.25
473.503	747.25
473.96	792.25
474.417	771.25
474.875	787.25
475.332	804.25
475.789	847.25
476.246	855.25
476.704	889.25
477.161	932.25
477.618	979.25
478.075	1023.25
478.532	1079.25
478.989	1127.25
479.446	1242.25
479.903	1323.25
480.36	1426.25
480.817	1511.25
481.274	1655.25
481.731	1733.25
482.188	1869.25
482.645	2016.25
483.102	2117.25
483.558	2289.25
484.015	2350.25
484.472	2388.25
484.929	2315.25
485.385	2174.25
485.842	2183.25
486.299	2119.25
486.755	1951.25
487.212	1753.25
487.668	1611.25
488.125	1467.25
488.582	1382.25
489.038	1310.25
489.494	1233.25
489.951	1199.25
490.407	1193.25
490.864	1163.25
491.32	1185.25
491.776	1144.25
492.233	1136.25
492.689	1094.25
493.145	1083.25
493.602	1081.25
494.058	1085.25
494.514	1112.25
494.97	1116.25
495.426	1113.25
495.882	1109.25
496.338	1099.25
496.794	1112.25
497.251	1099.25
497.707	1104.25
498.163	1125.25
498.618	1100.25
499.074	1119.25
499.53	1146.25
499.986	1127.25
500.442	1123.25
500.898	1135.25
501.354	1123.25
501.809	1140.25
502.265	1123.25
502.721	1144.25
503.177	1133.25
503.632	1153.25
504.088	1185.25
504.543	1135.25
504.999	1139.25
505.455	1146.25
505.91	1127.25
506.366	1126.25
506.821	1147.25
507.277	1145.25
507.732	1136.25
508.187	1160.25
508.643	1172.25
509.098	1159.25
509.553	1168.25
510.009	1157.25
510.464	1161.25
510.919	1203.25
511.375	1241.25
511.83	1231.25
512.285	1225.25
512.74	1279.25
513.195	1327.25
513.65	1295.25
514.105	1299.25
514.56	1329.25
515.015	1337.25
515.47	1325.25
515.925	1323.25
516.38	1345.25
516.835	1358.25
517.29	1324.25
517.745	1325.25
518.2	1307.25
518.655	1275.25
519.109	1269.25
519.564	1276.25
520.019	1281.25
520.474	1227.25
520.928	1251.25
521.383	1232.25
521.838	1227.25
522.292	1210.25
522.747	1221.25
523.201	1228.25
523.656	1188.25
524.11	1194.25
524.565	1151.25
525.019	1187.25
525.474	1204.25
525.928	1227.25
526.382	1185.25
526.837	1181.25
527.291	1197.25
527.745	1187.25
528.2	1206.25
528.654	1188.25
529.108	1164.25
529.562	1219.25
530.016	1208.25
530.47	1163.25
530.925	1190.25
531.379	1193.25
531.833	1203.25
532.287	1156.25
532.741	1161.25
533.195	1173.25
533.649	1206.25
534.103	1200.25
534.556	1166.25
535.01	1180.25
535.464	1181.25
535.918	1135.25
536.372	1199.25
536.826	1211.25
537.279	1193.25
537.733	1203.25
538.187	1181.25
538.64	1185.25
539.094	1175.25
539.548	1237.25
540.001	1172.25
540.455	1196.25
540.908	1172.25
541.362	1213.25
541.815	1244.25
542.269	1292.25
542.722	1286.25
543.175	1243.25
543.629	1269.25
544.082	1283.25
544.536	1284.25
544.989	1288.25
545.442	1340.25
545.895	1323.25
546.349	1297.25
546.802	1298.25
547.255	1307.25
547.708	1325.25
548.161	1312.25
548.614	1309.25
549.067	1375.25
549.52	1351.25
549.973	1307.25
550.426	1321.25
550.879	1309.25
551.332	1292.25
551.785	1319.25
552.238	1302.25
552.691	1309.25
553.144	1358.25
553.596	1361.25
554.049	1369.25
554.502	1360.25
554.955	1387.25
555.407	1447.25
555.86	1403.25
556.313	1469.25
556.765	1442.25
557.218	1380.25
557.67	1371.25
558.123	1384.25
558.576	1382.25
559.028	1385.25
559.48	1378.25
559.933	1399.25
560.385	1367.25
560.838	1311.25
561.29	1275.25
561.742	1264.25
562.195	1233.25
562.647	1235.25
563.099	1212.25
563.551	1215.25
564.004	1241.25
564.456	1211.25
564.908	1200.25
565.36	1138.25
565.812	1152.25
566.264	1137.25
566.716	1145.25
567.168	1108.25
567.62	1083.25
568.072	1114.25
568.524	1121.25
568.976	1101.25
569.428	1087.25
569.88	1052.25
570.332	1081.25
570.784	1105.25
571.235	1083.25
571.687	1101.25
572.139	1115.25
572.59	1074.25
573.042	1098.25
573.494	1092.25
573.945	1089.25
574.397	1044.25
574.849	1050.25
575.3	1049.25
575.752	1086.25
576.203	1065.25
576.655	1069.25
577.106	1050.25
577.557	1033.25
578.009	1075.25
578.46	1096.25
578.912	1031.25
579.363	1045.25
579.814	1011.25
580.265	1033.25
580.717	1032.25
581.168	1057.25
581.619	1031.25
582.07	1030.25
582.521	1045.25
582.972	1067.25
583.423	1077.25
583.875	1056.25
584.326	1047.25
584.777	1039.25
585.227	1069.25
585.678	1073.25
586.129	1123.25
586.58	1143.25
587.031	1115.25
587.482	1134.25
587.933	1148.25
588.384	1181.25
588.834	1164.25
589.285	1130.25
589.736	1165.25
590.186	1143.25
590.637	1155.25
591.088	1131.25
591.538	1123.25
591.989	1103.25
592.439	1089.25
592.89	1058.25
593.34	1106.25
593.791	1069.25
594.241	1064.25
594.692	1037.25
595.142	1061.25
595.593	1039.25
596.043	1043.25
596.493	1065.25
596.943	1063.25
597.394	1105.25
597.844	1076.25
598.294	1094.25
598.744	1147.25
599.195	1171.25
599.645	1278.25
600.095	1307.25
600.545	1345.25
600.995	1417.25
601.445	1472.25
601.895	1513.25
602.345	1588.25
602.795	1596.25
603.245	1506.25
603.695	1483.25
604.145	1396.25
604.594	1310.25
605.044	1246.25
605.494	1190.25
605.944	1128.25
606.393	1099.25
606.843	1067.25
607.293	1050.25
607.743	1052.25
608.192	1076.25
608.642	1092.25
609.091	1094.25
609.541	1098.25
609.99	1079.25
610.44	1045.25
610.889	1054.25
611.339	1027.25
611.788	1004.25
612.238	1029.25
612.687	1047.25
613.136	1028.25
613.586	1078.25
614.035	1041.25
614.484	1053.25
614.933	1042.25
615.383	1059.25
615.832	990.25
616.281	1003.25
616.73	967.25
617.179	970.25
617.628	938.25
618.077	943.25
618.526	928.25
618.975	899.25
619.424	874.25
619.873	895.25
620.322	886.25
620.771	888.25
621.22	887.25
621.669	855.25
622.118	860.25
622.567	858.25
623.015	844.25
623.464	809.25
623.913	812.25
624.361	820.25
624.81	810.25
625.259	827.25
625.707	837.25
626.156	811.25
626.604	849.25
627.053	823.25
627.501	821.25
627.95	839.25
628.398	857.25
628.847	838.25
629.295	847.25
629.744	857.25
630.192	799.25
630.64	817.25
631.089	783.25
631.537	791.25
631.985	787.25
632.433	773.25
632.881	785.25
633.33	795.25
633.778	781.25
634.226	759.25
634.674	773.25
635.122	785.25
635.57	804.25
636.018	779.25
636.466	811.25
636.914	795.25
637.362	819.25
637.81	825.25
638.258	858.25
638.705	831.25
639.153	875.25
639.601	889.25
640.049	916.25
640.497	933.25
640.944	974.25
641.392	937.25
641.84	904.25
642.287	873.25
642.735	836.25
643.182	838.25
643.63	800.25
644.078	822.25
644.525	817.25
644.973	851.25
645.42	895.25
645.867	917.25
646.315	900.25
646.762	909.25
647.21	961.25
647.657	1042.25
648.104	1093.25
648.551	1107.25
648.999	1183.25
649.446	1272.25
649.893	1392.25
650.34	1593.25
650.787	1963.25
651.234	2434.25
651.682	3209.25
652.129	4451.25
652.576	6353.25
653.023	8791.25
653.47	10817.25
653.917	12021.25
654.363	12731.25
654.81	13439.25
655.257	14148.25
655.704	10818.25
656.151	6574.25
656.598	4227.25
657.044	2929.25
657.491	2285.25
657.938	1838.25
658.385	1532.25
658.831	1364.25
659.278	1241.25
659.724	1091.25
660.171	1021.25
660.618	950.25
661.064	912.25
661.511	870.25
661.957	829.25
662.404	825.25
662.85	841.25
663.296	811.25
663.743	781.25
664.189	777.25
664.635	779.25
665.082	760.25
665.528	731.25
665.974	719.25
666.42	699.25
666.867	697.25
667.313	695.25
667.759	678.25
668.205	667.25
668.651	677.25
669.097	652.25
669.543	669.25
669.989	618.25
670.435	660.25
670.881	697.25
671.327	736.25
671.773	723.25
672.219	773.25
672.665	812.25
673.11	827.25
673.556	851.25
674.002	887.25
674.448	919.25
674.893	821.25
675.339	740.25
675.785	643.25
676.23	628.25
676.676	621.25
677.122	564.25
677.567	551.25
678.013	555.25
678.458	552.25
678.904	557.25
679.349	551.25
679.794	549.25
680.24	504.25
680.685	549.25
681.131	502.25
681.576	541.25
682.021	523.25
682.466	541.25
682.912	515.25
683.357	560.25
683.802	595.25
684.247	604.25
684.692	673.25
685.137	697.25
685.583	721.25
686.028	767.25
686.473	749.25
686.918	644.25
687.363	611.25
687.807	570.25
688.252	521.25
688.697	519.25
689.142	508.25
689.587	523.25
690.032	525.25
690.477	537.25
690.921	573.25
691.366	600.25
691.811	584.25
692.255	637.25
692.7	704.25
693.145	913.25
693.589	1339.25
694.034	1733.25
694.478	1915.25
694.923	1790.25
695.367	2211.25
695.812	2095.25
696.256	897.25
696.701	594.25
697.145	516.25
697.59	512.25
698.034	479.25
698.478	506.25
698.922	511.25
699.367	486.25
699.811	508.25
700.255	541.25
700.699	592.25
701.143	637.25
701.588	703.25
702.032	692.25
702.476	725.25
702.92	762.25
703.364	847.25
703.808	1240.25
704.252	1727.25
704.696	1863.25
705.14	1728.25
705.584	2128.25
706.027	1762.25
706.471	875.25
706.915	587.25
707.359	539.25
707.803	533.25
708.246	474.25
708.69	483.25
709.134	471.25
709.577	457.25
710.021	478.25
710.465	481.25
710.908	466.25
711.352	468.25
711.795	497.25
712.239	551.25
712.682	560.25
713.126	559.25
713.569	591.25
714.012	555.25
714.456	499.25
714.899	463.25
715.342	430.25
715.786	436.25
716.229	411.25
716.672	401.25
717.115	404.25
717.558	407.25
718.002	424.25
718.445	432.25
718.888	429.25
719.331	465.25
719.774	460.25
720.217	463.25
720.66	417.25
721.103	451.25
721.546	387.25
721.989	399.25
722.432	399.25
722.874	397.25
723.317	399.25
723.76	399.25
724.203	467.25
724.645	556.25
725.088	713.25
725.531	723.25
725.974	702.25
726.416	772.25
726.859	502.25
727.301	416.25
727.744	418.25
728.187	379.25
728.629	392.25
729.071	404.25
729.514	428.25
729.956	429.25
730.399	427.25
730.841	438.25
731.283	442.25
731.726	404.25
732.168	431.25
732.61	455.25
733.053	459.25
733.495	523.25
733.937	560.25
734.379	619.25
734.821	696.25
735.263	929.25
735.705	1611.25
736.148	2565.25
736.59	3049.25
737.032	2904.25
737.474	3054.25
737.916	1557.25
738.357	758.25
738.799	541.25
739.241	433.25
739.683	461.25
740.125	463.25
740.567	484.25
741.008	516.25
741.45	520.25
741.892	544.25
742.334	558.25
742.775	530.25
743.217	577.25
743.658	498.25
744.1	447.25
744.542	509.25
744.983	571.25
745.425	545.25
745.866	619.25
746.307	504.25
746.749	453.25
747.19	574.25
747.632	963.25
748.073	1747.25
748.514	2733.25
748.956	3326.25
749.397	4566.25
749.838	3692.25
750.279	2987.25
750.72	2249.25
751.162	1040.25
751.603	565.25
752.044	434.25
752.485	381.25
752.926	342.25
753.367	350.25
753.808	330.25
754.249	307.25
754.69	334.25
755.131	348.25
755.572	330.25
756.013	323.25
756.453	322.25
756.894	323.25
757.335	343.25
757.776	356.25
758.216	340.25
758.657	359.25
759.098	361.25
759.538	414.25
759.979	500.25
760.42	798.25
760.86	1700.25
761.301	3958.25
761.741	5951.25
762.182	6181.25
762.622	5857.25
763.063	2684.25
763.503	1133.25
763.943	592.25
764.384	443.25
764.824	383.25
765.264	373.25
765.705	342.25
766.145	343.25
766.585	326.25
767.025	314.25
767.465	303.25
767.906	327.25
768.346	330.25
768.786	349.25
769.226	423.25
769.666	653.25
770.106	1393.25
770.546	2351.25
770.986	2615.25
771.426	2544.25
771.866	1431.25
772.306	679.25
772.745	426.25
773.185	317.25
773.625	300.25
774.065	330.25
774.505	333.25
774.944	549.25
775.384	854.25
775.824	989.25
776.263	972.25
776.703	705.25
777.142	441.25
777.582	294.25
778.021	259.25
778.461	245.25
778.9	224.25
779.34	242.25
779.779	260.25
780.219	237.25
780.658	238.25
781.097	245.25
781.537	233.25
781.976	243.25
782.415	207.25
782.855	205.25
783.294	243.25
783.733	225.25
784.172	210.25
784.611	218.25
785.05	233.25
785.489	225.25
785.928	229.25
786.367	233.25
786.806	232.25
787.245	263.25
787.684	268.25
788.123	259.25
788.562	253.25
789.001	265.25
789.44	246.25
789.879	259.25
790.317	247.25
790.756	278.25
791.195	291.25
791.634	299.25
792.072	434.25
792.511	850.25
792.95	1801.25
793.388	2283.25
793.827	1991.25
794.265	1175.25
794.704	611.25
795.142	349.25
795.581	276.25
796.019	276.25
796.458	244.25
796.896	260.25
797.334	271.25
797.773	318.25
798.211	458.25
798.649	887.25
799.087	1447.25
799.526	2242.25
799.964	2491.25
800.402	2109.25
800.84	1236.25
801.278	669.25
801.716	381.25
802.154	283.25
802.592	297.25
803.03	281.25
803.468	273.25
803.906	279.25
804.344	275.25
804.782	255.25
805.22	252.25
805.658	290.25
806.096	306.25
806.533	318.25
806.971	326.25
807.409	436.25
807.847	664.25
808.284	1539.25
808.722	2937.25
809.16	4067.25
809.597	5687.25
810.035	7283.25
810.472	6259.25
810.91	3515.25
811.347	1736.25
811.785	814.25
812.222	487.25
812.66	351.25
813.097	314.25
813.535	281.25
813.972	270.25
814.409	259.25
814.846	227.25
815.284	213.25
815.721	216.25
816.158	257.25
816.595	284.25
817.032	351.25
817.47	328.25
817.907	300.25
818.344	281.25
818.781	241.25
819.218	251.25
819.655	344.25
820.092	418.25
820.529	433.25
820.966	411.25
821.403	309.25
821.839	261.25
822.276	265.25
822.713	278.25
823.15	304.25
823.587	287.25
824.023	363.25
824.46	715.25
824.897	1311.25
825.333	1405.25
825.77	857.25
826.206	516.25
826.643	309.25
827.08	233.25
827.516	212.25
827.953	202.25
828.389	208.25
828.825	178.25
829.262	181.25
829.698	177.25
830.135	173.25
830.571	173.25
831.007	169.25
831.443	184.25
831.88	159.25
832.316	158.25
832.752	187.25
833.188	176.25
833.624	177.25
834.06	175.25
834.497	165.25
834.933	172.25
835.369	179.25
835.805	184.25
836.241	191.25
836.677	214.25
837.112	219.25
837.548	253.25
837.984	301.25
838.42	443.25
838.856	1091.25
839.292	2221.25
839.727	2502.25
840.163	1697.25
840.599	1949.25
841.034	2867.25
841.47	2239.25
841.906	1291.25
842.341	720.25
842.777	452.25
843.212	431.25
843.648	364.25
844.083	273.25
844.519	223.25
844.954	199.25
845.39	160.25
845.825	165.25
846.261	167.25
846.696	165.25
847.131	161.25
847.566	178.25
848.002	182.25
848.437	153.25
848.872	156.25
849.307	187.25
849.742	226.25
850.177	403.25
850.613	875.25
851.048	950.25
851.483	569.25
851.918	357.25
852.353	223.25
852.788	167.25
853.223	170.25
853.657	155.25
854.092	164.25
854.527	161.25
854.962	164.25
855.397	159.25
855.832	141.25
856.266	141.25
856.701	155.25
857.136	142.25
857.57	170.25
858.005	177.25
858.44	168.25
858.874	178.25
859.309	152.25
859.743	148.25
860.178	147.25
860.612	146.25
861.047	173.25
861.481	196.25
861.915	206.25
862.35	179.25
862.784	142.25
863.218	130.25
863.653	136.25
864.087	169.25
864.521	171.25
864.955	209.25
865.39	297.25
865.824	285.25
866.258	321.25
866.692	418.25
867.126	409.25
867.56	305.25
867.994	221.25
868.428	168.25
868.862	172.25
869.296	188.25
869.73	171.25
870.164	212.25
870.598	202.25
871.031	139.25
871.465	151.25
871.899	146.25
872.333	145.25
872.766	123.25
873.2	138.25
873.634	129.25
874.067	127.25
874.501	130.25
874.935	145.25
875.368	123.25
875.802	131.25
876.235	139.25
876.669	124.25
877.102	132.25
877.535	124.25
877.969	120.25
878.402	115.25
878.836	123.25
879.269	116.25
879.702	117.25
880.135	129.25
880.569	120.25
881.002	116.25
881.435	113.25
881.868	110.25
882.301	103.25
882.734	106.25
883.167	116.25
883.601	107.25
884.034	127.25
884.467	120.25
884.899	128.25
885.332	98.25
885.765	113.25
886.198	117.25
886.631	89.25
887.064	119.25
887.497	130.25
887.929	127.25
888.362	121.25
888.795	114.25
889.228	106.25
889.66	113.25
890.093	121.25
890.526	103.25
890.958	113.25
891.391	107.25
891.823	119.25
892.256	109.25
892.688	109.25
893.121	125.25
893.553	93.25
893.985	116.25
894.418	101.25
894.85	111.25
895.282	119.25
895.715	113.25
896.147	102.25
896.579	96.25
897.011	112.25
897.444	98.25
897.876	105.25
898.308	105.25
898.74	108.25
899.172	118.25
899.604	122.25
900.036	120.25
900.468	102.25
900.9	120.25
901.332	103.25
901.764	123.25
902.196	117.25
902.628	112.25
903.06	141.25
903.491	118.25
903.923	144.25
904.355	131.25
904.787	125.25
905.218	125.25
905.65	129.25
906.082	121.25
906.513	113.25
906.945	113.25
907.376	97.25
907.808	129.25
908.239	127.25
908.671	111.25
909.102	111.25
909.534	128.25
909.965	153.25
910.397	219.25
910.828	559.25
911.259	617.25
911.691	423.25
912.122	288.25
912.553	201.25
912.984	139.25
913.415	125.25
913.847	117.25
914.278	115.25
914.709	111.25
915.14	107.25
915.571	85.25
916.002	82.25
916.433	106.25
916.864	109.25
917.295	111.25
917.726	130.25
918.157	108.25
918.587	113.25
919.018	113.25
919.449	112.25
919.88	134.25
920.311	117.25
920.741	195.25
921.172	297.25
921.603	254.25
922.033	206.25
922.464	174.25
922.895	142.25
923.325	124.25
923.756	131.25
924.186	116.25
924.617	145.25
925.047	148.25
925.478	155.25
925.908	136.25
926.338	123.25
926.769	116.25
927.199	106.25
927.629	101.25
928.06	117.25
928.49	117.25
928.92	110.25
929.35	98.25
929.78	109.25
930.21	106.25
930.641	107.25
931.071	85.25
931.501	117.25
931.931	111.25
932.361	102.25
932.791	94.25
933.221	94.25
933.651	81.25
934.08	108.25
934.51	103.25
934.94	109.25
935.37	113.25
935.8	93.25
936.229	106.25
936.659	101.25
937.089	101.25
937.519	129.25
937.948	113.25
938.378	124.25
938.807	105.25
939.237	107.25
939.666	101.25
940.096	91.25
940.525	74.25
940.955	97.25
941.384	99.25
941.814	107.25
942.243	101.25
942.672	94.25
943.102	101.25
943.531	109.25
943.96	94.25
944.39	99.25
944.819	91.25
945.248	94.25
945.677	92.25
946.106	83.25
946.535	89.25
946.964	97.25
947.393	93.25
947.822	78.25
948.251	96.25
948.68	111.25
949.109	96.25
949.538	80.25
949.967	95.25
950.396	90.25
950.825	97.25
951.254	89.25
951.682	92.25
952.111	95.25
952.54	95.25
952.969	98.25
953.397	111.25
953.826	87.25
954.254	102.25
954.683	82.25
955.112	89.25
955.54	89.25
955.969	96.25
956.397	100.25
956.826	94.25
957.254	89.25
957.682	81.25
958.111	100.25
958.539	102.25
958.967	99.25
959.396	86.25
959.824	105.25
960.252	102.25
960.68	87.25
961.109	82.25
961.537	117.25
961.965	97.25
962.393	102.25
962.821	99.25
963.249	89.25
963.677	90.25
964.105	106.25
964.533	127.25
964.961	129.25
965.389	113.25
965.817	108.25
966.245	93.25
966.672	86.25
967.1	98.25
967.528	93.25
967.956	84.25
968.383	84.25
968.811	100.25
969.239	112.25
969.666	71.25
970.094	93.25
970.522	96.25
970.949	88.25
971.377	107.25
971.804	100.25
972.232	99.25
972.659	110.25
973.087	88.25
973.514	87.25
973.941	85.25
974.369	89.25
974.796	105.25
975.223	78.25
975.651	94.25
976.078	80.25
976.505	89.25
976.932	100.25
977.359	105.25
977.786	107.25
978.214	102.25
978.641	98.25
979.068	99.25
979.495	91.25
979.922	98.25
980.349	72.25
980.776	79.25
981.202	80.25
981.629	97.25
982.056	99.25
982.483	103.25
982.91	84.25
983.337	111.25
983.763	91.25
984.19	78.25
984.617	84.25
985.043	79.25
985.47	97.25
985.897	86.25
986.323	91.25
986.75	91.25
987.176	99.25
987.603	86.25
988.029	92.25
988.456	81.25
988.882	89.25
989.308	87.25
989.735	92.25
990.161	96.25
990.587	82.25
991.014	91.25
991.44	96.25
991.866	75.25
992.292	92.25
992.719	89.25
993.145	107.25
993.571	80.25
993.997	91.25
994.423	95.25
994.849	91.25
995.275	91.25
995.701	94.25
996.127	105.25
996.553	89.25
996.979	85.25
997.405	110.25
997.83	89.25
998.256	103.25
998.682	84.25
999.108	97.25
999.534	84.25
999.959	87.25
1000.385	84.25
1000.811	106.25
1001.236	106.25
1001.662	90.25
1002.087	80.25
1002.513	89.25
1002.938	95.25
1003.364	78.25
1003.789	87.25
1004.215	89.25
1004.64	78.25
1005.066	101.25
1005.491	80.25
1005.916	99.25
1006.342	88.25
1006.767	99.25
1007.192	95.25
1007.617	75.25
1008.042	98.25
1008.468	94.25
1008.893	73.25
1009.318	84.25
1009.743	93.25
1010.168	109.25
1010.593	98.25
1011.018	100.25
1011.443	89.25
1011.868	76.25
1012.293	82.25
1012.718	106.25
1013.143	81.25
1013.567	94.25
1013.992	91.25
1014.417	76.25
1014.842	96.25
1015.267	83.25
1015.691	91.25
1016.116	89.25
1016.541	99.25
1016.965	86.25
1017.39	73.25
1017.814	74.25
1018.239	83.25
1018.663	89.25
1019.088	83.25
1019.512	115.25
1019.937	76.25
1020.361	89.25
1020.785	91.25
1021.21	69.25
1021.634	74.25
1022.058	93.25
1022.483	77.25
1022.907	77.25
1023.331	97.25
1023.755	72.25
1024.179	100.25
1024.604	109.25
1025.028	71.25
1025.452	89.25
1025.876	77.25
1026.3	60.25
1026.724	77.25
1027.148	67.25
1027.572	91.25
1027.996	100.25
1028.42	92.25
1028.843	92.25
1029.267	104.25
1029.691	81.25
1030.115	95.25
1030.539	93.25
1030.962	73.25
1031.386	104.25
1031.81	74.25
1032.233	94.25
1032.657	83.25
1033.08	91.25
1033.504	75.25
1033.927	99.25
1034.351	89.25
1034.774	82.25
1035.198	78.25
1035.621	103.25
1036.045	83.25
1036.468	77.25
1036.891	79.25
1037.315	101.25
1037.738	86.25
1038.161	90.25
1038.584	89.25
1039.008	84.25
1039.431	78.25
1039.854	79.25
1040.277	81.25
1040.7	77.25
1041.123	89.25
1041.546	84.25
1041.969	88.25
1042.392	84.25
1042.815	89.25
1043.238	87.25
1043.661	74.25
1044.084	101.25
1044.507	84.25
1044.93	78.25
1045.352	79.25
1045.775	93.25
1046.198	86.25
1046.621	91.25
1047.043	100.25
1047.466	79.25
1047.889	92.25
1048.311	91.25
1048.734	71.25
1049.156	70.25
1049.579	76.25
1050.001	71.25
1050.424	68.25
1050.846	78.25
1051.269	76.25
1051.691	69.25
1052.113	95.25
1052.536	87.25
1052.958	88.25
1053.38	89.25
1053.802	91.25
1054.225	78.25
1054.647	93.25
1055.069	73.25
1055.491	78.25
1055.913	95.25
1056.335	81.25
1056.757	79.25
1057.179	87.25
1057.601	81.25
1058.023	67.25
1058.445	95.25
1058.867	90.25
1059.289	92.25
1059.711	89.25
1060.133	85.25
1060.555	91.25
1060.976	97.25
1061.398	78.25
1061.82	82.25
1062.241	98.25
1062.663	94.25
1063.085	85.25
1063.506	98.25
1063.928	77.25
1064.35	83.25
1064.771	83.25
1065.193	86.25
1065.614	84.25
1066.035	94.25
1066.457	104.25
1066.878	73.25
1067.3	109.25
1067.721	89.25
1068.142	93.25
1068.564	110.25
1068.985	92.25
1069.406	71.25
1069.827	85.25
1070.248	90.25
1070.67	96.25
1071.091	101.25
1071.512	87.25
1071.933	93.25
1072.354	86.25
1072.775	74.25
1073.196	95.25
1073.617	90.25
1074.038	82.25
1074.459	85.25
1074.88	81.25
1075.3	73.25
1075.721	71.25
1076.142	68.25
1076.563	69.25
1076.983	81.25
1077.404	80.25
1077.825	79.25
1078.246	79.25
1078.666	95.25
1079.087	99.25
1079.507	83.25
1079.928	97.25
1080.348	74.25
1080.769	79.25
1081.189	84.25
1081.61	98.25
1082.03	84.25
1082.451	91.25
1082.871	73.25
1083.291	82.25
1083.711	94.25
1084.132	87.25
1084.552	87.25
1084.972	83.25
1085.392	103.25
1085.813	79.25
1086.233	90.25
1086.653	87.25
1087.073	98.25
1087.493	90.25
1087.913	76.25
1088.333	87.25
1088.753	73.25
1089.173	76.25
1089.593	96.25
1090.013	83.25
1090.433	86.25
1090.852	81.25
1091.272	105.25
1091.692	74.25
1092.112	86.25
1092.531	71.25
1092.951	87.25
1093.371	89.25
1093.79	78.25
1094.21	85.25
1094.63	86.25
1095.049	89.25
1095.469	82.25
1095.888	91.25
1096.308	81.25
1096.727	64.25
1097.146	90.25
1097.566	98.25
1097.985	76.25
1098.405	73.25
1098.824	87.25
1099.243	69.25
1099.662	89.25
1100.082	87.25
1100.501	107.25
1100.92	105.25
1101.339	81.25
1101.758	93.25
