Data from 20170802-ORNL-NYSim-Air_HRD10391_10-37-01-626.txt Node
Date: Wed Aug 02 10:37:01 EDT 2017
User: Ender
Spectrometer: HR+D1039
Trigger mode: 0
Integration Time (sec): 1.510000E-3
Scans to average: 1
Electric dark correction enabled: true
Nonlinearity correction enabled: false
Boxcar width: 0
XAxis mode: Wavelengths
Number of Pixels in Spectrum: 2048
>>>>>Begin Spectral Data<<<<<
187.836	8.88
188.309	8.88
188.782	8.88
189.255	10.88
189.728	-2.12
190.201	-11.12
190.674	0.88
191.147	-23.12
191.619	-4.12
192.092	-14.12
192.565	-5.12
193.038	-1.12
193.511	2.88
193.984	5.88
194.456	-3.12
194.929	2.88
195.402	5.88
195.874	25.88
196.347	-3.12
196.82	31.88
197.292	21.88
197.765	35.88
198.237	34.88
198.71	42.88
199.182	42.88
199.655	40.88
200.127	50.88
200.6	69.88
201.072	56.88
201.544	75.88
202.017	59.88
202.489	65.88
202.961	79.88
203.433	79.88
203.906	75.88
204.378	65.88
204.85	82.88
205.322	90.88
205.794	78.88
206.266	78.88
206.739	95.88
207.211	85.88
207.683	105.88
208.155	79.88
208.627	80.88
209.099	86.88
209.57	64.88
210.042	82.88
210.514	71.88
210.986	80.88
211.458	87.88
211.93	70.88
212.402	95.88
212.873	82.88
213.345	74.88
213.817	66.88
214.288	89.88
214.76	81.88
215.232	88.88
215.703	84.88
216.175	80.88
216.646	69.88
217.118	80.88
217.589	72.88
218.061	81.88
218.532	76.88
219.004	77.88
219.475	82.88
219.946	66.88
220.418	77.88
220.889	71.88
221.36	71.88
221.832	60.88
222.303	76.88
222.774	70.88
223.245	81.88
223.717	71.88
224.188	80.88
224.659	80.88
225.13	81.88
225.601	68.88
226.072	67.88
226.543	72.88
227.014	84.88
227.485	84.88
227.956	78.88
228.427	61.88
228.898	73.88
229.369	71.88
229.839	71.88
230.31	71.88
230.781	78.88
231.252	68.88
231.722	78.88
232.193	72.88
232.664	81.88
233.135	73.88
233.605	76.88
234.076	85.88
234.546	79.88
235.017	87.88
235.487	91.88
235.958	88.88
236.428	81.88
236.899	78.88
237.369	81.88
237.84	77.88
238.31	85.88
238.78	85.88
239.251	81.88
239.721	74.88
240.191	86.88
240.662	85.88
241.132	90.88
241.602	100.88
242.072	86.88
242.542	89.88
243.013	87.88
243.483	81.88
243.953	70.88
244.423	83.88
244.893	76.88
245.363	76.88
245.833	90.88
246.303	110.88
246.773	90.88
247.243	75.88
247.712	86.88
248.182	83.88
248.652	93.88
249.122	96.88
249.592	101.88
250.061	99.88
250.531	96.88
251.001	106.88
251.471	79.88
251.94	88.88
252.41	78.88
252.879	84.88
253.349	98.88
253.818	94.88
254.288	88.88
254.757	90.88
255.227	98.88
255.696	90.88
256.166	94.88
256.635	90.88
257.105	84.88
257.574	98.88
258.043	82.88
258.513	96.88
258.982	84.88
259.451	97.88
259.92	92.88
260.389	106.88
260.859	100.88
261.328	85.88
261.797	92.88
262.266	98.88
262.735	79.88
263.204	65.88
263.673	100.88
264.142	108.88
264.611	88.88
265.08	100.88
265.549	87.88
266.018	94.88
266.487	96.88
266.955	103.88
267.424	95.88
267.893	95.88
268.362	93.88
268.83	85.88
269.299	109.88
269.768	82.88
270.236	94.88
270.705	97.88
271.174	108.88
271.642	102.88
272.111	98.88
272.579	106.88
273.048	95.88
273.516	94.88
273.985	91.88
274.453	104.88
274.922	112.88
275.39	97.88
275.858	97.88
276.327	97.88
276.795	108.88
277.263	113.88
277.731	118.88
278.2	101.88
278.668	98.88
279.136	93.88
279.604	83.88
280.072	117.88
280.54	101.88
281.008	113.88
281.477	100.88
281.945	106.88
282.413	108.88
282.881	101.88
283.348	136.88
283.816	92.88
284.284	107.88
284.752	109.88
285.22	112.88
285.688	108.88
286.156	106.88
286.623	108.88
287.091	92.88
287.559	111.88
288.026	105.88
288.494	121.88
288.962	107.88
289.429	112.88
289.897	106.88
290.364	100.88
290.832	109.88
291.3	101.88
291.767	124.88
292.234	106.88
292.702	116.88
293.169	113.88
293.637	130.88
294.104	117.88
294.571	118.88
295.039	136.88
295.506	111.88
295.973	110.88
296.44	122.88
296.908	111.88
297.375	102.88
297.842	117.88
298.309	118.88
298.776	111.88
299.243	123.88
299.71	107.88
300.177	114.88
300.644	122.88
301.111	126.88
301.578	120.88
302.045	120.88
302.512	151.88
302.979	116.88
303.446	139.88
303.913	106.88
304.379	110.88
304.846	114.88
305.313	132.88
305.78	127.88
306.246	138.88
306.713	122.88
307.18	133.88
307.646	138.88
308.113	128.88
308.579	134.88
309.046	131.88
309.512	133.88
309.979	148.88
310.445	137.88
310.912	135.88
311.378	136.88
311.845	137.88
312.311	153.88
312.777	150.88
313.244	137.88
313.71	142.88
314.176	154.88
314.642	137.88
315.109	132.88
315.575	141.88
316.041	125.88
316.507	142.88
316.973	151.88
317.439	157.88
317.905	129.88
318.371	142.88
318.837	134.88
319.303	152.88
319.769	148.88
320.235	134.88
320.701	148.88
321.167	153.88
321.633	150.88
322.099	158.88
322.564	160.88
323.03	147.88
323.496	137.88
323.962	153.88
324.427	164.88
324.893	152.88
325.359	155.88
325.824	167.88
326.29	143.88
326.755	164.88
327.221	162.88
327.686	159.88
328.152	145.88
328.617	168.88
329.083	157.88
329.548	175.88
330.014	174.88
330.479	164.88
330.944	164.88
331.41	183.88
331.875	152.88
332.34	166.88
332.805	154.88
333.271	168.88
333.736	181.88
334.201	158.88
334.666	168.88
335.131	181.88
335.596	183.88
336.061	177.88
336.526	173.88
336.991	164.88
337.456	166.88
337.921	172.88
338.386	160.88
338.851	178.88
339.316	182.88
339.781	179.88
340.246	187.88
340.711	175.88
341.175	181.88
341.64	173.88
342.105	172.88
342.569	194.88
343.034	180.88
343.499	170.88
343.963	188.88
344.428	174.88
344.893	203.88
345.357	184.88
345.822	174.88
346.286	205.88
346.751	200.88
347.215	199.88
347.679	184.88
348.144	197.88
348.608	189.88
349.073	201.88
349.537	214.88
350.001	210.88
350.465	201.88
350.93	204.88
351.394	217.88
351.858	235.88
352.322	204.88
352.786	230.88
353.25	210.88
353.715	236.88
354.179	223.88
354.643	250.88
355.107	235.88
355.571	221.88
356.035	230.88
356.498	224.88
356.962	214.88
357.426	229.88
357.89	238.88
358.354	247.88
358.818	244.88
359.281	235.88
359.745	226.88
360.209	222.88
360.673	219.88
361.136	214.88
361.6	219.88
362.064	231.88
362.527	245.88
362.991	242.88
363.454	259.88
363.918	225.88
364.381	246.88
364.845	232.88
365.308	232.88
365.772	217.88
366.235	228.88
366.698	229.88
367.162	228.88
367.625	256.88
368.088	248.88
368.552	248.88
369.015	251.88
369.478	272.88
369.941	253.88
370.404	262.88
370.867	261.88
371.331	252.88
371.794	269.88
372.257	254.88
372.72	262.88
373.183	241.88
373.646	248.88
374.109	260.88
374.572	243.88
375.035	263.88
375.497	259.88
375.96	262.88
376.423	265.88
376.886	287.88
377.349	260.88
377.811	274.88
378.274	285.88
378.737	278.88
379.199	285.88
379.662	305.88
380.125	277.88
380.587	288.88
381.05	280.88
381.512	299.88
381.975	312.88
382.437	288.88
382.9	292.88
383.362	304.88
383.825	282.88
384.287	281.88
384.75	282.88
385.212	282.88
385.674	301.88
386.136	291.88
386.599	294.88
387.061	316.88
387.523	328.88
387.985	288.88
388.447	307.88
388.91	334.88
389.372	317.88
389.834	318.88
390.296	312.88
390.758	325.88
391.22	325.88
391.682	327.88
392.144	303.88
392.606	321.88
393.068	315.88
393.529	354.88
393.991	358.88
394.453	348.88
394.915	346.88
395.377	330.88
395.838	327.88
396.3	325.88
396.762	334.88
397.224	324.88
397.685	328.88
398.147	324.88
398.608	335.88
399.07	346.88
399.531	341.88
399.993	350.88
400.454	367.88
400.916	351.88
401.377	362.88
401.839	379.88
402.3	358.88
402.762	351.88
403.223	378.88
403.684	415.88
404.145	366.88
404.607	395.88
405.068	373.88
405.529	364.88
405.99	381.88
406.451	368.88
406.913	390.88
407.374	374.88
407.835	366.88
408.296	417.88
408.757	403.88
409.218	382.88
409.679	394.88
410.14	420.88
410.601	428.88
411.062	411.88
411.522	415.88
411.983	411.88
412.444	405.88
412.905	427.88
413.366	433.88
413.826	440.88
414.287	484.88
414.748	568.88
415.208	608.88
415.669	514.88
416.13	455.88
416.59	459.88
417.051	480.88
417.511	489.88
417.972	506.88
418.432	556.88
418.893	583.88
419.353	581.88
419.814	487.88
420.274	424.88
420.734	421.88
421.195	424.88
421.655	430.88
422.115	439.88
422.576	431.88
423.036	412.88
423.496	466.88
423.956	452.88
424.416	494.88
424.876	559.88
425.336	548.88
425.797	542.88
426.257	547.88
426.717	495.88
427.177	479.88
427.637	486.88
428.097	510.88
428.556	523.88
429.016	558.88
429.476	542.88
429.936	545.88
430.396	531.88
430.856	558.88
431.315	573.88
431.775	603.88
432.235	674.88
432.694	657.88
433.154	614.88
433.614	612.88
434.073	572.88
434.533	554.88
434.993	515.88
435.452	493.88
435.912	510.88
436.371	490.88
436.83	507.88
437.29	488.88
437.749	472.88
438.209	451.88
438.668	480.88
439.127	492.88
439.587	498.88
440.046	449.88
440.505	485.88
440.964	473.88
441.424	501.88
441.883	490.88
442.342	488.88
442.801	475.88
443.26	445.88
443.719	469.88
444.178	481.88
444.637	491.88
445.096	472.88
445.555	481.88
446.014	486.88
446.473	486.88
446.932	484.88
447.391	483.88
447.849	517.88
448.308	485.88
448.767	482.88
449.226	468.88
449.685	494.88
450.143	522.88
450.602	516.88
451.061	510.88
451.519	495.88
451.978	504.88
452.436	506.88
452.895	474.88
453.353	514.88
453.812	490.88
454.27	493.88
454.729	513.88
455.187	515.88
455.646	487.88
456.104	501.88
456.562	514.88
457.021	485.88
457.479	488.88
457.937	495.88
458.395	532.88
458.854	527.88
459.312	509.88
459.77	508.88
460.228	528.88
460.686	528.88
461.144	525.88
461.602	518.88
462.06	523.88
462.518	518.88
462.976	536.88
463.434	532.88
463.892	516.88
464.35	558.88
464.808	540.88
465.266	551.88
465.724	560.88
466.181	588.88
466.639	544.88
467.097	568.88
467.555	610.88
468.012	594.88
468.47	612.88
468.928	623.88
469.385	617.88
469.843	647.88
470.3	624.88
470.758	672.88
471.215	647.88
471.673	671.88
472.13	691.88
472.588	708.88
473.045	700.88
473.503	690.88
473.96	762.88
474.417	750.88
474.875	762.88
475.332	804.88
475.789	840.88
476.246	870.88
476.704	863.88
477.161	929.88
477.618	905.88
478.075	983.88
478.532	1044.88
478.989	1113.88
479.446	1222.88
479.903	1233.88
480.36	1326.88
480.817	1426.88
481.274	1528.88
481.731	1657.88
482.188	1743.88
482.645	1896.88
483.102	2024.88
483.558	2119.88
484.015	2206.88
484.472	2243.88
484.929	2149.88
485.385	2096.88
485.842	2020.88
486.299	1971.88
486.755	1844.88
487.212	1650.88
487.668	1485.88
488.125	1415.88
488.582	1298.88
489.038	1243.88
489.494	1193.88
489.951	1185.88
490.407	1164.88
490.864	1107.88
491.32	1115.88
491.776	1124.88
492.233	1122.88
492.689	1077.88
493.145	1063.88
493.602	1045.88
494.058	1059.88
494.514	1082.88
494.97	1052.88
495.426	1092.88
495.882	1090.88
496.338	1090.88
496.794	1094.88
497.251	1077.88
497.707	1097.88
498.163	1074.88
498.618	1079.88
499.074	1058.88
499.53	1064.88
499.986	1095.88
500.442	1140.88
500.898	1089.88
501.354	1095.88
501.809	1112.88
502.265	1078.88
502.721	1089.88
503.177	1129.88
503.632	1147.88
504.088	1117.88
504.543	1124.88
504.999	1145.88
505.455	1129.88
505.91	1135.88
506.366	1120.88
506.821	1116.88
507.277	1114.88
507.732	1124.88
508.187	1108.88
508.643	1115.88
509.098	1130.88
509.553	1128.88
510.009	1149.88
510.464	1181.88
510.919	1198.88
511.375	1183.88
511.83	1213.88
512.285	1207.88
512.74	1238.88
513.195	1275.88
513.65	1276.88
514.105	1296.88
514.56	1286.88
515.015	1311.88
515.47	1311.88
515.925	1336.88
516.38	1335.88
516.835	1308.88
517.29	1345.88
517.745	1316.88
518.2	1286.88
518.655	1278.88
519.109	1270.88
519.564	1239.88
520.019	1245.88
520.474	1239.88
520.928	1247.88
521.383	1278.88
521.838	1238.88
522.292	1222.88
522.747	1218.88
523.201	1189.88
523.656	1194.88
524.11	1172.88
524.565	1168.88
525.019	1190.88
525.474	1184.88
525.928	1192.88
526.382	1166.88
526.837	1152.88
527.291	1188.88
527.745	1176.88
528.2	1184.88
528.654	1184.88
529.108	1126.88
529.562	1135.88
530.016	1172.88
530.47	1170.88
530.925	1145.88
531.379	1168.88
531.833	1179.88
532.287	1180.88
532.741	1172.88
533.195	1197.88
533.649	1181.88
534.103	1205.88
534.556	1160.88
535.01	1146.88
535.464	1174.88
535.918	1151.88
536.372	1158.88
536.826	1214.88
537.279	1179.88
537.733	1178.88
538.187	1178.88
538.64	1163.88
539.094	1203.88
539.548	1194.88
540.001	1183.88
540.455	1192.88
540.908	1178.88
541.362	1181.88
541.815	1215.88
542.269	1275.88
542.722	1285.88
543.175	1244.88
543.629	1241.88
544.082	1300.88
544.536	1343.88
544.989	1265.88
545.442	1307.88
545.895	1304.88
546.349	1298.88
546.802	1285.88
547.255	1302.88
547.708	1340.88
548.161	1290.88
548.614	1303.88
549.067	1364.88
549.52	1285.88
549.973	1304.88
550.426	1309.88
550.879	1279.88
551.332	1272.88
551.785	1274.88
552.238	1327.88
552.691	1315.88
553.144	1369.88
553.596	1322.88
554.049	1380.88
554.502	1424.88
554.955	1403.88
555.407	1430.88
555.86	1404.88
556.313	1394.88
556.765	1390.88
557.218	1400.88
557.67	1396.88
558.123	1364.88
558.576	1362.88
559.028	1379.88
559.48	1337.88
559.933	1335.88
560.385	1297.88
560.838	1285.88
561.29	1290.88
561.742	1259.88
562.195	1227.88
562.647	1199.88
563.099	1207.88
563.551	1199.88
564.004	1242.88
564.456	1215.88
564.908	1184.88
565.36	1176.88
565.812	1168.88
566.264	1117.88
566.716	1127.88
567.168	1118.88
567.62	1124.88
568.072	1080.88
568.524	1074.88
568.976	1079.88
569.428	1056.88
569.88	1077.88
570.332	1111.88
570.784	1103.88
571.235	1089.88
571.687	1097.88
572.139	1089.88
572.59	1097.88
573.042	1099.88
573.494	1113.88
573.945	1101.88
574.397	1071.88
574.849	1054.88
575.3	1090.88
575.752	1037.88
576.203	1050.88
576.655	1038.88
577.106	1028.88
577.557	1020.88
578.009	1030.88
578.46	1023.88
578.912	1034.88
579.363	1012.88
579.814	1012.88
580.265	1022.88
580.717	1041.88
581.168	1028.88
581.619	1031.88
582.07	1026.88
582.521	1029.88
582.972	1022.88
583.423	1015.88
583.875	1032.88
584.326	1058.88
584.777	1044.88
585.227	1072.88
585.678	1103.88
586.129	1077.88
586.58	1122.88
587.031	1086.88
587.482	1154.88
587.933	1183.88
588.384	1164.88
588.834	1142.88
589.285	1160.88
589.736	1140.88
590.186	1142.88
590.637	1140.88
591.088	1122.88
591.538	1074.88
591.989	1072.88
592.439	1089.88
592.89	1025.88
593.34	1053.88
593.791	1044.88
594.241	1018.88
594.692	1046.88
595.142	1052.88
595.593	1028.88
596.043	1043.88
596.493	1067.88
596.943	1052.88
597.394	1088.88
597.844	1084.88
598.294	1092.88
598.744	1168.88
599.195	1175.88
599.645	1199.88
600.095	1285.88
600.545	1353.88
600.995	1412.88
601.445	1462.88
601.895	1510.88
602.345	1564.88
602.795	1562.88
603.245	1542.88
603.695	1447.88
604.145	1401.88
604.594	1337.88
605.044	1238.88
605.494	1160.88
605.944	1128.88
606.393	1068.88
606.843	1082.88
607.293	1058.88
607.743	1052.88
608.192	1077.88
608.642	1042.88
609.091	1045.88
609.541	1060.88
609.99	1081.88
610.44	1066.88
610.889	1042.88
611.339	1013.88
611.788	1020.88
612.238	1022.88
612.687	1003.88
613.136	1025.88
613.586	1024.88
614.035	1023.88
614.484	1029.88
614.933	1050.88
615.383	1006.88
615.832	996.88
616.281	999.88
616.73	985.88
617.179	942.88
617.628	953.88
618.077	955.88
618.526	916.88
618.975	908.88
619.424	873.88
619.873	898.88
620.322	900.88
620.771	888.88
621.22	855.88
621.669	866.88
622.118	825.88
622.567	831.88
623.015	796.88
623.464	824.88
623.913	812.88
624.361	794.88
624.81	807.88
625.259	768.88
625.707	804.88
626.156	804.88
626.604	788.88
627.053	819.88
627.501	815.88
627.95	805.88
628.398	840.88
628.847	823.88
629.295	820.88
629.744	823.88
630.192	798.88
630.64	807.88
631.089	806.88
631.537	792.88
631.985	782.88
632.433	773.88
632.881	760.88
633.33	766.88
633.778	759.88
634.226	756.88
634.674	767.88
635.122	789.88
635.57	784.88
636.018	808.88
636.466	775.88
636.914	786.88
637.362	790.88
637.81	807.88
638.258	846.88
638.705	824.88
639.153	892.88
639.601	888.88
640.049	868.88
640.497	921.88
640.944	965.88
641.392	953.88
641.84	873.88
642.287	820.88
642.735	821.88
643.182	816.88
643.63	772.88
644.078	803.88
644.525	858.88
644.973	852.88
645.42	828.88
645.867	868.88
646.315	883.88
646.762	945.88
647.21	964.88
647.657	994.88
648.104	998.88
648.551	1021.88
648.999	1126.88
649.446	1167.88
649.893	1333.88
650.34	1479.88
650.787	1822.88
651.234	2223.88
651.682	2899.88
652.129	3967.88
652.576	5758.88
653.023	7933.88
653.47	9626.88
653.917	10836.88
654.363	11434.88
654.81	12183.88
655.257	12778.88
655.704	9688.88
656.151	5937.88
656.598	3741.88
657.044	2704.88
657.491	2118.88
657.938	1732.88
658.385	1414.88
658.831	1278.88
659.278	1160.88
659.724	1062.88
660.171	1012.88
660.618	942.88
661.064	843.88
661.511	842.88
661.957	810.88
662.404	802.88
662.85	813.88
663.296	778.88
663.743	740.88
664.189	752.88
664.635	728.88
665.082	722.88
665.528	737.88
665.974	740.88
666.42	677.88
666.867	704.88
667.313	656.88
667.759	685.88
668.205	660.88
668.651	629.88
669.097	651.88
669.543	679.88
669.989	645.88
670.435	672.88
670.881	672.88
671.327	677.88
671.773	707.88
672.219	749.88
672.665	831.88
673.11	861.88
673.556	838.88
674.002	894.88
674.448	879.88
674.893	814.88
675.339	706.88
675.785	652.88
676.23	626.88
676.676	585.88
677.122	556.88
677.567	545.88
678.013	564.88
678.458	543.88
678.904	538.88
679.349	532.88
679.794	544.88
680.24	517.88
680.685	519.88
681.131	529.88
681.576	525.88
682.021	514.88
682.466	542.88
682.912	542.88
683.357	562.88
683.802	603.88
684.247	630.88
684.692	662.88
685.137	697.88
685.583	703.88
686.028	749.88
686.473	740.88
686.918	660.88
687.363	608.88
687.807	542.88
688.252	564.88
688.697	510.88
689.142	515.88
689.587	494.88
690.032	510.88
690.477	545.88
690.921	536.88
691.366	574.88
691.811	585.88
692.255	636.88
692.7	702.88
693.145	904.88
693.589	1334.88
694.034	1682.88
694.478	1939.88
694.923	1804.88
695.367	2123.88
695.812	2034.88
696.256	865.88
696.701	578.88
697.145	525.88
697.59	488.88
698.034	483.88
698.478	507.88
698.922	505.88
699.367	509.88
699.811	521.88
700.255	538.88
700.699	599.88
701.143	625.88
701.588	667.88
702.032	706.88
702.476	726.88
702.92	724.88
703.364	857.88
703.808	1224.88
704.252	1615.88
704.696	1867.88
705.14	1773.88
705.584	2140.88
706.027	1774.88
706.471	876.88
706.915	628.88
707.359	519.88
707.803	515.88
708.246	486.88
708.69	488.88
709.134	448.88
709.577	469.88
710.021	472.88
710.465	478.88
710.908	446.88
711.352	484.88
711.795	524.88
712.239	531.88
712.682	583.88
713.126	548.88
713.569	601.88
714.012	562.88
714.456	466.88
714.899	436.88
715.342	404.88
715.786	420.88
716.229	419.88
716.672	411.88
717.115	357.88
717.558	394.88
718.002	404.88
718.445	404.88
718.888	423.88
719.331	426.88
719.774	453.88
720.217	454.88
720.66	440.88
721.103	417.88
721.546	408.88
721.989	389.88
722.432	390.88
722.874	369.88
723.317	400.88
723.76	392.88
724.203	445.88
724.645	566.88
725.088	703.88
725.531	697.88
725.974	709.88
726.416	764.88
726.859	498.88
727.301	409.88
727.744	370.88
728.187	372.88
728.629	385.88
729.071	387.88
729.514	396.88
729.956	438.88
730.399	429.88
730.841	426.88
731.283	456.88
731.726	419.88
732.168	406.88
732.61	413.88
733.053	461.88
733.495	502.88
733.937	532.88
734.379	613.88
734.821	706.88
735.263	964.88
735.705	1602.88
736.148	2622.88
736.59	3038.88
737.032	2844.88
737.474	3104.88
737.916	1534.88
738.357	732.88
738.799	528.88
739.241	495.88
739.683	470.88
740.125	476.88
740.567	475.88
741.008	514.88
741.45	546.88
741.892	522.88
742.334	555.88
742.775	555.88
743.217	571.88
743.658	476.88
744.1	456.88
744.542	496.88
744.983	544.88
745.425	548.88
745.866	607.88
746.307	532.88
746.749	514.88
747.19	584.88
747.632	956.88
748.073	1770.88
748.514	2773.88
748.956	3335.88
749.397	4578.88
749.838	3619.88
750.279	3025.88
750.72	2316.88
751.162	1038.88
751.603	572.88
752.044	413.88
752.485	361.88
752.926	353.88
753.367	340.88
753.808	326.88
754.249	330.88
754.69	320.88
755.131	307.88
755.572	329.88
756.013	322.88
756.453	324.88
756.894	320.88
757.335	327.88
757.776	320.88
758.216	350.88
758.657	355.88
759.098	352.88
759.538	414.88
759.979	522.88
760.42	781.88
760.86	1730.88
761.301	4030.88
761.741	5982.88
762.182	6189.88
762.622	5869.88
763.063	2714.88
763.503	1093.88
763.943	578.88
764.384	422.88
764.824	387.88
765.264	365.88
765.705	350.88
766.145	316.88
766.585	300.88
767.025	315.88
767.465	309.88
767.906	308.88
768.346	304.88
768.786	334.88
769.226	420.88
769.666	665.88
770.106	1387.88
770.546	2410.88
770.986	2592.88
771.426	2558.88
771.866	1438.88
772.306	673.88
772.745	396.88
773.185	320.88
773.625	292.88
774.065	318.88
774.505	367.88
774.944	530.88
775.384	840.88
775.824	952.88
776.263	959.88
776.703	696.88
777.142	399.88
777.582	291.88
778.021	240.88
778.461	257.88
778.9	233.88
779.34	239.88
779.779	240.88
780.219	242.88
780.658	241.88
781.097	228.88
781.537	209.88
781.976	204.88
782.415	220.88
782.855	200.88
783.294	205.88
783.733	223.88
784.172	202.88
784.611	239.88
785.05	239.88
785.489	216.88
785.928	213.88
786.367	220.88
786.806	253.88
787.245	241.88
787.684	280.88
788.123	259.88
788.562	269.88
789.001	227.88
789.44	264.88
789.879	238.88
790.317	234.88
790.756	256.88
791.195	252.88
791.634	299.88
792.072	418.88
792.511	833.88
792.95	1818.88
793.388	2290.88
793.827	2084.88
794.265	1216.88
794.704	623.88
795.142	343.88
795.581	267.88
796.019	264.88
796.458	247.88
796.896	245.88
797.334	272.88
797.773	322.88
798.211	458.88
798.649	882.88
799.087	1461.88
799.526	2228.88
799.964	2548.88
800.402	2141.88
800.84	1253.88
801.278	646.88
801.716	370.88
802.154	293.88
802.592	278.88
803.03	254.88
803.468	267.88
803.906	273.88
804.344	282.88
804.782	264.88
805.22	276.88
805.658	261.88
806.096	261.88
806.533	289.88
806.971	358.88
807.409	436.88
807.847	678.88
808.284	1498.88
808.722	3016.88
809.16	4120.88
809.597	5740.88
810.035	7424.88
810.472	6320.88
810.91	3504.88
811.347	1708.88
811.785	813.88
812.222	479.88
812.66	348.88
813.097	309.88
813.535	276.88
813.972	258.88
814.409	236.88
814.846	244.88
815.284	228.88
815.721	232.88
816.158	233.88
816.595	269.88
817.032	340.88
817.47	347.88
817.907	302.88
818.344	253.88
818.781	237.88
819.218	266.88
819.655	320.88
820.092	426.88
820.529	455.88
820.966	384.88
821.403	322.88
821.839	241.88
822.276	270.88
822.713	286.88
823.15	307.88
823.587	287.88
824.023	337.88
824.46	695.88
824.897	1307.88
825.333	1424.88
825.77	837.88
826.206	512.88
826.643	314.88
827.08	214.88
827.516	216.88
827.953	195.88
828.389	188.88
828.825	191.88
829.262	187.88
829.698	154.88
830.135	160.88
830.571	156.88
831.007	171.88
831.443	137.88
831.88	165.88
832.316	158.88
832.752	178.88
833.188	169.88
833.624	175.88
834.06	170.88
834.497	176.88
834.933	194.88
835.369	181.88
835.805	193.88
836.241	180.88
836.677	197.88
837.112	203.88
837.548	240.88
837.984	296.88
838.42	459.88
838.856	1130.88
839.292	2249.88
839.727	2523.88
840.163	1658.88
840.599	1965.88
841.034	2881.88
841.47	2297.88
841.906	1276.88
842.341	729.88
842.777	486.88
843.212	421.88
843.648	349.88
844.083	283.88
844.519	215.88
844.954	188.88
845.39	160.88
845.825	170.88
846.261	161.88
846.696	159.88
847.131	157.88
847.566	161.88
848.002	137.88
848.437	158.88
848.872	160.88
849.307	184.88
849.742	224.88
850.177	411.88
850.613	871.88
851.048	949.88
851.483	513.88
851.918	354.88
852.353	220.88
852.788	180.88
853.223	156.88
853.657	143.88
854.092	166.88
854.527	157.88
854.962	138.88
855.397	162.88
855.832	150.88
856.266	128.88
856.701	167.88
857.136	150.88
857.57	133.88
858.005	152.88
858.44	159.88
858.874	152.88
859.309	142.88
859.743	142.88
860.178	158.88
860.612	148.88
861.047	156.88
861.481	213.88
861.915	158.88
862.35	160.88
862.784	158.88
863.218	113.88
863.653	141.88
864.087	148.88
864.521	154.88
864.955	202.88
865.39	287.88
865.824	279.88
866.258	294.88
866.692	418.88
867.126	388.88
867.56	288.88
867.994	199.88
868.428	182.88
868.862	190.88
869.296	158.88
869.73	177.88
870.164	169.88
870.598	176.88
871.031	151.88
871.465	164.88
871.899	116.88
872.333	118.88
872.766	147.88
873.2	141.88
873.634	124.88
874.067	107.88
874.501	123.88
874.935	117.88
875.368	134.88
875.802	121.88
876.235	102.88
876.669	100.88
877.102	114.88
877.535	109.88
877.969	115.88
878.402	98.88
878.836	116.88
879.269	117.88
879.702	116.88
880.135	94.88
880.569	106.88
881.002	108.88
881.435	119.88
881.868	113.88
882.301	116.88
882.734	117.88
883.167	101.88
883.601	132.88
884.034	117.88
884.467	109.88
884.899	120.88
885.332	101.88
885.765	104.88
886.198	92.88
886.631	106.88
887.064	110.88
887.497	111.88
887.929	105.88
888.362	108.88
888.795	97.88
889.228	108.88
889.66	98.88
890.093	102.88
890.526	94.88
890.958	107.88
891.391	98.88
891.823	98.88
892.256	104.88
892.688	106.88
893.121	101.88
893.553	109.88
893.985	107.88
894.418	103.88
894.85	115.88
895.282	98.88
895.715	99.88
896.147	97.88
896.579	99.88
897.011	109.88
897.444	100.88
897.876	98.88
898.308	100.88
898.74	88.88
899.172	110.88
899.604	103.88
900.036	100.88
900.468	107.88
900.9	100.88
901.332	99.88
901.764	127.88
902.196	107.88
902.628	120.88
903.06	118.88
903.491	121.88
903.923	126.88
904.355	108.88
904.787	116.88
905.218	116.88
905.65	105.88
906.082	116.88
906.513	112.88
906.945	107.88
907.376	110.88
907.808	98.88
908.239	105.88
908.671	100.88
909.102	112.88
909.534	125.88
909.965	165.88
910.397	250.88
910.828	522.88
911.259	608.88
911.691	393.88
912.122	299.88
912.553	187.88
912.984	123.88
913.415	116.88
913.847	96.88
914.278	126.88
914.709	118.88
915.14	97.88
915.571	101.88
916.002	111.88
916.433	107.88
916.864	114.88
917.295	116.88
917.726	109.88
918.157	110.88
918.587	110.88
919.018	109.88
919.449	116.88
919.88	105.88
920.311	142.88
920.741	176.88
921.172	299.88
921.603	249.88
922.033	188.88
922.464	168.88
922.895	134.88
923.325	106.88
923.756	96.88
924.186	107.88
924.617	113.88
925.047	119.88
925.478	127.88
925.908	128.88
926.338	108.88
926.769	109.88
927.199	110.88
927.629	100.88
928.06	103.88
928.49	101.88
928.92	100.88
929.35	94.88
929.78	96.88
930.21	100.88
930.641	72.88
931.071	95.88
931.501	80.88
931.931	107.88
932.361	99.88
932.791	86.88
933.221	100.88
933.651	96.88
934.08	117.88
934.51	86.88
934.94	100.88
935.37	100.88
935.8	90.88
936.229	89.88
936.659	95.88
937.089	91.88
937.519	100.88
937.948	114.88
938.378	116.88
938.807	105.88
939.237	91.88
939.666	89.88
940.096	90.88
940.525	82.88
940.955	71.88
941.384	79.88
941.814	97.88
942.243	80.88
942.672	98.88
943.102	93.88
943.531	86.88
943.96	83.88
944.39	88.88
944.819	88.88
945.248	107.88
945.677	88.88
946.106	89.88
946.535	85.88
946.964	86.88
947.393	76.88
947.822	83.88
948.251	89.88
948.68	84.88
949.109	87.88
949.538	83.88
949.967	100.88
950.396	75.88
950.825	108.88
951.254	81.88
951.682	98.88
952.111	89.88
952.54	96.88
952.969	95.88
953.397	82.88
953.826	101.88
954.254	82.88
954.683	86.88
955.112	82.88
955.54	93.88
955.969	73.88
956.397	89.88
956.826	80.88
957.254	86.88
957.682	82.88
958.111	69.88
958.539	67.88
958.967	94.88
959.396	78.88
959.824	97.88
960.252	81.88
960.68	75.88
961.109	77.88
961.537	96.88
961.965	82.88
962.393	97.88
962.821	80.88
963.249	89.88
963.677	73.88
964.105	89.88
964.533	138.88
964.961	112.88
965.389	118.88
965.817	109.88
966.245	110.88
966.672	102.88
967.1	86.88
967.528	91.88
967.956	76.88
968.383	90.88
968.811	86.88
969.239	92.88
969.666	82.88
970.094	94.88
970.522	99.88
970.949	81.88
971.377	72.88
971.804	84.88
972.232	94.88
972.659	88.88
973.087	84.88
973.514	91.88
973.941	82.88
974.369	81.88
974.796	87.88
975.223	110.88
975.651	85.88
976.078	70.88
976.505	76.88
976.932	90.88
977.359	98.88
977.786	100.88
978.214	100.88
978.641	93.88
979.068	89.88
979.495	81.88
979.922	72.88
980.349	94.88
980.776	64.88
981.202	76.88
981.629	76.88
982.056	86.88
982.483	92.88
982.91	70.88
983.337	86.88
983.763	73.88
984.19	88.88
984.617	84.88
985.043	83.88
985.47	69.88
985.897	84.88
986.323	88.88
986.75	78.88
987.176	89.88
987.603	76.88
988.029	87.88
988.456	89.88
988.882	109.88
989.308	89.88
989.735	72.88
990.161	90.88
990.587	71.88
991.014	82.88
991.44	85.88
991.866	74.88
992.292	92.88
992.719	89.88
993.145	82.88
993.571	94.88
993.997	90.88
994.423	71.88
994.849	78.88
995.275	77.88
995.701	83.88
996.127	84.88
996.553	89.88
996.979	77.88
997.405	72.88
997.83	96.88
998.256	81.88
998.682	87.88
999.108	78.88
999.534	88.88
999.959	81.88
1000.385	73.88
1000.811	86.88
1001.236	86.88
1001.662	87.88
1002.087	94.88
1002.513	84.88
1002.938	80.88
1003.364	83.88
1003.789	83.88
1004.215	77.88
1004.64	86.88
1005.066	75.88
1005.491	96.88
1005.916	80.88
1006.342	76.88
1006.767	66.88
1007.192	66.88
1007.617	76.88
1008.042	82.88
1008.468	96.88
1008.893	97.88
1009.318	69.88
1009.743	98.88
1010.168	93.88
1010.593	94.88
1011.018	84.88
1011.443	92.88
1011.868	93.88
1012.293	87.88
1012.718	86.88
1013.143	83.88
1013.567	86.88
1013.992	78.88
1014.417	103.88
1014.842	87.88
1015.267	95.88
1015.691	77.88
1016.116	69.88
1016.541	86.88
1016.965	85.88
1017.39	90.88
1017.814	87.88
1018.239	79.88
1018.663	91.88
1019.088	78.88
1019.512	80.88
1019.937	72.88
1020.361	61.88
1020.785	68.88
1021.21	76.88
1021.634	79.88
1022.058	73.88
1022.483	65.88
1022.907	90.88
1023.331	88.88
1023.755	76.88
1024.179	72.88
1024.604	73.88
1025.028	84.88
1025.452	66.88
1025.876	93.88
1026.3	68.88
1026.724	69.88
1027.148	96.88
1027.572	81.88
1027.996	96.88
1028.42	87.88
1028.843	87.88
1029.267	93.88
1029.691	84.88
1030.115	75.88
1030.539	86.88
1030.962	77.88
1031.386	87.88
1031.81	79.88
1032.233	66.88
1032.657	72.88
1033.08	75.88
1033.504	82.88
1033.927	72.88
1034.351	82.88
1034.774	77.88
1035.198	75.88
1035.621	68.88
1036.045	80.88
1036.468	82.88
1036.891	76.88
1037.315	82.88
1037.738	57.88
1038.161	75.88
1038.584	78.88
1039.008	68.88
1039.431	93.88
1039.854	83.88
1040.277	88.88
1040.7	90.88
1041.123	72.88
1041.546	87.88
1041.969	94.88
1042.392	85.88
1042.815	66.88
1043.238	80.88
1043.661	77.88
1044.084	83.88
1044.507	77.88
1044.93	95.88
1045.352	66.88
1045.775	83.88
1046.198	73.88
1046.621	82.88
1047.043	84.88
1047.466	80.88
1047.889	84.88
1048.311	82.88
1048.734	82.88
1049.156	84.88
1049.579	89.88
1050.001	76.88
1050.424	58.88
1050.846	92.88
1051.269	86.88
1051.691	80.88
1052.113	87.88
1052.536	84.88
1052.958	85.88
1053.38	78.88
1053.802	77.88
1054.225	72.88
1054.647	79.88
1055.069	67.88
1055.491	76.88
1055.913	77.88
1056.335	90.88
1056.757	77.88
1057.179	74.88
1057.601	72.88
1058.023	83.88
1058.445	90.88
1058.867	78.88
1059.289	83.88
1059.711	66.88
1060.133	72.88
1060.555	84.88
1060.976	96.88
1061.398	73.88
1061.82	87.88
1062.241	95.88
1062.663	68.88
1063.085	62.88
1063.506	79.88
1063.928	84.88
1064.35	81.88
1064.771	87.88
1065.193	72.88
1065.614	81.88
1066.035	85.88
1066.457	96.88
1066.878	84.88
1067.3	76.88
1067.721	71.88
1068.142	71.88
1068.564	80.88
1068.985	90.88
1069.406	75.88
1069.827	68.88
1070.248	88.88
1070.67	67.88
1071.091	84.88
1071.512	68.88
1071.933	92.88
1072.354	88.88
1072.775	90.88
1073.196	82.88
1073.617	62.88
1074.038	74.88
1074.459	82.88
1074.88	68.88
1075.3	73.88
1075.721	77.88
1076.142	88.88
1076.563	78.88
1076.983	82.88
1077.404	96.88
1077.825	89.88
1078.246	86.88
1078.666	79.88
1079.087	85.88
1079.507	73.88
1079.928	74.88
1080.348	66.88
1080.769	73.88
1081.189	92.88
1081.61	72.88
1082.03	75.88
1082.451	72.88
1082.871	97.88
1083.291	88.88
1083.711	76.88
1084.132	86.88
1084.552	69.88
1084.972	88.88
1085.392	78.88
1085.813	82.88
1086.233	75.88
1086.653	69.88
1087.073	93.88
1087.493	74.88
1087.913	97.88
1088.333	93.88
1088.753	92.88
1089.173	73.88
1089.593	97.88
1090.013	92.88
1090.433	77.88
1090.852	73.88
1091.272	86.88
1091.692	77.88
1092.112	75.88
1092.531	80.88
1092.951	88.88
1093.371	69.88
1093.79	85.88
1094.21	90.88
1094.63	82.88
1095.049	68.88
1095.469	79.88
1095.888	69.88
1096.308	82.88
1096.727	86.88
1097.146	73.88
1097.566	75.88
1097.985	66.88
1098.405	66.88
1098.824	75.88
1099.243	84.88
1099.662	70.88
1100.082	76.88
1100.501	73.88
1100.92	67.88
1101.339	73.88
1101.758	84.88
