Data from 20170802-ORNL-NYSim-Air_HRD10391_10-36-49-621.txt Node
Date: Wed Aug 02 10:36:49 EDT 2017
User: Ender
Spectrometer: HR+D1039
Trigger mode: 0
Integration Time (sec): 1.510000E-3
Scans to average: 1
Electric dark correction enabled: true
Nonlinearity correction enabled: false
Boxcar width: 0
XAxis mode: Wavelengths
Number of Pixels in Spectrum: 2048
>>>>>Begin Spectral Data<<<<<
187.836	23.88
188.309	23.88
188.782	23.88
189.255	-15.12
189.728	-2.12
190.201	-5.12
190.674	-16.12
191.147	-4.12
191.619	-16.12
192.092	-9.12
192.565	3.88
193.038	5.88
193.511	-11.12
193.984	-0.12
194.456	1.88
194.929	12.88
195.402	13.88
195.874	16.88
196.347	25.88
196.82	23.88
197.292	37.88
197.765	24.88
198.237	34.88
198.71	42.88
199.182	49.88
199.655	44.88
200.127	45.88
200.6	48.88
201.072	47.88
201.544	59.88
202.017	57.88
202.489	76.88
202.961	76.88
203.433	61.88
203.906	80.88
204.378	69.88
204.85	74.88
205.322	76.88
205.794	79.88
206.266	82.88
206.739	88.88
207.211	73.88
207.683	70.88
208.155	65.88
208.627	72.88
209.099	79.88
209.57	76.88
210.042	72.88
210.514	91.88
210.986	85.88
211.458	86.88
211.93	76.88
212.402	94.88
212.873	85.88
213.345	75.88
213.817	61.88
214.288	86.88
214.76	98.88
215.232	100.88
215.703	102.88
216.175	87.88
216.646	100.88
217.118	77.88
217.589	95.88
218.061	81.88
218.532	80.88
219.004	81.88
219.475	64.88
219.946	83.88
220.418	82.88
220.889	86.88
221.36	72.88
221.832	88.88
222.303	71.88
222.774	73.88
223.245	84.88
223.717	74.88
224.188	71.88
224.659	66.88
225.13	51.88
225.601	71.88
226.072	69.88
226.543	81.88
227.014	75.88
227.485	84.88
227.956	74.88
228.427	88.88
228.898	80.88
229.369	64.88
229.839	74.88
230.31	64.88
230.781	95.88
231.252	89.88
231.722	79.88
232.193	90.88
232.664	82.88
233.135	91.88
233.605	78.88
234.076	94.88
234.546	91.88
235.017	79.88
235.487	73.88
235.958	65.88
236.428	62.88
236.899	80.88
237.369	86.88
237.84	69.88
238.31	78.88
238.78	93.88
239.251	98.88
239.721	72.88
240.191	91.88
240.662	89.88
241.132	65.88
241.602	68.88
242.072	98.88
242.542	75.88
243.013	79.88
243.483	90.88
243.953	93.88
244.423	86.88
244.893	92.88
245.363	79.88
245.833	91.88
246.303	86.88
246.773	88.88
247.243	91.88
247.712	72.88
248.182	80.88
248.652	89.88
249.122	106.88
249.592	72.88
250.061	83.88
250.531	85.88
251.001	92.88
251.471	95.88
251.94	104.88
252.41	66.88
252.879	85.88
253.349	91.88
253.818	99.88
254.288	77.88
254.757	112.88
255.227	104.88
255.696	114.88
256.166	86.88
256.635	92.88
257.105	100.88
257.574	103.88
258.043	92.88
258.513	88.88
258.982	93.88
259.451	70.88
259.92	99.88
260.389	82.88
260.859	112.88
261.328	93.88
261.797	105.88
262.266	96.88
262.735	101.88
263.204	94.88
263.673	97.88
264.142	105.88
264.611	89.88
265.08	100.88
265.549	107.88
266.018	86.88
266.487	103.88
266.955	108.88
267.424	107.88
267.893	104.88
268.362	100.88
268.83	101.88
269.299	106.88
269.768	104.88
270.236	90.88
270.705	114.88
271.174	109.88
271.642	102.88
272.111	87.88
272.579	104.88
273.048	98.88
273.516	114.88
273.985	113.88
274.453	111.88
274.922	100.88
275.39	90.88
275.858	101.88
276.327	92.88
276.795	104.88
277.263	99.88
277.731	105.88
278.2	95.88
278.668	112.88
279.136	104.88
279.604	106.88
280.072	95.88
280.54	99.88
281.008	99.88
281.477	103.88
281.945	112.88
282.413	108.88
282.881	121.88
283.348	120.88
283.816	115.88
284.284	112.88
284.752	117.88
285.22	119.88
285.688	128.88
286.156	109.88
286.623	87.88
287.091	103.88
287.559	101.88
288.026	128.88
288.494	113.88
288.962	117.88
289.429	96.88
289.897	119.88
290.364	115.88
290.832	112.88
291.3	123.88
291.767	145.88
292.234	123.88
292.702	124.88
293.169	113.88
293.637	101.88
294.104	113.88
294.571	122.88
295.039	121.88
295.506	113.88
295.973	135.88
296.44	114.88
296.908	121.88
297.375	113.88
297.842	116.88
298.309	122.88
298.776	119.88
299.243	119.88
299.71	125.88
300.177	126.88
300.644	123.88
301.111	124.88
301.578	137.88
302.045	139.88
302.512	139.88
302.979	120.88
303.446	112.88
303.913	136.88
304.379	125.88
304.846	121.88
305.313	132.88
305.78	152.88
306.246	135.88
306.713	143.88
307.18	132.88
307.646	125.88
308.113	134.88
308.579	140.88
309.046	145.88
309.512	143.88
309.979	134.88
310.445	139.88
310.912	142.88
311.378	139.88
311.845	157.88
312.311	151.88
312.777	133.88
313.244	125.88
313.71	131.88
314.176	133.88
314.642	151.88
315.109	137.88
315.575	146.88
316.041	144.88
316.507	148.88
316.973	135.88
317.439	145.88
317.905	139.88
318.371	149.88
318.837	161.88
319.303	139.88
319.769	141.88
320.235	155.88
320.701	161.88
321.167	163.88
321.633	149.88
322.099	166.88
322.564	155.88
323.03	156.88
323.496	145.88
323.962	160.88
324.427	156.88
324.893	152.88
325.359	164.88
325.824	159.88
326.29	162.88
326.755	163.88
327.221	164.88
327.686	194.88
328.152	168.88
328.617	167.88
329.083	150.88
329.548	195.88
330.014	153.88
330.479	170.88
330.944	176.88
331.41	163.88
331.875	169.88
332.34	163.88
332.805	185.88
333.271	157.88
333.736	175.88
334.201	181.88
334.666	176.88
335.131	181.88
335.596	168.88
336.061	174.88
336.526	172.88
336.991	190.88
337.456	168.88
337.921	182.88
338.386	176.88
338.851	183.88
339.316	178.88
339.781	181.88
340.246	189.88
340.711	181.88
341.175	184.88
341.64	189.88
342.105	183.88
342.569	189.88
343.034	200.88
343.499	191.88
343.963	192.88
344.428	197.88
344.893	171.88
345.357	192.88
345.822	211.88
346.286	191.88
346.751	191.88
347.215	196.88
347.679	210.88
348.144	227.88
348.608	196.88
349.073	212.88
349.537	209.88
350.001	208.88
350.465	220.88
350.93	208.88
351.394	219.88
351.858	205.88
352.322	218.88
352.786	221.88
353.25	241.88
353.715	213.88
354.179	227.88
354.643	237.88
355.107	243.88
355.571	234.88
356.035	243.88
356.498	225.88
356.962	219.88
357.426	222.88
357.89	228.88
358.354	255.88
358.818	241.88
359.281	242.88
359.745	241.88
360.209	237.88
360.673	227.88
361.136	232.88
361.6	244.88
362.064	238.88
362.527	251.88
362.991	260.88
363.454	279.88
363.918	235.88
364.381	239.88
364.845	237.88
365.308	246.88
365.772	251.88
366.235	245.88
366.698	254.88
367.162	255.88
367.625	256.88
368.088	260.88
368.552	272.88
369.015	251.88
369.478	243.88
369.941	259.88
370.404	267.88
370.867	252.88
371.331	268.88
371.794	257.88
372.257	277.88
372.72	279.88
373.183	269.88
373.646	288.88
374.109	253.88
374.572	267.88
375.035	259.88
375.497	292.88
375.96	295.88
376.423	287.88
376.886	289.88
377.349	277.88
377.811	267.88
378.274	279.88
378.737	297.88
379.199	302.88
379.662	281.88
380.125	295.88
380.587	315.88
381.05	312.88
381.512	305.88
381.975	282.88
382.437	297.88
382.9	318.88
383.362	308.88
383.825	306.88
384.287	297.88
384.75	327.88
385.212	299.88
385.674	305.88
386.136	337.88
386.599	298.88
387.061	314.88
387.523	310.88
387.985	332.88
388.447	350.88
388.91	338.88
389.372	363.88
389.834	337.88
390.296	321.88
390.758	322.88
391.22	322.88
391.682	345.88
392.144	352.88
392.606	337.88
393.068	340.88
393.529	347.88
393.991	357.88
394.453	359.88
394.915	336.88
395.377	343.88
395.838	337.88
396.3	362.88
396.762	355.88
397.224	330.88
397.685	347.88
398.147	371.88
398.608	350.88
399.07	344.88
399.531	357.88
399.993	344.88
400.454	372.88
400.916	351.88
401.377	356.88
401.839	390.88
402.3	371.88
402.762	394.88
403.223	385.88
403.684	391.88
404.145	395.88
404.607	355.88
405.068	387.88
405.529	382.88
405.99	385.88
406.451	390.88
406.913	392.88
407.374	408.88
407.835	392.88
408.296	413.88
408.757	406.88
409.218	424.88
409.679	425.88
410.14	423.88
410.601	416.88
411.062	437.88
411.522	397.88
411.983	423.88
412.444	421.88
412.905	429.88
413.366	429.88
413.826	462.88
414.287	509.88
414.748	590.88
415.208	611.88
415.669	509.88
416.13	483.88
416.59	493.88
417.051	503.88
417.511	519.88
417.972	541.88
418.432	549.88
418.893	613.88
419.353	576.88
419.814	493.88
420.274	427.88
420.734	446.88
421.195	452.88
421.655	458.88
422.115	462.88
422.576	437.88
423.036	464.88
423.496	484.88
423.956	507.88
424.416	519.88
424.876	547.88
425.336	563.88
425.797	558.88
426.257	572.88
426.717	511.88
427.177	499.88
427.637	507.88
428.097	525.88
428.556	531.88
429.016	553.88
429.476	577.88
429.936	557.88
430.396	540.88
430.856	593.88
431.315	595.88
431.775	617.88
432.235	676.88
432.694	688.88
433.154	670.88
433.614	645.88
434.073	599.88
434.533	556.88
434.993	553.88
435.452	547.88
435.912	527.88
436.371	527.88
436.83	532.88
437.29	489.88
437.749	522.88
438.209	479.88
438.668	499.88
439.127	535.88
439.587	526.88
440.046	501.88
440.505	476.88
440.964	529.88
441.424	541.88
441.883	521.88
442.342	497.88
442.801	496.88
443.26	513.88
443.719	491.88
444.178	480.88
444.637	498.88
445.096	477.88
445.555	497.88
446.014	481.88
446.473	491.88
446.932	463.88
447.391	489.88
447.849	495.88
448.308	503.88
448.767	502.88
449.226	514.88
449.685	504.88
450.143	529.88
450.602	542.88
451.061	530.88
451.519	498.88
451.978	517.88
452.436	527.88
452.895	510.88
453.353	518.88
453.812	522.88
454.27	510.88
454.729	511.88
455.187	483.88
455.646	501.88
456.104	537.88
456.562	527.88
457.021	529.88
457.479	495.88
457.937	520.88
458.395	537.88
458.854	531.88
459.312	523.88
459.77	544.88
460.228	526.88
460.686	543.88
461.144	553.88
461.602	533.88
462.06	540.88
462.518	541.88
462.976	545.88
463.434	559.88
463.892	534.88
464.35	572.88
464.808	576.88
465.266	578.88
465.724	568.88
466.181	566.88
466.639	572.88
467.097	606.88
467.555	630.88
468.012	619.88
468.47	600.88
468.928	632.88
469.385	673.88
469.843	668.88
470.3	657.88
470.758	688.88
471.215	668.88
471.673	713.88
472.13	747.88
472.588	736.88
473.045	715.88
473.503	743.88
473.96	783.88
474.417	801.88
474.875	813.88
475.332	848.88
475.789	834.88
476.246	869.88
476.704	902.88
477.161	901.88
477.618	933.88
478.075	1010.88
478.532	1049.88
478.989	1107.88
479.446	1241.88
479.903	1327.88
480.36	1388.88
480.817	1499.88
481.274	1563.88
481.731	1741.88
482.188	1860.88
482.645	1945.88
483.102	2089.88
483.558	2249.88
484.015	2334.88
484.472	2329.88
484.929	2253.88
485.385	2183.88
485.842	2153.88
486.299	2094.88
486.755	1909.88
487.212	1719.88
487.668	1553.88
488.125	1457.88
488.582	1324.88
489.038	1303.88
489.494	1239.88
489.951	1246.88
490.407	1187.88
490.864	1173.88
491.32	1150.88
491.776	1126.88
492.233	1129.88
492.689	1129.88
493.145	1105.88
493.602	1081.88
494.058	1112.88
494.514	1091.88
494.97	1119.88
495.426	1100.88
495.882	1120.88
496.338	1077.88
496.794	1119.88
497.251	1149.88
497.707	1130.88
498.163	1136.88
498.618	1135.88
499.074	1102.88
499.53	1125.88
499.986	1155.88
500.442	1118.88
500.898	1128.88
501.354	1113.88
501.809	1131.88
502.265	1125.88
502.721	1122.88
503.177	1130.88
503.632	1136.88
504.088	1174.88
504.543	1167.88
504.999	1205.88
505.455	1172.88
505.91	1166.88
506.366	1153.88
506.821	1205.88
507.277	1141.88
507.732	1161.88
508.187	1140.88
508.643	1205.88
509.098	1180.88
509.553	1219.88
510.009	1217.88
510.464	1191.88
510.919	1216.88
511.375	1255.88
511.83	1249.88
512.285	1279.88
512.74	1281.88
513.195	1326.88
513.65	1321.88
514.105	1344.88
514.56	1321.88
515.015	1371.88
515.47	1351.88
515.925	1363.88
516.38	1367.88
516.835	1384.88
517.29	1370.88
517.745	1358.88
518.2	1331.88
518.655	1347.88
519.109	1293.88
519.564	1274.88
520.019	1264.88
520.474	1266.88
520.928	1269.88
521.383	1303.88
521.838	1248.88
522.292	1217.88
522.747	1249.88
523.201	1249.88
523.656	1236.88
524.11	1228.88
524.565	1250.88
525.019	1212.88
525.474	1179.88
525.928	1201.88
526.382	1224.88
526.837	1217.88
527.291	1246.88
527.745	1209.88
528.2	1203.88
528.654	1217.88
529.108	1217.88
529.562	1213.88
530.016	1213.88
530.47	1232.88
530.925	1200.88
531.379	1197.88
531.833	1219.88
532.287	1221.88
532.741	1206.88
533.195	1184.88
533.649	1251.88
534.103	1225.88
534.556	1194.88
535.01	1185.88
535.464	1206.88
535.918	1197.88
536.372	1206.88
536.826	1217.88
537.279	1178.88
537.733	1225.88
538.187	1237.88
538.64	1211.88
539.094	1226.88
539.548	1248.88
540.001	1194.88
540.455	1232.88
540.908	1229.88
541.362	1213.88
541.815	1241.88
542.269	1284.88
542.722	1275.88
543.175	1319.88
543.629	1289.88
544.082	1300.88
544.536	1325.88
544.989	1347.88
545.442	1335.88
545.895	1353.88
546.349	1303.88
546.802	1344.88
547.255	1337.88
547.708	1342.88
548.161	1373.88
548.614	1317.88
549.067	1352.88
549.52	1331.88
549.973	1326.88
550.426	1345.88
550.879	1355.88
551.332	1317.88
551.785	1353.88
552.238	1383.88
552.691	1366.88
553.144	1379.88
553.596	1401.88
554.049	1410.88
554.502	1460.88
554.955	1490.88
555.407	1487.88
555.86	1469.88
556.313	1456.88
556.765	1493.88
557.218	1444.88
557.67	1431.88
558.123	1402.88
558.576	1408.88
559.028	1387.88
559.48	1438.88
559.933	1413.88
560.385	1380.88
560.838	1363.88
561.29	1280.88
561.742	1285.88
562.195	1263.88
562.647	1279.88
563.099	1235.88
563.551	1215.88
564.004	1208.88
564.456	1252.88
564.908	1241.88
565.36	1183.88
565.812	1176.88
566.264	1180.88
566.716	1145.88
567.168	1113.88
567.62	1193.88
568.072	1149.88
568.524	1112.88
568.976	1139.88
569.428	1103.88
569.88	1098.88
570.332	1108.88
570.784	1116.88
571.235	1111.88
571.687	1143.88
572.139	1118.88
572.59	1103.88
573.042	1108.88
573.494	1124.88
573.945	1138.88
574.397	1120.88
574.849	1072.88
575.3	1096.88
575.752	1120.88
576.203	1059.88
576.655	1077.88
577.106	1111.88
577.557	1077.88
578.009	1043.88
578.46	1076.88
578.912	1035.88
579.363	1060.88
579.814	1054.88
580.265	1071.88
580.717	1092.88
581.168	1071.88
581.619	1077.88
582.07	1101.88
582.521	1091.88
582.972	1097.88
583.423	1091.88
583.875	1084.88
584.326	1083.88
584.777	1117.88
585.227	1089.88
585.678	1127.88
586.129	1123.88
586.58	1134.88
587.031	1153.88
587.482	1175.88
587.933	1210.88
588.384	1230.88
588.834	1217.88
589.285	1167.88
589.736	1198.88
590.186	1182.88
590.637	1173.88
591.088	1165.88
591.538	1157.88
591.989	1109.88
592.439	1086.88
592.89	1087.88
593.34	1098.88
593.791	1077.88
594.241	1087.88
594.692	1103.88
595.142	1102.88
595.593	1091.88
596.043	1062.88
596.493	1117.88
596.943	1097.88
597.394	1106.88
597.844	1127.88
598.294	1127.88
598.744	1177.88
599.195	1210.88
599.645	1299.88
600.095	1359.88
600.545	1393.88
600.995	1455.88
601.445	1513.88
601.895	1617.88
602.345	1623.88
602.795	1647.88
603.245	1551.88
603.695	1474.88
604.145	1419.88
604.594	1361.88
605.044	1289.88
605.494	1229.88
605.944	1151.88
606.393	1119.88
606.843	1097.88
607.293	1097.88
607.743	1096.88
608.192	1104.88
608.642	1097.88
609.091	1127.88
609.541	1077.88
609.99	1123.88
610.44	1090.88
610.889	1057.88
611.339	1041.88
611.788	1011.88
612.238	1045.88
612.687	1055.88
613.136	1062.88
613.586	1059.88
614.035	1058.88
614.484	1092.88
614.933	1097.88
615.383	1064.88
615.832	1047.88
616.281	1027.88
616.73	987.88
617.179	957.88
617.628	968.88
618.077	979.88
618.526	938.88
618.975	933.88
619.424	899.88
619.873	929.88
620.322	954.88
620.771	942.88
621.22	881.88
621.669	879.88
622.118	868.88
622.567	869.88
623.015	864.88
623.464	859.88
623.913	867.88
624.361	866.88
624.81	826.88
625.259	847.88
625.707	829.88
626.156	863.88
626.604	873.88
627.053	878.88
627.501	836.88
627.95	833.88
628.398	866.88
628.847	853.88
629.295	869.88
629.744	844.88
630.192	869.88
630.64	827.88
631.089	814.88
631.537	800.88
631.985	809.88
632.433	790.88
632.881	791.88
633.33	776.88
633.778	774.88
634.226	779.88
634.674	765.88
635.122	808.88
635.57	817.88
636.018	793.88
636.466	805.88
636.914	817.88
637.362	846.88
637.81	844.88
638.258	863.88
638.705	880.88
639.153	903.88
639.601	911.88
640.049	930.88
640.497	940.88
640.944	1000.88
641.392	943.88
641.84	895.88
642.287	864.88
642.735	841.88
643.182	859.88
643.63	823.88
644.078	843.88
644.525	850.88
644.973	884.88
645.42	879.88
645.867	922.88
646.315	936.88
646.762	988.88
647.21	958.88
647.657	1058.88
648.104	1031.88
648.551	1100.88
648.999	1178.88
649.446	1259.88
649.893	1413.88
650.34	1594.88
650.787	1875.88
651.234	2357.88
651.682	3069.88
652.129	4330.88
652.576	6092.88
653.023	8290.88
653.47	10268.88
653.917	11523.88
654.363	12215.88
654.81	12871.88
655.257	13457.88
655.704	10227.88
656.151	6189.88
656.598	3920.88
657.044	2822.88
657.491	2178.88
657.938	1785.88
658.385	1513.88
658.831	1327.88
659.278	1207.88
659.724	1100.88
660.171	1014.88
660.618	927.88
661.064	910.88
661.511	875.88
661.957	844.88
662.404	796.88
662.85	829.88
663.296	842.88
663.743	785.88
664.189	771.88
664.635	801.88
665.082	782.88
665.528	743.88
665.974	755.88
666.42	689.88
666.867	721.88
667.313	688.88
667.759	701.88
668.205	678.88
668.651	684.88
669.097	687.88
669.543	675.88
669.989	689.88
670.435	657.88
670.881	681.88
671.327	709.88
671.773	721.88
672.219	784.88
672.665	815.88
673.11	861.88
673.556	897.88
674.002	914.88
674.448	944.88
674.893	843.88
675.339	716.88
675.785	670.88
676.23	625.88
676.676	587.88
677.122	561.88
677.567	565.88
678.013	570.88
678.458	554.88
678.904	507.88
679.349	529.88
679.794	532.88
680.24	545.88
680.685	508.88
681.131	555.88
681.576	527.88
682.021	546.88
682.466	540.88
682.912	519.88
683.357	568.88
683.802	619.88
684.247	647.88
684.692	706.88
685.137	733.88
685.583	753.88
686.028	771.88
686.473	744.88
686.918	673.88
687.363	617.88
687.807	595.88
688.252	531.88
688.697	549.88
689.142	506.88
689.587	541.88
690.032	550.88
690.477	552.88
690.921	544.88
691.366	579.88
691.811	609.88
692.255	637.88
692.7	723.88
693.145	913.88
693.589	1369.88
694.034	1771.88
694.478	1999.88
694.923	1864.88
695.367	2282.88
695.812	2111.88
696.256	889.88
696.701	612.88
697.145	532.88
697.59	523.88
698.034	521.88
698.478	487.88
698.922	525.88
699.367	519.88
699.811	507.88
700.255	548.88
700.699	595.88
701.143	663.88
701.588	693.88
702.032	706.88
702.476	785.88
702.92	759.88
703.364	896.88
703.808	1255.88
704.252	1679.88
704.696	1874.88
705.14	1832.88
705.584	2221.88
706.027	1865.88
706.471	874.88
706.915	635.88
707.359	530.88
707.803	512.88
708.246	490.88
708.69	500.88
709.134	487.88
709.577	471.88
710.021	496.88
710.465	481.88
710.908	470.88
711.352	492.88
711.795	516.88
712.239	553.88
712.682	573.88
713.126	592.88
713.569	593.88
714.012	575.88
714.456	481.88
714.899	447.88
715.342	425.88
715.786	417.88
716.229	411.88
716.672	395.88
717.115	410.88
717.558	383.88
718.002	413.88
718.445	415.88
718.888	451.88
719.331	436.88
719.774	460.88
720.217	471.88
720.66	450.88
721.103	416.88
721.546	414.88
721.989	392.88
722.432	381.88
722.874	387.88
723.317	397.88
723.76	387.88
724.203	472.88
724.645	593.88
725.088	718.88
725.531	729.88
725.974	765.88
726.416	781.88
726.859	537.88
727.301	415.88
727.744	377.88
728.187	397.88
728.629	376.88
729.071	401.88
729.514	419.88
729.956	436.88
730.399	439.88
730.841	450.88
731.283	433.88
731.726	440.88
732.168	415.88
732.61	456.88
733.053	479.88
733.495	493.88
733.937	536.88
734.379	616.88
734.821	710.88
735.263	963.88
735.705	1651.88
736.148	2719.88
736.59	3159.88
737.032	3024.88
737.474	3208.88
737.916	1586.88
738.357	765.88
738.799	529.88
739.241	502.88
739.683	484.88
740.125	510.88
740.567	521.88
741.008	509.88
741.45	579.88
741.892	563.88
742.334	556.88
742.775	541.88
743.217	565.88
743.658	467.88
744.1	487.88
744.542	549.88
744.983	582.88
745.425	563.88
745.866	615.88
746.307	537.88
746.749	491.88
747.19	591.88
747.632	957.88
748.073	1846.88
748.514	2810.88
748.956	3419.88
749.397	4729.88
749.838	3799.88
750.279	3120.88
750.72	2343.88
751.162	1037.88
751.603	583.88
752.044	415.88
752.485	400.88
752.926	357.88
753.367	344.88
753.808	337.88
754.249	354.88
754.69	323.88
755.131	330.88
755.572	336.88
756.013	316.88
756.453	323.88
756.894	334.88
757.335	345.88
757.776	345.88
758.216	342.88
758.657	359.88
759.098	376.88
759.538	421.88
759.979	527.88
760.42	826.88
760.86	1747.88
761.301	4125.88
761.741	6122.88
762.182	6395.88
762.622	6077.88
763.063	2761.88
763.503	1108.88
763.943	575.88
764.384	480.88
764.824	424.88
765.264	385.88
765.705	346.88
766.145	314.88
766.585	346.88
767.025	337.88
767.465	329.88
767.906	318.88
768.346	340.88
768.786	367.88
769.226	413.88
769.666	682.88
770.106	1395.88
770.546	2465.88
770.986	2666.88
771.426	2658.88
771.866	1471.88
772.306	692.88
772.745	402.88
773.185	312.88
773.625	305.88
774.065	306.88
774.505	357.88
774.944	593.88
775.384	909.88
775.824	1015.88
776.263	999.88
776.703	721.88
777.142	426.88
777.582	300.88
778.021	245.88
778.461	252.88
778.9	235.88
779.34	255.88
779.779	245.88
780.219	235.88
780.658	223.88
781.097	231.88
781.537	221.88
781.976	240.88
782.415	241.88
782.855	236.88
783.294	227.88
783.733	231.88
784.172	215.88
784.611	235.88
785.05	231.88
785.489	249.88
785.928	243.88
786.367	218.88
786.806	243.88
787.245	271.88
787.684	276.88
788.123	275.88
788.562	251.88
789.001	251.88
789.44	255.88
789.879	251.88
790.317	258.88
790.756	271.88
791.195	281.88
791.634	288.88
792.072	424.88
792.511	870.88
792.95	1881.88
793.388	2354.88
793.827	2108.88
794.265	1212.88
794.704	631.88
795.142	364.88
795.581	281.88
796.019	272.88
796.458	247.88
796.896	257.88
797.334	266.88
797.773	328.88
798.211	469.88
798.649	921.88
799.087	1539.88
799.526	2307.88
799.964	2533.88
800.402	2156.88
800.84	1301.88
801.278	643.88
801.716	400.88
802.154	326.88
802.592	291.88
803.03	268.88
803.468	287.88
803.906	273.88
804.344	285.88
804.782	284.88
805.22	305.88
805.658	280.88
806.096	310.88
806.533	319.88
806.971	358.88
807.409	443.88
807.847	655.88
808.284	1514.88
808.722	3012.88
809.16	4286.88
809.597	5889.88
810.035	7504.88
810.472	6511.88
810.91	3591.88
811.347	1743.88
811.785	823.88
812.222	518.88
812.66	383.88
813.097	316.88
813.535	254.88
813.972	269.88
814.409	235.88
814.846	239.88
815.284	249.88
815.721	247.88
816.158	234.88
816.595	273.88
817.032	363.88
817.47	359.88
817.907	307.88
818.344	259.88
818.781	244.88
819.218	276.88
819.655	343.88
820.092	441.88
820.529	450.88
820.966	411.88
821.403	310.88
821.839	282.88
822.276	243.88
822.713	270.88
823.15	325.88
823.587	281.88
824.023	346.88
824.46	717.88
824.897	1369.88
825.333	1426.88
825.77	856.88
826.206	523.88
826.643	327.88
827.08	233.88
827.516	223.88
827.953	200.88
828.389	189.88
828.825	178.88
829.262	180.88
829.698	159.88
830.135	157.88
830.571	177.88
831.007	179.88
831.443	187.88
831.88	185.88
832.316	175.88
832.752	158.88
833.188	179.88
833.624	187.88
834.06	171.88
834.497	170.88
834.933	177.88
835.369	172.88
835.805	185.88
836.241	211.88
836.677	197.88
837.112	219.88
837.548	223.88
837.984	296.88
838.42	443.88
838.856	1083.88
839.292	2367.88
839.727	2576.88
840.163	1707.88
840.599	2007.88
841.034	2948.88
841.47	2336.88
841.906	1339.88
842.341	771.88
842.777	491.88
843.212	457.88
843.648	367.88
844.083	281.88
844.519	209.88
844.954	221.88
845.39	185.88
845.825	151.88
846.261	149.88
846.696	164.88
847.131	185.88
847.566	155.88
848.002	143.88
848.437	132.88
848.872	160.88
849.307	169.88
849.742	252.88
850.177	419.88
850.613	861.88
851.048	972.88
851.483	581.88
851.918	366.88
852.353	250.88
852.788	175.88
853.223	163.88
853.657	158.88
854.092	139.88
854.527	155.88
854.962	147.88
855.397	173.88
855.832	155.88
856.266	150.88
856.701	146.88
857.136	146.88
857.57	148.88
858.005	185.88
858.44	164.88
858.874	171.88
859.309	165.88
859.743	152.88
860.178	155.88
860.612	173.88
861.047	178.88
861.481	221.88
861.915	205.88
862.35	176.88
862.784	141.88
863.218	127.88
863.653	131.88
864.087	155.88
864.521	178.88
864.955	197.88
865.39	287.88
865.824	304.88
866.258	303.88
866.692	433.88
867.126	407.88
867.56	290.88
867.994	211.88
868.428	168.88
868.862	167.88
869.296	174.88
869.73	197.88
870.164	192.88
870.598	204.88
871.031	155.88
871.465	149.88
871.899	151.88
872.333	116.88
872.766	123.88
873.2	135.88
873.634	123.88
874.067	132.88
874.501	118.88
874.935	143.88
875.368	121.88
875.802	136.88
876.235	125.88
876.669	128.88
877.102	114.88
877.535	111.88
877.969	127.88
878.402	104.88
878.836	124.88
879.269	121.88
879.702	123.88
880.135	128.88
880.569	107.88
881.002	100.88
881.435	106.88
881.868	99.88
882.301	94.88
882.734	116.88
883.167	105.88
883.601	121.88
884.034	115.88
884.467	110.88
884.899	100.88
885.332	108.88
885.765	126.88
886.198	109.88
886.631	108.88
887.064	101.88
887.497	107.88
887.929	115.88
888.362	125.88
888.795	119.88
889.228	129.88
889.66	104.88
890.093	91.88
890.526	104.88
890.958	111.88
891.391	115.88
891.823	123.88
892.256	88.88
892.688	102.88
893.121	111.88
893.553	93.88
893.985	105.88
894.418	111.88
894.85	88.88
895.282	118.88
895.715	126.88
896.147	120.88
896.579	122.88
897.011	81.88
897.444	103.88
897.876	76.88
898.308	107.88
898.74	101.88
899.172	121.88
899.604	118.88
900.036	117.88
900.468	94.88
900.9	94.88
901.332	110.88
901.764	115.88
902.196	103.88
902.628	128.88
903.06	133.88
903.491	152.88
903.923	113.88
904.355	115.88
904.787	132.88
905.218	120.88
905.65	116.88
906.082	116.88
906.513	113.88
906.945	103.88
907.376	115.88
907.808	135.88
908.239	109.88
908.671	104.88
909.102	113.88
909.534	127.88
909.965	153.88
910.397	240.88
910.828	595.88
911.259	627.88
911.691	408.88
912.122	307.88
912.553	182.88
912.984	125.88
913.415	127.88
913.847	128.88
914.278	117.88
914.709	122.88
915.14	111.88
915.571	121.88
916.002	81.88
916.433	108.88
916.864	125.88
917.295	111.88
917.726	113.88
918.157	120.88
918.587	121.88
919.018	122.88
919.449	99.88
919.88	107.88
920.311	125.88
920.741	180.88
921.172	296.88
921.603	263.88
922.033	201.88
922.464	175.88
922.895	119.88
923.325	98.88
923.756	97.88
924.186	105.88
924.617	115.88
925.047	135.88
925.478	135.88
925.908	127.88
926.338	136.88
926.769	122.88
927.199	98.88
927.629	125.88
928.06	117.88
928.49	109.88
928.92	105.88
929.35	91.88
929.78	89.88
930.21	81.88
930.641	91.88
931.071	107.88
931.501	100.88
931.931	96.88
932.361	91.88
932.791	79.88
933.221	96.88
933.651	91.88
934.08	104.88
934.51	119.88
934.94	123.88
935.37	101.88
935.8	107.88
936.229	103.88
936.659	89.88
937.089	106.88
937.519	119.88
937.948	123.88
938.378	128.88
938.807	102.88
939.237	113.88
939.666	96.88
940.096	84.88
940.525	95.88
940.955	76.88
941.384	63.88
941.814	90.88
942.243	89.88
942.672	89.88
943.102	103.88
943.531	96.88
943.96	94.88
944.39	84.88
944.819	82.88
945.248	82.88
945.677	99.88
946.106	84.88
946.535	100.88
946.964	85.88
947.393	94.88
947.822	101.88
948.251	102.88
948.68	92.88
949.109	93.88
949.538	91.88
949.967	84.88
950.396	90.88
950.825	89.88
951.254	86.88
951.682	90.88
952.111	83.88
952.54	78.88
952.969	105.88
953.397	80.88
953.826	109.88
954.254	77.88
954.683	88.88
955.112	82.88
955.54	79.88
955.969	99.88
956.397	78.88
956.826	99.88
957.254	85.88
957.682	78.88
958.111	91.88
958.539	98.88
958.967	94.88
959.396	80.88
959.824	100.88
960.252	80.88
960.68	96.88
961.109	91.88
961.537	77.88
961.965	83.88
962.393	90.88
962.821	88.88
963.249	77.88
963.677	94.88
964.105	100.88
964.533	149.88
964.961	121.88
965.389	127.88
965.817	107.88
966.245	79.88
966.672	82.88
967.1	92.88
967.528	87.88
967.956	84.88
968.383	94.88
968.811	91.88
969.239	93.88
969.666	75.88
970.094	79.88
970.522	88.88
970.949	89.88
971.377	91.88
971.804	85.88
972.232	75.88
972.659	79.88
973.087	78.88
973.514	81.88
973.941	81.88
974.369	78.88
974.796	86.88
975.223	84.88
975.651	81.88
976.078	94.88
976.505	102.88
976.932	92.88
977.359	129.88
977.786	95.88
978.214	87.88
978.641	96.88
979.068	84.88
979.495	92.88
979.922	91.88
980.349	76.88
980.776	83.88
981.202	97.88
981.629	102.88
982.056	94.88
982.483	85.88
982.91	71.88
983.337	80.88
983.763	98.88
984.19	79.88
984.617	79.88
985.043	78.88
985.47	81.88
985.897	79.88
986.323	80.88
986.75	77.88
987.176	110.88
987.603	89.88
988.029	92.88
988.456	84.88
988.882	96.88
989.308	98.88
989.735	85.88
990.161	99.88
990.587	89.88
991.014	72.88
991.44	84.88
991.866	96.88
992.292	96.88
992.719	96.88
993.145	78.88
993.571	77.88
993.997	102.88
994.423	84.88
994.849	101.88
995.275	89.88
995.701	78.88
996.127	80.88
996.553	90.88
996.979	71.88
997.405	86.88
997.83	75.88
998.256	89.88
998.682	90.88
999.108	79.88
999.534	72.88
999.959	87.88
1000.385	92.88
1000.811	65.88
1001.236	91.88
1001.662	79.88
1002.087	82.88
1002.513	78.88
1002.938	79.88
1003.364	85.88
1003.789	87.88
1004.215	79.88
1004.64	88.88
1005.066	90.88
1005.491	86.88
1005.916	99.88
1006.342	92.88
1006.767	79.88
1007.192	89.88
1007.617	94.88
1008.042	79.88
1008.468	90.88
1008.893	81.88
1009.318	90.88
1009.743	96.88
1010.168	88.88
1010.593	83.88
1011.018	87.88
1011.443	91.88
1011.868	95.88
1012.293	77.88
1012.718	92.88
1013.143	86.88
1013.567	77.88
1013.992	78.88
1014.417	77.88
1014.842	94.88
1015.267	74.88
1015.691	83.88
1016.116	80.88
1016.541	78.88
1016.965	74.88
1017.39	74.88
1017.814	76.88
1018.239	85.88
1018.663	88.88
1019.088	83.88
1019.512	75.88
1019.937	75.88
1020.361	86.88
1020.785	84.88
1021.21	86.88
1021.634	73.88
1022.058	93.88
1022.483	96.88
1022.907	83.88
1023.331	79.88
1023.755	87.88
1024.179	66.88
1024.604	84.88
1025.028	93.88
1025.452	71.88
1025.876	68.88
1026.3	84.88
1026.724	90.88
1027.148	96.88
1027.572	79.88
1027.996	90.88
1028.42	83.88
1028.843	76.88
1029.267	87.88
1029.691	88.88
1030.115	73.88
1030.539	95.88
1030.962	86.88
1031.386	105.88
1031.81	77.88
1032.233	78.88
1032.657	63.88
1033.08	83.88
1033.504	82.88
1033.927	73.88
1034.351	77.88
1034.774	87.88
1035.198	89.88
1035.621	69.88
1036.045	80.88
1036.468	91.88
1036.891	95.88
1037.315	77.88
1037.738	61.88
1038.161	65.88
1038.584	81.88
1039.008	100.88
1039.431	83.88
1039.854	89.88
1040.277	96.88
1040.7	105.88
1041.123	85.88
1041.546	80.88
1041.969	85.88
1042.392	83.88
1042.815	90.88
1043.238	78.88
1043.661	77.88
1044.084	90.88
1044.507	101.88
1044.93	74.88
1045.352	58.88
1045.775	84.88
1046.198	84.88
1046.621	87.88
1047.043	84.88
1047.466	89.88
1047.889	83.88
1048.311	98.88
1048.734	77.88
1049.156	77.88
1049.579	90.88
1050.001	70.88
1050.424	69.88
1050.846	91.88
1051.269	75.88
1051.691	90.88
1052.113	73.88
1052.536	80.88
1052.958	88.88
1053.38	85.88
1053.802	89.88
1054.225	110.88
1054.647	75.88
1055.069	94.88
1055.491	81.88
1055.913	84.88
1056.335	75.88
1056.757	63.88
1057.179	82.88
1057.601	86.88
1058.023	71.88
1058.445	93.88
1058.867	83.88
1059.289	89.88
1059.711	80.88
1060.133	88.88
1060.555	71.88
1060.976	89.88
1061.398	84.88
1061.82	87.88
1062.241	78.88
1062.663	59.88
1063.085	92.88
1063.506	90.88
1063.928	91.88
1064.35	88.88
1064.771	73.88
1065.193	86.88
1065.614	83.88
1066.035	101.88
1066.457	78.88
1066.878	77.88
1067.3	97.88
1067.721	78.88
1068.142	77.88
1068.564	85.88
1068.985	81.88
1069.406	63.88
1069.827	81.88
1070.248	67.88
1070.67	87.88
1071.091	93.88
1071.512	89.88
1071.933	69.88
1072.354	70.88
1072.775	66.88
1073.196	89.88
1073.617	87.88
1074.038	90.88
1074.459	89.88
1074.88	70.88
1075.3	86.88
1075.721	85.88
1076.142	70.88
1076.563	87.88
1076.983	85.88
1077.404	75.88
1077.825	79.88
1078.246	71.88
1078.666	91.88
1079.087	72.88
1079.507	77.88
1079.928	75.88
1080.348	83.88
1080.769	77.88
1081.189	99.88
1081.61	84.88
1082.03	68.88
1082.451	80.88
1082.871	63.88
1083.291	88.88
1083.711	92.88
1084.132	76.88
1084.552	80.88
1084.972	88.88
1085.392	87.88
1085.813	72.88
1086.233	77.88
1086.653	87.88
1087.073	95.88
1087.493	110.88
1087.913	82.88
1088.333	92.88
1088.753	90.88
1089.173	87.88
1089.593	92.88
1090.013	95.88
1090.433	79.88
1090.852	69.88
1091.272	91.88
1091.692	91.88
1092.112	76.88
1092.531	61.88
1092.951	91.88
1093.371	82.88
1093.79	79.88
1094.21	85.88
1094.63	69.88
1095.049	86.88
1095.469	83.88
1095.888	69.88
1096.308	75.88
1096.727	97.88
1097.146	91.88
1097.566	79.88
1097.985	85.88
1098.405	83.88
1098.824	88.88
1099.243	75.88
1099.662	82.88
1100.082	85.88
1100.501	79.88
1100.92	93.88
1101.339	87.88
1101.758	83.88
