Data from 20170802-ORNL-NYSim-Air_HRD10391_10-36-40-615.txt Node
Date: Wed Aug 02 10:36:40 EDT 2017
User: Ender
Spectrometer: HR+D1039
Trigger mode: 0
Integration Time (sec): 1.510000E-3
Scans to average: 1
Electric dark correction enabled: true
Nonlinearity correction enabled: false
Boxcar width: 0
XAxis mode: Wavelengths
Number of Pixels in Spectrum: 2048
>>>>>Begin Spectral Data<<<<<
187.836	4.5
188.309	4.5
188.782	4.5
189.255	-9.5
189.728	-2.5
190.201	-6.5
190.674	-5.5
191.147	-18.5
191.619	-9.5
192.092	0.5
192.565	-0.5
193.038	1.5
193.511	-9.5
193.984	-2.5
194.456	4.5
194.929	17.5
195.402	9.5
195.874	26.5
196.347	21.5
196.82	20.5
197.292	37.5
197.765	29.5
198.237	42.5
198.71	49.5
199.182	46.5
199.655	47.5
200.127	50.5
200.6	59.5
201.072	50.5
201.544	45.5
202.017	80.5
202.489	70.5
202.961	92.5
203.433	73.5
203.906	66.5
204.378	70.5
204.85	73.5
205.322	77.5
205.794	78.5
206.266	54.5
206.739	66.5
207.211	92.5
207.683	86.5
208.155	89.5
208.627	88.5
209.099	74.5
209.57	70.5
210.042	99.5
210.514	84.5
210.986	102.5
211.458	85.5
211.93	94.5
212.402	81.5
212.873	84.5
213.345	91.5
213.817	79.5
214.288	83.5
214.76	86.5
215.232	92.5
215.703	86.5
216.175	71.5
216.646	85.5
217.118	80.5
217.589	73.5
218.061	76.5
218.532	68.5
219.004	80.5
219.475	81.5
219.946	73.5
220.418	84.5
220.889	84.5
221.36	64.5
221.832	74.5
222.303	74.5
222.774	73.5
223.245	80.5
223.717	85.5
224.188	86.5
224.659	78.5
225.13	82.5
225.601	86.5
226.072	89.5
226.543	72.5
227.014	69.5
227.485	85.5
227.956	82.5
228.427	68.5
228.898	82.5
229.369	78.5
229.839	62.5
230.31	84.5
230.781	77.5
231.252	73.5
231.722	72.5
232.193	70.5
232.664	70.5
233.135	80.5
233.605	89.5
234.076	68.5
234.546	73.5
235.017	78.5
235.487	69.5
235.958	86.5
236.428	72.5
236.899	96.5
237.369	88.5
237.84	75.5
238.31	93.5
238.78	81.5
239.251	82.5
239.721	70.5
240.191	86.5
240.662	91.5
241.132	86.5
241.602	82.5
242.072	91.5
242.542	90.5
243.013	85.5
243.483	87.5
243.953	94.5
244.423	88.5
244.893	75.5
245.363	96.5
245.833	72.5
246.303	90.5
246.773	98.5
247.243	91.5
247.712	94.5
248.182	84.5
248.652	88.5
249.122	100.5
249.592	100.5
250.061	91.5
250.531	73.5
251.001	85.5
251.471	97.5
251.94	92.5
252.41	96.5
252.879	87.5
253.349	80.5
253.818	88.5
254.288	91.5
254.757	86.5
255.227	102.5
255.696	97.5
256.166	88.5
256.635	93.5
257.105	97.5
257.574	78.5
258.043	82.5
258.513	93.5
258.982	96.5
259.451	104.5
259.92	78.5
260.389	95.5
260.859	104.5
261.328	96.5
261.797	114.5
262.266	106.5
262.735	102.5
263.204	90.5
263.673	102.5
264.142	106.5
264.611	102.5
265.08	99.5
265.549	90.5
266.018	101.5
266.487	102.5
266.955	104.5
267.424	101.5
267.893	98.5
268.362	107.5
268.83	96.5
269.299	119.5
269.768	98.5
270.236	99.5
270.705	96.5
271.174	113.5
271.642	88.5
272.111	100.5
272.579	107.5
273.048	102.5
273.516	109.5
273.985	98.5
274.453	99.5
274.922	111.5
275.39	122.5
275.858	102.5
276.327	116.5
276.795	110.5
277.263	115.5
277.731	108.5
278.2	99.5
278.668	106.5
279.136	101.5
279.604	113.5
280.072	138.5
280.54	118.5
281.008	103.5
281.477	109.5
281.945	113.5
282.413	123.5
282.881	108.5
283.348	118.5
283.816	114.5
284.284	102.5
284.752	116.5
285.22	112.5
285.688	127.5
286.156	109.5
286.623	122.5
287.091	100.5
287.559	127.5
288.026	118.5
288.494	116.5
288.962	122.5
289.429	119.5
289.897	119.5
290.364	102.5
290.832	119.5
291.3	114.5
291.767	120.5
292.234	107.5
292.702	118.5
293.169	109.5
293.637	132.5
294.104	113.5
294.571	138.5
295.039	120.5
295.506	117.5
295.973	122.5
296.44	122.5
296.908	131.5
297.375	122.5
297.842	123.5
298.309	137.5
298.776	131.5
299.243	117.5
299.71	134.5
300.177	128.5
300.644	126.5
301.111	103.5
301.578	125.5
302.045	133.5
302.512	135.5
302.979	123.5
303.446	130.5
303.913	129.5
304.379	134.5
304.846	122.5
305.313	140.5
305.78	147.5
306.246	138.5
306.713	128.5
307.18	137.5
307.646	129.5
308.113	150.5
308.579	150.5
309.046	131.5
309.512	137.5
309.979	133.5
310.445	142.5
310.912	154.5
311.378	167.5
311.845	138.5
312.311	159.5
312.777	145.5
313.244	136.5
313.71	154.5
314.176	135.5
314.642	139.5
315.109	150.5
315.575	151.5
316.041	138.5
316.507	172.5
316.973	177.5
317.439	160.5
317.905	159.5
318.371	161.5
318.837	155.5
319.303	148.5
319.769	156.5
320.235	159.5
320.701	162.5
321.167	161.5
321.633	146.5
322.099	166.5
322.564	161.5
323.03	154.5
323.496	155.5
323.962	161.5
324.427	166.5
324.893	157.5
325.359	148.5
325.824	170.5
326.29	158.5
326.755	174.5
327.221	159.5
327.686	158.5
328.152	180.5
328.617	154.5
329.083	176.5
329.548	171.5
330.014	175.5
330.479	171.5
330.944	164.5
331.41	169.5
331.875	169.5
332.34	179.5
332.805	170.5
333.271	177.5
333.736	185.5
334.201	170.5
334.666	200.5
335.131	178.5
335.596	182.5
336.061	182.5
336.526	184.5
336.991	184.5
337.456	174.5
337.921	178.5
338.386	185.5
338.851	187.5
339.316	178.5
339.781	186.5
340.246	176.5
340.711	196.5
341.175	200.5
341.64	199.5
342.105	214.5
342.569	190.5
343.034	203.5
343.499	196.5
343.963	202.5
344.428	194.5
344.893	193.5
345.357	196.5
345.822	190.5
346.286	227.5
346.751	194.5
347.215	239.5
347.679	228.5
348.144	233.5
348.608	222.5
349.073	230.5
349.537	230.5
350.001	231.5
350.465	236.5
350.93	248.5
351.394	253.5
351.858	230.5
352.322	248.5
352.786	240.5
353.25	256.5
353.715	250.5
354.179	244.5
354.643	255.5
355.107	263.5
355.571	262.5
356.035	262.5
356.498	243.5
356.962	252.5
357.426	253.5
357.89	270.5
358.354	240.5
358.818	247.5
359.281	255.5
359.745	241.5
360.209	245.5
360.673	251.5
361.136	244.5
361.6	236.5
362.064	262.5
362.527	261.5
362.991	250.5
363.454	268.5
363.918	244.5
364.381	270.5
364.845	264.5
365.308	264.5
365.772	259.5
366.235	256.5
366.698	280.5
367.162	252.5
367.625	264.5
368.088	279.5
368.552	276.5
369.015	264.5
369.478	286.5
369.941	280.5
370.404	273.5
370.867	289.5
371.331	278.5
371.794	264.5
372.257	286.5
372.72	279.5
373.183	301.5
373.646	268.5
374.109	280.5
374.572	275.5
375.035	312.5
375.497	270.5
375.96	314.5
376.423	294.5
376.886	300.5
377.349	314.5
377.811	312.5
378.274	288.5
378.737	324.5
379.199	314.5
379.662	308.5
380.125	307.5
380.587	328.5
381.05	313.5
381.512	297.5
381.975	297.5
382.437	337.5
382.9	328.5
383.362	314.5
383.825	339.5
384.287	336.5
384.75	338.5
385.212	348.5
385.674	344.5
386.136	326.5
386.599	332.5
387.061	328.5
387.523	353.5
387.985	330.5
388.447	354.5
388.91	358.5
389.372	351.5
389.834	374.5
390.296	326.5
390.758	346.5
391.22	353.5
391.682	349.5
392.144	374.5
392.606	372.5
393.068	362.5
393.529	372.5
393.991	377.5
394.453	374.5
394.915	360.5
395.377	346.5
395.838	329.5
396.3	358.5
396.762	360.5
397.224	395.5
397.685	361.5
398.147	374.5
398.608	374.5
399.07	377.5
399.531	360.5
399.993	349.5
400.454	391.5
400.916	375.5
401.377	426.5
401.839	412.5
402.3	415.5
402.762	399.5
403.223	424.5
403.684	422.5
404.145	421.5
404.607	418.5
405.068	421.5
405.529	418.5
405.99	422.5
406.451	462.5
406.913	417.5
407.374	442.5
407.835	418.5
408.296	418.5
408.757	452.5
409.218	435.5
409.679	447.5
410.14	438.5
410.601	470.5
411.062	467.5
411.522	450.5
411.983	468.5
412.444	487.5
412.905	493.5
413.366	502.5
413.826	494.5
414.287	546.5
414.748	657.5
415.208	653.5
415.669	588.5
416.13	533.5
416.59	473.5
417.051	516.5
417.511	553.5
417.972	576.5
418.432	632.5
418.893	670.5
419.353	637.5
419.814	512.5
420.274	472.5
420.734	475.5
421.195	461.5
421.655	476.5
422.115	504.5
422.576	518.5
423.036	490.5
423.496	537.5
423.956	541.5
424.416	553.5
424.876	614.5
425.336	620.5
425.797	579.5
426.257	595.5
426.717	599.5
427.177	528.5
427.637	551.5
428.097	565.5
428.556	594.5
429.016	624.5
429.476	620.5
429.936	623.5
430.396	616.5
430.856	644.5
431.315	641.5
431.775	676.5
432.235	690.5
432.694	704.5
433.154	691.5
433.614	693.5
434.073	673.5
434.533	604.5
434.993	573.5
435.452	584.5
435.912	576.5
436.371	573.5
436.83	561.5
437.29	546.5
437.749	526.5
438.209	542.5
438.668	528.5
439.127	553.5
439.587	549.5
440.046	530.5
440.505	577.5
440.964	564.5
441.424	570.5
441.883	576.5
442.342	562.5
442.801	521.5
443.26	546.5
443.719	539.5
444.178	554.5
444.637	538.5
445.096	516.5
445.555	536.5
446.014	525.5
446.473	530.5
446.932	516.5
447.391	533.5
447.849	554.5
448.308	532.5
448.767	541.5
449.226	554.5
449.685	555.5
450.143	580.5
450.602	558.5
451.061	552.5
451.519	545.5
451.978	579.5
452.436	546.5
452.895	538.5
453.353	548.5
453.812	530.5
454.27	549.5
454.729	563.5
455.187	588.5
455.646	572.5
456.104	549.5
456.562	574.5
457.021	546.5
457.479	550.5
457.937	562.5
458.395	604.5
458.854	581.5
459.312	546.5
459.77	576.5
460.228	594.5
460.686	588.5
461.144	570.5
461.602	585.5
462.06	585.5
462.518	606.5
462.976	589.5
463.434	585.5
463.892	613.5
464.35	603.5
464.808	650.5
465.266	612.5
465.724	644.5
466.181	632.5
466.639	649.5
467.097	646.5
467.555	659.5
468.012	676.5
468.47	692.5
468.928	704.5
469.385	686.5
469.843	717.5
470.3	708.5
470.758	714.5
471.215	753.5
471.673	795.5
472.13	797.5
472.588	796.5
473.045	777.5
473.503	830.5
473.96	837.5
474.417	856.5
474.875	879.5
475.332	873.5
475.789	924.5
476.246	952.5
476.704	968.5
477.161	1005.5
477.618	1032.5
478.075	1098.5
478.532	1176.5
478.989	1258.5
479.446	1344.5
479.903	1439.5
480.36	1537.5
480.817	1612.5
481.274	1737.5
481.731	1859.5
482.188	2023.5
482.645	2191.5
483.102	2259.5
483.558	2454.5
484.015	2550.5
484.472	2468.5
484.929	2422.5
485.385	2350.5
485.842	2306.5
486.299	2222.5
486.755	2071.5
487.212	1840.5
487.668	1674.5
488.125	1553.5
488.582	1460.5
489.038	1412.5
489.494	1376.5
489.951	1354.5
490.407	1266.5
490.864	1287.5
491.32	1260.5
491.776	1236.5
492.233	1205.5
492.689	1222.5
493.145	1211.5
493.602	1179.5
494.058	1183.5
494.514	1195.5
494.97	1190.5
495.426	1242.5
495.882	1201.5
496.338	1173.5
496.794	1244.5
497.251	1236.5
497.707	1222.5
498.163	1227.5
498.618	1233.5
499.074	1256.5
499.53	1256.5
499.986	1260.5
500.442	1223.5
500.898	1226.5
501.354	1232.5
501.809	1252.5
502.265	1233.5
502.721	1225.5
503.177	1270.5
503.632	1253.5
504.088	1270.5
504.543	1277.5
504.999	1278.5
505.455	1293.5
505.91	1244.5
506.366	1276.5
506.821	1271.5
507.277	1245.5
507.732	1250.5
508.187	1252.5
508.643	1285.5
509.098	1260.5
509.553	1336.5
510.009	1292.5
510.464	1296.5
510.919	1311.5
511.375	1376.5
511.83	1401.5
512.285	1379.5
512.74	1404.5
513.195	1415.5
513.65	1428.5
514.105	1469.5
514.56	1474.5
515.015	1503.5
515.47	1473.5
515.925	1485.5
516.38	1495.5
516.835	1469.5
517.29	1444.5
517.745	1488.5
518.2	1478.5
518.655	1437.5
519.109	1430.5
519.564	1418.5
520.019	1423.5
520.474	1386.5
520.928	1398.5
521.383	1370.5
521.838	1371.5
522.292	1389.5
522.747	1388.5
523.201	1378.5
523.656	1325.5
524.11	1329.5
524.565	1331.5
525.019	1337.5
525.474	1326.5
525.928	1318.5
526.382	1321.5
526.837	1308.5
527.291	1332.5
527.745	1278.5
528.2	1300.5
528.654	1343.5
529.108	1297.5
529.562	1306.5
530.016	1288.5
530.47	1346.5
530.925	1324.5
531.379	1308.5
531.833	1320.5
532.287	1283.5
532.741	1315.5
533.195	1311.5
533.649	1328.5
534.103	1321.5
534.556	1345.5
535.01	1343.5
535.464	1341.5
535.918	1315.5
536.372	1315.5
536.826	1328.5
537.279	1296.5
537.733	1334.5
538.187	1324.5
538.64	1260.5
539.094	1330.5
539.548	1338.5
540.001	1353.5
540.455	1340.5
540.908	1356.5
541.362	1381.5
541.815	1378.5
542.269	1402.5
542.722	1386.5
543.175	1390.5
543.629	1402.5
544.082	1414.5
544.536	1437.5
544.989	1442.5
545.442	1438.5
545.895	1418.5
546.349	1466.5
546.802	1453.5
547.255	1461.5
547.708	1444.5
548.161	1456.5
548.614	1491.5
549.067	1470.5
549.52	1489.5
549.973	1471.5
550.426	1434.5
550.879	1478.5
551.332	1483.5
551.785	1484.5
552.238	1491.5
552.691	1485.5
553.144	1508.5
553.596	1500.5
554.049	1535.5
554.502	1594.5
554.955	1610.5
555.407	1627.5
555.86	1555.5
556.313	1538.5
556.765	1579.5
557.218	1578.5
557.67	1542.5
558.123	1529.5
558.576	1511.5
559.028	1530.5
559.48	1572.5
559.933	1521.5
560.385	1448.5
560.838	1440.5
561.29	1400.5
561.742	1422.5
562.195	1367.5
562.647	1354.5
563.099	1400.5
563.551	1361.5
564.004	1400.5
564.456	1359.5
564.908	1334.5
565.36	1287.5
565.812	1290.5
566.264	1290.5
566.716	1276.5
567.168	1258.5
567.62	1277.5
568.072	1222.5
568.524	1236.5
568.976	1218.5
569.428	1210.5
569.88	1222.5
570.332	1213.5
570.784	1200.5
571.235	1246.5
571.687	1242.5
572.139	1216.5
572.59	1223.5
573.042	1241.5
573.494	1278.5
573.945	1230.5
574.397	1199.5
574.849	1202.5
575.3	1156.5
575.752	1193.5
576.203	1169.5
576.655	1170.5
577.106	1160.5
577.557	1126.5
578.009	1152.5
578.46	1180.5
578.912	1122.5
579.363	1151.5
579.814	1168.5
580.265	1107.5
580.717	1158.5
581.168	1142.5
581.619	1144.5
582.07	1159.5
582.521	1153.5
582.972	1164.5
583.423	1135.5
583.875	1172.5
584.326	1201.5
584.777	1178.5
585.227	1159.5
585.678	1215.5
586.129	1222.5
586.58	1255.5
587.031	1243.5
587.482	1295.5
587.933	1289.5
588.384	1301.5
588.834	1312.5
589.285	1258.5
589.736	1329.5
590.186	1303.5
590.637	1284.5
591.088	1279.5
591.538	1258.5
591.989	1226.5
592.439	1199.5
592.89	1166.5
593.34	1168.5
593.791	1174.5
594.241	1201.5
594.692	1169.5
595.142	1174.5
595.593	1182.5
596.043	1133.5
596.493	1150.5
596.943	1173.5
597.394	1214.5
597.844	1182.5
598.294	1248.5
598.744	1299.5
599.195	1324.5
599.645	1360.5
600.095	1418.5
600.545	1532.5
600.995	1588.5
601.445	1614.5
601.895	1715.5
602.345	1723.5
602.795	1726.5
603.245	1699.5
603.695	1596.5
604.145	1535.5
604.594	1472.5
605.044	1383.5
605.494	1315.5
605.944	1250.5
606.393	1229.5
606.843	1221.5
607.293	1202.5
607.743	1167.5
608.192	1194.5
608.642	1196.5
609.091	1172.5
609.541	1166.5
609.99	1209.5
610.44	1181.5
610.889	1206.5
611.339	1161.5
611.788	1159.5
612.238	1148.5
612.687	1117.5
613.136	1116.5
613.586	1180.5
614.035	1157.5
614.484	1155.5
614.933	1187.5
615.383	1146.5
615.832	1122.5
616.281	1130.5
616.73	1092.5
617.179	1081.5
617.628	1050.5
618.077	1018.5
618.526	1014.5
618.975	1023.5
619.424	992.5
619.873	983.5
620.322	977.5
620.771	996.5
621.22	974.5
621.669	982.5
622.118	953.5
622.567	980.5
623.015	946.5
623.464	913.5
623.913	920.5
624.361	940.5
624.81	937.5
625.259	922.5
625.707	904.5
626.156	916.5
626.604	929.5
627.053	944.5
627.501	933.5
627.95	942.5
628.398	938.5
628.847	949.5
629.295	898.5
629.744	915.5
630.192	916.5
630.64	908.5
631.089	845.5
631.537	867.5
631.985	851.5
632.433	856.5
632.881	848.5
633.33	856.5
633.778	842.5
634.226	824.5
634.674	849.5
635.122	879.5
635.57	886.5
636.018	890.5
636.466	881.5
636.914	904.5
637.362	903.5
637.81	927.5
638.258	938.5
638.705	928.5
639.153	975.5
639.601	982.5
640.049	1007.5
640.497	1046.5
640.944	1044.5
641.392	1050.5
641.84	1016.5
642.287	940.5
642.735	916.5
643.182	879.5
643.63	900.5
644.078	921.5
644.525	886.5
644.973	967.5
645.42	939.5
645.867	1011.5
646.315	1008.5
646.762	1021.5
647.21	1061.5
647.657	1117.5
648.104	1158.5
648.551	1181.5
648.999	1284.5
649.446	1382.5
649.893	1516.5
650.34	1688.5
650.787	2075.5
651.234	2545.5
651.682	3447.5
652.129	4745.5
652.576	6620.5
653.023	9164.5
653.47	11213.5
653.917	12438.5
654.363	13198.5
654.81	13995.5
655.257	14505.5
655.704	11190.5
656.151	6780.5
656.598	4382.5
657.044	3055.5
657.491	2404.5
657.938	1972.5
658.385	1655.5
658.831	1459.5
659.278	1316.5
659.724	1250.5
660.171	1122.5
660.618	1056.5
661.064	955.5
661.511	991.5
661.957	902.5
662.404	894.5
662.85	868.5
663.296	874.5
663.743	835.5
664.189	835.5
664.635	856.5
665.082	807.5
665.528	818.5
665.974	784.5
666.42	783.5
666.867	778.5
667.313	760.5
667.759	736.5
668.205	747.5
668.651	736.5
669.097	749.5
669.543	756.5
669.989	760.5
670.435	737.5
670.881	750.5
671.327	755.5
671.773	824.5
672.219	861.5
672.665	913.5
673.11	928.5
673.556	920.5
674.002	937.5
674.448	1009.5
674.893	895.5
675.339	788.5
675.785	730.5
676.23	689.5
676.676	634.5
677.122	646.5
677.567	608.5
678.013	602.5
678.458	579.5
678.904	579.5
679.349	594.5
679.794	562.5
680.24	593.5
680.685	581.5
681.131	600.5
681.576	600.5
682.021	580.5
682.466	586.5
682.912	591.5
683.357	635.5
683.802	634.5
684.247	711.5
684.692	738.5
685.137	800.5
685.583	826.5
686.028	855.5
686.473	810.5
686.918	712.5
687.363	656.5
687.807	607.5
688.252	605.5
688.697	594.5
689.142	597.5
689.587	542.5
690.032	570.5
690.477	574.5
690.921	601.5
691.366	648.5
691.811	641.5
692.255	710.5
692.7	770.5
693.145	1014.5
693.589	1459.5
694.034	1940.5
694.478	2151.5
694.923	2036.5
695.367	2406.5
695.812	2280.5
696.256	996.5
696.701	637.5
697.145	590.5
697.59	558.5
698.034	533.5
698.478	540.5
698.922	586.5
699.367	537.5
699.811	570.5
700.255	603.5
700.699	626.5
701.143	720.5
701.588	749.5
702.032	772.5
702.476	808.5
702.92	819.5
703.364	937.5
703.808	1358.5
704.252	1796.5
704.696	2060.5
705.14	1948.5
705.584	2470.5
706.027	1982.5
706.471	978.5
706.915	693.5
707.359	598.5
707.803	569.5
708.246	538.5
708.69	560.5
709.134	523.5
709.577	528.5
710.021	518.5
710.465	535.5
710.908	526.5
711.352	529.5
711.795	554.5
712.239	624.5
712.682	655.5
713.126	616.5
713.569	654.5
714.012	623.5
714.456	504.5
714.899	495.5
715.342	488.5
715.786	455.5
716.229	437.5
716.672	421.5
717.115	442.5
717.558	436.5
718.002	436.5
718.445	451.5
718.888	460.5
719.331	488.5
719.774	502.5
720.217	488.5
720.66	502.5
721.103	460.5
721.546	438.5
721.989	434.5
722.432	404.5
722.874	430.5
723.317	436.5
723.76	433.5
724.203	472.5
724.645	615.5
725.088	739.5
725.531	786.5
725.974	806.5
726.416	873.5
726.859	583.5
727.301	452.5
727.744	387.5
728.187	412.5
728.629	421.5
729.071	440.5
729.514	436.5
729.956	471.5
730.399	496.5
730.841	485.5
731.283	470.5
731.726	472.5
732.168	467.5
732.61	497.5
733.053	499.5
733.495	556.5
733.937	608.5
734.379	668.5
734.821	784.5
735.263	1066.5
735.705	1738.5
736.148	2882.5
736.59	3386.5
737.032	3199.5
737.474	3518.5
737.916	1752.5
738.357	852.5
738.799	593.5
739.241	530.5
739.683	488.5
740.125	516.5
740.567	570.5
741.008	541.5
741.45	586.5
741.892	598.5
742.334	616.5
742.775	626.5
743.217	616.5
743.658	537.5
744.1	526.5
744.542	556.5
744.983	625.5
745.425	619.5
745.866	641.5
746.307	560.5
746.749	526.5
747.19	646.5
747.632	1051.5
748.073	2002.5
748.514	3034.5
748.956	3661.5
749.397	5136.5
749.838	4127.5
750.279	3327.5
750.72	2499.5
751.162	1146.5
751.603	620.5
752.044	494.5
752.485	430.5
752.926	384.5
753.367	358.5
753.808	374.5
754.249	363.5
754.69	380.5
755.131	348.5
755.572	359.5
756.013	360.5
756.453	339.5
756.894	362.5
757.335	364.5
757.776	359.5
758.216	382.5
758.657	384.5
759.098	396.5
759.538	438.5
759.979	552.5
760.42	881.5
760.86	1938.5
761.301	4469.5
761.741	6744.5
762.182	6920.5
762.622	6560.5
763.063	3046.5
763.503	1239.5
763.943	629.5
764.384	498.5
764.824	432.5
765.264	401.5
765.705	372.5
766.145	372.5
766.585	359.5
767.025	360.5
767.465	354.5
767.906	335.5
768.346	344.5
768.786	390.5
769.226	445.5
769.666	709.5
770.106	1534.5
770.546	2684.5
770.986	2886.5
771.426	2860.5
771.866	1618.5
772.306	764.5
772.745	431.5
773.185	337.5
773.625	319.5
774.065	339.5
774.505	391.5
774.944	586.5
775.384	947.5
775.824	1083.5
776.263	1074.5
776.703	790.5
777.142	446.5
777.582	323.5
778.021	264.5
778.461	272.5
778.9	279.5
779.34	273.5
779.779	259.5
780.219	245.5
780.658	266.5
781.097	254.5
781.537	232.5
781.976	240.5
782.415	235.5
782.855	230.5
783.294	248.5
783.733	223.5
784.172	214.5
784.611	237.5
785.05	247.5
785.489	242.5
785.928	247.5
786.367	266.5
786.806	277.5
787.245	277.5
787.684	320.5
788.123	278.5
788.562	288.5
789.001	262.5
789.44	278.5
789.879	258.5
790.317	254.5
790.756	264.5
791.195	269.5
791.634	332.5
792.072	468.5
792.511	946.5
792.95	1980.5
793.388	2520.5
793.827	2270.5
794.265	1325.5
794.704	676.5
795.142	408.5
795.581	315.5
796.019	292.5
796.458	254.5
796.896	287.5
797.334	282.5
797.773	350.5
798.211	485.5
798.649	950.5
799.087	1624.5
799.526	2462.5
799.964	2795.5
800.402	2340.5
800.84	1418.5
801.278	717.5
801.716	429.5
802.154	300.5
802.592	298.5
803.03	295.5
803.468	292.5
803.906	282.5
804.344	298.5
804.782	285.5
805.22	264.5
805.658	264.5
806.096	288.5
806.533	336.5
806.971	378.5
807.409	468.5
807.847	739.5
808.284	1614.5
808.722	3286.5
809.16	4590.5
809.597	6423.5
810.035	8226.5
810.472	7032.5
810.91	3900.5
811.347	1940.5
811.785	895.5
812.222	541.5
812.66	372.5
813.097	342.5
813.535	305.5
813.972	282.5
814.409	267.5
814.846	255.5
815.284	240.5
815.721	251.5
816.158	242.5
816.595	297.5
817.032	375.5
817.47	354.5
817.907	301.5
818.344	266.5
818.781	261.5
819.218	268.5
819.655	353.5
820.092	468.5
820.529	488.5
820.966	422.5
821.403	336.5
821.839	269.5
822.276	286.5
822.713	295.5
823.15	292.5
823.587	312.5
824.023	380.5
824.46	766.5
824.897	1444.5
825.333	1558.5
825.77	920.5
826.206	535.5
826.643	322.5
827.08	250.5
827.516	231.5
827.953	206.5
828.389	200.5
828.825	189.5
829.262	174.5
829.698	199.5
830.135	197.5
830.571	192.5
831.007	170.5
831.443	175.5
831.88	182.5
832.316	173.5
832.752	173.5
833.188	173.5
833.624	169.5
834.06	180.5
834.497	182.5
834.933	176.5
835.369	201.5
835.805	192.5
836.241	175.5
836.677	231.5
837.112	214.5
837.548	285.5
837.984	306.5
838.42	504.5
838.856	1238.5
839.292	2513.5
839.727	2798.5
840.163	1865.5
840.599	2174.5
841.034	3142.5
841.47	2458.5
841.906	1433.5
842.341	834.5
842.777	508.5
843.212	473.5
843.648	410.5
844.083	298.5
844.519	240.5
844.954	216.5
845.39	186.5
845.825	200.5
846.261	151.5
846.696	169.5
847.131	177.5
847.566	160.5
848.002	169.5
848.437	179.5
848.872	176.5
849.307	199.5
849.742	241.5
850.177	465.5
850.613	979.5
851.048	1072.5
851.483	642.5
851.918	384.5
852.353	265.5
852.788	172.5
853.223	175.5
853.657	169.5
854.092	153.5
854.527	152.5
854.962	144.5
855.397	158.5
855.832	158.5
856.266	136.5
856.701	148.5
857.136	150.5
857.57	172.5
858.005	162.5
858.44	174.5
858.874	164.5
859.309	171.5
859.743	165.5
860.178	143.5
860.612	159.5
861.047	184.5
861.481	222.5
861.915	204.5
862.35	156.5
862.784	149.5
863.218	142.5
863.653	138.5
864.087	158.5
864.521	183.5
864.955	228.5
865.39	316.5
865.824	298.5
866.258	314.5
866.692	456.5
867.126	421.5
867.56	329.5
867.994	237.5
868.428	207.5
868.862	173.5
869.296	172.5
869.73	196.5
870.164	178.5
870.598	200.5
871.031	180.5
871.465	161.5
871.899	152.5
872.333	106.5
872.766	132.5
873.2	128.5
873.634	134.5
874.067	133.5
874.501	126.5
874.935	130.5
875.368	150.5
875.802	127.5
876.235	120.5
876.669	118.5
877.102	105.5
877.535	117.5
877.969	98.5
878.402	117.5
878.836	104.5
879.269	110.5
879.702	126.5
880.135	125.5
880.569	124.5
881.002	119.5
881.435	129.5
881.868	146.5
882.301	126.5
882.734	116.5
883.167	123.5
883.601	120.5
884.034	138.5
884.467	126.5
884.899	112.5
885.332	104.5
885.765	97.5
886.198	106.5
886.631	121.5
887.064	106.5
887.497	115.5
887.929	122.5
888.362	122.5
888.795	97.5
889.228	100.5
889.66	106.5
890.093	100.5
890.526	101.5
890.958	105.5
891.391	110.5
891.823	106.5
892.256	107.5
892.688	109.5
893.121	110.5
893.553	108.5
893.985	99.5
894.418	96.5
894.85	110.5
895.282	108.5
895.715	108.5
896.147	100.5
896.579	105.5
897.011	104.5
897.444	99.5
897.876	102.5
898.308	112.5
898.74	104.5
899.172	110.5
899.604	101.5
900.036	105.5
900.468	109.5
900.9	93.5
901.332	109.5
901.764	111.5
902.196	116.5
902.628	117.5
903.06	115.5
903.491	137.5
903.923	131.5
904.355	126.5
904.787	118.5
905.218	125.5
905.65	123.5
906.082	119.5
906.513	109.5
906.945	122.5
907.376	104.5
907.808	107.5
908.239	105.5
908.671	110.5
909.102	121.5
909.534	131.5
909.965	164.5
910.397	246.5
910.828	606.5
911.259	670.5
911.691	437.5
912.122	318.5
912.553	213.5
912.984	135.5
913.415	116.5
913.847	141.5
914.278	122.5
914.709	110.5
915.14	120.5
915.571	123.5
916.002	104.5
916.433	102.5
916.864	106.5
917.295	115.5
917.726	106.5
918.157	122.5
918.587	125.5
919.018	128.5
919.449	103.5
919.88	119.5
920.311	135.5
920.741	191.5
921.172	347.5
921.603	284.5
922.033	197.5
922.464	166.5
922.895	118.5
923.325	124.5
923.756	99.5
924.186	110.5
924.617	110.5
925.047	150.5
925.478	152.5
925.908	136.5
926.338	125.5
926.769	116.5
927.199	104.5
927.629	93.5
928.06	89.5
928.49	96.5
928.92	108.5
929.35	94.5
929.78	101.5
930.21	114.5
930.641	104.5
931.071	97.5
931.501	96.5
931.931	105.5
932.361	98.5
932.791	104.5
933.221	89.5
933.651	87.5
934.08	107.5
934.51	113.5
934.94	98.5
935.37	92.5
935.8	108.5
936.229	101.5
936.659	103.5
937.089	92.5
937.519	110.5
937.948	125.5
938.378	113.5
938.807	106.5
939.237	109.5
939.666	97.5
940.096	92.5
940.525	78.5
940.955	79.5
941.384	72.5
941.814	83.5
942.243	102.5
942.672	81.5
943.102	97.5
943.531	84.5
943.96	103.5
944.39	97.5
944.819	83.5
945.248	87.5
945.677	96.5
946.106	90.5
946.535	100.5
946.964	86.5
947.393	89.5
947.822	94.5
948.251	80.5
948.68	75.5
949.109	80.5
949.538	89.5
949.967	95.5
950.396	95.5
950.825	84.5
951.254	96.5
951.682	94.5
952.111	98.5
952.54	81.5
952.969	90.5
953.397	75.5
953.826	82.5
954.254	75.5
954.683	76.5
955.112	89.5
955.54	74.5
955.969	77.5
956.397	83.5
956.826	96.5
957.254	87.5
957.682	84.5
958.111	100.5
958.539	100.5
958.967	60.5
959.396	86.5
959.824	91.5
960.252	97.5
960.68	94.5
961.109	84.5
961.537	102.5
961.965	88.5
962.393	89.5
962.821	86.5
963.249	90.5
963.677	83.5
964.105	114.5
964.533	175.5
964.961	122.5
965.389	127.5
965.817	104.5
966.245	80.5
966.672	75.5
967.1	87.5
967.528	85.5
967.956	84.5
968.383	90.5
968.811	81.5
969.239	80.5
969.666	76.5
970.094	92.5
970.522	102.5
970.949	88.5
971.377	79.5
971.804	72.5
972.232	98.5
972.659	92.5
973.087	95.5
973.514	81.5
973.941	82.5
974.369	84.5
974.796	76.5
975.223	88.5
975.651	80.5
976.078	91.5
976.505	96.5
976.932	102.5
977.359	101.5
977.786	107.5
978.214	99.5
978.641	100.5
979.068	90.5
979.495	87.5
979.922	82.5
980.349	86.5
980.776	101.5
981.202	85.5
981.629	75.5
982.056	83.5
982.483	84.5
982.91	88.5
983.337	82.5
983.763	85.5
984.19	98.5
984.617	83.5
985.043	88.5
985.47	70.5
985.897	85.5
986.323	91.5
986.75	96.5
987.176	86.5
987.603	91.5
988.029	91.5
988.456	90.5
988.882	71.5
989.308	78.5
989.735	89.5
990.161	79.5
990.587	76.5
991.014	87.5
991.44	87.5
991.866	79.5
992.292	63.5
992.719	98.5
993.145	80.5
993.571	82.5
993.997	70.5
994.423	87.5
994.849	97.5
995.275	98.5
995.701	75.5
996.127	64.5
996.553	65.5
996.979	84.5
997.405	72.5
997.83	90.5
998.256	89.5
998.682	77.5
999.108	94.5
999.534	91.5
999.959	72.5
1000.385	95.5
1000.811	79.5
1001.236	75.5
1001.662	99.5
1002.087	82.5
1002.513	77.5
1002.938	63.5
1003.364	84.5
1003.789	83.5
1004.215	74.5
1004.64	89.5
1005.066	88.5
1005.491	91.5
1005.916	85.5
1006.342	86.5
1006.767	89.5
1007.192	91.5
1007.617	91.5
1008.042	98.5
1008.468	101.5
1008.893	81.5
1009.318	83.5
1009.743	94.5
1010.168	97.5
1010.593	92.5
1011.018	95.5
1011.443	102.5
1011.868	71.5
1012.293	90.5
1012.718	98.5
1013.143	97.5
1013.567	90.5
1013.992	103.5
1014.417	91.5
1014.842	87.5
1015.267	81.5
1015.691	90.5
1016.116	86.5
1016.541	73.5
1016.965	87.5
1017.39	80.5
1017.814	62.5
1018.239	73.5
1018.663	84.5
1019.088	78.5
1019.512	79.5
1019.937	68.5
1020.361	74.5
1020.785	84.5
1021.21	92.5
1021.634	69.5
1022.058	92.5
1022.483	76.5
1022.907	89.5
1023.331	86.5
1023.755	86.5
1024.179	88.5
1024.604	80.5
1025.028	72.5
1025.452	78.5
1025.876	93.5
1026.3	78.5
1026.724	94.5
1027.148	76.5
1027.572	75.5
1027.996	78.5
1028.42	66.5
1028.843	67.5
1029.267	74.5
1029.691	71.5
1030.115	87.5
1030.539	71.5
1030.962	72.5
1031.386	85.5
1031.81	82.5
1032.233	88.5
1032.657	91.5
1033.08	79.5
1033.504	81.5
1033.927	90.5
1034.351	72.5
1034.774	90.5
1035.198	76.5
1035.621	81.5
1036.045	68.5
1036.468	91.5
1036.891	89.5
1037.315	74.5
1037.738	90.5
1038.161	73.5
1038.584	64.5
1039.008	73.5
1039.431	99.5
1039.854	92.5
1040.277	81.5
1040.7	80.5
1041.123	90.5
1041.546	100.5
1041.969	84.5
1042.392	97.5
1042.815	68.5
1043.238	76.5
1043.661	77.5
1044.084	71.5
1044.507	73.5
1044.93	73.5
1045.352	87.5
1045.775	92.5
1046.198	76.5
1046.621	79.5
1047.043	85.5
1047.466	96.5
1047.889	84.5
1048.311	71.5
1048.734	78.5
1049.156	93.5
1049.579	76.5
1050.001	93.5
1050.424	69.5
1050.846	91.5
1051.269	78.5
1051.691	78.5
1052.113	81.5
1052.536	64.5
1052.958	91.5
1053.38	91.5
1053.802	101.5
1054.225	87.5
1054.647	95.5
1055.069	81.5
1055.491	78.5
1055.913	77.5
1056.335	75.5
1056.757	71.5
1057.179	77.5
1057.601	80.5
1058.023	94.5
1058.445	90.5
1058.867	84.5
1059.289	76.5
1059.711	88.5
1060.133	70.5
1060.555	81.5
1060.976	87.5
1061.398	82.5
1061.82	69.5
1062.241	77.5
1062.663	83.5
1063.085	88.5
1063.506	82.5
1063.928	74.5
1064.35	80.5
1064.771	96.5
1065.193	81.5
1065.614	94.5
1066.035	76.5
1066.457	67.5
1066.878	96.5
1067.3	82.5
1067.721	85.5
1068.142	72.5
1068.564	91.5
1068.985	67.5
1069.406	78.5
1069.827	76.5
1070.248	92.5
1070.67	68.5
1071.091	77.5
1071.512	103.5
1071.933	73.5
1072.354	79.5
1072.775	60.5
1073.196	86.5
1073.617	94.5
1074.038	73.5
1074.459	74.5
1074.88	62.5
1075.3	86.5
1075.721	87.5
1076.142	77.5
1076.563	89.5
1076.983	84.5
1077.404	72.5
1077.825	72.5
1078.246	85.5
1078.666	81.5
1079.087	100.5
1079.507	78.5
1079.928	80.5
1080.348	71.5
1080.769	71.5
1081.189	84.5
1081.61	78.5
1082.03	94.5
1082.451	85.5
1082.871	77.5
1083.291	89.5
1083.711	95.5
1084.132	85.5
1084.552	81.5
1084.972	81.5
1085.392	71.5
1085.813	85.5
1086.233	87.5
1086.653	78.5
1087.073	65.5
1087.493	67.5
1087.913	78.5
1088.333	85.5
1088.753	76.5
1089.173	94.5
1089.593	61.5
1090.013	83.5
1090.433	69.5
1090.852	92.5
1091.272	81.5
1091.692	81.5
1092.112	79.5
1092.531	92.5
1092.951	76.5
1093.371	88.5
1093.79	74.5
1094.21	83.5
1094.63	69.5
1095.049	76.5
1095.469	78.5
1095.888	75.5
1096.308	90.5
1096.727	96.5
1097.146	98.5
1097.566	96.5
1097.985	85.5
1098.405	89.5
1098.824	88.5
1099.243	78.5
1099.662	76.5
1100.082	82.5
1100.501	68.5
1100.92	63.5
1101.339	82.5
1101.758	77.5
