Data from 20170802-ORNL-NYSim-Air_HRD10391_10-37-41-642.txt Node
Date: Wed Aug 02 10:37:41 EDT 2017
User: Ender
Spectrometer: HR+D1039
Trigger mode: 0
Integration Time (sec): 1.510000E-3
Scans to average: 1
Electric dark correction enabled: true
Nonlinearity correction enabled: false
Boxcar width: 0
XAxis mode: Wavelengths
Number of Pixels in Spectrum: 2048
>>>>>Begin Spectral Data<<<<<
187.836	18.69
188.309	18.69
188.782	18.69
189.255	16.69
189.728	-8.31
190.201	-17.31
190.674	-13.31
191.147	6.69
191.619	-10.31
192.092	-6.31
192.565	-8.31
193.038	-1.31
193.511	1.69
193.984	-0.31
194.456	8.69
194.929	0.69
195.402	12.69
195.874	-0.31
196.347	15.69
196.82	15.69
197.292	21.69
197.765	18.69
198.237	28.69
198.71	41.69
199.182	48.69
199.655	54.69
200.127	51.69
200.6	51.69
201.072	69.69
201.544	75.69
202.017	65.69
202.489	53.69
202.961	79.69
203.433	53.69
203.906	88.69
204.378	69.69
204.85	70.69
205.322	77.69
205.794	73.69
206.266	76.69
206.739	69.69
207.211	84.69
207.683	75.69
208.155	72.69
208.627	74.69
209.099	94.69
209.57	82.69
210.042	90.69
210.514	74.69
210.986	75.69
211.458	86.69
211.93	79.69
212.402	77.69
212.873	77.69
213.345	73.69
213.817	87.69
214.288	79.69
214.76	92.69
215.232	67.69
215.703	87.69
216.175	77.69
216.646	75.69
217.118	84.69
217.589	81.69
218.061	78.69
218.532	76.69
219.004	62.69
219.475	68.69
219.946	89.69
220.418	86.69
220.889	66.69
221.36	76.69
221.832	82.69
222.303	68.69
222.774	91.69
223.245	88.69
223.717	72.69
224.188	73.69
224.659	85.69
225.13	76.69
225.601	77.69
226.072	76.69
226.543	84.69
227.014	84.69
227.485	93.69
227.956	68.69
228.427	78.69
228.898	69.69
229.369	56.69
229.839	77.69
230.31	71.69
230.781	86.69
231.252	93.69
231.722	73.69
232.193	70.69
232.664	66.69
233.135	74.69
233.605	73.69
234.076	72.69
234.546	84.69
235.017	90.69
235.487	75.69
235.958	73.69
236.428	63.69
236.899	87.69
237.369	75.69
237.84	77.69
238.31	87.69
238.78	88.69
239.251	83.69
239.721	79.69
240.191	88.69
240.662	78.69
241.132	75.69
241.602	88.69
242.072	75.69
242.542	77.69
243.013	74.69
243.483	74.69
243.953	97.69
244.423	73.69
244.893	79.69
245.363	89.69
245.833	80.69
246.303	86.69
246.773	86.69
247.243	89.69
247.712	83.69
248.182	88.69
248.652	83.69
249.122	90.69
249.592	86.69
250.061	98.69
250.531	76.69
251.001	82.69
251.471	82.69
251.94	73.69
252.41	103.69
252.879	89.69
253.349	86.69
253.818	99.69
254.288	99.69
254.757	85.69
255.227	83.69
255.696	100.69
256.166	90.69
256.635	109.69
257.105	83.69
257.574	91.69
258.043	85.69
258.513	87.69
258.982	96.69
259.451	83.69
259.92	84.69
260.389	72.69
260.859	82.69
261.328	78.69
261.797	90.69
262.266	115.69
262.735	100.69
263.204	107.69
263.673	104.69
264.142	89.69
264.611	83.69
265.08	89.69
265.549	100.69
266.018	98.69
266.487	87.69
266.955	95.69
267.424	94.69
267.893	95.69
268.362	104.69
268.83	96.69
269.299	85.69
269.768	106.69
270.236	97.69
270.705	106.69
271.174	110.69
271.642	87.69
272.111	100.69
272.579	110.69
273.048	97.69
273.516	105.69
273.985	114.69
274.453	92.69
274.922	113.69
275.39	99.69
275.858	90.69
276.327	103.69
276.795	95.69
277.263	102.69
277.731	87.69
278.2	76.69
278.668	89.69
279.136	94.69
279.604	98.69
280.072	119.69
280.54	127.69
281.008	102.69
281.477	102.69
281.945	98.69
282.413	113.69
282.881	110.69
283.348	90.69
283.816	103.69
284.284	124.69
284.752	117.69
285.22	94.69
285.688	118.69
286.156	116.69
286.623	97.69
287.091	121.69
287.559	117.69
288.026	102.69
288.494	96.69
288.962	109.69
289.429	122.69
289.897	114.69
290.364	124.69
290.832	103.69
291.3	103.69
291.767	111.69
292.234	124.69
292.702	104.69
293.169	118.69
293.637	94.69
294.104	126.69
294.571	118.69
295.039	111.69
295.506	103.69
295.973	106.69
296.44	122.69
296.908	113.69
297.375	104.69
297.842	122.69
298.309	111.69
298.776	129.69
299.243	115.69
299.71	126.69
300.177	132.69
300.644	140.69
301.111	136.69
301.578	102.69
302.045	132.69
302.512	142.69
302.979	115.69
303.446	131.69
303.913	128.69
304.379	120.69
304.846	128.69
305.313	124.69
305.78	123.69
306.246	136.69
306.713	130.69
307.18	127.69
307.646	125.69
308.113	134.69
308.579	135.69
309.046	120.69
309.512	142.69
309.979	131.69
310.445	126.69
310.912	132.69
311.378	124.69
311.845	150.69
312.311	142.69
312.777	142.69
313.244	160.69
313.71	149.69
314.176	147.69
314.642	155.69
315.109	160.69
315.575	138.69
316.041	152.69
316.507	134.69
316.973	152.69
317.439	144.69
317.905	141.69
318.371	147.69
318.837	160.69
319.303	151.69
319.769	142.69
320.235	148.69
320.701	143.69
321.167	153.69
321.633	158.69
322.099	149.69
322.564	169.69
323.03	134.69
323.496	151.69
323.962	121.69
324.427	156.69
324.893	160.69
325.359	135.69
325.824	146.69
326.29	143.69
326.755	157.69
327.221	175.69
327.686	160.69
328.152	164.69
328.617	169.69
329.083	153.69
329.548	158.69
330.014	178.69
330.479	163.69
330.944	169.69
331.41	166.69
331.875	162.69
332.34	166.69
332.805	162.69
333.271	169.69
333.736	172.69
334.201	168.69
334.666	170.69
335.131	185.69
335.596	164.69
336.061	169.69
336.526	167.69
336.991	165.69
337.456	170.69
337.921	172.69
338.386	186.69
338.851	168.69
339.316	182.69
339.781	175.69
340.246	169.69
340.711	168.69
341.175	166.69
341.64	182.69
342.105	176.69
342.569	185.69
343.034	186.69
343.499	193.69
343.963	199.69
344.428	189.69
344.893	179.69
345.357	176.69
345.822	180.69
346.286	212.69
346.751	189.69
347.215	181.69
347.679	205.69
348.144	204.69
348.608	209.69
349.073	194.69
349.537	219.69
350.001	205.69
350.465	194.69
350.93	226.69
351.394	207.69
351.858	196.69
352.322	208.69
352.786	214.69
353.25	230.69
353.715	215.69
354.179	238.69
354.643	224.69
355.107	230.69
355.571	203.69
356.035	240.69
356.498	199.69
356.962	225.69
357.426	228.69
357.89	237.69
358.354	215.69
358.818	220.69
359.281	216.69
359.745	202.69
360.209	214.69
360.673	236.69
361.136	225.69
361.6	229.69
362.064	239.69
362.527	240.69
362.991	238.69
363.454	254.69
363.918	224.69
364.381	245.69
364.845	246.69
365.308	254.69
365.772	247.69
366.235	240.69
366.698	249.69
367.162	261.69
367.625	239.69
368.088	236.69
368.552	232.69
369.015	242.69
369.478	244.69
369.941	258.69
370.404	239.69
370.867	251.69
371.331	259.69
371.794	247.69
372.257	253.69
372.72	267.69
373.183	257.69
373.646	259.69
374.109	263.69
374.572	256.69
375.035	275.69
375.497	267.69
375.96	246.69
376.423	296.69
376.886	273.69
377.349	264.69
377.811	261.69
378.274	261.69
378.737	278.69
379.199	265.69
379.662	293.69
380.125	284.69
380.587	286.69
381.05	307.69
381.512	280.69
381.975	283.69
382.437	296.69
382.9	300.69
383.362	319.69
383.825	301.69
384.287	310.69
384.75	321.69
385.212	317.69
385.674	304.69
386.136	320.69
386.599	295.69
387.061	310.69
387.523	330.69
387.985	298.69
388.447	317.69
388.91	312.69
389.372	295.69
389.834	326.69
390.296	304.69
390.758	322.69
391.22	317.69
391.682	306.69
392.144	316.69
392.606	313.69
393.068	326.69
393.529	351.69
393.991	346.69
394.453	308.69
394.915	316.69
395.377	323.69
395.838	326.69
396.3	318.69
396.762	330.69
397.224	340.69
397.685	346.69
398.147	327.69
398.608	311.69
399.07	348.69
399.531	338.69
399.993	363.69
400.454	339.69
400.916	362.69
401.377	357.69
401.839	339.69
402.3	348.69
402.762	351.69
403.223	357.69
403.684	371.69
404.145	367.69
404.607	380.69
405.068	382.69
405.529	363.69
405.99	362.69
406.451	397.69
406.913	403.69
407.374	366.69
407.835	378.69
408.296	373.69
408.757	390.69
409.218	411.69
409.679	406.69
410.14	410.69
410.601	410.69
411.062	416.69
411.522	408.69
411.983	382.69
412.444	414.69
412.905	400.69
413.366	425.69
413.826	451.69
414.287	476.69
414.748	589.69
415.208	608.69
415.669	521.69
416.13	474.69
416.59	459.69
417.051	452.69
417.511	486.69
417.972	522.69
418.432	525.69
418.893	579.69
419.353	553.69
419.814	476.69
420.274	420.69
420.734	413.69
421.195	434.69
421.655	416.69
422.115	453.69
422.576	446.69
423.036	436.69
423.496	466.69
423.956	487.69
424.416	500.69
424.876	538.69
425.336	548.69
425.797	542.69
426.257	567.69
426.717	510.69
427.177	454.69
427.637	471.69
428.097	470.69
428.556	527.69
429.016	523.69
429.476	553.69
429.936	549.69
430.396	525.69
430.856	540.69
431.315	555.69
431.775	600.69
432.235	618.69
432.694	670.69
433.154	614.69
433.614	600.69
434.073	576.69
434.533	538.69
434.993	538.69
435.452	522.69
435.912	498.69
436.371	498.69
436.83	516.69
437.29	504.69
437.749	492.69
438.209	475.69
438.668	497.69
439.127	502.69
439.587	462.69
440.046	500.69
440.505	496.69
440.964	482.69
441.424	516.69
441.883	494.69
442.342	493.69
442.801	459.69
443.26	480.69
443.719	474.69
444.178	459.69
444.637	469.69
445.096	447.69
445.555	472.69
446.014	488.69
446.473	465.69
446.932	464.69
447.391	459.69
447.849	480.69
448.308	458.69
448.767	494.69
449.226	494.69
449.685	504.69
450.143	524.69
450.602	509.69
451.061	480.69
451.519	470.69
451.978	495.69
452.436	476.69
452.895	486.69
453.353	480.69
453.812	488.69
454.27	490.69
454.729	459.69
455.187	469.69
455.646	490.69
456.104	502.69
456.562	511.69
457.021	507.69
457.479	491.69
457.937	510.69
458.395	510.69
458.854	525.69
459.312	526.69
459.77	494.69
460.228	505.69
460.686	529.69
461.144	512.69
461.602	483.69
462.06	534.69
462.518	556.69
462.976	526.69
463.434	529.69
463.892	547.69
464.35	559.69
464.808	533.69
465.266	568.69
465.724	548.69
466.181	551.69
466.639	540.69
467.097	580.69
467.555	626.69
468.012	583.69
468.47	638.69
468.928	615.69
469.385	621.69
469.843	646.69
470.3	628.69
470.758	675.69
471.215	655.69
471.673	682.69
472.13	703.69
472.588	722.69
473.045	689.69
473.503	721.69
473.96	734.69
474.417	756.69
474.875	781.69
475.332	803.69
475.789	796.69
476.246	824.69
476.704	873.69
477.161	877.69
477.618	914.69
478.075	911.69
478.532	1002.69
478.989	1062.69
479.446	1146.69
479.903	1230.69
480.36	1307.69
480.817	1354.69
481.274	1432.69
481.731	1570.69
482.188	1679.69
482.645	1731.69
483.102	1878.69
483.558	1962.69
484.015	2055.69
484.472	2050.69
484.929	2033.69
485.385	1941.69
485.842	1927.69
486.299	1830.69
486.755	1712.69
487.212	1561.69
487.668	1450.69
488.125	1378.69
488.582	1236.69
489.038	1200.69
489.494	1152.69
489.951	1171.69
490.407	1128.69
490.864	1108.69
491.32	1116.69
491.776	1095.69
492.233	1065.69
492.689	1056.69
493.145	1067.69
493.602	1037.69
494.058	1063.69
494.514	1034.69
494.97	1072.69
495.426	1066.69
495.882	1059.69
496.338	1049.69
496.794	1078.69
497.251	1116.69
497.707	1067.69
498.163	1062.69
498.618	1104.69
499.074	1077.69
499.53	1094.69
499.986	1105.69
500.442	1097.69
500.898	1103.69
501.354	1088.69
501.809	1116.69
502.265	1118.69
502.721	1103.69
503.177	1132.69
503.632	1099.69
504.088	1132.69
504.543	1124.69
504.999	1166.69
505.455	1173.69
505.91	1132.69
506.366	1168.69
506.821	1105.69
507.277	1103.69
507.732	1090.69
508.187	1120.69
508.643	1131.69
509.098	1134.69
509.553	1133.69
510.009	1175.69
510.464	1206.69
510.919	1181.69
511.375	1232.69
511.83	1211.69
512.285	1216.69
512.74	1221.69
513.195	1273.69
513.65	1298.69
514.105	1325.69
514.56	1310.69
515.015	1318.69
515.47	1340.69
515.925	1320.69
516.38	1337.69
516.835	1303.69
517.29	1297.69
517.745	1299.69
518.2	1295.69
518.655	1291.69
519.109	1257.69
519.564	1221.69
520.019	1209.69
520.474	1227.69
520.928	1226.69
521.383	1210.69
521.838	1238.69
522.292	1204.69
522.747	1172.69
523.201	1176.69
523.656	1164.69
524.11	1223.69
524.565	1235.69
525.019	1204.69
525.474	1170.69
525.928	1172.69
526.382	1176.69
526.837	1190.69
527.291	1170.69
527.745	1187.69
528.2	1191.69
528.654	1150.69
529.108	1151.69
529.562	1167.69
530.016	1175.69
530.47	1153.69
530.925	1183.69
531.379	1174.69
531.833	1198.69
532.287	1162.69
532.741	1169.69
533.195	1183.69
533.649	1182.69
534.103	1198.69
534.556	1155.69
535.01	1156.69
535.464	1158.69
535.918	1171.69
536.372	1182.69
536.826	1189.69
537.279	1167.69
537.733	1128.69
538.187	1194.69
538.64	1144.69
539.094	1169.69
539.548	1206.69
540.001	1196.69
540.455	1209.69
540.908	1206.69
541.362	1208.69
541.815	1221.69
542.269	1265.69
542.722	1286.69
543.175	1260.69
543.629	1268.69
544.082	1269.69
544.536	1310.69
544.989	1289.69
545.442	1281.69
545.895	1287.69
546.349	1275.69
546.802	1276.69
547.255	1309.69
547.708	1343.69
548.161	1324.69
548.614	1298.69
549.067	1322.69
549.52	1287.69
549.973	1284.69
550.426	1311.69
550.879	1284.69
551.332	1318.69
551.785	1319.69
552.238	1324.69
552.691	1292.69
553.144	1320.69
553.596	1358.69
554.049	1380.69
554.502	1392.69
554.955	1412.69
555.407	1425.69
555.86	1439.69
556.313	1384.69
556.765	1382.69
557.218	1367.69
557.67	1390.69
558.123	1347.69
558.576	1367.69
559.028	1372.69
559.48	1401.69
559.933	1365.69
560.385	1368.69
560.838	1298.69
561.29	1258.69
561.742	1258.69
562.195	1248.69
562.647	1221.69
563.099	1216.69
563.551	1232.69
564.004	1225.69
564.456	1221.69
564.908	1172.69
565.36	1162.69
565.812	1153.69
566.264	1135.69
566.716	1139.69
567.168	1112.69
567.62	1087.69
568.072	1098.69
568.524	1095.69
568.976	1082.69
569.428	1066.69
569.88	1070.69
570.332	1095.69
570.784	1092.69
571.235	1078.69
571.687	1066.69
572.139	1085.69
572.59	1097.69
573.042	1114.69
573.494	1115.69
573.945	1095.69
574.397	1052.69
574.849	1060.69
575.3	1070.69
575.752	1012.69
576.203	1049.69
576.655	1076.69
577.106	1072.69
577.557	1032.69
578.009	1008.69
578.46	1028.69
578.912	1026.69
579.363	1051.69
579.814	1026.69
580.265	1035.69
580.717	1024.69
581.168	1055.69
581.619	1026.69
582.07	1044.69
582.521	1074.69
582.972	1040.69
583.423	1026.69
583.875	1022.69
584.326	1057.69
584.777	1036.69
585.227	1062.69
585.678	1098.69
586.129	1097.69
586.58	1145.69
587.031	1139.69
587.482	1168.69
587.933	1188.69
588.384	1149.69
588.834	1172.69
589.285	1155.69
589.736	1188.69
590.186	1192.69
590.637	1166.69
591.088	1136.69
591.538	1134.69
591.989	1068.69
592.439	1057.69
592.89	1062.69
593.34	1051.69
593.791	1072.69
594.241	1069.69
594.692	1027.69
595.142	1057.69
595.593	1065.69
596.043	1052.69
596.493	1066.69
596.943	1060.69
597.394	1090.69
597.844	1082.69
598.294	1110.69
598.744	1140.69
599.195	1192.69
599.645	1240.69
600.095	1311.69
600.545	1372.69
600.995	1391.69
601.445	1436.69
601.895	1545.69
602.345	1608.69
602.795	1610.69
603.245	1512.69
603.695	1472.69
604.145	1372.69
604.594	1329.69
605.044	1255.69
605.494	1186.69
605.944	1096.69
606.393	1070.69
606.843	1058.69
607.293	1027.69
607.743	1071.69
608.192	1084.69
608.642	1091.69
609.091	1110.69
609.541	1071.69
609.99	1042.69
610.44	1037.69
610.889	1066.69
611.339	1040.69
611.788	1000.69
612.238	994.69
612.687	1014.69
613.136	1026.69
613.586	1028.69
614.035	1034.69
614.484	1025.69
614.933	1069.69
615.383	1009.69
615.832	992.69
616.281	989.69
616.73	969.69
617.179	930.69
617.628	944.69
618.077	935.69
618.526	903.69
618.975	903.69
619.424	889.69
619.873	893.69
620.322	871.69
620.771	897.69
621.22	874.69
621.669	850.69
622.118	853.69
622.567	878.69
623.015	854.69
623.464	831.69
623.913	804.69
624.361	791.69
624.81	796.69
625.259	850.69
625.707	799.69
626.156	794.69
626.604	841.69
627.053	802.69
627.501	846.69
627.95	835.69
628.398	847.69
628.847	814.69
629.295	818.69
629.744	846.69
630.192	842.69
630.64	805.69
631.089	794.69
631.537	789.69
631.985	793.69
632.433	771.69
632.881	758.69
633.33	774.69
633.778	771.69
634.226	771.69
634.674	779.69
635.122	750.69
635.57	754.69
636.018	798.69
636.466	813.69
636.914	802.69
637.362	820.69
637.81	792.69
638.258	848.69
638.705	841.69
639.153	868.69
639.601	866.69
640.049	911.69
640.497	935.69
640.944	933.69
641.392	899.69
641.84	856.69
642.287	822.69
642.735	832.69
643.182	785.69
643.63	787.69
644.078	823.69
644.525	792.69
644.973	806.69
645.42	822.69
645.867	854.69
646.315	871.69
646.762	890.69
647.21	924.69
647.657	959.69
648.104	962.69
648.551	985.69
648.999	1062.69
649.446	1128.69
649.893	1260.69
650.34	1392.69
650.787	1653.69
651.234	2043.69
651.682	2692.69
652.129	3659.69
652.576	5166.69
653.023	7142.69
653.47	8736.69
653.917	9771.69
654.363	10327.69
654.81	10876.69
655.257	11306.69
655.704	8660.69
656.151	5392.69
656.598	3416.69
657.044	2448.69
657.491	1874.69
657.938	1602.69
658.385	1364.69
658.831	1213.69
659.278	1080.69
659.724	1018.69
660.171	930.69
660.618	871.69
661.064	861.69
661.511	824.69
661.957	798.69
662.404	809.69
662.85	750.69
663.296	779.69
663.743	760.69
664.189	743.69
664.635	753.69
665.082	745.69
665.528	733.69
665.974	727.69
666.42	695.69
666.867	701.69
667.313	658.69
667.759	670.69
668.205	649.69
668.651	646.69
669.097	656.69
669.543	656.69
669.989	644.69
670.435	663.69
670.881	662.69
671.327	671.69
671.773	715.69
672.219	716.69
672.665	791.69
673.11	862.69
673.556	848.69
674.002	876.69
674.448	902.69
674.893	789.69
675.339	684.69
675.785	663.69
676.23	625.69
676.676	643.69
677.122	577.69
677.567	566.69
678.013	537.69
678.458	552.69
678.904	543.69
679.349	536.69
679.794	516.69
680.24	524.69
680.685	543.69
681.131	536.69
681.576	525.69
682.021	553.69
682.466	525.69
682.912	528.69
683.357	562.69
683.802	600.69
684.247	630.69
684.692	675.69
685.137	701.69
685.583	710.69
686.028	725.69
686.473	710.69
686.918	628.69
687.363	583.69
687.807	578.69
688.252	550.69
688.697	542.69
689.142	530.69
689.587	511.69
690.032	527.69
690.477	528.69
690.921	569.69
691.366	564.69
691.811	583.69
692.255	611.69
692.7	716.69
693.145	928.69
693.589	1321.69
694.034	1767.69
694.478	1979.69
694.923	1810.69
695.367	2238.69
695.812	2109.69
696.256	889.69
696.701	599.69
697.145	542.69
697.59	508.69
698.034	476.69
698.478	506.69
698.922	472.69
699.367	488.69
699.811	515.69
700.255	542.69
700.699	596.69
701.143	644.69
701.588	675.69
702.032	681.69
702.476	744.69
702.92	752.69
703.364	879.69
703.808	1211.69
704.252	1675.69
704.696	1896.69
705.14	1755.69
705.584	2183.69
706.027	1838.69
706.471	886.69
706.915	610.69
707.359	534.69
707.803	476.69
708.246	467.69
708.69	455.69
709.134	470.69
709.577	473.69
710.021	482.69
710.465	472.69
710.908	443.69
711.352	464.69
711.795	520.69
712.239	553.69
712.682	573.69
713.126	539.69
713.569	601.69
714.012	542.69
714.456	462.69
714.899	446.69
715.342	420.69
715.786	426.69
716.229	401.69
716.672	374.69
717.115	405.69
717.558	407.69
718.002	410.69
718.445	420.69
718.888	433.69
719.331	426.69
719.774	445.69
720.217	452.69
720.66	429.69
721.103	420.69
721.546	397.69
721.989	408.69
722.432	403.69
722.874	374.69
723.317	384.69
723.76	398.69
724.203	450.69
724.645	581.69
725.088	682.69
725.531	742.69
725.974	710.69
726.416	764.69
726.859	533.69
727.301	413.69
727.744	408.69
728.187	374.69
728.629	394.69
729.071	387.69
729.514	411.69
729.956	421.69
730.399	428.69
730.841	438.69
731.283	450.69
731.726	432.69
732.168	408.69
732.61	435.69
733.053	470.69
733.495	500.69
733.937	536.69
734.379	608.69
734.821	710.69
735.263	978.69
735.705	1620.69
736.148	2655.69
736.59	3055.69
737.032	2879.69
737.474	3098.69
737.916	1522.69
738.357	767.69
738.799	543.69
739.241	483.69
739.683	456.69
740.125	462.69
740.567	482.69
741.008	516.69
741.45	535.69
741.892	552.69
742.334	514.69
742.775	534.69
743.217	582.69
743.658	474.69
744.1	445.69
744.542	486.69
744.983	552.69
745.425	537.69
745.866	577.69
746.307	508.69
746.749	500.69
747.19	582.69
747.632	964.69
748.073	1797.69
748.514	2808.69
748.956	3417.69
749.397	4638.69
749.838	3761.69
750.279	3005.69
750.72	2284.69
751.162	1046.69
751.603	570.69
752.044	431.69
752.485	392.69
752.926	360.69
753.367	335.69
753.808	350.69
754.249	327.69
754.69	338.69
755.131	328.69
755.572	304.69
756.013	317.69
756.453	334.69
756.894	306.69
757.335	339.69
757.776	330.69
758.216	350.69
758.657	358.69
759.098	356.69
759.538	387.69
759.979	526.69
760.42	794.69
760.86	1744.69
761.301	4044.69
761.741	5991.69
762.182	6224.69
762.622	5817.69
763.063	2722.69
763.503	1073.69
763.943	596.69
764.384	463.69
764.824	415.69
765.264	404.69
765.705	359.69
766.145	335.69
766.585	329.69
767.025	310.69
767.465	301.69
767.906	338.69
768.346	314.69
768.786	352.69
769.226	389.69
769.666	648.69
770.106	1375.69
770.546	2417.69
770.986	2665.69
771.426	2616.69
771.866	1476.69
772.306	670.69
772.745	382.69
773.185	316.69
773.625	302.69
774.065	320.69
774.505	334.69
774.944	534.69
775.384	791.69
775.824	884.69
776.263	858.69
776.703	629.69
777.142	394.69
777.582	258.69
778.021	266.69
778.461	260.69
778.9	255.69
779.34	230.69
779.779	252.69
780.219	242.69
780.658	230.69
781.097	229.69
781.537	214.69
781.976	216.69
782.415	214.69
782.855	208.69
783.294	210.69
783.733	210.69
784.172	234.69
784.611	219.69
785.05	215.69
785.489	210.69
785.928	223.69
786.367	250.69
786.806	236.69
787.245	253.69
787.684	264.69
788.123	265.69
788.562	251.69
789.001	239.69
789.44	250.69
789.879	258.69
790.317	240.69
790.756	258.69
791.195	251.69
791.634	326.69
792.072	419.69
792.511	874.69
792.95	1862.69
793.388	2251.69
793.827	2022.69
794.265	1193.69
794.704	610.69
795.142	340.69
795.581	270.69
796.019	260.69
796.458	244.69
796.896	278.69
797.334	294.69
797.773	322.69
798.211	469.69
798.649	922.69
799.087	1447.69
799.526	2259.69
799.964	2577.69
800.402	2127.69
800.84	1206.69
801.278	652.69
801.716	390.69
802.154	323.69
802.592	294.69
803.03	263.69
803.468	288.69
803.906	308.69
804.344	286.69
804.782	259.69
805.22	264.69
805.658	295.69
806.096	274.69
806.533	294.69
806.971	339.69
807.409	411.69
807.847	692.69
808.284	1515.69
808.722	2930.69
809.16	4198.69
809.597	5721.69
810.035	7375.69
810.472	6187.69
810.91	3422.69
811.347	1675.69
811.785	783.69
812.222	476.69
812.66	360.69
813.097	302.69
813.535	270.69
813.972	258.69
814.409	236.69
814.846	234.69
815.284	247.69
815.721	234.69
816.158	217.69
816.595	274.69
817.032	341.69
817.47	345.69
817.907	256.69
818.344	249.69
818.781	244.69
819.218	247.69
819.655	335.69
820.092	383.69
820.529	425.69
820.966	360.69
821.403	320.69
821.839	248.69
822.276	226.69
822.713	270.69
823.15	261.69
823.587	288.69
824.023	356.69
824.46	706.69
824.897	1322.69
825.333	1400.69
825.77	851.69
826.206	513.69
826.643	342.69
827.08	236.69
827.516	200.69
827.953	182.69
828.389	190.69
828.825	186.69
829.262	179.69
829.698	164.69
830.135	170.69
830.571	169.69
831.007	171.69
831.443	164.69
831.88	168.69
832.316	182.69
832.752	166.69
833.188	168.69
833.624	169.69
834.06	180.69
834.497	175.69
834.933	160.69
835.369	186.69
835.805	169.69
836.241	174.69
836.677	209.69
837.112	216.69
837.548	232.69
837.984	294.69
838.42	458.69
838.856	1127.69
839.292	2255.69
839.727	2545.69
840.163	1663.69
840.599	1931.69
841.034	2856.69
841.47	2238.69
841.906	1278.69
842.341	733.69
842.777	442.69
843.212	398.69
843.648	345.69
844.083	268.69
844.519	213.69
844.954	171.69
845.39	192.69
845.825	156.69
846.261	153.69
846.696	165.69
847.131	166.69
847.566	151.69
848.002	167.69
848.437	161.69
848.872	167.69
849.307	189.69
849.742	203.69
850.177	447.69
850.613	894.69
851.048	956.69
851.483	564.69
851.918	378.69
852.353	241.69
852.788	163.69
853.223	154.69
853.657	139.69
854.092	142.69
854.527	144.69
854.962	148.69
855.397	131.69
855.832	150.69
856.266	123.69
856.701	148.69
857.136	157.69
857.57	153.69
858.005	162.69
858.44	158.69
858.874	150.69
859.309	147.69
859.743	145.69
860.178	157.69
860.612	137.69
861.047	147.69
861.481	201.69
861.915	184.69
862.35	166.69
862.784	153.69
863.218	130.69
863.653	129.69
864.087	160.69
864.521	148.69
864.955	198.69
865.39	265.69
865.824	290.69
866.258	285.69
866.692	381.69
867.126	365.69
867.56	297.69
867.994	213.69
868.428	167.69
868.862	165.69
869.296	162.69
869.73	176.69
870.164	163.69
870.598	150.69
871.031	137.69
871.465	130.69
871.899	120.69
872.333	122.69
872.766	124.69
873.2	126.69
873.634	109.69
874.067	120.69
874.501	109.69
874.935	108.69
875.368	125.69
875.802	122.69
876.235	126.69
876.669	106.69
877.102	122.69
877.535	95.69
877.969	111.69
878.402	112.69
878.836	98.69
879.269	115.69
879.702	120.69
880.135	126.69
880.569	132.69
881.002	118.69
881.435	111.69
881.868	114.69
882.301	106.69
882.734	103.69
883.167	121.69
883.601	105.69
884.034	105.69
884.467	108.69
884.899	104.69
885.332	122.69
885.765	102.69
886.198	109.69
886.631	99.69
887.064	114.69
887.497	113.69
887.929	112.69
888.362	87.69
888.795	99.69
889.228	105.69
889.66	106.69
890.093	112.69
890.526	107.69
890.958	108.69
891.391	118.69
891.823	102.69
892.256	93.69
892.688	116.69
893.121	97.69
893.553	92.69
893.985	132.69
894.418	122.69
894.85	112.69
895.282	102.69
895.715	98.69
896.147	107.69
896.579	108.69
897.011	91.69
897.444	96.69
897.876	109.69
898.308	126.69
898.74	116.69
899.172	119.69
899.604	108.69
900.036	115.69
900.468	111.69
900.9	109.69
901.332	118.69
901.764	118.69
902.196	131.69
902.628	103.69
903.06	135.69
903.491	129.69
903.923	122.69
904.355	98.69
904.787	119.69
905.218	107.69
905.65	112.69
906.082	105.69
906.513	93.69
906.945	113.69
907.376	106.69
907.808	119.69
908.239	120.69
908.671	112.69
909.102	106.69
909.534	116.69
909.965	146.69
910.397	262.69
910.828	574.69
911.259	601.69
911.691	399.69
912.122	286.69
912.553	190.69
912.984	143.69
913.415	118.69
913.847	119.69
914.278	104.69
914.709	107.69
915.14	105.69
915.571	102.69
916.002	111.69
916.433	102.69
916.864	109.69
917.295	90.69
917.726	110.69
918.157	120.69
918.587	113.69
919.018	112.69
919.449	132.69
919.88	116.69
920.311	134.69
920.741	179.69
921.172	317.69
921.603	274.69
922.033	209.69
922.464	147.69
922.895	141.69
923.325	111.69
923.756	110.69
924.186	104.69
924.617	111.69
925.047	121.69
925.478	156.69
925.908	110.69
926.338	128.69
926.769	102.69
927.199	76.69
927.629	99.69
928.06	78.69
928.49	105.69
928.92	111.69
929.35	92.69
929.78	109.69
930.21	99.69
930.641	101.69
931.071	92.69
931.501	74.69
931.931	89.69
932.361	98.69
932.791	94.69
933.221	87.69
933.651	73.69
934.08	105.69
934.51	93.69
934.94	102.69
935.37	95.69
935.8	107.69
936.229	91.69
936.659	96.69
937.089	108.69
937.519	111.69
937.948	115.69
938.378	109.69
938.807	92.69
939.237	92.69
939.666	97.69
940.096	86.69
940.525	78.69
940.955	82.69
941.384	85.69
941.814	89.69
942.243	75.69
942.672	77.69
943.102	85.69
943.531	92.69
943.96	81.69
944.39	86.69
944.819	61.69
945.248	79.69
945.677	98.69
946.106	77.69
946.535	81.69
946.964	101.69
947.393	84.69
947.822	77.69
948.251	91.69
948.68	100.69
949.109	87.69
949.538	95.69
949.967	86.69
950.396	84.69
950.825	71.69
951.254	88.69
951.682	72.69
952.111	85.69
952.54	87.69
952.969	87.69
953.397	74.69
953.826	82.69
954.254	90.69
954.683	91.69
955.112	76.69
955.54	75.69
955.969	73.69
956.397	92.69
956.826	82.69
957.254	83.69
957.682	84.69
958.111	90.69
958.539	101.69
958.967	88.69
959.396	102.69
959.824	91.69
960.252	84.69
960.68	74.69
961.109	81.69
961.537	88.69
961.965	82.69
962.393	94.69
962.821	75.69
963.249	87.69
963.677	88.69
964.105	124.69
964.533	174.69
964.961	137.69
965.389	125.69
965.817	116.69
966.245	96.69
966.672	90.69
967.1	92.69
967.528	82.69
967.956	91.69
968.383	95.69
968.811	71.69
969.239	88.69
969.666	84.69
970.094	75.69
970.522	89.69
970.949	94.69
971.377	88.69
971.804	96.69
972.232	77.69
972.659	88.69
973.087	78.69
973.514	75.69
973.941	84.69
974.369	98.69
974.796	82.69
975.223	83.69
975.651	87.69
976.078	70.69
976.505	81.69
976.932	78.69
977.359	102.69
977.786	100.69
978.214	93.69
978.641	86.69
979.068	93.69
979.495	81.69
979.922	97.69
980.349	98.69
980.776	80.69
981.202	84.69
981.629	84.69
982.056	79.69
982.483	88.69
982.91	94.69
983.337	75.69
983.763	93.69
984.19	81.69
984.617	90.69
985.043	78.69
985.47	91.69
985.897	68.69
986.323	89.69
986.75	83.69
987.176	75.69
987.603	100.69
988.029	73.69
988.456	86.69
988.882	70.69
989.308	74.69
989.735	79.69
990.161	87.69
990.587	82.69
991.014	85.69
991.44	76.69
991.866	76.69
992.292	102.69
992.719	90.69
993.145	73.69
993.571	91.69
993.997	85.69
994.423	80.69
994.849	81.69
995.275	81.69
995.701	93.69
996.127	74.69
996.553	77.69
996.979	72.69
997.405	78.69
997.83	89.69
998.256	94.69
998.682	84.69
999.108	71.69
999.534	85.69
999.959	78.69
1000.385	99.69
1000.811	84.69
1001.236	74.69
1001.662	86.69
1002.087	84.69
1002.513	94.69
1002.938	90.69
1003.364	63.69
1003.789	84.69
1004.215	79.69
1004.64	76.69
1005.066	86.69
1005.491	75.69
1005.916	82.69
1006.342	74.69
1006.767	75.69
1007.192	82.69
1007.617	69.69
1008.042	87.69
1008.468	89.69
1008.893	85.69
1009.318	75.69
1009.743	104.69
1010.168	80.69
1010.593	94.69
1011.018	104.69
1011.443	98.69
1011.868	76.69
1012.293	83.69
1012.718	64.69
1013.143	86.69
1013.567	85.69
1013.992	86.69
1014.417	70.69
1014.842	85.69
1015.267	102.69
1015.691	84.69
1016.116	74.69
1016.541	94.69
1016.965	84.69
1017.39	73.69
1017.814	94.69
1018.239	70.69
1018.663	82.69
1019.088	82.69
1019.512	75.69
1019.937	80.69
1020.361	79.69
1020.785	78.69
1021.21	86.69
1021.634	88.69
1022.058	85.69
1022.483	63.69
1022.907	79.69
1023.331	70.69
1023.755	84.69
1024.179	77.69
1024.604	90.69
1025.028	81.69
1025.452	79.69
1025.876	67.69
1026.3	83.69
1026.724	86.69
1027.148	80.69
1027.572	79.69
1027.996	73.69
1028.42	85.69
1028.843	80.69
1029.267	85.69
1029.691	87.69
1030.115	89.69
1030.539	93.69
1030.962	72.69
1031.386	75.69
1031.81	81.69
1032.233	98.69
1032.657	77.69
1033.08	69.69
1033.504	85.69
1033.927	68.69
1034.351	92.69
1034.774	94.69
1035.198	75.69
1035.621	84.69
1036.045	91.69
1036.468	92.69
1036.891	76.69
1037.315	92.69
1037.738	86.69
1038.161	83.69
1038.584	72.69
1039.008	66.69
1039.431	88.69
1039.854	61.69
1040.277	75.69
1040.7	80.69
1041.123	85.69
1041.546	64.69
1041.969	74.69
1042.392	86.69
1042.815	78.69
1043.238	77.69
1043.661	62.69
1044.084	82.69
1044.507	76.69
1044.93	83.69
1045.352	79.69
1045.775	92.69
1046.198	75.69
1046.621	90.69
1047.043	85.69
1047.466	74.69
1047.889	79.69
1048.311	96.69
1048.734	92.69
1049.156	95.69
1049.579	76.69
1050.001	88.69
1050.424	78.69
1050.846	82.69
1051.269	72.69
1051.691	73.69
1052.113	78.69
1052.536	98.69
1052.958	83.69
1053.38	77.69
1053.802	94.69
1054.225	74.69
1054.647	85.69
1055.069	79.69
1055.491	84.69
1055.913	71.69
1056.335	62.69
1056.757	86.69
1057.179	73.69
1057.601	75.69
1058.023	78.69
1058.445	75.69
1058.867	81.69
1059.289	76.69
1059.711	84.69
1060.133	88.69
1060.555	80.69
1060.976	84.69
1061.398	94.69
1061.82	82.69
1062.241	93.69
1062.663	81.69
1063.085	92.69
1063.506	82.69
1063.928	85.69
1064.35	81.69
1064.771	84.69
1065.193	72.69
1065.614	71.69
1066.035	86.69
1066.457	73.69
1066.878	87.69
1067.3	81.69
1067.721	78.69
1068.142	80.69
1068.564	86.69
1068.985	87.69
1069.406	73.69
1069.827	70.69
1070.248	66.69
1070.67	93.69
1071.091	87.69
1071.512	94.69
1071.933	89.69
1072.354	74.69
1072.775	58.69
1073.196	74.69
1073.617	75.69
1074.038	96.69
1074.459	92.69
1074.88	71.69
1075.3	81.69
1075.721	94.69
1076.142	75.69
1076.563	66.69
1076.983	86.69
1077.404	94.69
1077.825	71.69
1078.246	93.69
1078.666	76.69
1079.087	101.69
1079.507	72.69
1079.928	80.69
1080.348	83.69
1080.769	75.69
1081.189	86.69
1081.61	81.69
1082.03	77.69
1082.451	84.69
1082.871	73.69
1083.291	83.69
1083.711	83.69
1084.132	79.69
1084.552	92.69
1084.972	78.69
1085.392	86.69
1085.813	85.69
1086.233	88.69
1086.653	100.69
1087.073	98.69
1087.493	90.69
1087.913	87.69
1088.333	96.69
1088.753	86.69
1089.173	89.69
1089.593	83.69
1090.013	78.69
1090.433	92.69
1090.852	92.69
1091.272	82.69
1091.692	76.69
1092.112	97.69
1092.531	84.69
1092.951	89.69
1093.371	87.69
1093.79	81.69
1094.21	100.69
1094.63	87.69
1095.049	76.69
1095.469	83.69
1095.888	99.69
1096.308	87.69
1096.727	83.69
1097.146	81.69
1097.566	84.69
1097.985	86.69
1098.405	80.69
1098.824	78.69
1099.243	81.69
1099.662	77.69
1100.082	86.69
1100.501	88.69
1100.92	83.69
1101.339	79.69
1101.758	96.69
