Data from 20170802-ORNL-NYSim-Air_HRD10391_10-36-35-611.txt Node
Date: Wed Aug 02 10:36:35 EDT 2017
User: Ender
Spectrometer: HR+D1039
Trigger mode: 0
Integration Time (sec): 3.750000E-3
Scans to average: 1
Electric dark correction enabled: true
Nonlinearity correction enabled: false
Boxcar width: 0
XAxis mode: Wavelengths
Number of Pixels in Spectrum: 2048
>>>>>Begin Spectral Data<<<<<
187.836	-22.12
188.309	-22.12
188.782	-22.12
189.255	8.88
189.728	-2.12
190.201	7.88
190.674	-13.12
191.147	-3.12
191.619	-6.12
192.092	-8.12
192.565	2.88
193.038	-6.12
193.511	-4.12
193.984	-4.12
194.456	6.88
194.929	15.88
195.402	14.88
195.874	11.88
196.347	28.88
196.82	22.88
197.292	16.88
197.765	33.88
198.237	49.88
198.71	40.88
199.182	41.88
199.655	46.88
200.127	58.88
200.6	25.88
201.072	42.88
201.544	68.88
202.017	54.88
202.489	54.88
202.961	79.88
203.433	67.88
203.906	77.88
204.378	79.88
204.85	73.88
205.322	63.88
205.794	89.88
206.266	76.88
206.739	95.88
207.211	91.88
207.683	86.88
208.155	87.88
208.627	81.88
209.099	69.88
209.57	83.88
210.042	93.88
210.514	72.88
210.986	91.88
211.458	82.88
211.93	78.88
212.402	86.88
212.873	88.88
213.345	78.88
213.817	75.88
214.288	86.88
214.76	91.88
215.232	90.88
215.703	76.88
216.175	80.88
216.646	77.88
217.118	75.88
217.589	79.88
218.061	93.88
218.532	76.88
219.004	62.88
219.475	94.88
219.946	96.88
220.418	81.88
220.889	91.88
221.36	77.88
221.832	96.88
222.303	88.88
222.774	74.88
223.245	78.88
223.717	77.88
224.188	73.88
224.659	85.88
225.13	82.88
225.601	83.88
226.072	71.88
226.543	70.88
227.014	72.88
227.485	90.88
227.956	90.88
228.427	91.88
228.898	89.88
229.369	97.88
229.839	73.88
230.31	80.88
230.781	90.88
231.252	82.88
231.722	85.88
232.193	84.88
232.664	86.88
233.135	85.88
233.605	88.88
234.076	82.88
234.546	91.88
235.017	75.88
235.487	102.88
235.958	87.88
236.428	112.88
236.899	103.88
237.369	89.88
237.84	76.88
238.31	100.88
238.78	92.88
239.251	96.88
239.721	73.88
240.191	110.88
240.662	90.88
241.132	98.88
241.602	104.88
242.072	106.88
242.542	101.88
243.013	99.88
243.483	95.88
243.953	94.88
244.423	92.88
244.893	103.88
245.363	104.88
245.833	102.88
246.303	87.88
246.773	100.88
247.243	99.88
247.712	94.88
248.182	87.88
248.652	92.88
249.122	108.88
249.592	109.88
250.061	92.88
250.531	110.88
251.001	98.88
251.471	107.88
251.94	98.88
252.41	100.88
252.879	100.88
253.349	110.88
253.818	93.88
254.288	116.88
254.757	118.88
255.227	128.88
255.696	107.88
256.166	104.88
256.635	124.88
257.105	100.88
257.574	106.88
258.043	120.88
258.513	115.88
258.982	115.88
259.451	122.88
259.92	108.88
260.389	119.88
260.859	110.88
261.328	110.88
261.797	129.88
262.266	108.88
262.735	131.88
263.204	106.88
263.673	128.88
264.142	125.88
264.611	136.88
265.08	126.88
265.549	126.88
266.018	137.88
266.487	136.88
266.955	123.88
267.424	126.88
267.893	128.88
268.362	129.88
268.83	125.88
269.299	136.88
269.768	128.88
270.236	134.88
270.705	125.88
271.174	140.88
271.642	148.88
272.111	122.88
272.579	125.88
273.048	111.88
273.516	137.88
273.985	144.88
274.453	119.88
274.922	144.88
275.39	122.88
275.858	147.88
276.327	135.88
276.795	154.88
277.263	143.88
277.731	140.88
278.2	150.88
278.668	147.88
279.136	150.88
279.604	131.88
280.072	145.88
280.54	148.88
281.008	173.88
281.477	150.88
281.945	162.88
282.413	153.88
282.881	152.88
283.348	141.88
283.816	164.88
284.284	154.88
284.752	170.88
285.22	148.88
285.688	154.88
286.156	166.88
286.623	174.88
287.091	161.88
287.559	154.88
288.026	167.88
288.494	155.88
288.962	176.88
289.429	182.88
289.897	165.88
290.364	139.88
290.832	170.88
291.3	155.88
291.767	171.88
292.234	162.88
292.702	175.88
293.169	170.88
293.637	164.88
294.104	164.88
294.571	182.88
295.039	186.88
295.506	177.88
295.973	170.88
296.44	171.88
296.908	177.88
297.375	182.88
297.842	185.88
298.309	168.88
298.776	186.88
299.243	198.88
299.71	192.88
300.177	174.88
300.644	183.88
301.111	197.88
301.578	198.88
302.045	197.88
302.512	196.88
302.979	168.88
303.446	194.88
303.913	201.88
304.379	196.88
304.846	209.88
305.313	201.88
305.78	217.88
306.246	213.88
306.713	218.88
307.18	217.88
307.646	201.88
308.113	210.88
308.579	247.88
309.046	214.88
309.512	214.88
309.979	232.88
310.445	221.88
310.912	226.88
311.378	245.88
311.845	230.88
312.311	250.88
312.777	240.88
313.244	233.88
313.71	234.88
314.176	251.88
314.642	244.88
315.109	259.88
315.575	226.88
316.041	258.88
316.507	242.88
316.973	222.88
317.439	248.88
317.905	253.88
318.371	259.88
318.837	250.88
319.303	239.88
319.769	271.88
320.235	269.88
320.701	298.88
321.167	269.88
321.633	265.88
322.099	268.88
322.564	265.88
323.03	274.88
323.496	284.88
323.962	290.88
324.427	272.88
324.893	286.88
325.359	273.88
325.824	273.88
326.29	280.88
326.755	306.88
327.221	296.88
327.686	284.88
328.152	282.88
328.617	303.88
329.083	304.88
329.548	290.88
330.014	321.88
330.479	281.88
330.944	319.88
331.41	293.88
331.875	312.88
332.34	308.88
332.805	306.88
333.271	314.88
333.736	325.88
334.201	313.88
334.666	342.88
335.131	346.88
335.596	336.88
336.061	338.88
336.526	322.88
336.991	326.88
337.456	321.88
337.921	318.88
338.386	317.88
338.851	314.88
339.316	310.88
339.781	331.88
340.246	345.88
340.711	344.88
341.175	339.88
341.64	334.88
342.105	337.88
342.569	347.88
343.034	369.88
343.499	355.88
343.963	354.88
344.428	346.88
344.893	364.88
345.357	366.88
345.822	377.88
346.286	385.88
346.751	389.88
347.215	404.88
347.679	393.88
348.144	414.88
348.608	410.88
349.073	403.88
349.537	438.88
350.001	436.88
350.465	405.88
350.93	418.88
351.394	436.88
351.858	432.88
352.322	422.88
352.786	424.88
353.25	438.88
353.715	438.88
354.179	455.88
354.643	488.88
355.107	470.88
355.571	464.88
356.035	469.88
356.498	454.88
356.962	459.88
357.426	480.88
357.89	456.88
358.354	453.88
358.818	434.88
359.281	479.88
359.745	433.88
360.209	488.88
360.673	462.88
361.136	484.88
361.6	482.88
362.064	452.88
362.527	492.88
362.991	490.88
363.454	500.88
363.918	492.88
364.381	501.88
364.845	504.88
365.308	510.88
365.772	489.88
366.235	511.88
366.698	506.88
367.162	525.88
367.625	504.88
368.088	515.88
368.552	519.88
369.015	500.88
369.478	524.88
369.941	515.88
370.404	522.88
370.867	537.88
371.331	540.88
371.794	564.88
372.257	554.88
372.72	529.88
373.183	530.88
373.646	566.88
374.109	549.88
374.572	544.88
375.035	558.88
375.497	548.88
375.96	570.88
376.423	558.88
376.886	592.88
377.349	586.88
377.811	589.88
378.274	584.88
378.737	609.88
379.199	623.88
379.662	603.88
380.125	591.88
380.587	612.88
381.05	608.88
381.512	632.88
381.975	647.88
382.437	644.88
382.9	659.88
383.362	648.88
383.825	648.88
384.287	658.88
384.75	663.88
385.212	625.88
385.674	668.88
386.136	665.88
386.599	668.88
387.061	670.88
387.523	666.88
387.985	674.88
388.447	646.88
388.91	699.88
389.372	663.88
389.834	692.88
390.296	712.88
390.758	725.88
391.22	703.88
391.682	694.88
392.144	709.88
392.606	690.88
393.068	711.88
393.529	743.88
393.991	790.88
394.453	725.88
394.915	710.88
395.377	712.88
395.838	746.88
396.3	727.88
396.762	702.88
397.224	740.88
397.685	702.88
398.147	735.88
398.608	740.88
399.07	765.88
399.531	767.88
399.993	773.88
400.454	772.88
400.916	769.88
401.377	798.88
401.839	791.88
402.3	814.88
402.762	827.88
403.223	857.88
403.684	882.88
404.145	812.88
404.607	839.88
405.068	816.88
405.529	858.88
405.99	847.88
406.451	836.88
406.913	842.88
407.374	863.88
407.835	852.88
408.296	868.88
408.757	859.88
409.218	880.88
409.679	911.88
410.14	896.88
410.601	934.88
411.062	930.88
411.522	924.88
411.983	950.88
412.444	943.88
412.905	1002.88
413.366	992.88
413.826	1026.88
414.287	1165.88
414.748	1375.88
415.208	1432.88
415.669	1180.88
416.13	1107.88
416.59	1083.88
417.051	1116.88
417.511	1178.88
417.972	1226.88
418.432	1312.88
418.893	1505.88
419.353	1412.88
419.814	1092.88
420.274	1002.88
420.734	987.88
421.195	1071.88
421.655	1030.88
422.115	1029.88
422.576	1020.88
423.036	1046.88
423.496	1105.88
423.956	1117.88
424.416	1177.88
424.876	1302.88
425.336	1316.88
425.797	1266.88
426.257	1276.88
426.717	1150.88
427.177	1072.88
427.637	1118.88
428.097	1140.88
428.556	1208.88
429.016	1233.88
429.476	1240.88
429.936	1222.88
430.396	1202.88
430.856	1231.88
431.315	1243.88
431.775	1319.88
432.235	1482.88
432.694	1431.88
433.154	1350.88
433.614	1413.88
434.073	1340.88
434.533	1197.88
434.993	1177.88
435.452	1206.88
435.912	1141.88
436.371	1152.88
436.83	1176.88
437.29	1148.88
437.749	1156.88
438.209	1128.88
438.668	1122.88
439.127	1179.88
439.587	1161.88
440.046	1085.88
440.505	1130.88
440.964	1167.88
441.424	1221.88
441.883	1254.88
442.342	1138.88
442.801	1107.88
443.26	1137.88
443.719	1119.88
444.178	1104.88
444.637	1151.88
445.096	1122.88
445.555	1125.88
446.014	1148.88
446.473	1124.88
446.932	1130.88
447.391	1173.88
447.849	1196.88
448.308	1182.88
448.767	1158.88
449.226	1175.88
449.685	1179.88
450.143	1252.88
450.602	1250.88
451.061	1209.88
451.519	1204.88
451.978	1172.88
452.436	1127.88
452.895	1223.88
453.353	1195.88
453.812	1199.88
454.27	1172.88
454.729	1170.88
455.187	1211.88
455.646	1186.88
456.104	1214.88
456.562	1210.88
457.021	1222.88
457.479	1214.88
457.937	1216.88
458.395	1273.88
458.854	1235.88
459.312	1208.88
459.77	1226.88
460.228	1264.88
460.686	1250.88
461.144	1270.88
461.602	1271.88
462.06	1260.88
462.518	1288.88
462.976	1281.88
463.434	1309.88
463.892	1305.88
464.35	1359.88
464.808	1347.88
465.266	1369.88
465.724	1388.88
466.181	1367.88
466.639	1376.88
467.097	1413.88
467.555	1452.88
468.012	1467.88
468.47	1491.88
468.928	1512.88
469.385	1564.88
469.843	1592.88
470.3	1538.88
470.758	1626.88
471.215	1579.88
471.673	1672.88
472.13	1714.88
472.588	1744.88
473.045	1760.88
473.503	1788.88
473.96	1831.88
474.417	1871.88
474.875	1885.88
475.332	1998.88
475.789	2010.88
476.246	2048.88
476.704	2146.88
477.161	2212.88
477.618	2249.88
478.075	2315.88
478.532	2428.88
478.989	2564.88
479.446	2766.88
479.903	2834.88
480.36	3042.88
480.817	3182.88
481.274	3349.88
481.731	3514.88
482.188	3732.88
482.645	3990.88
483.102	4098.88
483.558	4358.88
484.015	4558.88
484.472	4557.88
484.929	4412.88
485.385	4383.88
485.842	4200.88
486.299	4135.88
486.755	3968.88
487.212	3562.88
487.668	3320.88
488.125	3186.88
488.582	3003.88
489.038	2944.88
489.494	2953.88
489.951	2848.88
490.407	2840.88
490.864	2809.88
491.32	2742.88
491.776	2762.88
492.233	2754.88
492.689	2681.88
493.145	2685.88
493.602	2712.88
494.058	2665.88
494.514	2704.88
494.97	2707.88
495.426	2722.88
495.882	2708.88
496.338	2772.88
496.794	2818.88
497.251	2791.88
497.707	2827.88
498.163	2842.88
498.618	2846.88
499.074	2801.88
499.53	2884.88
499.986	2858.88
500.442	2896.88
500.898	2859.88
501.354	2887.88
501.809	2868.88
502.265	2832.88
502.721	2905.88
503.177	2910.88
503.632	2892.88
504.088	2844.88
504.543	2936.88
504.999	2926.88
505.455	2962.88
505.91	2938.88
506.366	2948.88
506.821	2943.88
507.277	2910.88
507.732	2943.88
508.187	2964.88
508.643	2972.88
509.098	2959.88
509.553	3002.88
510.009	3094.88
510.464	3096.88
510.919	3117.88
511.375	3131.88
511.83	3182.88
512.285	3226.88
512.74	3326.88
513.195	3352.88
513.65	3421.88
514.105	3472.88
514.56	3448.88
515.015	3529.88
515.47	3550.88
515.925	3438.88
516.38	3514.88
516.835	3577.88
517.29	3500.88
517.745	3492.88
518.2	3446.88
518.655	3403.88
519.109	3400.88
519.564	3332.88
520.019	3314.88
520.474	3250.88
520.928	3263.88
521.383	3182.88
521.838	3211.88
522.292	3180.88
522.747	3192.88
523.201	3113.88
523.656	3119.88
524.11	3131.88
524.565	3130.88
525.019	3128.88
525.474	3098.88
525.928	3114.88
526.382	3133.88
526.837	3048.88
527.291	3117.88
527.745	3068.88
528.2	3051.88
528.654	3056.88
529.108	3019.88
529.562	3086.88
530.016	3072.88
530.47	3030.88
530.925	3078.88
531.379	3087.88
531.833	3089.88
532.287	3089.88
532.741	3103.88
533.195	3117.88
533.649	3126.88
534.103	3123.88
534.556	3031.88
535.01	3065.88
535.464	3027.88
535.918	3092.88
536.372	3167.88
536.826	3114.88
537.279	3041.88
537.733	3128.88
538.187	3103.88
538.64	3057.88
539.094	3143.88
539.548	3121.88
540.001	3146.88
540.455	3149.88
540.908	3147.88
541.362	3239.88
541.815	3254.88
542.269	3313.88
542.722	3355.88
543.175	3340.88
543.629	3274.88
544.082	3304.88
544.536	3361.88
544.989	3371.88
545.442	3384.88
545.895	3480.88
546.349	3421.88
546.802	3472.88
547.255	3399.88
547.708	3460.88
548.161	3514.88
548.614	3473.88
549.067	3506.88
549.52	3512.88
549.973	3469.88
550.426	3466.88
550.879	3455.88
551.332	3434.88
551.785	3498.88
552.238	3507.88
552.691	3457.88
553.144	3566.88
553.596	3625.88
554.049	3675.88
554.502	3736.88
554.955	3799.88
555.407	3815.88
555.86	3791.88
556.313	3740.88
556.765	3726.88
557.218	3662.88
557.67	3644.88
558.123	3682.88
558.576	3586.88
559.028	3675.88
559.48	3653.88
559.933	3606.88
560.385	3529.88
560.838	3431.88
561.29	3300.88
561.742	3366.88
562.195	3243.88
562.647	3259.88
563.099	3140.88
563.551	3176.88
564.004	3233.88
564.456	3183.88
564.908	3220.88
565.36	3085.88
565.812	2999.88
566.264	2938.88
566.716	2916.88
567.168	2930.88
567.62	2881.88
568.072	2848.88
568.524	2842.88
568.976	2892.88
569.428	2880.88
569.88	2854.88
570.332	2850.88
570.784	2781.88
571.235	2840.88
571.687	2874.88
572.139	2842.88
572.59	2859.88
573.042	2898.88
573.494	2932.88
573.945	2831.88
574.397	2816.88
574.849	2835.88
575.3	2773.88
575.752	2759.88
576.203	2751.88
576.655	2725.88
577.106	2717.88
577.557	2711.88
578.009	2696.88
578.46	2664.88
578.912	2658.88
579.363	2706.88
579.814	2688.88
580.265	2680.88
580.717	2735.88
581.168	2698.88
581.619	2721.88
582.07	2713.88
582.521	2709.88
582.972	2640.88
583.423	2685.88
583.875	2712.88
584.326	2721.88
584.777	2747.88
585.227	2748.88
585.678	2886.88
586.129	2930.88
586.58	2903.88
587.031	2912.88
587.482	2970.88
587.933	3080.88
588.384	3094.88
588.834	3039.88
589.285	2997.88
589.736	3024.88
590.186	3021.88
590.637	3025.88
591.088	2967.88
591.538	2882.88
591.989	2826.88
592.439	2835.88
592.89	2802.88
593.34	2793.88
593.791	2730.88
594.241	2721.88
594.692	2742.88
595.142	2724.88
595.593	2744.88
596.043	2704.88
596.493	2732.88
596.943	2750.88
597.394	2813.88
597.844	2824.88
598.294	2910.88
598.744	2967.88
599.195	3082.88
599.645	3337.88
600.095	3502.88
600.545	3640.88
600.995	3747.88
601.445	3871.88
601.895	4073.88
602.345	4289.88
602.795	4221.88
603.245	4084.88
603.695	3857.88
604.145	3650.88
604.594	3501.88
605.044	3318.88
605.494	3152.88
605.944	2920.88
606.393	2827.88
606.843	2740.88
607.293	2798.88
607.743	2762.88
608.192	2770.88
608.642	2752.88
609.091	2788.88
609.541	2763.88
609.99	2757.88
610.44	2764.88
610.889	2703.88
611.339	2699.88
611.788	2656.88
612.238	2672.88
612.687	2670.88
613.136	2682.88
613.586	2648.88
614.035	2701.88
614.484	2697.88
614.933	2723.88
615.383	2623.88
615.832	2604.88
616.281	2561.88
616.73	2505.88
617.179	2518.88
617.628	2418.88
618.077	2377.88
618.526	2344.88
618.975	2338.88
619.424	2319.88
619.873	2303.88
620.322	2219.88
620.771	2284.88
621.22	2286.88
621.669	2216.88
622.118	2168.88
622.567	2152.88
623.015	2151.88
623.464	2065.88
623.913	2138.88
624.361	2064.88
624.81	2038.88
625.259	2111.88
625.707	2113.88
626.156	2078.88
626.604	2123.88
627.053	2102.88
627.501	2125.88
627.95	2130.88
628.398	2118.88
628.847	2087.88
629.295	2135.88
629.744	2100.88
630.192	2102.88
630.64	2059.88
631.089	2007.88
631.537	1950.88
631.985	1976.88
632.433	1899.88
632.881	1896.88
633.33	1944.88
633.778	1899.88
634.226	1930.88
634.674	1922.88
635.122	1960.88
635.57	1927.88
636.018	2030.88
636.466	2011.88
636.914	2028.88
637.362	2001.88
637.81	2093.88
638.258	2128.88
638.705	2156.88
639.153	2223.88
639.601	2244.88
640.049	2245.88
640.497	2334.88
640.944	2391.88
641.392	2319.88
641.84	2201.88
642.287	2078.88
642.735	2018.88
643.182	2006.88
643.63	1997.88
644.078	2000.88
644.525	2026.88
644.973	2040.88
645.42	2067.88
645.867	2151.88
646.315	2158.88
646.762	2179.88
647.21	2258.88
647.657	2312.88
648.104	2366.88
648.551	2360.88
648.999	2450.88
649.446	2616.88
649.893	2815.88
650.34	3064.88
650.787	3654.88
651.234	4346.88
651.682	5480.88
652.129	7354.88
652.576	10237.88
653.023	13688.88
653.47	15697.88
653.917	15697.88
654.363	15697.88
654.81	15697.88
655.257	15697.88
655.704	15697.88
656.151	10346.88
656.598	6946.88
657.044	4998.88
657.491	4078.88
657.938	3410.88
658.385	2971.88
658.831	2662.88
659.278	2470.88
659.724	2306.88
660.171	2174.88
660.618	2050.88
661.064	1930.88
661.511	1942.88
661.957	1914.88
662.404	1848.88
662.85	1875.88
663.296	1840.88
663.743	1811.88
664.189	1834.88
664.635	1792.88
665.082	1797.88
665.528	1777.88
665.974	1718.88
666.42	1686.88
666.867	1704.88
667.313	1609.88
667.759	1582.88
668.205	1590.88
668.651	1609.88
669.097	1562.88
669.543	1577.88
669.989	1624.88
670.435	1628.88
670.881	1620.88
671.327	1675.88
671.773	1754.88
672.219	1883.88
672.665	2071.88
673.11	2077.88
673.556	2160.88
674.002	2201.88
674.448	2269.88
674.893	2084.88
675.339	1719.88
675.785	1588.88
676.23	1516.88
676.676	1433.88
677.122	1380.88
677.567	1366.88
678.013	1340.88
678.458	1295.88
678.904	1319.88
679.349	1286.88
679.794	1256.88
680.24	1299.88
680.685	1286.88
681.131	1260.88
681.576	1255.88
682.021	1282.88
682.466	1287.88
682.912	1315.88
683.357	1325.88
683.802	1448.88
684.247	1534.88
684.692	1667.88
685.137	1726.88
685.583	1820.88
686.028	1901.88
686.473	1866.88
686.918	1654.88
687.363	1536.88
687.807	1409.88
688.252	1344.88
688.697	1292.88
689.142	1264.88
689.587	1232.88
690.032	1283.88
690.477	1256.88
690.921	1353.88
691.366	1473.88
691.811	1487.88
692.255	1573.88
692.7	1774.88
693.145	2333.88
693.589	3606.88
694.034	4788.88
694.478	5306.88
694.923	4959.88
695.367	6063.88
695.812	5664.88
696.256	2169.88
696.701	1430.88
697.145	1260.88
697.59	1256.88
698.034	1247.88
698.478	1198.88
698.922	1212.88
699.367	1224.88
699.811	1284.88
700.255	1338.88
700.699	1457.88
701.143	1592.88
701.588	1703.88
702.032	1765.88
702.476	1793.88
702.92	1863.88
703.364	2156.88
703.808	3180.88
704.252	4543.88
704.696	5096.88
705.14	4708.88
705.584	5917.88
706.027	4778.88
706.471	2207.88
706.915	1512.88
707.359	1322.88
707.803	1177.88
708.246	1158.88
708.69	1172.88
709.134	1145.88
709.577	1144.88
710.021	1139.88
710.465	1123.88
710.908	1126.88
711.352	1119.88
711.795	1244.88
712.239	1326.88
712.682	1439.88
713.126	1388.88
713.569	1466.88
714.012	1335.88
714.456	1165.88
714.899	1104.88
715.342	1034.88
715.786	1000.88
716.229	1014.88
716.672	982.88
717.115	935.88
717.558	932.88
718.002	993.88
718.445	997.88
718.888	1045.88
719.331	1063.88
719.774	1102.88
720.217	1068.88
720.66	1019.88
721.103	994.88
721.546	955.88
721.989	912.88
722.432	906.88
722.874	901.88
723.317	922.88
723.76	924.88
724.203	1050.88
724.645	1380.88
725.088	1720.88
725.531	1863.88
725.974	1807.88
726.416	1942.88
726.859	1281.88
727.301	983.88
727.744	906.88
728.187	891.88
728.629	878.88
729.071	920.88
729.514	972.88
729.956	985.88
730.399	1022.88
730.841	1046.88
731.283	1004.88
731.726	1030.88
732.168	977.88
732.61	1054.88
733.053	1113.88
733.495	1181.88
733.937	1302.88
734.379	1443.88
734.821	1801.88
735.263	2474.88
735.705	4402.88
736.148	7238.88
736.59	8431.88
737.032	7821.88
737.474	8532.88
737.916	4002.88
738.357	1887.88
738.799	1278.88
739.241	1174.88
739.683	1112.88
740.125	1150.88
740.567	1169.88
741.008	1177.88
741.45	1266.88
741.892	1373.88
742.334	1362.88
742.775	1377.88
743.217	1386.88
743.658	1180.88
744.1	1132.88
744.542	1242.88
744.983	1394.88
745.425	1386.88
745.866	1507.88
746.307	1227.88
746.749	1156.88
747.19	1430.88
747.632	2460.88
748.073	4760.88
748.514	7578.88
748.956	9330.88
749.397	12690.88
749.838	10176.88
750.279	8311.88
750.72	6186.88
751.162	2720.88
751.603	1406.88
752.044	1009.88
752.485	882.88
752.926	816.88
753.367	764.88
753.808	775.88
754.249	769.88
754.69	744.88
755.131	751.88
755.572	742.88
756.013	729.88
756.453	754.88
756.894	746.88
757.335	758.88
757.776	746.88
758.216	770.88
758.657	796.88
759.098	818.88
759.538	954.88
759.979	1226.88
760.42	2048.88
760.86	4690.88
761.301	11191.88
761.741	15697.88
762.182	15697.88
762.622	15697.88
763.063	7256.88
763.503	2749.88
763.943	1422.88
764.384	1064.88
764.824	903.88
765.264	831.88
765.705	778.88
766.145	752.88
766.585	713.88
767.025	719.88
767.465	686.88
767.906	695.88
768.346	736.88
768.786	802.88
769.226	991.88
769.666	1629.88
770.106	3684.88
770.546	6678.88
770.986	7224.88
771.426	7136.88
771.866	3832.88
772.306	1673.88
772.745	916.88
773.185	730.88
773.625	672.88
774.065	711.88
774.505	850.88
774.944	1378.88
775.384	2231.88
775.824	2594.88
776.263	2550.88
776.703	1760.88
777.142	982.88
777.582	677.88
778.021	562.88
778.461	556.88
778.9	526.88
779.34	512.88
779.779	522.88
780.219	492.88
780.658	502.88
781.097	478.88
781.537	487.88
781.976	450.88
782.415	449.88
782.855	454.88
783.294	462.88
783.733	425.88
784.172	473.88
784.611	455.88
785.05	450.88
785.489	474.88
785.928	467.88
786.367	496.88
786.806	528.88
787.245	543.88
787.684	576.88
788.123	592.88
788.562	577.88
789.001	532.88
789.44	527.88
789.879	520.88
790.317	514.88
790.756	534.88
791.195	576.88
791.634	700.88
792.072	1042.88
792.511	2192.88
792.95	5050.88
793.388	6362.88
793.827	5586.88
794.265	3108.88
794.704	1468.88
795.142	798.88
795.581	615.88
796.019	566.88
796.458	529.88
796.896	560.88
797.334	575.88
797.773	692.88
798.211	1128.88
798.649	2322.88
799.087	3979.88
799.526	6176.88
799.964	6852.88
800.402	5766.88
800.84	3224.88
801.278	1589.88
801.716	864.88
802.154	681.88
802.592	619.88
803.03	595.88
803.468	616.88
803.906	606.88
804.344	582.88
804.782	580.88
805.22	585.88
805.658	598.88
806.096	597.88
806.533	672.88
806.971	800.88
807.409	1040.88
807.847	1644.88
808.284	3950.88
808.722	8100.88
809.16	11366.88
809.597	15423.88
810.035	15697.88
810.472	15697.88
810.91	9414.88
811.347	4476.88
811.785	1992.88
812.222	1146.88
812.66	867.88
813.097	702.88
813.535	607.88
813.972	567.88
814.409	515.88
814.846	488.88
815.284	496.88
815.721	481.88
816.158	515.88
816.595	596.88
817.032	780.88
817.47	826.88
817.907	660.88
818.344	572.88
818.781	533.88
819.218	562.88
819.655	773.88
820.092	1050.88
820.529	1094.88
820.966	931.88
821.403	701.88
821.839	566.88
822.276	557.88
822.713	639.88
823.15	655.88
823.587	632.88
824.023	822.88
824.46	1737.88
824.897	3492.88
825.333	3754.88
825.77	2173.88
826.206	1220.88
826.643	715.88
827.08	484.88
827.516	418.88
827.953	368.88
828.389	367.88
828.825	355.88
829.262	319.88
829.698	349.88
830.135	346.88
830.571	298.88
831.007	298.88
831.443	322.88
831.88	296.88
832.316	314.88
832.752	330.88
833.188	346.88
833.624	329.88
834.06	334.88
834.497	343.88
834.933	348.88
835.369	336.88
835.805	352.88
836.241	385.88
836.677	396.88
837.112	467.88
837.548	517.88
837.984	666.88
838.42	1116.88
838.856	2849.88
839.292	6319.88
839.727	6934.88
840.163	4519.88
840.599	5290.88
841.034	7914.88
841.47	6182.88
841.906	3314.88
842.341	1887.88
842.777	1099.88
843.212	1034.88
843.648	824.88
844.083	598.88
844.519	483.88
844.954	351.88
845.39	308.88
845.825	309.88
846.261	312.88
846.696	298.88
847.131	291.88
847.566	294.88
848.002	295.88
848.437	296.88
848.872	318.88
849.307	372.88
849.742	471.88
850.177	1018.88
850.613	2272.88
851.048	2508.88
851.483	1412.88
851.918	846.88
852.353	489.88
852.788	330.88
853.223	270.88
853.657	272.88
854.092	255.88
854.527	243.88
854.962	263.88
855.397	275.88
855.832	272.88
856.266	271.88
856.701	248.88
857.136	252.88
857.57	270.88
858.005	333.88
858.44	292.88
858.874	290.88
859.309	281.88
859.743	248.88
860.178	264.88
860.612	264.88
861.047	318.88
861.481	442.88
861.915	408.88
862.35	319.88
862.784	290.88
863.218	237.88
863.653	237.88
864.087	278.88
864.521	265.88
864.955	397.88
865.39	650.88
865.824	653.88
866.258	686.88
866.692	1026.88
867.126	972.88
867.56	648.88
867.994	433.88
868.428	324.88
868.862	347.88
869.296	336.88
869.73	376.88
870.164	366.88
870.598	349.88
871.031	269.88
871.465	250.88
871.899	201.88
872.333	207.88
872.766	163.88
873.2	196.88
873.634	194.88
874.067	168.88
874.501	191.88
874.935	200.88
875.368	191.88
875.802	188.88
876.235	186.88
876.669	179.88
877.102	168.88
877.535	188.88
877.969	169.88
878.402	172.88
878.836	185.88
879.269	163.88
879.702	173.88
880.135	162.88
880.569	195.88
881.002	169.88
881.435	162.88
881.868	160.88
882.301	168.88
882.734	167.88
883.167	152.88
883.601	153.88
884.034	166.88
884.467	145.88
884.899	139.88
885.332	173.88
885.765	152.88
886.198	164.88
886.631	156.88
887.064	159.88
887.497	161.88
887.929	146.88
888.362	141.88
888.795	138.88
889.228	152.88
889.66	126.88
890.093	152.88
890.526	142.88
890.958	139.88
891.391	152.88
891.823	136.88
892.256	160.88
892.688	131.88
893.121	153.88
893.553	144.88
893.985	169.88
894.418	152.88
894.85	151.88
895.282	152.88
895.715	162.88
896.147	152.88
896.579	163.88
897.011	136.88
897.444	120.88
897.876	144.88
898.308	150.88
898.74	158.88
899.172	135.88
899.604	151.88
900.036	150.88
900.468	146.88
900.9	159.88
901.332	157.88
901.764	169.88
902.196	180.88
902.628	160.88
903.06	191.88
903.491	212.88
903.923	213.88
904.355	195.88
904.787	187.88
905.218	178.88
905.65	174.88
906.082	161.88
906.513	167.88
906.945	158.88
907.376	164.88
907.808	157.88
908.239	158.88
908.671	160.88
909.102	185.88
909.534	197.88
909.965	286.88
910.397	498.88
910.828	1387.88
911.259	1531.88
911.691	964.88
912.122	652.88
912.553	354.88
912.984	235.88
913.415	174.88
913.847	166.88
914.278	164.88
914.709	143.88
915.14	166.88
915.571	154.88
916.002	167.88
916.433	146.88
916.864	142.88
917.295	149.88
917.726	166.88
918.157	173.88
918.587	174.88
919.018	155.88
919.449	170.88
919.88	180.88
920.311	223.88
920.741	337.88
921.172	666.88
921.603	564.88
922.033	390.88
922.464	289.88
922.895	210.88
923.325	141.88
923.756	155.88
924.186	155.88
924.617	182.88
925.047	218.88
925.478	231.88
925.908	222.88
926.338	187.88
926.769	176.88
927.199	143.88
927.629	130.88
928.06	139.88
928.49	132.88
928.92	139.88
929.35	122.88
929.78	130.88
930.21	114.88
930.641	129.88
931.071	120.88
931.501	112.88
931.931	118.88
932.361	123.88
932.791	110.88
933.221	114.88
933.651	128.88
934.08	156.88
934.51	164.88
934.94	144.88
935.37	131.88
935.8	118.88
936.229	134.88
936.659	124.88
937.089	114.88
937.519	178.88
937.948	191.88
938.378	189.88
938.807	146.88
939.237	121.88
939.666	123.88
940.096	111.88
940.525	128.88
940.955	113.88
941.384	105.88
941.814	100.88
942.243	106.88
942.672	107.88
943.102	102.88
943.531	89.88
943.96	97.88
944.39	94.88
944.819	104.88
945.248	115.88
945.677	107.88
946.106	121.88
946.535	102.88
946.964	84.88
947.393	104.88
947.822	82.88
948.251	99.88
948.68	96.88
949.109	100.88
949.538	90.88
949.967	94.88
950.396	99.88
950.825	98.88
951.254	78.88
951.682	100.88
952.111	103.88
952.54	76.88
952.969	107.88
953.397	87.88
953.826	99.88
954.254	88.88
954.683	95.88
955.112	91.88
955.54	90.88
955.969	102.88
956.397	86.88
956.826	92.88
957.254	98.88
957.682	94.88
958.111	97.88
958.539	89.88
958.967	100.88
959.396	90.88
959.824	95.88
960.252	92.88
960.68	98.88
961.109	106.88
961.537	77.88
961.965	126.88
962.393	101.88
962.821	99.88
963.249	99.88
963.677	109.88
964.105	148.88
964.533	269.88
964.961	218.88
965.389	187.88
965.817	155.88
966.245	108.88
966.672	100.88
967.1	99.88
967.528	70.88
967.956	110.88
968.383	96.88
968.811	100.88
969.239	105.88
969.666	100.88
970.094	102.88
970.522	96.88
970.949	84.88
971.377	88.88
971.804	90.88
972.232	101.88
972.659	99.88
973.087	108.88
973.514	98.88
973.941	111.88
974.369	91.88
974.796	104.88
975.223	92.88
975.651	97.88
976.078	87.88
976.505	91.88
976.932	109.88
977.359	140.88
977.786	119.88
978.214	116.88
978.641	101.88
979.068	85.88
979.495	91.88
979.922	92.88
980.349	101.88
980.776	104.88
981.202	76.88
981.629	82.88
982.056	94.88
982.483	112.88
982.91	79.88
983.337	101.88
983.763	85.88
984.19	80.88
984.617	84.88
985.043	117.88
985.47	89.88
985.897	95.88
986.323	98.88
986.75	94.88
987.176	93.88
987.603	102.88
988.029	88.88
988.456	91.88
988.882	82.88
989.308	80.88
989.735	83.88
990.161	95.88
990.587	94.88
991.014	81.88
991.44	91.88
991.866	102.88
992.292	100.88
992.719	75.88
993.145	94.88
993.571	87.88
993.997	72.88
994.423	110.88
994.849	90.88
995.275	121.88
995.701	86.88
996.127	89.88
996.553	92.88
996.979	91.88
997.405	82.88
997.83	90.88
998.256	76.88
998.682	88.88
999.108	79.88
999.534	95.88
999.959	110.88
1000.385	98.88
1000.811	96.88
1001.236	86.88
1001.662	94.88
1002.087	105.88
1002.513	97.88
1002.938	79.88
1003.364	83.88
1003.789	76.88
1004.215	97.88
1004.64	88.88
1005.066	80.88
1005.491	81.88
1005.916	103.88
1006.342	89.88
1006.767	110.88
1007.192	90.88
1007.617	98.88
1008.042	84.88
1008.468	93.88
1008.893	94.88
1009.318	103.88
1009.743	102.88
1010.168	130.88
1010.593	118.88
1011.018	89.88
1011.443	100.88
1011.868	97.88
1012.293	87.88
1012.718	93.88
1013.143	85.88
1013.567	92.88
1013.992	95.88
1014.417	99.88
1014.842	103.88
1015.267	92.88
1015.691	95.88
1016.116	74.88
1016.541	70.88
1016.965	91.88
1017.39	83.88
1017.814	97.88
1018.239	89.88
1018.663	96.88
1019.088	85.88
1019.512	70.88
1019.937	78.88
1020.361	82.88
1020.785	82.88
1021.21	82.88
1021.634	84.88
1022.058	74.88
1022.483	72.88
1022.907	87.88
1023.331	89.88
1023.755	92.88
1024.179	93.88
1024.604	96.88
1025.028	94.88
1025.452	99.88
1025.876	102.88
1026.3	87.88
1026.724	81.88
1027.148	78.88
1027.572	93.88
1027.996	82.88
1028.42	83.88
1028.843	84.88
1029.267	100.88
1029.691	69.88
1030.115	64.88
1030.539	78.88
1030.962	91.88
1031.386	80.88
1031.81	89.88
1032.233	74.88
1032.657	83.88
1033.08	82.88
1033.504	83.88
1033.927	79.88
1034.351	76.88
1034.774	80.88
1035.198	88.88
1035.621	73.88
1036.045	87.88
1036.468	82.88
1036.891	80.88
1037.315	86.88
1037.738	82.88
1038.161	86.88
1038.584	84.88
1039.008	100.88
1039.431	82.88
1039.854	82.88
1040.277	79.88
1040.7	94.88
1041.123	73.88
1041.546	72.88
1041.969	90.88
1042.392	70.88
1042.815	71.88
1043.238	74.88
1043.661	72.88
1044.084	89.88
1044.507	79.88
1044.93	89.88
1045.352	66.88
1045.775	78.88
1046.198	85.88
1046.621	62.88
1047.043	88.88
1047.466	92.88
1047.889	80.88
1048.311	86.88
1048.734	85.88
1049.156	74.88
1049.579	78.88
1050.001	86.88
1050.424	94.88
1050.846	92.88
1051.269	87.88
1051.691	84.88
1052.113	87.88
1052.536	75.88
1052.958	93.88
1053.38	87.88
1053.802	83.88
1054.225	69.88
1054.647	73.88
1055.069	74.88
1055.491	76.88
1055.913	86.88
1056.335	86.88
1056.757	90.88
1057.179	78.88
1057.601	73.88
1058.023	63.88
1058.445	80.88
1058.867	75.88
1059.289	72.88
1059.711	86.88
1060.133	83.88
1060.555	84.88
1060.976	86.88
1061.398	87.88
1061.82	74.88
1062.241	77.88
1062.663	70.88
1063.085	56.88
1063.506	75.88
1063.928	88.88
1064.35	92.88
1064.771	73.88
1065.193	86.88
1065.614	72.88
1066.035	85.88
1066.457	83.88
1066.878	71.88
1067.3	88.88
1067.721	95.88
1068.142	98.88
1068.564	72.88
1068.985	78.88
1069.406	78.88
1069.827	86.88
1070.248	86.88
1070.67	69.88
1071.091	94.88
1071.512	86.88
1071.933	80.88
1072.354	73.88
1072.775	99.88
1073.196	63.88
1073.617	68.88
1074.038	60.88
1074.459	89.88
1074.88	86.88
1075.3	78.88
1075.721	94.88
1076.142	90.88
1076.563	88.88
1076.983	73.88
1077.404	85.88
1077.825	100.88
1078.246	106.88
1078.666	86.88
1079.087	85.88
1079.507	75.88
1079.928	88.88
1080.348	64.88
1080.769	72.88
1081.189	93.88
1081.61	97.88
1082.03	68.88
1082.451	94.88
1082.871	93.88
1083.291	90.88
1083.711	74.88
1084.132	84.88
1084.552	86.88
1084.972	91.88
1085.392	92.88
1085.813	80.88
1086.233	87.88
1086.653	78.88
1087.073	92.88
1087.493	82.88
1087.913	80.88
1088.333	66.88
1088.753	91.88
1089.173	78.88
1089.593	67.88
1090.013	70.88
1090.433	77.88
1090.852	88.88
1091.272	72.88
1091.692	79.88
1092.112	80.88
1092.531	92.88
1092.951	80.88
1093.371	87.88
1093.79	86.88
1094.21	87.88
1094.63	67.88
1095.049	79.88
1095.469	55.88
1095.888	86.88
1096.308	66.88
1096.727	86.88
1097.146	80.88
1097.566	79.88
1097.985	82.88
1098.405	72.88
1098.824	75.88
1099.243	76.88
1099.662	81.88
1100.082	84.88
1100.501	96.88
1100.92	77.88
1101.339	84.88
1101.758	70.88
