Data from 20170802-ORNL-NYSim-Air_HRD10391_10-36-48-620.txt Node
Date: Wed Aug 02 10:36:48 EDT 2017
User: Ender
Spectrometer: HR+D1039
Trigger mode: 0
Integration Time (sec): 1.510000E-3
Scans to average: 1
Electric dark correction enabled: true
Nonlinearity correction enabled: false
Boxcar width: 0
XAxis mode: Wavelengths
Number of Pixels in Spectrum: 2048
>>>>>Begin Spectral Data<<<<<
187.836	3.69
188.309	3.69
188.782	3.69
189.255	15.69
189.728	-4.31
190.201	0.69
190.674	-13.31
191.147	-14.31
191.619	-5.31
192.092	-18.31
192.565	-0.31
193.038	1.69
193.511	-7.31
193.984	0.69
194.456	7.69
194.929	8.69
195.402	8.69
195.874	15.69
196.347	25.69
196.82	15.69
197.292	23.69
197.765	17.69
198.237	30.69
198.71	41.69
199.182	51.69
199.655	57.69
200.127	52.69
200.6	61.69
201.072	36.69
201.544	45.69
202.017	63.69
202.489	74.69
202.961	56.69
203.433	67.69
203.906	81.69
204.378	75.69
204.85	92.69
205.322	61.69
205.794	88.69
206.266	93.69
206.739	68.69
207.211	82.69
207.683	88.69
208.155	100.69
208.627	90.69
209.099	90.69
209.57	82.69
210.042	91.69
210.514	97.69
210.986	91.69
211.458	89.69
211.93	77.69
212.402	79.69
212.873	87.69
213.345	95.69
213.817	84.69
214.288	80.69
214.76	88.69
215.232	93.69
215.703	83.69
216.175	65.69
216.646	82.69
217.118	81.69
217.589	80.69
218.061	81.69
218.532	91.69
219.004	81.69
219.475	84.69
219.946	79.69
220.418	83.69
220.889	95.69
221.36	75.69
221.832	70.69
222.303	86.69
222.774	86.69
223.245	79.69
223.717	94.69
224.188	73.69
224.659	91.69
225.13	81.69
225.601	95.69
226.072	93.69
226.543	86.69
227.014	91.69
227.485	75.69
227.956	64.69
228.427	90.69
228.898	72.69
229.369	73.69
229.839	71.69
230.31	86.69
230.781	98.69
231.252	95.69
231.722	95.69
232.193	93.69
232.664	74.69
233.135	91.69
233.605	87.69
234.076	75.69
234.546	63.69
235.017	87.69
235.487	78.69
235.958	77.69
236.428	77.69
236.899	84.69
237.369	72.69
237.84	78.69
238.31	95.69
238.78	73.69
239.251	105.69
239.721	82.69
240.191	95.69
240.662	94.69
241.132	94.69
241.602	86.69
242.072	76.69
242.542	78.69
243.013	96.69
243.483	80.69
243.953	96.69
244.423	80.69
244.893	91.69
245.363	95.69
245.833	94.69
246.303	79.69
246.773	101.69
247.243	91.69
247.712	89.69
248.182	87.69
248.652	86.69
249.122	87.69
249.592	91.69
250.061	90.69
250.531	92.69
251.001	100.69
251.471	105.69
251.94	102.69
252.41	92.69
252.879	80.69
253.349	81.69
253.818	86.69
254.288	91.69
254.757	100.69
255.227	100.69
255.696	90.69
256.166	88.69
256.635	90.69
257.105	76.69
257.574	113.69
258.043	99.69
258.513	84.69
258.982	106.69
259.451	101.69
259.92	91.69
260.389	100.69
260.859	102.69
261.328	95.69
261.797	97.69
262.266	77.69
262.735	100.69
263.204	90.69
263.673	100.69
264.142	109.69
264.611	98.69
265.08	98.69
265.549	76.69
266.018	89.69
266.487	108.69
266.955	93.69
267.424	106.69
267.893	98.69
268.362	97.69
268.83	109.69
269.299	105.69
269.768	104.69
270.236	100.69
270.705	94.69
271.174	90.69
271.642	117.69
272.111	107.69
272.579	105.69
273.048	89.69
273.516	97.69
273.985	99.69
274.453	109.69
274.922	108.69
275.39	99.69
275.858	105.69
276.327	107.69
276.795	108.69
277.263	113.69
277.731	109.69
278.2	96.69
278.668	101.69
279.136	119.69
279.604	117.69
280.072	99.69
280.54	105.69
281.008	105.69
281.477	104.69
281.945	105.69
282.413	97.69
282.881	113.69
283.348	100.69
283.816	125.69
284.284	119.69
284.752	114.69
285.22	115.69
285.688	109.69
286.156	105.69
286.623	118.69
287.091	121.69
287.559	129.69
288.026	124.69
288.494	104.69
288.962	97.69
289.429	97.69
289.897	109.69
290.364	129.69
290.832	120.69
291.3	127.69
291.767	125.69
292.234	103.69
292.702	125.69
293.169	123.69
293.637	117.69
294.104	111.69
294.571	125.69
295.039	124.69
295.506	111.69
295.973	112.69
296.44	114.69
296.908	109.69
297.375	123.69
297.842	120.69
298.309	130.69
298.776	119.69
299.243	117.69
299.71	127.69
300.177	144.69
300.644	127.69
301.111	131.69
301.578	117.69
302.045	129.69
302.512	119.69
302.979	121.69
303.446	124.69
303.913	117.69
304.379	151.69
304.846	132.69
305.313	121.69
305.78	129.69
306.246	123.69
306.713	138.69
307.18	125.69
307.646	123.69
308.113	143.69
308.579	136.69
309.046	141.69
309.512	142.69
309.979	151.69
310.445	151.69
310.912	139.69
311.378	139.69
311.845	151.69
312.311	169.69
312.777	133.69
313.244	143.69
313.71	139.69
314.176	126.69
314.642	141.69
315.109	135.69
315.575	153.69
316.041	131.69
316.507	165.69
316.973	153.69
317.439	145.69
317.905	135.69
318.371	139.69
318.837	153.69
319.303	155.69
319.769	159.69
320.235	156.69
320.701	158.69
321.167	153.69
321.633	166.69
322.099	147.69
322.564	156.69
323.03	144.69
323.496	146.69
323.962	152.69
324.427	144.69
324.893	151.69
325.359	147.69
325.824	159.69
326.29	185.69
326.755	157.69
327.221	178.69
327.686	169.69
328.152	178.69
328.617	160.69
329.083	185.69
329.548	161.69
330.014	171.69
330.479	166.69
330.944	168.69
331.41	183.69
331.875	165.69
332.34	164.69
332.805	166.69
333.271	180.69
333.736	176.69
334.201	176.69
334.666	183.69
335.131	185.69
335.596	184.69
336.061	183.69
336.526	163.69
336.991	179.69
337.456	181.69
337.921	169.69
338.386	167.69
338.851	166.69
339.316	161.69
339.781	187.69
340.246	176.69
340.711	181.69
341.175	189.69
341.64	189.69
342.105	190.69
342.569	181.69
343.034	183.69
343.499	185.69
343.963	197.69
344.428	197.69
344.893	186.69
345.357	185.69
345.822	201.69
346.286	187.69
346.751	194.69
347.215	202.69
347.679	209.69
348.144	209.69
348.608	221.69
349.073	195.69
349.537	227.69
350.001	228.69
350.465	217.69
350.93	232.69
351.394	233.69
351.858	216.69
352.322	202.69
352.786	241.69
353.25	215.69
353.715	227.69
354.179	213.69
354.643	239.69
355.107	248.69
355.571	235.69
356.035	224.69
356.498	241.69
356.962	241.69
357.426	225.69
357.89	234.69
358.354	244.69
358.818	216.69
359.281	237.69
359.745	225.69
360.209	237.69
360.673	237.69
361.136	227.69
361.6	229.69
362.064	238.69
362.527	248.69
362.991	253.69
363.454	242.69
363.918	251.69
364.381	234.69
364.845	253.69
365.308	231.69
365.772	251.69
366.235	245.69
366.698	265.69
367.162	265.69
367.625	257.69
368.088	249.69
368.552	263.69
369.015	250.69
369.478	259.69
369.941	270.69
370.404	245.69
370.867	266.69
371.331	255.69
371.794	267.69
372.257	287.69
372.72	248.69
373.183	266.69
373.646	276.69
374.109	273.69
374.572	259.69
375.035	286.69
375.497	285.69
375.96	284.69
376.423	297.69
376.886	300.69
377.349	279.69
377.811	256.69
378.274	310.69
378.737	284.69
379.199	274.69
379.662	305.69
380.125	320.69
380.587	310.69
381.05	306.69
381.512	310.69
381.975	304.69
382.437	317.69
382.9	315.69
383.362	312.69
383.825	312.69
384.287	328.69
384.75	307.69
385.212	317.69
385.674	310.69
386.136	295.69
386.599	347.69
387.061	329.69
387.523	313.69
387.985	349.69
388.447	343.69
388.91	339.69
389.372	335.69
389.834	329.69
390.296	328.69
390.758	367.69
391.22	323.69
391.682	333.69
392.144	328.69
392.606	337.69
393.068	344.69
393.529	379.69
393.991	366.69
394.453	340.69
394.915	345.69
395.377	357.69
395.838	324.69
396.3	334.69
396.762	353.69
397.224	365.69
397.685	338.69
398.147	352.69
398.608	366.69
399.07	373.69
399.531	370.69
399.993	335.69
400.454	386.69
400.916	375.69
401.377	366.69
401.839	371.69
402.3	376.69
402.762	392.69
403.223	391.69
403.684	431.69
404.145	393.69
404.607	395.69
405.068	403.69
405.529	393.69
405.99	386.69
406.451	416.69
406.913	385.69
407.374	408.69
407.835	415.69
408.296	394.69
408.757	397.69
409.218	394.69
409.679	395.69
410.14	411.69
410.601	451.69
411.062	443.69
411.522	427.69
411.983	432.69
412.444	428.69
412.905	428.69
413.366	478.69
413.826	479.69
414.287	517.69
414.748	608.69
415.208	571.69
415.669	510.69
416.13	481.69
416.59	479.69
417.051	492.69
417.511	535.69
417.972	528.69
418.432	562.69
418.893	625.69
419.353	600.69
419.814	465.69
420.274	443.69
420.734	439.69
421.195	445.69
421.655	437.69
422.115	468.69
422.576	451.69
423.036	449.69
423.496	466.69
423.956	476.69
424.416	517.69
424.876	561.69
425.336	579.69
425.797	547.69
426.257	553.69
426.717	539.69
427.177	492.69
427.637	511.69
428.097	517.69
428.556	555.69
429.016	583.69
429.476	567.69
429.936	591.69
430.396	559.69
430.856	600.69
431.315	615.69
431.775	649.69
432.235	719.69
432.694	675.69
433.154	657.69
433.614	653.69
434.073	636.69
434.533	582.69
434.993	541.69
435.452	551.69
435.912	568.69
436.371	534.69
436.83	549.69
437.29	531.69
437.749	502.69
438.209	513.69
438.668	481.69
439.127	527.69
439.587	502.69
440.046	483.69
440.505	499.69
440.964	479.69
441.424	507.69
441.883	509.69
442.342	509.69
442.801	495.69
443.26	457.69
443.719	502.69
444.178	474.69
444.637	481.69
445.096	495.69
445.555	501.69
446.014	497.69
446.473	488.69
446.932	512.69
447.391	516.69
447.849	491.69
448.308	491.69
448.767	489.69
449.226	504.69
449.685	508.69
450.143	523.69
450.602	531.69
451.061	510.69
451.519	533.69
451.978	515.69
452.436	496.69
452.895	522.69
453.353	520.69
453.812	508.69
454.27	494.69
454.729	507.69
455.187	511.69
455.646	529.69
456.104	499.69
456.562	537.69
457.021	506.69
457.479	515.69
457.937	527.69
458.395	525.69
458.854	543.69
459.312	504.69
459.77	505.69
460.228	528.69
460.686	523.69
461.144	535.69
461.602	522.69
462.06	534.69
462.518	551.69
462.976	574.69
463.434	545.69
463.892	552.69
464.35	558.69
464.808	599.69
465.266	567.69
465.724	563.69
466.181	586.69
466.639	584.69
467.097	580.69
467.555	612.69
468.012	615.69
468.47	615.69
468.928	655.69
469.385	656.69
469.843	673.69
470.3	645.69
470.758	660.69
471.215	700.69
471.673	696.69
472.13	723.69
472.588	721.69
473.045	715.69
473.503	739.69
473.96	776.69
474.417	763.69
474.875	795.69
475.332	831.69
475.789	850.69
476.246	867.69
476.704	917.69
477.161	911.69
477.618	931.69
478.075	1001.69
478.532	1051.69
478.989	1133.69
479.446	1232.69
479.903	1320.69
480.36	1418.69
480.817	1512.69
481.274	1615.69
481.731	1750.69
482.188	1877.69
482.645	2031.69
483.102	2159.69
483.558	2289.69
484.015	2431.69
484.472	2354.69
484.929	2301.69
485.385	2223.69
485.842	2199.69
486.299	2102.69
486.755	1959.69
487.212	1775.69
487.668	1627.69
488.125	1478.69
488.582	1357.69
489.038	1280.69
489.494	1230.69
489.951	1202.69
490.407	1197.69
490.864	1178.69
491.32	1142.69
491.776	1121.69
492.233	1167.69
492.689	1092.69
493.145	1101.69
493.602	1068.69
494.058	1089.69
494.514	1077.69
494.97	1112.69
495.426	1108.69
495.882	1120.69
496.338	1123.69
496.794	1115.69
497.251	1099.69
497.707	1143.69
498.163	1107.69
498.618	1091.69
499.074	1101.69
499.53	1152.69
499.986	1099.69
500.442	1134.69
500.898	1109.69
501.354	1127.69
501.809	1133.69
502.265	1103.69
502.721	1136.69
503.177	1132.69
503.632	1127.69
504.088	1139.69
504.543	1160.69
504.999	1171.69
505.455	1213.69
505.91	1120.69
506.366	1122.69
506.821	1152.69
507.277	1161.69
507.732	1170.69
508.187	1139.69
508.643	1136.69
509.098	1124.69
509.553	1175.69
510.009	1141.69
510.464	1187.69
510.919	1225.69
511.375	1235.69
511.83	1236.69
512.285	1252.69
512.74	1291.69
513.195	1285.69
513.65	1318.69
514.105	1329.69
514.56	1360.69
515.015	1382.69
515.47	1341.69
515.925	1353.69
516.38	1318.69
516.835	1335.69
517.29	1342.69
517.745	1329.69
518.2	1331.69
518.655	1275.69
519.109	1299.69
519.564	1253.69
520.019	1255.69
520.474	1272.69
520.928	1253.69
521.383	1242.69
521.838	1215.69
522.292	1202.69
522.747	1245.69
523.201	1209.69
523.656	1228.69
524.11	1210.69
524.565	1188.69
525.019	1216.69
525.474	1217.69
525.928	1204.69
526.382	1216.69
526.837	1208.69
527.291	1243.69
527.745	1183.69
528.2	1171.69
528.654	1154.69
529.108	1198.69
529.562	1154.69
530.016	1156.69
530.47	1192.69
530.925	1181.69
531.379	1184.69
531.833	1220.69
532.287	1182.69
532.741	1164.69
533.195	1191.69
533.649	1199.69
534.103	1217.69
534.556	1155.69
535.01	1213.69
535.464	1204.69
535.918	1173.69
536.372	1162.69
536.826	1204.69
537.279	1181.69
537.733	1189.69
538.187	1163.69
538.64	1181.69
539.094	1175.69
539.548	1195.69
540.001	1239.69
540.455	1233.69
540.908	1243.69
541.362	1265.69
541.815	1252.69
542.269	1293.69
542.722	1273.69
543.175	1295.69
543.629	1292.69
544.082	1315.69
544.536	1321.69
544.989	1321.69
545.442	1319.69
545.895	1315.69
546.349	1311.69
546.802	1297.69
547.255	1332.69
547.708	1313.69
548.161	1316.69
548.614	1341.69
549.067	1333.69
549.52	1334.69
549.973	1357.69
550.426	1331.69
550.879	1308.69
551.332	1329.69
551.785	1354.69
552.238	1353.69
552.691	1359.69
553.144	1352.69
553.596	1379.69
554.049	1393.69
554.502	1431.69
554.955	1485.69
555.407	1459.69
555.86	1422.69
556.313	1428.69
556.765	1395.69
557.218	1406.69
557.67	1434.69
558.123	1385.69
558.576	1381.69
559.028	1367.69
559.48	1369.69
559.933	1391.69
560.385	1341.69
560.838	1343.69
561.29	1303.69
561.742	1306.69
562.195	1236.69
562.647	1244.69
563.099	1225.69
563.551	1227.69
564.004	1243.69
564.456	1237.69
564.908	1209.69
565.36	1183.69
565.812	1144.69
566.264	1152.69
566.716	1139.69
567.168	1129.69
567.62	1121.69
568.072	1143.69
568.524	1115.69
568.976	1116.69
569.428	1119.69
569.88	1069.69
570.332	1085.69
570.784	1087.69
571.235	1082.69
571.687	1089.69
572.139	1104.69
572.59	1095.69
573.042	1119.69
573.494	1076.69
573.945	1122.69
574.397	1147.69
574.849	1088.69
575.3	1098.69
575.752	1055.69
576.203	1048.69
576.655	1079.69
577.106	1058.69
577.557	1066.69
578.009	1053.69
578.46	1040.69
578.912	1040.69
579.363	1018.69
579.814	1009.69
580.265	1040.69
580.717	1035.69
581.168	1059.69
581.619	1045.69
582.07	1033.69
582.521	1054.69
582.972	1046.69
583.423	1056.69
583.875	1071.69
584.326	1067.69
584.777	1047.69
585.227	1077.69
585.678	1097.69
586.129	1119.69
586.58	1109.69
587.031	1108.69
587.482	1133.69
587.933	1201.69
588.384	1179.69
588.834	1183.69
589.285	1167.69
589.736	1151.69
590.186	1111.69
590.637	1151.69
591.088	1162.69
591.538	1135.69
591.989	1105.69
592.439	1114.69
592.89	1115.69
593.34	1088.69
593.791	1088.69
594.241	1056.69
594.692	1042.69
595.142	1040.69
595.593	1059.69
596.043	1014.69
596.493	1074.69
596.943	1069.69
597.394	1060.69
597.844	1120.69
598.294	1155.69
598.744	1157.69
599.195	1239.69
599.645	1255.69
600.095	1326.69
600.545	1393.69
600.995	1433.69
601.445	1461.69
601.895	1515.69
602.345	1586.69
602.795	1575.69
603.245	1552.69
603.695	1447.69
604.145	1364.69
604.594	1339.69
605.044	1218.69
605.494	1209.69
605.944	1126.69
606.393	1130.69
606.843	1076.69
607.293	1075.69
607.743	1039.69
608.192	1066.69
608.642	1095.69
609.091	1077.69
609.541	1064.69
609.99	1073.69
610.44	1060.69
610.889	1083.69
611.339	1053.69
611.788	1017.69
612.238	1051.69
612.687	1059.69
613.136	1034.69
613.586	1036.69
614.035	1062.69
614.484	1027.69
614.933	1061.69
615.383	1045.69
615.832	1029.69
616.281	1000.69
616.73	1036.69
617.179	980.69
617.628	948.69
618.077	911.69
618.526	916.69
618.975	921.69
619.424	906.69
619.873	895.69
620.322	891.69
620.771	911.69
621.22	862.69
621.669	845.69
622.118	844.69
622.567	824.69
623.015	847.69
623.464	835.69
623.913	849.69
624.361	841.69
624.81	848.69
625.259	859.69
625.707	831.69
626.156	850.69
626.604	820.69
627.053	827.69
627.501	858.69
627.95	859.69
628.398	858.69
628.847	847.69
629.295	867.69
629.744	832.69
630.192	841.69
630.64	812.69
631.089	786.69
631.537	813.69
631.985	768.69
632.433	779.69
632.881	759.69
633.33	763.69
633.778	770.69
634.226	770.69
634.674	799.69
635.122	783.69
635.57	815.69
636.018	805.69
636.466	810.69
636.914	771.69
637.362	816.69
637.81	827.69
638.258	879.69
638.705	844.69
639.153	879.69
639.601	887.69
640.049	946.69
640.497	952.69
640.944	995.69
641.392	959.69
641.84	894.69
642.287	887.69
642.735	857.69
643.182	845.69
643.63	806.69
644.078	838.69
644.525	858.69
644.973	867.69
645.42	887.69
645.867	890.69
646.315	947.69
646.762	975.69
647.21	971.69
647.657	1035.69
648.104	1084.69
648.551	1077.69
648.999	1159.69
649.446	1273.69
649.893	1413.69
650.34	1609.69
650.787	1854.69
651.234	2393.69
651.682	3198.69
652.129	4448.69
652.576	6305.69
653.023	8757.69
653.47	10662.69
653.917	11993.69
654.363	12605.69
654.81	13253.69
655.257	13929.69
655.704	10694.69
656.151	6446.69
656.598	4151.69
657.044	2885.69
657.491	2261.69
657.938	1828.69
658.385	1571.69
658.831	1303.69
659.278	1214.69
659.724	1090.69
660.171	1019.69
660.618	948.69
661.064	872.69
661.511	869.69
661.957	856.69
662.404	814.69
662.85	810.69
663.296	794.69
663.743	785.69
664.189	773.69
664.635	774.69
665.082	729.69
665.528	759.69
665.974	723.69
666.42	715.69
666.867	710.69
667.313	671.69
667.759	686.69
668.205	691.69
668.651	639.69
669.097	669.69
669.543	644.69
669.989	651.69
670.435	669.69
670.881	669.69
671.327	696.69
671.773	729.69
672.219	763.69
672.665	831.69
673.11	881.69
673.556	875.69
674.002	881.69
674.448	901.69
674.893	809.69
675.339	721.69
675.785	653.69
676.23	609.69
676.676	613.69
677.122	557.69
677.567	554.69
678.013	562.69
678.458	535.69
678.904	557.69
679.349	518.69
679.794	531.69
680.24	559.69
680.685	532.69
681.131	545.69
681.576	529.69
682.021	526.69
682.466	537.69
682.912	548.69
683.357	531.69
683.802	594.69
684.247	617.69
684.692	665.69
685.137	729.69
685.583	719.69
686.028	730.69
686.473	707.69
686.918	665.69
687.363	619.69
687.807	576.69
688.252	540.69
688.697	536.69
689.142	517.69
689.587	513.69
690.032	507.69
690.477	536.69
690.921	552.69
691.366	602.69
691.811	607.69
692.255	621.69
692.7	673.69
693.145	882.69
693.589	1363.69
694.034	1731.69
694.478	1928.69
694.923	1801.69
695.367	2243.69
695.812	2087.69
696.256	875.69
696.701	600.69
697.145	519.69
697.59	493.69
698.034	499.69
698.478	503.69
698.922	526.69
699.367	539.69
699.811	531.69
700.255	568.69
700.699	601.69
701.143	629.69
701.588	683.69
702.032	683.69
702.476	731.69
702.92	765.69
703.364	844.69
703.808	1208.69
704.252	1642.69
704.696	1863.69
705.14	1744.69
705.584	2144.69
706.027	1799.69
706.471	900.69
706.915	615.69
707.359	546.69
707.803	503.69
708.246	478.69
708.69	453.69
709.134	478.69
709.577	481.69
710.021	489.69
710.465	476.69
710.908	477.69
711.352	471.69
711.795	521.69
712.239	579.69
712.682	575.69
713.126	555.69
713.569	603.69
714.012	555.69
714.456	483.69
714.899	463.69
715.342	432.69
715.786	435.69
716.229	407.69
716.672	385.69
717.115	413.69
717.558	399.69
718.002	394.69
718.445	424.69
718.888	450.69
719.331	427.69
719.774	439.69
720.217	460.69
720.66	433.69
721.103	410.69
721.546	395.69
721.989	405.69
722.432	370.69
722.874	384.69
723.317	380.69
723.76	427.69
724.203	428.69
724.645	571.69
725.088	701.69
725.531	710.69
725.974	714.69
726.416	755.69
726.859	540.69
727.301	395.69
727.744	398.69
728.187	371.69
728.629	385.69
729.071	402.69
729.514	429.69
729.956	403.69
730.399	447.69
730.841	464.69
731.283	430.69
731.726	438.69
732.168	403.69
732.61	431.69
733.053	444.69
733.495	508.69
733.937	555.69
734.379	614.69
734.821	720.69
735.263	988.69
735.705	1651.69
736.148	2581.69
736.59	3075.69
737.032	2807.69
737.474	3085.69
737.916	1561.69
738.357	739.69
738.799	523.69
739.241	490.69
739.683	487.69
740.125	479.69
740.567	494.69
741.008	530.69
741.45	521.69
741.892	560.69
742.334	544.69
742.775	566.69
743.217	553.69
743.658	481.69
744.1	475.69
744.542	509.69
744.983	584.69
745.425	541.69
745.866	590.69
746.307	521.69
746.749	505.69
747.19	597.69
747.632	948.69
748.073	1772.69
748.514	2737.69
748.956	3368.69
749.397	4570.69
749.838	3761.69
750.279	3037.69
750.72	2279.69
751.162	1046.69
751.603	567.69
752.044	439.69
752.485	388.69
752.926	328.69
753.367	348.69
753.808	341.69
754.249	330.69
754.69	324.69
755.131	333.69
755.572	340.69
756.013	325.69
756.453	335.69
756.894	346.69
757.335	326.69
757.776	315.69
758.216	329.69
758.657	345.69
759.098	360.69
759.538	424.69
759.979	509.69
760.42	800.69
760.86	1771.69
761.301	4050.69
761.741	5997.69
762.182	6155.69
762.622	5871.69
763.063	2692.69
763.503	1081.69
763.943	584.69
764.384	433.69
764.824	406.69
765.264	376.69
765.705	347.69
766.145	321.69
766.585	332.69
767.025	329.69
767.465	315.69
767.906	304.69
768.346	327.69
768.786	338.69
769.226	405.69
769.666	651.69
770.106	1373.69
770.546	2457.69
770.986	2629.69
771.426	2629.69
771.866	1452.69
772.306	673.69
772.745	406.69
773.185	305.69
773.625	298.69
774.065	303.69
774.505	355.69
774.944	570.69
775.384	856.69
775.824	981.69
776.263	994.69
776.703	711.69
777.142	417.69
777.582	293.69
778.021	261.69
778.461	242.69
778.9	242.69
779.34	238.69
779.779	248.69
780.219	224.69
780.658	260.69
781.097	224.69
781.537	216.69
781.976	235.69
782.415	234.69
782.855	226.69
783.294	223.69
783.733	231.69
784.172	217.69
784.611	227.69
785.05	234.69
785.489	227.69
785.928	204.69
786.367	242.69
786.806	239.69
787.245	266.69
787.684	269.69
788.123	256.69
788.562	260.69
789.001	247.69
789.44	247.69
789.879	253.69
790.317	241.69
790.756	256.69
791.195	259.69
791.634	326.69
792.072	441.69
792.511	867.69
792.95	1834.69
793.388	2353.69
793.827	2060.69
794.265	1204.69
794.704	608.69
795.142	348.69
795.581	292.69
796.019	251.69
796.458	250.69
796.896	255.69
797.334	277.69
797.773	297.69
798.211	459.69
798.649	890.69
799.087	1493.69
799.526	2231.69
799.964	2492.69
800.402	2135.69
800.84	1303.69
801.278	655.69
801.716	387.69
802.154	306.69
802.592	267.69
803.03	279.69
803.468	277.69
803.906	287.69
804.344	287.69
804.782	267.69
805.22	284.69
805.658	286.69
806.096	296.69
806.533	299.69
806.971	361.69
807.409	448.69
807.847	679.69
808.284	1523.69
808.722	2963.69
809.16	4113.69
809.597	5735.69
810.035	7327.69
810.472	6316.69
810.91	3510.69
811.347	1738.69
811.785	810.69
812.222	472.69
812.66	351.69
813.097	319.69
813.535	295.69
813.972	255.69
814.409	229.69
814.846	241.69
815.284	224.69
815.721	229.69
816.158	239.69
816.595	287.69
817.032	330.69
817.47	359.69
817.907	332.69
818.344	255.69
818.781	241.69
819.218	253.69
819.655	349.69
820.092	438.69
820.529	435.69
820.966	389.69
821.403	305.69
821.839	277.69
822.276	255.69
822.713	279.69
823.15	289.69
823.587	291.69
824.023	350.69
824.46	705.69
824.897	1273.69
825.333	1391.69
825.77	813.69
826.206	506.69
826.643	298.69
827.08	212.69
827.516	207.69
827.953	204.69
828.389	180.69
828.825	180.69
829.262	168.69
829.698	173.69
830.135	165.69
830.571	160.69
831.007	181.69
831.443	156.69
831.88	168.69
832.316	170.69
832.752	168.69
833.188	170.69
833.624	167.69
834.06	177.69
834.497	161.69
834.933	173.69
835.369	191.69
835.805	171.69
836.241	191.69
836.677	193.69
837.112	222.69
837.548	235.69
837.984	285.69
838.42	445.69
838.856	1133.69
839.292	2313.69
839.727	2502.69
840.163	1689.69
840.599	1978.69
841.034	2908.69
841.47	2268.69
841.906	1312.69
842.341	715.69
842.777	471.69
843.212	427.69
843.648	383.69
844.083	271.69
844.519	196.69
844.954	177.69
845.39	171.69
845.825	167.69
846.261	157.69
846.696	155.69
847.131	163.69
847.566	157.69
848.002	155.69
848.437	163.69
848.872	154.69
849.307	167.69
849.742	236.69
850.177	435.69
850.613	895.69
851.048	986.69
851.483	572.69
851.918	400.69
852.353	250.69
852.788	189.69
853.223	151.69
853.657	160.69
854.092	147.69
854.527	151.69
854.962	162.69
855.397	159.69
855.832	164.69
856.266	141.69
856.701	141.69
857.136	153.69
857.57	155.69
858.005	179.69
858.44	179.69
858.874	164.69
859.309	161.69
859.743	165.69
860.178	153.69
860.612	141.69
861.047	153.69
861.481	201.69
861.915	201.69
862.35	159.69
862.784	153.69
863.218	136.69
863.653	151.69
864.087	163.69
864.521	163.69
864.955	200.69
865.39	273.69
865.824	303.69
866.258	306.69
866.692	427.69
867.126	385.69
867.56	293.69
867.994	206.69
868.428	180.69
868.862	173.69
869.296	163.69
869.73	192.69
870.164	164.69
870.598	180.69
871.031	145.69
871.465	131.69
871.899	147.69
872.333	131.69
872.766	130.69
873.2	124.69
873.634	111.69
874.067	108.69
874.501	117.69
874.935	125.69
875.368	116.69
875.802	125.69
876.235	127.69
876.669	127.69
877.102	120.69
877.535	128.69
877.969	111.69
878.402	109.69
878.836	96.69
879.269	96.69
879.702	108.69
880.135	121.69
880.569	119.69
881.002	106.69
881.435	110.69
881.868	107.69
882.301	110.69
882.734	115.69
883.167	115.69
883.601	119.69
884.034	110.69
884.467	106.69
884.899	118.69
885.332	108.69
885.765	115.69
886.198	115.69
886.631	113.69
887.064	121.69
887.497	121.69
887.929	114.69
888.362	110.69
888.795	106.69
889.228	112.69
889.66	122.69
890.093	108.69
890.526	105.69
890.958	101.69
891.391	113.69
891.823	101.69
892.256	97.69
892.688	90.69
893.121	107.69
893.553	105.69
893.985	111.69
894.418	101.69
894.85	110.69
895.282	120.69
895.715	111.69
896.147	107.69
896.579	106.69
897.011	104.69
897.444	105.69
897.876	100.69
898.308	98.69
898.74	112.69
899.172	106.69
899.604	111.69
900.036	113.69
900.468	109.69
900.9	104.69
901.332	107.69
901.764	121.69
902.196	127.69
902.628	135.69
903.06	125.69
903.491	150.69
903.923	131.69
904.355	119.69
904.787	120.69
905.218	122.69
905.65	120.69
906.082	99.69
906.513	112.69
906.945	118.69
907.376	124.69
907.808	100.69
908.239	107.69
908.671	120.69
909.102	111.69
909.534	137.69
909.965	151.69
910.397	235.69
910.828	573.69
911.259	643.69
911.691	390.69
912.122	281.69
912.553	194.69
912.984	127.69
913.415	136.69
913.847	104.69
914.278	115.69
914.709	102.69
915.14	124.69
915.571	105.69
916.002	111.69
916.433	110.69
916.864	96.69
917.295	105.69
917.726	91.69
918.157	114.69
918.587	120.69
919.018	112.69
919.449	121.69
919.88	105.69
920.311	141.69
920.741	183.69
921.172	297.69
921.603	252.69
922.033	212.69
922.464	152.69
922.895	138.69
923.325	117.69
923.756	103.69
924.186	113.69
924.617	100.69
925.047	127.69
925.478	133.69
925.908	135.69
926.338	130.69
926.769	105.69
927.199	107.69
927.629	98.69
928.06	118.69
928.49	103.69
928.92	98.69
929.35	99.69
929.78	70.69
930.21	112.69
930.641	91.69
931.071	110.69
931.501	103.69
931.931	89.69
932.361	104.69
932.791	112.69
933.221	106.69
933.651	100.69
934.08	95.69
934.51	111.69
934.94	97.69
935.37	106.69
935.8	97.69
936.229	105.69
936.659	90.69
937.089	104.69
937.519	106.69
937.948	129.69
938.378	110.69
938.807	102.69
939.237	95.69
939.666	87.69
940.096	90.69
940.525	92.69
940.955	89.69
941.384	99.69
941.814	87.69
942.243	75.69
942.672	85.69
943.102	79.69
943.531	79.69
943.96	86.69
944.39	83.69
944.819	94.69
945.248	93.69
945.677	106.69
946.106	86.69
946.535	86.69
946.964	94.69
947.393	88.69
947.822	94.69
948.251	94.69
948.68	100.69
949.109	98.69
949.538	88.69
949.967	79.69
950.396	90.69
950.825	104.69
951.254	89.69
951.682	101.69
952.111	92.69
952.54	78.69
952.969	99.69
953.397	107.69
953.826	84.69
954.254	102.69
954.683	83.69
955.112	98.69
955.54	102.69
955.969	99.69
956.397	79.69
956.826	94.69
957.254	81.69
957.682	96.69
958.111	96.69
958.539	80.69
958.967	80.69
959.396	86.69
959.824	89.69
960.252	82.69
960.68	100.69
961.109	92.69
961.537	98.69
961.965	76.69
962.393	84.69
962.821	90.69
963.249	69.69
963.677	95.69
964.105	88.69
964.533	158.69
964.961	117.69
965.389	114.69
965.817	103.69
966.245	108.69
966.672	95.69
967.1	91.69
967.528	86.69
967.956	86.69
968.383	89.69
968.811	90.69
969.239	100.69
969.666	81.69
970.094	89.69
970.522	87.69
970.949	88.69
971.377	78.69
971.804	96.69
972.232	77.69
972.659	68.69
973.087	81.69
973.514	93.69
973.941	79.69
974.369	89.69
974.796	87.69
975.223	86.69
975.651	93.69
976.078	94.69
976.505	98.69
976.932	116.69
977.359	105.69
977.786	110.69
978.214	96.69
978.641	107.69
979.068	96.69
979.495	82.69
979.922	63.69
980.349	88.69
980.776	100.69
981.202	85.69
981.629	85.69
982.056	86.69
982.483	96.69
982.91	93.69
983.337	97.69
983.763	88.69
984.19	95.69
984.617	68.69
985.043	95.69
985.47	78.69
985.897	88.69
986.323	72.69
986.75	90.69
987.176	86.69
987.603	78.69
988.029	86.69
988.456	77.69
988.882	101.69
989.308	85.69
989.735	89.69
990.161	79.69
990.587	74.69
991.014	97.69
991.44	92.69
991.866	70.69
992.292	102.69
992.719	78.69
993.145	80.69
993.571	66.69
993.997	91.69
994.423	91.69
994.849	79.69
995.275	71.69
995.701	80.69
996.127	93.69
996.553	77.69
996.979	90.69
997.405	84.69
997.83	91.69
998.256	83.69
998.682	89.69
999.108	80.69
999.534	84.69
999.959	80.69
1000.385	77.69
1000.811	90.69
1001.236	85.69
1001.662	79.69
1002.087	104.69
1002.513	81.69
1002.938	90.69
1003.364	99.69
1003.789	67.69
1004.215	88.69
1004.64	78.69
1005.066	99.69
1005.491	88.69
1005.916	83.69
1006.342	74.69
1006.767	85.69
1007.192	74.69
1007.617	81.69
1008.042	80.69
1008.468	81.69
1008.893	95.69
1009.318	91.69
1009.743	97.69
1010.168	106.69
1010.593	104.69
1011.018	100.69
1011.443	95.69
1011.868	89.69
1012.293	87.69
1012.718	85.69
1013.143	79.69
1013.567	93.69
1013.992	73.69
1014.417	84.69
1014.842	87.69
1015.267	95.69
1015.691	80.69
1016.116	98.69
1016.541	92.69
1016.965	78.69
1017.39	95.69
1017.814	81.69
1018.239	88.69
1018.663	73.69
1019.088	89.69
1019.512	86.69
1019.937	79.69
1020.361	85.69
1020.785	85.69
1021.21	93.69
1021.634	76.69
1022.058	87.69
1022.483	87.69
1022.907	80.69
1023.331	99.69
1023.755	69.69
1024.179	93.69
1024.604	81.69
1025.028	84.69
1025.452	78.69
1025.876	88.69
1026.3	88.69
1026.724	84.69
1027.148	84.69
1027.572	85.69
1027.996	77.69
1028.42	78.69
1028.843	82.69
1029.267	79.69
1029.691	73.69
1030.115	77.69
1030.539	74.69
1030.962	73.69
1031.386	63.69
1031.81	86.69
1032.233	83.69
1032.657	79.69
1033.08	75.69
1033.504	80.69
1033.927	88.69
1034.351	67.69
1034.774	82.69
1035.198	80.69
1035.621	92.69
1036.045	81.69
1036.468	80.69
1036.891	91.69
1037.315	91.69
1037.738	75.69
1038.161	83.69
1038.584	78.69
1039.008	77.69
1039.431	83.69
1039.854	62.69
1040.277	80.69
1040.7	85.69
1041.123	73.69
1041.546	89.69
1041.969	82.69
1042.392	84.69
1042.815	87.69
1043.238	78.69
1043.661	90.69
1044.084	81.69
1044.507	89.69
1044.93	78.69
1045.352	85.69
1045.775	86.69
1046.198	73.69
1046.621	95.69
1047.043	92.69
1047.466	66.69
1047.889	68.69
1048.311	94.69
1048.734	82.69
1049.156	85.69
1049.579	78.69
1050.001	73.69
1050.424	91.69
1050.846	87.69
1051.269	87.69
1051.691	88.69
1052.113	77.69
1052.536	95.69
1052.958	75.69
1053.38	83.69
1053.802	79.69
1054.225	76.69
1054.647	66.69
1055.069	93.69
1055.491	70.69
1055.913	80.69
1056.335	81.69
1056.757	71.69
1057.179	91.69
1057.601	77.69
1058.023	63.69
1058.445	54.69
1058.867	63.69
1059.289	95.69
1059.711	75.69
1060.133	86.69
1060.555	87.69
1060.976	85.69
1061.398	73.69
1061.82	74.69
1062.241	79.69
1062.663	77.69
1063.085	83.69
1063.506	82.69
1063.928	85.69
1064.35	78.69
1064.771	87.69
1065.193	89.69
1065.614	75.69
1066.035	70.69
1066.457	77.69
1066.878	105.69
1067.3	81.69
1067.721	92.69
1068.142	84.69
1068.564	68.69
1068.985	91.69
1069.406	80.69
1069.827	89.69
1070.248	69.69
1070.67	95.69
1071.091	77.69
1071.512	97.69
1071.933	88.69
1072.354	73.69
1072.775	79.69
1073.196	73.69
1073.617	74.69
1074.038	85.69
1074.459	88.69
1074.88	86.69
1075.3	90.69
1075.721	86.69
1076.142	77.69
1076.563	86.69
1076.983	74.69
1077.404	76.69
1077.825	81.69
1078.246	68.69
1078.666	83.69
1079.087	65.69
1079.507	80.69
1079.928	81.69
1080.348	79.69
1080.769	79.69
1081.189	78.69
1081.61	82.69
1082.03	74.69
1082.451	91.69
1082.871	72.69
1083.291	93.69
1083.711	89.69
1084.132	83.69
1084.552	82.69
1084.972	99.69
1085.392	85.69
1085.813	75.69
1086.233	79.69
1086.653	82.69
1087.073	79.69
1087.493	91.69
1087.913	89.69
1088.333	82.69
1088.753	65.69
1089.173	81.69
1089.593	53.69
1090.013	88.69
1090.433	80.69
1090.852	90.69
1091.272	78.69
1091.692	79.69
1092.112	77.69
1092.531	81.69
1092.951	73.69
1093.371	74.69
1093.79	77.69
1094.21	89.69
1094.63	71.69
1095.049	67.69
1095.469	77.69
1095.888	72.69
1096.308	82.69
1096.727	88.69
1097.146	83.69
1097.566	93.69
1097.985	89.69
1098.405	85.69
1098.824	79.69
1099.243	69.69
1099.662	85.69
1100.082	71.69
1100.501	68.69
1100.92	79.69
1101.339	86.69
1101.758	78.69
