Data from 20170802-ORNL-NYSim-Air_HRD10391_10-37-42-643.txt Node
Date: Wed Aug 02 10:37:42 EDT 2017
User: Ender
Spectrometer: HR+D1039
Trigger mode: 0
Integration Time (sec): 1.510000E-3
Scans to average: 1
Electric dark correction enabled: true
Nonlinearity correction enabled: false
Boxcar width: 0
XAxis mode: Wavelengths
Number of Pixels in Spectrum: 2048
>>>>>Begin Spectral Data<<<<<
187.836	15.5
188.309	15.5
188.782	15.5
189.255	-12.5
189.728	-1.5
190.201	-19.5
190.674	-8.5
191.147	7.5
191.619	-2.5
192.092	-13.5
192.565	-2.5
193.038	-10.5
193.511	12.5
193.984	-1.5
194.456	5.5
194.929	-1.5
195.402	11.5
195.874	21.5
196.347	17.5
196.82	33.5
197.292	33.5
197.765	46.5
198.237	43.5
198.71	38.5
199.182	35.5
199.655	46.5
200.127	52.5
200.6	57.5
201.072	56.5
201.544	58.5
202.017	60.5
202.489	67.5
202.961	67.5
203.433	76.5
203.906	77.5
204.378	67.5
204.85	91.5
205.322	69.5
205.794	81.5
206.266	86.5
206.739	89.5
207.211	75.5
207.683	92.5
208.155	95.5
208.627	91.5
209.099	77.5
209.57	80.5
210.042	80.5
210.514	92.5
210.986	81.5
211.458	82.5
211.93	78.5
212.402	77.5
212.873	86.5
213.345	89.5
213.817	87.5
214.288	72.5
214.76	81.5
215.232	97.5
215.703	85.5
216.175	75.5
216.646	74.5
217.118	81.5
217.589	95.5
218.061	83.5
218.532	69.5
219.004	78.5
219.475	78.5
219.946	89.5
220.418	80.5
220.889	86.5
221.36	84.5
221.832	83.5
222.303	90.5
222.774	82.5
223.245	94.5
223.717	97.5
224.188	77.5
224.659	97.5
225.13	90.5
225.601	79.5
226.072	77.5
226.543	79.5
227.014	79.5
227.485	75.5
227.956	80.5
228.427	90.5
228.898	75.5
229.369	58.5
229.839	79.5
230.31	73.5
230.781	77.5
231.252	91.5
231.722	89.5
232.193	78.5
232.664	85.5
233.135	72.5
233.605	92.5
234.076	85.5
234.546	82.5
235.017	74.5
235.487	83.5
235.958	82.5
236.428	73.5
236.899	83.5
237.369	75.5
237.84	82.5
238.31	88.5
238.78	89.5
239.251	94.5
239.721	67.5
240.191	85.5
240.662	84.5
241.132	84.5
241.602	99.5
242.072	82.5
242.542	85.5
243.013	82.5
243.483	104.5
243.953	84.5
244.423	88.5
244.893	84.5
245.363	93.5
245.833	95.5
246.303	78.5
246.773	96.5
247.243	79.5
247.712	87.5
248.182	100.5
248.652	101.5
249.122	83.5
249.592	80.5
250.061	85.5
250.531	91.5
251.001	90.5
251.471	86.5
251.94	106.5
252.41	94.5
252.879	99.5
253.349	93.5
253.818	89.5
254.288	96.5
254.757	88.5
255.227	82.5
255.696	77.5
256.166	71.5
256.635	82.5
257.105	94.5
257.574	75.5
258.043	89.5
258.513	105.5
258.982	93.5
259.451	108.5
259.92	116.5
260.389	98.5
260.859	101.5
261.328	115.5
261.797	104.5
262.266	95.5
262.735	99.5
263.204	104.5
263.673	99.5
264.142	104.5
264.611	96.5
265.08	93.5
265.549	100.5
266.018	108.5
266.487	103.5
266.955	121.5
267.424	86.5
267.893	112.5
268.362	116.5
268.83	108.5
269.299	113.5
269.768	107.5
270.236	111.5
270.705	107.5
271.174	101.5
271.642	100.5
272.111	98.5
272.579	100.5
273.048	99.5
273.516	108.5
273.985	107.5
274.453	96.5
274.922	101.5
275.39	98.5
275.858	105.5
276.327	97.5
276.795	97.5
277.263	93.5
277.731	105.5
278.2	101.5
278.668	111.5
279.136	109.5
279.604	110.5
280.072	119.5
280.54	93.5
281.008	122.5
281.477	101.5
281.945	107.5
282.413	110.5
282.881	98.5
283.348	110.5
283.816	114.5
284.284	111.5
284.752	128.5
285.22	107.5
285.688	109.5
286.156	109.5
286.623	111.5
287.091	105.5
287.559	121.5
288.026	103.5
288.494	119.5
288.962	134.5
289.429	103.5
289.897	114.5
290.364	113.5
290.832	117.5
291.3	125.5
291.767	127.5
292.234	103.5
292.702	133.5
293.169	119.5
293.637	110.5
294.104	114.5
294.571	116.5
295.039	129.5
295.506	101.5
295.973	130.5
296.44	115.5
296.908	115.5
297.375	129.5
297.842	110.5
298.309	137.5
298.776	126.5
299.243	138.5
299.71	134.5
300.177	121.5
300.644	143.5
301.111	131.5
301.578	123.5
302.045	126.5
302.512	136.5
302.979	123.5
303.446	124.5
303.913	127.5
304.379	125.5
304.846	118.5
305.313	129.5
305.78	165.5
306.246	149.5
306.713	123.5
307.18	122.5
307.646	133.5
308.113	123.5
308.579	129.5
309.046	157.5
309.512	155.5
309.979	135.5
310.445	125.5
310.912	135.5
311.378	139.5
311.845	134.5
312.311	142.5
312.777	139.5
313.244	151.5
313.71	132.5
314.176	153.5
314.642	136.5
315.109	138.5
315.575	154.5
316.041	130.5
316.507	146.5
316.973	129.5
317.439	141.5
317.905	154.5
318.371	151.5
318.837	155.5
319.303	159.5
319.769	153.5
320.235	143.5
320.701	164.5
321.167	164.5
321.633	159.5
322.099	153.5
322.564	164.5
323.03	155.5
323.496	161.5
323.962	164.5
324.427	169.5
324.893	175.5
325.359	175.5
325.824	145.5
326.29	159.5
326.755	157.5
327.221	193.5
327.686	152.5
328.152	160.5
328.617	156.5
329.083	175.5
329.548	159.5
330.014	159.5
330.479	164.5
330.944	172.5
331.41	173.5
331.875	174.5
332.34	147.5
332.805	148.5
333.271	186.5
333.736	189.5
334.201	181.5
334.666	195.5
335.131	176.5
335.596	183.5
336.061	179.5
336.526	186.5
336.991	162.5
337.456	178.5
337.921	181.5
338.386	177.5
338.851	188.5
339.316	183.5
339.781	177.5
340.246	173.5
340.711	189.5
341.175	184.5
341.64	171.5
342.105	199.5
342.569	190.5
343.034	205.5
343.499	193.5
343.963	186.5
344.428	192.5
344.893	181.5
345.357	195.5
345.822	194.5
346.286	195.5
346.751	199.5
347.215	191.5
347.679	187.5
348.144	218.5
348.608	230.5
349.073	210.5
349.537	234.5
350.001	195.5
350.465	210.5
350.93	211.5
351.394	227.5
351.858	215.5
352.322	227.5
352.786	210.5
353.25	211.5
353.715	214.5
354.179	245.5
354.643	239.5
355.107	258.5
355.571	231.5
356.035	218.5
356.498	222.5
356.962	240.5
357.426	238.5
357.89	250.5
358.354	222.5
358.818	214.5
359.281	216.5
359.745	218.5
360.209	245.5
360.673	249.5
361.136	240.5
361.6	245.5
362.064	231.5
362.527	233.5
362.991	239.5
363.454	250.5
363.918	209.5
364.381	237.5
364.845	237.5
365.308	278.5
365.772	243.5
366.235	253.5
366.698	254.5
367.162	230.5
367.625	248.5
368.088	250.5
368.552	263.5
369.015	226.5
369.478	256.5
369.941	256.5
370.404	262.5
370.867	240.5
371.331	266.5
371.794	271.5
372.257	251.5
372.72	263.5
373.183	250.5
373.646	257.5
374.109	283.5
374.572	269.5
375.035	267.5
375.497	259.5
375.96	278.5
376.423	283.5
376.886	279.5
377.349	269.5
377.811	272.5
378.274	277.5
378.737	284.5
379.199	298.5
379.662	309.5
380.125	293.5
380.587	284.5
381.05	286.5
381.512	285.5
381.975	317.5
382.437	291.5
382.9	293.5
383.362	294.5
383.825	319.5
384.287	319.5
384.75	302.5
385.212	307.5
385.674	334.5
386.136	291.5
386.599	318.5
387.061	309.5
387.523	307.5
387.985	338.5
388.447	325.5
388.91	324.5
389.372	302.5
389.834	326.5
390.296	306.5
390.758	333.5
391.22	310.5
391.682	331.5
392.144	313.5
392.606	307.5
393.068	332.5
393.529	325.5
393.991	353.5
394.453	346.5
394.915	342.5
395.377	317.5
395.838	327.5
396.3	321.5
396.762	326.5
397.224	335.5
397.685	343.5
398.147	321.5
398.608	318.5
399.07	346.5
399.531	356.5
399.993	353.5
400.454	342.5
400.916	362.5
401.377	361.5
401.839	359.5
402.3	385.5
402.762	383.5
403.223	378.5
403.684	380.5
404.145	368.5
404.607	373.5
405.068	389.5
405.529	387.5
405.99	375.5
406.451	379.5
406.913	389.5
407.374	386.5
407.835	384.5
408.296	381.5
408.757	390.5
409.218	404.5
409.679	407.5
410.14	408.5
410.601	403.5
411.062	431.5
411.522	418.5
411.983	444.5
412.444	445.5
412.905	434.5
413.366	419.5
413.826	461.5
414.287	468.5
414.748	572.5
415.208	603.5
415.669	515.5
416.13	477.5
416.59	460.5
417.051	464.5
417.511	509.5
417.972	536.5
418.432	563.5
418.893	605.5
419.353	585.5
419.814	461.5
420.274	419.5
420.734	401.5
421.195	427.5
421.655	407.5
422.115	444.5
422.576	431.5
423.036	439.5
423.496	457.5
423.956	492.5
424.416	505.5
424.876	560.5
425.336	540.5
425.797	543.5
426.257	540.5
426.717	531.5
427.177	475.5
427.637	491.5
428.097	500.5
428.556	513.5
429.016	549.5
429.476	546.5
429.936	556.5
430.396	542.5
430.856	569.5
431.315	560.5
431.775	588.5
432.235	633.5
432.694	620.5
433.154	591.5
433.614	601.5
434.073	607.5
434.533	539.5
434.993	526.5
435.452	489.5
435.912	497.5
436.371	485.5
436.83	506.5
437.29	504.5
437.749	501.5
438.209	494.5
438.668	509.5
439.127	500.5
439.587	481.5
440.046	476.5
440.505	478.5
440.964	473.5
441.424	533.5
441.883	499.5
442.342	480.5
442.801	492.5
443.26	472.5
443.719	497.5
444.178	493.5
444.637	493.5
445.096	522.5
445.555	527.5
446.014	484.5
446.473	489.5
446.932	479.5
447.391	489.5
447.849	502.5
448.308	499.5
448.767	504.5
449.226	507.5
449.685	499.5
450.143	519.5
450.602	519.5
451.061	510.5
451.519	491.5
451.978	501.5
452.436	481.5
452.895	498.5
453.353	504.5
453.812	481.5
454.27	500.5
454.729	496.5
455.187	535.5
455.646	530.5
456.104	513.5
456.562	510.5
457.021	525.5
457.479	527.5
457.937	492.5
458.395	517.5
458.854	524.5
459.312	516.5
459.77	548.5
460.228	540.5
460.686	521.5
461.144	515.5
461.602	540.5
462.06	530.5
462.518	541.5
462.976	545.5
463.434	532.5
463.892	538.5
464.35	516.5
464.808	593.5
465.266	574.5
465.724	608.5
466.181	563.5
466.639	581.5
467.097	598.5
467.555	610.5
468.012	600.5
468.47	640.5
468.928	610.5
469.385	641.5
469.843	654.5
470.3	644.5
470.758	656.5
471.215	659.5
471.673	675.5
472.13	722.5
472.588	727.5
473.045	718.5
473.503	721.5
473.96	739.5
474.417	767.5
474.875	779.5
475.332	797.5
475.789	829.5
476.246	829.5
476.704	858.5
477.161	870.5
477.618	914.5
478.075	967.5
478.532	1021.5
478.989	1089.5
479.446	1160.5
479.903	1237.5
480.36	1305.5
480.817	1363.5
481.274	1456.5
481.731	1560.5
482.188	1676.5
482.645	1799.5
483.102	1889.5
483.558	1985.5
484.015	2068.5
484.472	2097.5
484.929	2009.5
485.385	1995.5
485.842	1898.5
486.299	1884.5
486.755	1761.5
487.212	1604.5
487.668	1468.5
488.125	1361.5
488.582	1285.5
489.038	1219.5
489.494	1222.5
489.951	1206.5
490.407	1144.5
490.864	1134.5
491.32	1135.5
491.776	1116.5
492.233	1119.5
492.689	1107.5
493.145	1079.5
493.602	1061.5
494.058	1097.5
494.514	1063.5
494.97	1055.5
495.426	1099.5
495.882	1079.5
496.338	1094.5
496.794	1097.5
497.251	1069.5
497.707	1080.5
498.163	1130.5
498.618	1107.5
499.074	1098.5
499.53	1121.5
499.986	1112.5
500.442	1130.5
500.898	1105.5
501.354	1115.5
501.809	1137.5
502.265	1090.5
502.721	1114.5
503.177	1121.5
503.632	1119.5
504.088	1121.5
504.543	1141.5
504.999	1151.5
505.455	1167.5
505.91	1135.5
506.366	1138.5
506.821	1141.5
507.277	1115.5
507.732	1155.5
508.187	1145.5
508.643	1130.5
509.098	1165.5
509.553	1157.5
510.009	1163.5
510.464	1228.5
510.919	1239.5
511.375	1207.5
511.83	1249.5
512.285	1285.5
512.74	1284.5
513.195	1316.5
513.65	1339.5
514.105	1335.5
514.56	1308.5
515.015	1348.5
515.47	1361.5
515.925	1332.5
516.38	1354.5
516.835	1331.5
517.29	1358.5
517.745	1323.5
518.2	1320.5
518.655	1288.5
519.109	1283.5
519.564	1257.5
520.019	1229.5
520.474	1238.5
520.928	1230.5
521.383	1246.5
521.838	1235.5
522.292	1195.5
522.747	1188.5
523.201	1212.5
523.656	1241.5
524.11	1221.5
524.565	1167.5
525.019	1215.5
525.474	1208.5
525.928	1168.5
526.382	1169.5
526.837	1197.5
527.291	1195.5
527.745	1177.5
528.2	1191.5
528.654	1196.5
529.108	1186.5
529.562	1160.5
530.016	1184.5
530.47	1166.5
530.925	1214.5
531.379	1195.5
531.833	1206.5
532.287	1183.5
532.741	1185.5
533.195	1215.5
533.649	1165.5
534.103	1185.5
534.556	1224.5
535.01	1217.5
535.464	1142.5
535.918	1183.5
536.372	1201.5
536.826	1200.5
537.279	1189.5
537.733	1173.5
538.187	1161.5
538.64	1169.5
539.094	1183.5
539.548	1189.5
540.001	1229.5
540.455	1235.5
540.908	1223.5
541.362	1232.5
541.815	1230.5
542.269	1310.5
542.722	1273.5
543.175	1299.5
543.629	1284.5
544.082	1332.5
544.536	1308.5
544.989	1303.5
545.442	1358.5
545.895	1303.5
546.349	1337.5
546.802	1294.5
547.255	1318.5
547.708	1299.5
548.161	1318.5
548.614	1361.5
549.067	1343.5
549.52	1336.5
549.973	1303.5
550.426	1330.5
550.879	1326.5
551.332	1325.5
551.785	1292.5
552.238	1337.5
552.691	1327.5
553.144	1352.5
553.596	1385.5
554.049	1402.5
554.502	1416.5
554.955	1448.5
555.407	1448.5
555.86	1461.5
556.313	1453.5
556.765	1455.5
557.218	1383.5
557.67	1414.5
558.123	1401.5
558.576	1377.5
559.028	1396.5
559.48	1396.5
559.933	1394.5
560.385	1373.5
560.838	1288.5
561.29	1247.5
561.742	1298.5
562.195	1273.5
562.647	1253.5
563.099	1225.5
563.551	1261.5
564.004	1225.5
564.456	1219.5
564.908	1181.5
565.36	1150.5
565.812	1153.5
566.264	1135.5
566.716	1122.5
567.168	1115.5
567.62	1107.5
568.072	1130.5
568.524	1105.5
568.976	1117.5
569.428	1083.5
569.88	1109.5
570.332	1097.5
570.784	1093.5
571.235	1101.5
571.687	1087.5
572.139	1116.5
572.59	1101.5
573.042	1100.5
573.494	1101.5
573.945	1090.5
574.397	1106.5
574.849	1067.5
575.3	1087.5
575.752	1072.5
576.203	1049.5
576.655	1043.5
577.106	1047.5
577.557	1032.5
578.009	1017.5
578.46	1050.5
578.912	1035.5
579.363	1032.5
579.814	1023.5
580.265	1056.5
580.717	1007.5
581.168	1023.5
581.619	1047.5
582.07	1075.5
582.521	1053.5
582.972	1052.5
583.423	1031.5
583.875	1044.5
584.326	1053.5
584.777	1087.5
585.227	1087.5
585.678	1083.5
586.129	1125.5
586.58	1130.5
587.031	1168.5
587.482	1202.5
587.933	1223.5
588.384	1204.5
588.834	1201.5
589.285	1161.5
589.736	1150.5
590.186	1187.5
590.637	1164.5
591.088	1123.5
591.538	1150.5
591.989	1111.5
592.439	1097.5
592.89	1109.5
593.34	1075.5
593.791	1108.5
594.241	1053.5
594.692	1070.5
595.142	1022.5
595.593	1045.5
596.043	1107.5
596.493	1107.5
596.943	1071.5
597.394	1079.5
597.844	1115.5
598.294	1129.5
598.744	1152.5
599.195	1169.5
599.645	1227.5
600.095	1337.5
600.545	1399.5
600.995	1415.5
601.445	1505.5
601.895	1542.5
602.345	1583.5
602.795	1602.5
603.245	1544.5
603.695	1440.5
604.145	1424.5
604.594	1339.5
605.044	1261.5
605.494	1209.5
605.944	1127.5
606.393	1104.5
606.843	1084.5
607.293	1056.5
607.743	1059.5
608.192	1079.5
608.642	1117.5
609.091	1081.5
609.541	1061.5
609.99	1091.5
610.44	1057.5
610.889	1045.5
611.339	1051.5
611.788	1031.5
612.238	1008.5
612.687	1033.5
613.136	1003.5
613.586	1035.5
614.035	1025.5
614.484	1046.5
614.933	1029.5
615.383	1040.5
615.832	1012.5
616.281	1034.5
616.73	993.5
617.179	966.5
617.628	969.5
618.077	915.5
618.526	919.5
618.975	935.5
619.424	883.5
619.873	935.5
620.322	913.5
620.771	898.5
621.22	891.5
621.669	880.5
622.118	875.5
622.567	842.5
623.015	834.5
623.464	823.5
623.913	846.5
624.361	843.5
624.81	831.5
625.259	805.5
625.707	826.5
626.156	855.5
626.604	834.5
627.053	835.5
627.501	859.5
627.95	818.5
628.398	861.5
628.847	856.5
629.295	820.5
629.744	828.5
630.192	825.5
630.64	801.5
631.089	827.5
631.537	785.5
631.985	775.5
632.433	802.5
632.881	768.5
633.33	776.5
633.778	776.5
634.226	775.5
634.674	770.5
635.122	781.5
635.57	780.5
636.018	854.5
636.466	823.5
636.914	804.5
637.362	820.5
637.81	841.5
638.258	857.5
638.705	875.5
639.153	873.5
639.601	904.5
640.049	917.5
640.497	939.5
640.944	935.5
641.392	916.5
641.84	882.5
642.287	869.5
642.735	816.5
643.182	809.5
643.63	813.5
644.078	793.5
644.525	825.5
644.973	826.5
645.42	834.5
645.867	868.5
646.315	864.5
646.762	899.5
647.21	919.5
647.657	957.5
648.104	1007.5
648.551	1008.5
648.999	1075.5
649.446	1185.5
649.893	1238.5
650.34	1411.5
650.787	1645.5
651.234	2049.5
651.682	2693.5
652.129	3694.5
652.576	5274.5
653.023	7171.5
653.47	8807.5
653.917	9737.5
654.363	10298.5
654.81	10971.5
655.257	11515.5
655.704	8738.5
656.151	5299.5
656.598	3435.5
657.044	2501.5
657.491	1930.5
657.938	1617.5
658.385	1381.5
658.831	1225.5
659.278	1097.5
659.724	1057.5
660.171	982.5
660.618	915.5
661.064	845.5
661.511	834.5
661.957	813.5
662.404	761.5
662.85	791.5
663.296	756.5
663.743	764.5
664.189	742.5
664.635	755.5
665.082	731.5
665.528	696.5
665.974	722.5
666.42	692.5
666.867	703.5
667.313	682.5
667.759	657.5
668.205	645.5
668.651	641.5
669.097	659.5
669.543	671.5
669.989	663.5
670.435	675.5
670.881	672.5
671.327	676.5
671.773	746.5
672.219	773.5
672.665	812.5
673.11	878.5
673.556	908.5
674.002	894.5
674.448	934.5
674.893	791.5
675.339	706.5
675.785	648.5
676.23	598.5
676.676	577.5
677.122	584.5
677.567	553.5
678.013	554.5
678.458	536.5
678.904	539.5
679.349	568.5
679.794	527.5
680.24	517.5
680.685	533.5
681.131	524.5
681.576	530.5
682.021	543.5
682.466	526.5
682.912	555.5
683.357	561.5
683.802	594.5
684.247	625.5
684.692	703.5
685.137	723.5
685.583	730.5
686.028	766.5
686.473	776.5
686.918	662.5
687.363	601.5
687.807	579.5
688.252	575.5
688.697	538.5
689.142	525.5
689.587	525.5
690.032	522.5
690.477	547.5
690.921	578.5
691.366	567.5
691.811	599.5
692.255	653.5
692.7	725.5
693.145	935.5
693.589	1366.5
694.034	1804.5
694.478	2019.5
694.923	1869.5
695.367	2295.5
695.812	2080.5
696.256	870.5
696.701	607.5
697.145	543.5
697.59	507.5
698.034	494.5
698.478	499.5
698.922	487.5
699.367	519.5
699.811	517.5
700.255	559.5
700.699	599.5
701.143	660.5
701.588	680.5
702.032	704.5
702.476	750.5
702.92	737.5
703.364	909.5
703.808	1224.5
704.252	1694.5
704.696	1929.5
705.14	1815.5
705.584	2205.5
706.027	1825.5
706.471	913.5
706.915	630.5
707.359	550.5
707.803	497.5
708.246	467.5
708.69	461.5
709.134	502.5
709.577	481.5
710.021	499.5
710.465	457.5
710.908	475.5
711.352	489.5
711.795	509.5
712.239	559.5
712.682	581.5
713.126	562.5
713.569	601.5
714.012	559.5
714.456	509.5
714.899	457.5
715.342	419.5
715.786	415.5
716.229	423.5
716.672	409.5
717.115	399.5
717.558	410.5
718.002	423.5
718.445	447.5
718.888	478.5
719.331	434.5
719.774	465.5
720.217	459.5
720.66	450.5
721.103	430.5
721.546	399.5
721.989	400.5
722.432	378.5
722.874	375.5
723.317	401.5
723.76	415.5
724.203	443.5
724.645	563.5
725.088	704.5
725.531	732.5
725.974	713.5
726.416	802.5
726.859	533.5
727.301	402.5
727.744	388.5
728.187	382.5
728.629	385.5
729.071	386.5
729.514	399.5
729.956	432.5
730.399	430.5
730.841	423.5
731.283	434.5
731.726	429.5
732.168	435.5
732.61	422.5
733.053	475.5
733.495	478.5
733.937	542.5
734.379	588.5
734.821	708.5
735.263	993.5
735.705	1660.5
736.148	2669.5
736.59	3137.5
737.032	2903.5
737.474	3172.5
737.916	1539.5
738.357	773.5
738.799	532.5
739.241	471.5
739.683	473.5
740.125	485.5
740.567	519.5
741.008	500.5
741.45	523.5
741.892	525.5
742.334	553.5
742.775	552.5
743.217	544.5
743.658	493.5
744.1	462.5
744.542	505.5
744.983	511.5
745.425	545.5
745.866	569.5
746.307	532.5
746.749	495.5
747.19	601.5
747.632	966.5
748.073	1869.5
748.514	2785.5
748.956	3507.5
749.397	4761.5
749.838	3800.5
750.279	3147.5
750.72	2331.5
751.162	1057.5
751.603	587.5
752.044	442.5
752.485	380.5
752.926	359.5
753.367	372.5
753.808	339.5
754.249	345.5
754.69	333.5
755.131	341.5
755.572	341.5
756.013	312.5
756.453	331.5
756.894	337.5
757.335	354.5
757.776	347.5
758.216	315.5
758.657	344.5
759.098	380.5
759.538	421.5
759.979	505.5
760.42	825.5
760.86	1767.5
761.301	4135.5
761.741	6137.5
762.182	6298.5
762.622	6020.5
763.063	2777.5
763.503	1129.5
763.943	625.5
764.384	503.5
764.824	438.5
765.264	410.5
765.705	371.5
766.145	345.5
766.585	324.5
767.025	321.5
767.465	351.5
767.906	364.5
768.346	369.5
768.786	385.5
769.226	428.5
769.666	724.5
770.106	1379.5
770.546	2525.5
770.986	2728.5
771.426	2621.5
771.866	1507.5
772.306	681.5
772.745	413.5
773.185	323.5
773.625	320.5
774.065	308.5
774.505	369.5
774.944	493.5
775.384	796.5
775.824	899.5
776.263	895.5
776.703	656.5
777.142	398.5
777.582	310.5
778.021	264.5
778.461	270.5
778.9	255.5
779.34	253.5
779.779	255.5
780.219	238.5
780.658	231.5
781.097	228.5
781.537	225.5
781.976	231.5
782.415	229.5
782.855	224.5
783.294	208.5
783.733	227.5
784.172	221.5
784.611	237.5
785.05	217.5
785.489	235.5
785.928	249.5
786.367	256.5
786.806	270.5
787.245	259.5
787.684	274.5
788.123	247.5
788.562	283.5
789.001	249.5
789.44	238.5
789.879	243.5
790.317	230.5
790.756	262.5
791.195	275.5
791.634	334.5
792.072	441.5
792.511	877.5
792.95	1922.5
793.388	2333.5
793.827	2135.5
794.265	1233.5
794.704	611.5
795.142	361.5
795.581	303.5
796.019	263.5
796.458	233.5
796.896	267.5
797.334	277.5
797.773	319.5
798.211	474.5
798.649	931.5
799.087	1549.5
799.526	2303.5
799.964	2636.5
800.402	2163.5
800.84	1267.5
801.278	658.5
801.716	382.5
802.154	300.5
802.592	271.5
803.03	285.5
803.468	277.5
803.906	282.5
804.344	272.5
804.782	282.5
805.22	281.5
805.658	270.5
806.096	285.5
806.533	301.5
806.971	351.5
807.409	422.5
807.847	687.5
808.284	1526.5
808.722	3063.5
809.16	4237.5
809.597	5839.5
810.035	7529.5
810.472	6334.5
810.91	3496.5
811.347	1761.5
811.785	808.5
812.222	503.5
812.66	378.5
813.097	314.5
813.535	298.5
813.972	274.5
814.409	249.5
814.846	237.5
815.284	233.5
815.721	224.5
816.158	218.5
816.595	269.5
817.032	336.5
817.47	355.5
817.907	327.5
818.344	263.5
818.781	227.5
819.218	254.5
819.655	301.5
820.092	419.5
820.529	429.5
820.966	358.5
821.403	294.5
821.839	258.5
822.276	224.5
822.713	269.5
823.15	288.5
823.587	289.5
824.023	351.5
824.46	730.5
824.897	1350.5
825.333	1405.5
825.77	852.5
826.206	525.5
826.643	334.5
827.08	232.5
827.516	204.5
827.953	189.5
828.389	190.5
828.825	201.5
829.262	167.5
829.698	194.5
830.135	163.5
830.571	160.5
831.007	176.5
831.443	187.5
831.88	177.5
832.316	171.5
832.752	190.5
833.188	177.5
833.624	153.5
834.06	175.5
834.497	179.5
834.933	162.5
835.369	170.5
835.805	193.5
836.241	204.5
836.677	201.5
837.112	228.5
837.548	255.5
837.984	302.5
838.42	468.5
838.856	1115.5
839.292	2349.5
839.727	2562.5
840.163	1748.5
840.599	2018.5
841.034	2933.5
841.47	2323.5
841.906	1327.5
842.341	737.5
842.777	469.5
843.212	403.5
843.648	350.5
844.083	269.5
844.519	212.5
844.954	208.5
845.39	186.5
845.825	191.5
846.261	171.5
846.696	165.5
847.131	162.5
847.566	166.5
848.002	167.5
848.437	157.5
848.872	182.5
849.307	187.5
849.742	225.5
850.177	439.5
850.613	871.5
851.048	1013.5
851.483	580.5
851.918	371.5
852.353	251.5
852.788	207.5
853.223	156.5
853.657	146.5
854.092	155.5
854.527	169.5
854.962	146.5
855.397	150.5
855.832	154.5
856.266	140.5
856.701	152.5
857.136	130.5
857.57	154.5
858.005	181.5
858.44	161.5
858.874	165.5
859.309	168.5
859.743	140.5
860.178	181.5
860.612	162.5
861.047	170.5
861.481	214.5
861.915	202.5
862.35	181.5
862.784	145.5
863.218	153.5
863.653	163.5
864.087	153.5
864.521	154.5
864.955	230.5
865.39	282.5
865.824	297.5
866.258	279.5
866.692	409.5
867.126	377.5
867.56	295.5
867.994	194.5
868.428	169.5
868.862	174.5
869.296	161.5
869.73	193.5
870.164	168.5
870.598	175.5
871.031	164.5
871.465	139.5
871.899	145.5
872.333	119.5
872.766	130.5
873.2	131.5
873.634	121.5
874.067	123.5
874.501	136.5
874.935	119.5
875.368	135.5
875.802	136.5
876.235	123.5
876.669	119.5
877.102	115.5
877.535	126.5
877.969	106.5
878.402	125.5
878.836	119.5
879.269	124.5
879.702	120.5
880.135	116.5
880.569	108.5
881.002	121.5
881.435	105.5
881.868	125.5
882.301	114.5
882.734	122.5
883.167	105.5
883.601	115.5
884.034	123.5
884.467	120.5
884.899	109.5
885.332	113.5
885.765	112.5
886.198	90.5
886.631	121.5
887.064	116.5
887.497	128.5
887.929	91.5
888.362	105.5
888.795	98.5
889.228	125.5
889.66	116.5
890.093	114.5
890.526	107.5
890.958	104.5
891.391	102.5
891.823	107.5
892.256	110.5
892.688	95.5
893.121	109.5
893.553	104.5
893.985	93.5
894.418	122.5
894.85	105.5
895.282	109.5
895.715	103.5
896.147	120.5
896.579	126.5
897.011	115.5
897.444	112.5
897.876	125.5
898.308	92.5
898.74	109.5
899.172	105.5
899.604	113.5
900.036	110.5
900.468	123.5
900.9	124.5
901.332	121.5
901.764	125.5
902.196	115.5
902.628	119.5
903.06	108.5
903.491	126.5
903.923	109.5
904.355	139.5
904.787	118.5
905.218	124.5
905.65	111.5
906.082	100.5
906.513	105.5
906.945	111.5
907.376	115.5
907.808	117.5
908.239	113.5
908.671	128.5
909.102	112.5
909.534	137.5
909.965	164.5
910.397	253.5
910.828	573.5
911.259	617.5
911.691	404.5
912.122	290.5
912.553	192.5
912.984	141.5
913.415	127.5
913.847	123.5
914.278	122.5
914.709	96.5
915.14	125.5
915.571	106.5
916.002	122.5
916.433	98.5
916.864	110.5
917.295	113.5
917.726	97.5
918.157	108.5
918.587	132.5
919.018	106.5
919.449	105.5
919.88	116.5
920.311	137.5
920.741	171.5
921.172	297.5
921.603	244.5
922.033	206.5
922.464	181.5
922.895	129.5
923.325	118.5
923.756	121.5
924.186	112.5
924.617	103.5
925.047	154.5
925.478	139.5
925.908	123.5
926.338	108.5
926.769	107.5
927.199	116.5
927.629	94.5
928.06	123.5
928.49	103.5
928.92	121.5
929.35	103.5
929.78	99.5
930.21	98.5
930.641	103.5
931.071	90.5
931.501	103.5
931.931	105.5
932.361	95.5
932.791	101.5
933.221	107.5
933.651	114.5
934.08	109.5
934.51	106.5
934.94	89.5
935.37	115.5
935.8	97.5
936.229	96.5
936.659	84.5
937.089	101.5
937.519	112.5
937.948	128.5
938.378	111.5
938.807	109.5
939.237	94.5
939.666	111.5
940.096	100.5
940.525	96.5
940.955	94.5
941.384	79.5
941.814	95.5
942.243	90.5
942.672	84.5
943.102	89.5
943.531	92.5
943.96	103.5
944.39	95.5
944.819	97.5
945.248	100.5
945.677	94.5
946.106	91.5
946.535	78.5
946.964	82.5
947.393	86.5
947.822	96.5
948.251	88.5
948.68	106.5
949.109	99.5
949.538	95.5
949.967	76.5
950.396	85.5
950.825	92.5
951.254	87.5
951.682	96.5
952.111	98.5
952.54	91.5
952.969	105.5
953.397	106.5
953.826	106.5
954.254	88.5
954.683	91.5
955.112	78.5
955.54	102.5
955.969	89.5
956.397	82.5
956.826	89.5
957.254	84.5
957.682	73.5
958.111	69.5
958.539	94.5
958.967	93.5
959.396	106.5
959.824	102.5
960.252	76.5
960.68	121.5
961.109	84.5
961.537	78.5
961.965	95.5
962.393	97.5
962.821	85.5
963.249	93.5
963.677	101.5
964.105	119.5
964.533	178.5
964.961	117.5
965.389	113.5
965.817	105.5
966.245	108.5
966.672	97.5
967.1	97.5
967.528	99.5
967.956	99.5
968.383	89.5
968.811	78.5
969.239	92.5
969.666	93.5
970.094	74.5
970.522	87.5
970.949	83.5
971.377	86.5
971.804	83.5
972.232	85.5
972.659	89.5
973.087	71.5
973.514	89.5
973.941	91.5
974.369	90.5
974.796	103.5
975.223	90.5
975.651	95.5
976.078	90.5
976.505	99.5
976.932	92.5
977.359	107.5
977.786	105.5
978.214	122.5
978.641	97.5
979.068	82.5
979.495	87.5
979.922	79.5
980.349	77.5
980.776	79.5
981.202	78.5
981.629	80.5
982.056	79.5
982.483	89.5
982.91	89.5
983.337	87.5
983.763	80.5
984.19	99.5
984.617	89.5
985.043	99.5
985.47	77.5
985.897	90.5
986.323	82.5
986.75	75.5
987.176	92.5
987.603	72.5
988.029	92.5
988.456	83.5
988.882	95.5
989.308	90.5
989.735	82.5
990.161	96.5
990.587	82.5
991.014	98.5
991.44	72.5
991.866	72.5
992.292	85.5
992.719	82.5
993.145	91.5
993.571	89.5
993.997	75.5
994.423	97.5
994.849	91.5
995.275	95.5
995.701	85.5
996.127	92.5
996.553	76.5
996.979	90.5
997.405	80.5
997.83	101.5
998.256	76.5
998.682	75.5
999.108	87.5
999.534	82.5
999.959	79.5
1000.385	86.5
1000.811	93.5
1001.236	87.5
1001.662	82.5
1002.087	83.5
1002.513	100.5
1002.938	99.5
1003.364	86.5
1003.789	91.5
1004.215	85.5
1004.64	92.5
1005.066	86.5
1005.491	87.5
1005.916	88.5
1006.342	81.5
1006.767	92.5
1007.192	81.5
1007.617	89.5
1008.042	93.5
1008.468	83.5
1008.893	90.5
1009.318	91.5
1009.743	84.5
1010.168	104.5
1010.593	98.5
1011.018	91.5
1011.443	93.5
1011.868	86.5
1012.293	94.5
1012.718	94.5
1013.143	91.5
1013.567	107.5
1013.992	85.5
1014.417	97.5
1014.842	101.5
1015.267	96.5
1015.691	85.5
1016.116	85.5
1016.541	86.5
1016.965	78.5
1017.39	88.5
1017.814	73.5
1018.239	98.5
1018.663	77.5
1019.088	72.5
1019.512	74.5
1019.937	83.5
1020.361	72.5
1020.785	83.5
1021.21	98.5
1021.634	78.5
1022.058	98.5
1022.483	85.5
1022.907	79.5
1023.331	93.5
1023.755	96.5
1024.179	103.5
1024.604	77.5
1025.028	80.5
1025.452	81.5
1025.876	89.5
1026.3	90.5
1026.724	92.5
1027.148	105.5
1027.572	93.5
1027.996	90.5
1028.42	64.5
1028.843	96.5
1029.267	93.5
1029.691	83.5
1030.115	85.5
1030.539	83.5
1030.962	60.5
1031.386	79.5
1031.81	77.5
1032.233	71.5
1032.657	79.5
1033.08	86.5
1033.504	85.5
1033.927	83.5
1034.351	79.5
1034.774	72.5
1035.198	75.5
1035.621	81.5
1036.045	81.5
1036.468	66.5
1036.891	82.5
1037.315	68.5
1037.738	83.5
1038.161	96.5
1038.584	87.5
1039.008	88.5
1039.431	72.5
1039.854	88.5
1040.277	100.5
1040.7	114.5
1041.123	95.5
1041.546	76.5
1041.969	93.5
1042.392	83.5
1042.815	87.5
1043.238	88.5
1043.661	87.5
1044.084	70.5
1044.507	90.5
1044.93	80.5
1045.352	86.5
1045.775	89.5
1046.198	73.5
1046.621	82.5
1047.043	88.5
1047.466	96.5
1047.889	103.5
1048.311	90.5
1048.734	86.5
1049.156	107.5
1049.579	84.5
1050.001	86.5
1050.424	90.5
1050.846	87.5
1051.269	101.5
1051.691	91.5
1052.113	90.5
1052.536	72.5
1052.958	82.5
1053.38	85.5
1053.802	91.5
1054.225	88.5
1054.647	99.5
1055.069	70.5
1055.491	82.5
1055.913	91.5
1056.335	93.5
1056.757	86.5
1057.179	89.5
1057.601	74.5
1058.023	83.5
1058.445	63.5
1058.867	88.5
1059.289	90.5
1059.711	73.5
1060.133	85.5
1060.555	85.5
1060.976	80.5
1061.398	79.5
1061.82	89.5
1062.241	99.5
1062.663	82.5
1063.085	78.5
1063.506	93.5
1063.928	79.5
1064.35	81.5
1064.771	84.5
1065.193	63.5
1065.614	89.5
1066.035	76.5
1066.457	73.5
1066.878	76.5
1067.3	95.5
1067.721	79.5
1068.142	111.5
1068.564	75.5
1068.985	75.5
1069.406	88.5
1069.827	95.5
1070.248	98.5
1070.67	86.5
1071.091	75.5
1071.512	68.5
1071.933	83.5
1072.354	89.5
1072.775	79.5
1073.196	80.5
1073.617	99.5
1074.038	69.5
1074.459	92.5
1074.88	80.5
1075.3	77.5
1075.721	75.5
1076.142	88.5
1076.563	87.5
1076.983	69.5
1077.404	87.5
1077.825	86.5
1078.246	82.5
1078.666	89.5
1079.087	82.5
1079.507	87.5
1079.928	71.5
1080.348	80.5
1080.769	80.5
1081.189	92.5
1081.61	81.5
1082.03	76.5
1082.451	78.5
1082.871	93.5
1083.291	89.5
1083.711	87.5
1084.132	101.5
1084.552	85.5
1084.972	84.5
1085.392	88.5
1085.813	89.5
1086.233	85.5
1086.653	92.5
1087.073	93.5
1087.493	97.5
1087.913	91.5
1088.333	86.5
1088.753	89.5
1089.173	92.5
1089.593	74.5
1090.013	89.5
1090.433	84.5
1090.852	75.5
1091.272	90.5
1091.692	86.5
1092.112	96.5
1092.531	82.5
1092.951	80.5
1093.371	79.5
1093.79	79.5
1094.21	77.5
1094.63	95.5
1095.049	89.5
1095.469	75.5
1095.888	74.5
1096.308	89.5
1096.727	89.5
1097.146	90.5
1097.566	72.5
1097.985	98.5
1098.405	96.5
1098.824	79.5
1099.243	85.5
1099.662	86.5
1100.082	70.5
1100.501	88.5
1100.92	90.5
1101.339	85.5
1101.758	97.5
