Data from 20170802-ORNL-NYSim-Air_HRD10391_10-37-44-644.txt Node
Date: Wed Aug 02 10:37:44 EDT 2017
User: Ender
Spectrometer: HR+D1039
Trigger mode: 0
Integration Time (sec): 1.510000E-3
Scans to average: 1
Electric dark correction enabled: true
Nonlinearity correction enabled: false
Boxcar width: 0
XAxis mode: Wavelengths
Number of Pixels in Spectrum: 2048
>>>>>Begin Spectral Data<<<<<
187.836	15.25
188.309	15.25
188.782	15.25
189.255	0.25
189.728	11.25
190.201	-6.75
190.674	-14.75
191.147	-13.75
191.619	-13.75
192.092	8.25
192.565	2.25
193.038	9.25
193.511	7.25
193.984	-27.75
194.456	9.25
194.929	7.25
195.402	1.25
195.874	5.25
196.347	29.25
196.82	24.25
197.292	28.25
197.765	41.25
198.237	33.25
198.71	59.25
199.182	33.25
199.655	55.25
200.127	42.25
200.6	63.25
201.072	63.25
201.544	68.25
202.017	77.25
202.489	73.25
202.961	61.25
203.433	65.25
203.906	71.25
204.378	82.25
204.85	77.25
205.322	92.25
205.794	67.25
206.266	67.25
206.739	86.25
207.211	101.25
207.683	91.25
208.155	103.25
208.627	96.25
209.099	91.25
209.57	89.25
210.042	82.25
210.514	92.25
210.986	77.25
211.458	81.25
211.93	94.25
212.402	77.25
212.873	89.25
213.345	76.25
213.817	105.25
214.288	86.25
214.76	95.25
215.232	68.25
215.703	85.25
216.175	85.25
216.646	90.25
217.118	94.25
217.589	73.25
218.061	95.25
218.532	80.25
219.004	94.25
219.475	72.25
219.946	82.25
220.418	86.25
220.889	79.25
221.36	83.25
221.832	88.25
222.303	62.25
222.774	89.25
223.245	85.25
223.717	89.25
224.188	88.25
224.659	79.25
225.13	77.25
225.601	80.25
226.072	68.25
226.543	78.25
227.014	81.25
227.485	92.25
227.956	95.25
228.427	81.25
228.898	95.25
229.369	80.25
229.839	87.25
230.31	87.25
230.781	74.25
231.252	89.25
231.722	88.25
232.193	84.25
232.664	90.25
233.135	71.25
233.605	94.25
234.076	87.25
234.546	77.25
235.017	78.25
235.487	103.25
235.958	71.25
236.428	86.25
236.899	82.25
237.369	76.25
237.84	80.25
238.31	82.25
238.78	87.25
239.251	71.25
239.721	83.25
240.191	90.25
240.662	87.25
241.132	94.25
241.602	94.25
242.072	94.25
242.542	74.25
243.013	91.25
243.483	97.25
243.953	88.25
244.423	81.25
244.893	89.25
245.363	97.25
245.833	79.25
246.303	81.25
246.773	74.25
247.243	102.25
247.712	97.25
248.182	81.25
248.652	95.25
249.122	80.25
249.592	91.25
250.061	97.25
250.531	90.25
251.001	96.25
251.471	87.25
251.94	95.25
252.41	101.25
252.879	94.25
253.349	104.25
253.818	98.25
254.288	93.25
254.757	96.25
255.227	94.25
255.696	91.25
256.166	109.25
256.635	95.25
257.105	100.25
257.574	107.25
258.043	100.25
258.513	99.25
258.982	103.25
259.451	79.25
259.92	96.25
260.389	102.25
260.859	103.25
261.328	101.25
261.797	99.25
262.266	103.25
262.735	108.25
263.204	94.25
263.673	104.25
264.142	99.25
264.611	104.25
265.08	95.25
265.549	106.25
266.018	115.25
266.487	96.25
266.955	80.25
267.424	93.25
267.893	103.25
268.362	104.25
268.83	113.25
269.299	100.25
269.768	116.25
270.236	102.25
270.705	99.25
271.174	110.25
271.642	103.25
272.111	97.25
272.579	99.25
273.048	92.25
273.516	112.25
273.985	103.25
274.453	101.25
274.922	104.25
275.39	117.25
275.858	98.25
276.327	112.25
276.795	91.25
277.263	119.25
277.731	134.25
278.2	100.25
278.668	98.25
279.136	97.25
279.604	107.25
280.072	100.25
280.54	104.25
281.008	109.25
281.477	111.25
281.945	105.25
282.413	110.25
282.881	144.25
283.348	100.25
283.816	107.25
284.284	117.25
284.752	117.25
285.22	109.25
285.688	109.25
286.156	116.25
286.623	97.25
287.091	118.25
287.559	133.25
288.026	139.25
288.494	115.25
288.962	117.25
289.429	113.25
289.897	123.25
290.364	133.25
290.832	106.25
291.3	105.25
291.767	117.25
292.234	109.25
292.702	131.25
293.169	125.25
293.637	98.25
294.104	107.25
294.571	131.25
295.039	109.25
295.506	117.25
295.973	128.25
296.44	125.25
296.908	117.25
297.375	129.25
297.842	120.25
298.309	128.25
298.776	115.25
299.243	105.25
299.71	124.25
300.177	123.25
300.644	124.25
301.111	121.25
301.578	140.25
302.045	129.25
302.512	108.25
302.979	126.25
303.446	124.25
303.913	136.25
304.379	148.25
304.846	121.25
305.313	128.25
305.78	119.25
306.246	111.25
306.713	132.25
307.18	111.25
307.646	126.25
308.113	150.25
308.579	131.25
309.046	133.25
309.512	137.25
309.979	153.25
310.445	145.25
310.912	139.25
311.378	139.25
311.845	159.25
312.311	127.25
312.777	145.25
313.244	139.25
313.71	152.25
314.176	158.25
314.642	138.25
315.109	143.25
315.575	142.25
316.041	146.25
316.507	153.25
316.973	149.25
317.439	120.25
317.905	159.25
318.371	159.25
318.837	156.25
319.303	161.25
319.769	146.25
320.235	147.25
320.701	146.25
321.167	137.25
321.633	150.25
322.099	156.25
322.564	171.25
323.03	135.25
323.496	142.25
323.962	138.25
324.427	164.25
324.893	161.25
325.359	173.25
325.824	149.25
326.29	172.25
326.755	170.25
327.221	161.25
327.686	153.25
328.152	155.25
328.617	147.25
329.083	170.25
329.548	169.25
330.014	166.25
330.479	159.25
330.944	160.25
331.41	169.25
331.875	168.25
332.34	198.25
332.805	183.25
333.271	173.25
333.736	165.25
334.201	175.25
334.666	191.25
335.131	167.25
335.596	166.25
336.061	181.25
336.526	175.25
336.991	177.25
337.456	172.25
337.921	162.25
338.386	181.25
338.851	155.25
339.316	182.25
339.781	172.25
340.246	186.25
340.711	179.25
341.175	183.25
341.64	173.25
342.105	178.25
342.569	174.25
343.034	176.25
343.499	181.25
343.963	202.25
344.428	165.25
344.893	180.25
345.357	185.25
345.822	191.25
346.286	185.25
346.751	208.25
347.215	202.25
347.679	202.25
348.144	209.25
348.608	191.25
349.073	197.25
349.537	212.25
350.001	189.25
350.465	207.25
350.93	218.25
351.394	191.25
351.858	215.25
352.322	241.25
352.786	234.25
353.25	216.25
353.715	214.25
354.179	229.25
354.643	234.25
355.107	241.25
355.571	240.25
356.035	214.25
356.498	228.25
356.962	210.25
357.426	230.25
357.89	216.25
358.354	213.25
358.818	235.25
359.281	217.25
359.745	211.25
360.209	238.25
360.673	229.25
361.136	231.25
361.6	215.25
362.064	232.25
362.527	249.25
362.991	237.25
363.454	238.25
363.918	246.25
364.381	261.25
364.845	233.25
365.308	257.25
365.772	235.25
366.235	250.25
366.698	253.25
367.162	233.25
367.625	249.25
368.088	231.25
368.552	230.25
369.015	237.25
369.478	247.25
369.941	238.25
370.404	264.25
370.867	246.25
371.331	259.25
371.794	265.25
372.257	263.25
372.72	252.25
373.183	262.25
373.646	239.25
374.109	254.25
374.572	239.25
375.035	256.25
375.497	269.25
375.96	260.25
376.423	263.25
376.886	256.25
377.349	289.25
377.811	267.25
378.274	262.25
378.737	287.25
379.199	275.25
379.662	274.25
380.125	271.25
380.587	296.25
381.05	297.25
381.512	277.25
381.975	293.25
382.437	297.25
382.9	304.25
383.362	302.25
383.825	298.25
384.287	283.25
384.75	297.25
385.212	291.25
385.674	294.25
386.136	291.25
386.599	283.25
387.061	309.25
387.523	323.25
387.985	300.25
388.447	316.25
388.91	316.25
389.372	331.25
389.834	316.25
390.296	307.25
390.758	327.25
391.22	319.25
391.682	304.25
392.144	298.25
392.606	309.25
393.068	343.25
393.529	349.25
393.991	347.25
394.453	330.25
394.915	327.25
395.377	311.25
395.838	325.25
396.3	292.25
396.762	317.25
397.224	298.25
397.685	323.25
398.147	333.25
398.608	296.25
399.07	334.25
399.531	311.25
399.993	358.25
400.454	357.25
400.916	366.25
401.377	353.25
401.839	343.25
402.3	371.25
402.762	354.25
403.223	379.25
403.684	379.25
404.145	376.25
404.607	359.25
405.068	360.25
405.529	364.25
405.99	340.25
406.451	395.25
406.913	382.25
407.374	377.25
407.835	371.25
408.296	373.25
408.757	383.25
409.218	377.25
409.679	415.25
410.14	389.25
410.601	398.25
411.062	379.25
411.522	401.25
411.983	389.25
412.444	398.25
412.905	436.25
413.366	416.25
413.826	444.25
414.287	483.25
414.748	558.25
415.208	549.25
415.669	503.25
416.13	466.25
416.59	458.25
417.051	483.25
417.511	444.25
417.972	499.25
418.432	529.25
418.893	582.25
419.353	564.25
419.814	466.25
420.274	418.25
420.734	408.25
421.195	419.25
421.655	415.25
422.115	428.25
422.576	427.25
423.036	415.25
423.496	414.25
423.956	447.25
424.416	465.25
424.876	519.25
425.336	521.25
425.797	513.25
426.257	502.25
426.717	491.25
427.177	461.25
427.637	491.25
428.097	497.25
428.556	516.25
429.016	535.25
429.476	572.25
429.936	532.25
430.396	513.25
430.856	559.25
431.315	537.25
431.775	597.25
432.235	625.25
432.694	646.25
433.154	618.25
433.614	597.25
434.073	571.25
434.533	523.25
434.993	520.25
435.452	519.25
435.912	486.25
436.371	501.25
436.83	506.25
437.29	509.25
437.749	484.25
438.209	468.25
438.668	464.25
439.127	497.25
439.587	485.25
440.046	455.25
440.505	495.25
440.964	487.25
441.424	481.25
441.883	509.25
442.342	475.25
442.801	445.25
443.26	475.25
443.719	474.25
444.178	439.25
444.637	488.25
445.096	482.25
445.555	463.25
446.014	465.25
446.473	473.25
446.932	479.25
447.391	476.25
447.849	479.25
448.308	456.25
448.767	468.25
449.226	480.25
449.685	491.25
450.143	497.25
450.602	509.25
451.061	475.25
451.519	473.25
451.978	470.25
452.436	500.25
452.895	494.25
453.353	487.25
453.812	466.25
454.27	468.25
454.729	461.25
455.187	471.25
455.646	470.25
456.104	449.25
456.562	471.25
457.021	497.25
457.479	459.25
457.937	496.25
458.395	489.25
458.854	495.25
459.312	480.25
459.77	483.25
460.228	508.25
460.686	515.25
461.144	527.25
461.602	502.25
462.06	500.25
462.518	508.25
462.976	511.25
463.434	511.25
463.892	547.25
464.35	552.25
464.808	546.25
465.266	559.25
465.724	543.25
466.181	554.25
466.639	557.25
467.097	587.25
467.555	588.25
468.012	594.25
468.47	599.25
468.928	598.25
469.385	594.25
469.843	639.25
470.3	634.25
470.758	595.25
471.215	647.25
471.673	664.25
472.13	681.25
472.588	687.25
473.045	694.25
473.503	676.25
473.96	737.25
474.417	751.25
474.875	759.25
475.332	786.25
475.789	781.25
476.246	837.25
476.704	815.25
477.161	847.25
477.618	916.25
478.075	943.25
478.532	967.25
478.989	1047.25
479.446	1144.25
479.903	1216.25
480.36	1280.25
480.817	1413.25
481.274	1471.25
481.731	1624.25
482.188	1739.25
482.645	1865.25
483.102	1958.25
483.558	2089.25
484.015	2172.25
484.472	2200.25
484.929	2126.25
485.385	2064.25
485.842	2014.25
486.299	1931.25
486.755	1799.25
487.212	1592.25
487.668	1445.25
488.125	1342.25
488.582	1233.25
489.038	1183.25
489.494	1167.25
489.951	1132.25
490.407	1125.25
490.864	1099.25
491.32	1079.25
491.776	1034.25
492.233	1061.25
492.689	1083.25
493.145	1014.25
493.602	1011.25
494.058	1007.25
494.514	1045.25
494.97	1015.25
495.426	1047.25
495.882	1059.25
496.338	1031.25
496.794	1062.25
497.251	1011.25
497.707	1061.25
498.163	1056.25
498.618	1057.25
499.074	1035.25
499.53	1070.25
499.986	1066.25
500.442	1053.25
500.898	1079.25
501.354	1073.25
501.809	1085.25
502.265	1133.25
502.721	1119.25
503.177	1108.25
503.632	1049.25
504.088	1069.25
504.543	1067.25
504.999	1139.25
505.455	1096.25
505.91	1086.25
506.366	1107.25
506.821	1084.25
507.277	1102.25
507.732	1132.25
508.187	1078.25
508.643	1125.25
509.098	1113.25
509.553	1115.25
510.009	1128.25
510.464	1143.25
510.919	1152.25
511.375	1157.25
511.83	1156.25
512.285	1177.25
512.74	1210.25
513.195	1215.25
513.65	1243.25
514.105	1291.25
514.56	1263.25
515.015	1282.25
515.47	1307.25
515.925	1305.25
516.38	1279.25
516.835	1294.25
517.29	1267.25
517.745	1287.25
518.2	1272.25
518.655	1254.25
519.109	1257.25
519.564	1259.25
520.019	1194.25
520.474	1167.25
520.928	1186.25
521.383	1171.25
521.838	1189.25
522.292	1163.25
522.747	1198.25
523.201	1153.25
523.656	1181.25
524.11	1133.25
524.565	1131.25
525.019	1157.25
525.474	1170.25
525.928	1108.25
526.382	1139.25
526.837	1149.25
527.291	1131.25
527.745	1145.25
528.2	1149.25
528.654	1141.25
529.108	1133.25
529.562	1125.25
530.016	1137.25
530.47	1148.25
530.925	1108.25
531.379	1157.25
531.833	1124.25
532.287	1150.25
532.741	1127.25
533.195	1139.25
533.649	1142.25
534.103	1165.25
534.556	1126.25
535.01	1149.25
535.464	1135.25
535.918	1147.25
536.372	1161.25
536.826	1161.25
537.279	1121.25
537.733	1161.25
538.187	1161.25
538.64	1132.25
539.094	1133.25
539.548	1152.25
540.001	1160.25
540.455	1147.25
540.908	1163.25
541.362	1193.25
541.815	1192.25
542.269	1226.25
542.722	1206.25
543.175	1230.25
543.629	1248.25
544.082	1243.25
544.536	1283.25
544.989	1247.25
545.442	1272.25
545.895	1282.25
546.349	1268.25
546.802	1247.25
547.255	1255.25
547.708	1255.25
548.161	1295.25
548.614	1319.25
549.067	1253.25
549.52	1297.25
549.973	1335.25
550.426	1297.25
550.879	1283.25
551.332	1265.25
551.785	1255.25
552.238	1269.25
552.691	1285.25
553.144	1309.25
553.596	1290.25
554.049	1315.25
554.502	1357.25
554.955	1373.25
555.407	1363.25
555.86	1428.25
556.313	1417.25
556.765	1371.25
557.218	1367.25
557.67	1324.25
558.123	1335.25
558.576	1351.25
559.028	1355.25
559.48	1370.25
559.933	1335.25
560.385	1330.25
560.838	1261.25
561.29	1245.25
561.742	1225.25
562.195	1163.25
562.647	1167.25
563.099	1206.25
563.551	1183.25
564.004	1169.25
564.456	1152.25
564.908	1146.25
565.36	1147.25
565.812	1096.25
566.264	1122.25
566.716	1105.25
567.168	1066.25
567.62	1096.25
568.072	1091.25
568.524	1062.25
568.976	1044.25
569.428	1051.25
569.88	1038.25
570.332	1043.25
570.784	1069.25
571.235	1049.25
571.687	1058.25
572.139	1056.25
572.59	1093.25
573.042	1080.25
573.494	1082.25
573.945	1091.25
574.397	1061.25
574.849	1049.25
575.3	1041.25
575.752	1024.25
576.203	1050.25
576.655	1019.25
577.106	1047.25
577.557	979.25
578.009	998.25
578.46	995.25
578.912	989.25
579.363	1032.25
579.814	1017.25
580.265	999.25
580.717	1025.25
581.168	982.25
581.619	1015.25
582.07	1022.25
582.521	1032.25
582.972	1013.25
583.423	991.25
583.875	1057.25
584.326	1019.25
584.777	1033.25
585.227	1073.25
585.678	1083.25
586.129	1096.25
586.58	1110.25
587.031	1150.25
587.482	1120.25
587.933	1165.25
588.384	1169.25
588.834	1153.25
589.285	1116.25
589.736	1128.25
590.186	1114.25
590.637	1105.25
591.088	1111.25
591.538	1131.25
591.989	1047.25
592.439	1052.25
592.89	1047.25
593.34	1027.25
593.791	1075.25
594.241	1003.25
594.692	1015.25
595.142	974.25
595.593	1013.25
596.043	1035.25
596.493	1042.25
596.943	1018.25
597.394	1057.25
597.844	1054.25
598.294	1091.25
598.744	1131.25
599.195	1169.25
599.645	1219.25
600.095	1298.25
600.545	1334.25
600.995	1363.25
601.445	1409.25
601.895	1499.25
602.345	1565.25
602.795	1584.25
603.245	1493.25
603.695	1443.25
604.145	1349.25
604.594	1304.25
605.044	1237.25
605.494	1155.25
605.944	1115.25
606.393	1072.25
606.843	1044.25
607.293	1036.25
607.743	1012.25
608.192	1040.25
608.642	1031.25
609.091	1074.25
609.541	1049.25
609.99	1059.25
610.44	1027.25
610.889	1019.25
611.339	1006.25
611.788	967.25
612.238	978.25
612.687	991.25
613.136	1003.25
613.586	1003.25
614.035	997.25
614.484	1015.25
614.933	1027.25
615.383	975.25
615.832	980.25
616.281	959.25
616.73	969.25
617.179	958.25
617.628	912.25
618.077	890.25
618.526	903.25
618.975	896.25
619.424	881.25
619.873	881.25
620.322	857.25
620.771	877.25
621.22	868.25
621.669	850.25
622.118	840.25
622.567	833.25
623.015	832.25
623.464	824.25
623.913	788.25
624.361	803.25
624.81	819.25
625.259	833.25
625.707	791.25
626.156	819.25
626.604	789.25
627.053	777.25
627.501	822.25
627.95	803.25
628.398	815.25
628.847	828.25
629.295	825.25
629.744	822.25
630.192	765.25
630.64	797.25
631.089	784.25
631.537	766.25
631.985	765.25
632.433	741.25
632.881	729.25
633.33	759.25
633.778	749.25
634.226	769.25
634.674	788.25
635.122	747.25
635.57	782.25
636.018	795.25
636.466	792.25
636.914	785.25
637.362	766.25
637.81	794.25
638.258	812.25
638.705	862.25
639.153	838.25
639.601	875.25
640.049	863.25
640.497	931.25
640.944	923.25
641.392	910.25
641.84	843.25
642.287	808.25
642.735	803.25
643.182	804.25
643.63	825.25
644.078	787.25
644.525	839.25
644.973	819.25
645.42	833.25
645.867	871.25
646.315	903.25
646.762	879.25
647.21	904.25
647.657	929.25
648.104	1003.25
648.551	1013.25
648.999	1092.25
649.446	1194.25
649.893	1307.25
650.34	1509.25
650.787	1750.25
651.234	2164.25
651.682	2897.25
652.129	3993.25
652.576	5737.25
653.023	7916.25
653.47	9696.25
653.917	10811.25
654.363	11576.25
654.81	12127.25
655.257	12787.25
655.704	9787.25
656.151	5911.25
656.598	3701.25
657.044	2614.25
657.491	2066.25
657.938	1672.25
658.385	1405.25
658.831	1228.25
659.278	1128.25
659.724	1029.25
660.171	957.25
660.618	913.25
661.064	854.25
661.511	836.25
661.957	780.25
662.404	805.25
662.85	780.25
663.296	762.25
663.743	735.25
664.189	765.25
664.635	764.25
665.082	729.25
665.528	741.25
665.974	696.25
666.42	683.25
666.867	675.25
667.313	647.25
667.759	641.25
668.205	653.25
668.651	636.25
669.097	633.25
669.543	645.25
669.989	650.25
670.435	666.25
670.881	662.25
671.327	682.25
671.773	699.25
672.219	759.25
672.665	809.25
673.11	855.25
673.556	833.25
674.002	873.25
674.448	933.25
674.893	795.25
675.339	673.25
675.785	620.25
676.23	615.25
676.676	575.25
677.122	571.25
677.567	539.25
678.013	538.25
678.458	539.25
678.904	527.25
679.349	544.25
679.794	511.25
680.24	512.25
680.685	521.25
681.131	499.25
681.576	512.25
682.021	520.25
682.466	506.25
682.912	530.25
683.357	548.25
683.802	543.25
684.247	601.25
684.692	627.25
685.137	694.25
685.583	714.25
686.028	745.25
686.473	731.25
686.918	650.25
687.363	592.25
687.807	541.25
688.252	541.25
688.697	528.25
689.142	503.25
689.587	491.25
690.032	534.25
690.477	521.25
690.921	539.25
691.366	563.25
691.811	593.25
692.255	605.25
692.7	711.25
693.145	889.25
693.589	1351.25
694.034	1775.25
694.478	1975.25
694.923	1822.25
695.367	2205.25
695.812	2046.25
696.256	865.25
696.701	571.25
697.145	531.25
697.59	508.25
698.034	486.25
698.478	491.25
698.922	500.25
699.367	501.25
699.811	520.25
700.255	553.25
700.699	575.25
701.143	669.25
701.588	666.25
702.032	700.25
702.476	724.25
702.92	737.25
703.364	835.25
703.808	1211.25
704.252	1654.25
704.696	1843.25
705.14	1726.25
705.584	2180.25
706.027	1775.25
706.471	886.25
706.915	618.25
707.359	570.25
707.803	504.25
708.246	502.25
708.69	479.25
709.134	483.25
709.577	447.25
710.021	441.25
710.465	445.25
710.908	467.25
711.352	462.25
711.795	480.25
712.239	560.25
712.682	560.25
713.126	566.25
713.569	601.25
714.012	570.25
714.456	479.25
714.899	453.25
715.342	423.25
715.786	416.25
716.229	411.25
716.672	403.25
717.115	417.25
717.558	415.25
718.002	406.25
718.445	418.25
718.888	439.25
719.331	431.25
719.774	460.25
720.217	452.25
720.66	430.25
721.103	438.25
721.546	428.25
721.989	402.25
722.432	357.25
722.874	405.25
723.317	398.25
723.76	391.25
724.203	445.25
724.645	554.25
725.088	687.25
725.531	689.25
725.974	692.25
726.416	768.25
726.859	526.25
727.301	394.25
727.744	389.25
728.187	363.25
728.629	367.25
729.071	420.25
729.514	407.25
729.956	429.25
730.399	456.25
730.841	434.25
731.283	431.25
731.726	413.25
732.168	416.25
732.61	433.25
733.053	467.25
733.495	497.25
733.937	520.25
734.379	602.25
734.821	697.25
735.263	967.25
735.705	1615.25
736.148	2575.25
736.59	2989.25
737.032	2828.25
737.474	3107.25
737.916	1531.25
738.357	775.25
738.799	548.25
739.241	447.25
739.683	460.25
740.125	460.25
740.567	480.25
741.008	519.25
741.45	521.25
741.892	525.25
742.334	545.25
742.775	521.25
743.217	545.25
743.658	487.25
744.1	471.25
744.542	494.25
744.983	565.25
745.425	523.25
745.866	583.25
746.307	494.25
746.749	466.25
747.19	561.25
747.632	943.25
748.073	1773.25
748.514	2725.25
748.956	3351.25
749.397	4570.25
749.838	3666.25
750.279	3003.25
750.72	2273.25
751.162	1064.25
751.603	555.25
752.044	441.25
752.485	391.25
752.926	365.25
753.367	339.25
753.808	347.25
754.249	324.25
754.69	339.25
755.131	327.25
755.572	298.25
756.013	335.25
756.453	311.25
756.894	333.25
757.335	319.25
757.776	322.25
758.216	318.25
758.657	345.25
759.098	391.25
759.538	415.25
759.979	526.25
760.42	811.25
760.86	1724.25
761.301	4060.25
761.741	5903.25
762.182	6222.25
762.622	5796.25
763.063	2697.25
763.503	1069.25
763.943	578.25
764.384	454.25
764.824	439.25
765.264	397.25
765.705	358.25
766.145	333.25
766.585	312.25
767.025	305.25
767.465	301.25
767.906	339.25
768.346	332.25
768.786	363.25
769.226	411.25
769.666	660.25
770.106	1390.25
770.546	2415.25
770.986	2640.25
771.426	2589.25
771.866	1453.25
772.306	656.25
772.745	373.25
773.185	322.25
773.625	309.25
774.065	305.25
774.505	349.25
774.944	501.25
775.384	767.25
775.824	899.25
776.263	889.25
776.703	611.25
777.142	372.25
777.582	272.25
778.021	276.25
778.461	249.25
778.9	262.25
779.34	239.25
779.779	228.25
780.219	244.25
780.658	245.25
781.097	222.25
781.537	235.25
781.976	238.25
782.415	227.25
782.855	204.25
783.294	225.25
783.733	199.25
784.172	215.25
784.611	216.25
785.05	223.25
785.489	247.25
785.928	249.25
786.367	249.25
786.806	253.25
787.245	252.25
787.684	271.25
788.123	267.25
788.562	269.25
789.001	252.25
789.44	246.25
789.879	234.25
790.317	242.25
790.756	246.25
791.195	247.25
791.634	318.25
792.072	447.25
792.511	851.25
792.95	1851.25
793.388	2324.25
793.827	2032.25
794.265	1193.25
794.704	616.25
795.142	355.25
795.581	286.25
796.019	258.25
796.458	250.25
796.896	232.25
797.334	275.25
797.773	329.25
798.211	462.25
798.649	915.25
799.087	1481.25
799.526	2233.25
799.964	2478.25
800.402	2106.25
800.84	1237.25
801.278	665.25
801.716	391.25
802.154	305.25
802.592	284.25
803.03	267.25
803.468	282.25
803.906	281.25
804.344	298.25
804.782	260.25
805.22	268.25
805.658	269.25
806.096	284.25
806.533	312.25
806.971	338.25
807.409	439.25
807.847	677.25
808.284	1545.25
808.722	2969.25
809.16	4107.25
809.597	5694.25
810.035	7297.25
810.472	6272.25
810.91	3420.25
811.347	1677.25
811.785	779.25
812.222	484.25
812.66	368.25
813.097	329.25
813.535	298.25
813.972	253.25
814.409	251.25
814.846	246.25
815.284	230.25
815.721	240.25
816.158	239.25
816.595	269.25
817.032	310.25
817.47	321.25
817.907	278.25
818.344	231.25
818.781	222.25
819.218	251.25
819.655	325.25
820.092	404.25
820.529	417.25
820.966	366.25
821.403	297.25
821.839	249.25
822.276	251.25
822.713	251.25
823.15	274.25
823.587	275.25
824.023	357.25
824.46	733.25
824.897	1287.25
825.333	1363.25
825.77	846.25
826.206	509.25
826.643	314.25
827.08	209.25
827.516	208.25
827.953	216.25
828.389	201.25
828.825	179.25
829.262	174.25
829.698	187.25
830.135	177.25
830.571	169.25
831.007	172.25
831.443	169.25
831.88	182.25
832.316	186.25
832.752	179.25
833.188	177.25
833.624	182.25
834.06	167.25
834.497	175.25
834.933	183.25
835.369	175.25
835.805	189.25
836.241	171.25
836.677	197.25
837.112	213.25
837.548	279.25
837.984	301.25
838.42	479.25
838.856	1108.25
839.292	2304.25
839.727	2489.25
840.163	1690.25
840.599	1982.25
841.034	2857.25
841.47	2255.25
841.906	1289.25
842.341	737.25
842.777	431.25
843.212	412.25
843.648	340.25
844.083	261.25
844.519	210.25
844.954	189.25
845.39	163.25
845.825	156.25
846.261	176.25
846.696	168.25
847.131	169.25
847.566	174.25
848.002	158.25
848.437	154.25
848.872	152.25
849.307	163.25
849.742	235.25
850.177	439.25
850.613	885.25
851.048	968.25
851.483	563.25
851.918	356.25
852.353	264.25
852.788	166.25
853.223	186.25
853.657	149.25
854.092	147.25
854.527	137.25
854.962	121.25
855.397	156.25
855.832	151.25
856.266	154.25
856.701	153.25
857.136	143.25
857.57	162.25
858.005	155.25
858.44	164.25
858.874	137.25
859.309	163.25
859.743	174.25
860.178	173.25
860.612	162.25
861.047	179.25
861.481	206.25
861.915	189.25
862.35	167.25
862.784	149.25
863.218	142.25
863.653	126.25
864.087	149.25
864.521	156.25
864.955	187.25
865.39	326.25
865.824	281.25
866.258	269.25
866.692	398.25
867.126	380.25
867.56	263.25
867.994	214.25
868.428	168.25
868.862	155.25
869.296	165.25
869.73	171.25
870.164	174.25
870.598	171.25
871.031	163.25
871.465	143.25
871.899	132.25
872.333	123.25
872.766	123.25
873.2	132.25
873.634	124.25
874.067	122.25
874.501	121.25
874.935	149.25
875.368	136.25
875.802	113.25
876.235	108.25
876.669	132.25
877.102	130.25
877.535	125.25
877.969	124.25
878.402	115.25
878.836	117.25
879.269	121.25
879.702	112.25
880.135	111.25
880.569	107.25
881.002	123.25
881.435	127.25
881.868	109.25
882.301	138.25
882.734	105.25
883.167	129.25
883.601	108.25
884.034	106.25
884.467	119.25
884.899	110.25
885.332	125.25
885.765	118.25
886.198	129.25
886.631	134.25
887.064	108.25
887.497	93.25
887.929	112.25
888.362	119.25
888.795	103.25
889.228	112.25
889.66	109.25
890.093	105.25
890.526	128.25
890.958	112.25
891.391	128.25
891.823	100.25
892.256	105.25
892.688	109.25
893.121	111.25
893.553	111.25
893.985	109.25
894.418	104.25
894.85	107.25
895.282	102.25
895.715	124.25
896.147	121.25
896.579	110.25
897.011	117.25
897.444	100.25
897.876	106.25
898.308	115.25
898.74	92.25
899.172	119.25
899.604	114.25
900.036	111.25
900.468	107.25
900.9	124.25
901.332	140.25
901.764	118.25
902.196	113.25
902.628	101.25
903.06	125.25
903.491	118.25
903.923	119.25
904.355	124.25
904.787	131.25
905.218	128.25
905.65	115.25
906.082	103.25
906.513	120.25
906.945	102.25
907.376	106.25
907.808	131.25
908.239	119.25
908.671	112.25
909.102	119.25
909.534	133.25
909.965	173.25
910.397	219.25
910.828	592.25
911.259	579.25
911.691	377.25
912.122	305.25
912.553	182.25
912.984	153.25
913.415	111.25
913.847	123.25
914.278	114.25
914.709	113.25
915.14	118.25
915.571	85.25
916.002	106.25
916.433	120.25
916.864	109.25
917.295	103.25
917.726	116.25
918.157	123.25
918.587	118.25
919.018	123.25
919.449	124.25
919.88	137.25
920.311	142.25
920.741	177.25
921.172	309.25
921.603	254.25
922.033	229.25
922.464	170.25
922.895	145.25
923.325	128.25
923.756	110.25
924.186	102.25
924.617	119.25
925.047	134.25
925.478	106.25
925.908	140.25
926.338	109.25
926.769	105.25
927.199	123.25
927.629	118.25
928.06	114.25
928.49	101.25
928.92	97.25
929.35	113.25
929.78	91.25
930.21	110.25
930.641	107.25
931.071	87.25
931.501	109.25
931.931	101.25
932.361	89.25
932.791	109.25
933.221	94.25
933.651	93.25
934.08	118.25
934.51	118.25
934.94	110.25
935.37	108.25
935.8	94.25
936.229	91.25
936.659	100.25
937.089	94.25
937.519	120.25
937.948	141.25
938.378	102.25
938.807	123.25
939.237	99.25
939.666	82.25
940.096	107.25
940.525	89.25
940.955	91.25
941.384	88.25
941.814	102.25
942.243	92.25
942.672	91.25
943.102	97.25
943.531	107.25
943.96	90.25
944.39	91.25
944.819	95.25
945.248	79.25
945.677	98.25
946.106	91.25
946.535	99.25
946.964	72.25
947.393	102.25
947.822	79.25
948.251	82.25
948.68	87.25
949.109	83.25
949.538	95.25
949.967	100.25
950.396	87.25
950.825	80.25
951.254	89.25
951.682	84.25
952.111	102.25
952.54	86.25
952.969	100.25
953.397	94.25
953.826	96.25
954.254	92.25
954.683	85.25
955.112	93.25
955.54	98.25
955.969	85.25
956.397	95.25
956.826	85.25
957.254	86.25
957.682	83.25
958.111	75.25
958.539	93.25
958.967	102.25
959.396	99.25
959.824	81.25
960.252	89.25
960.68	79.25
961.109	84.25
961.537	83.25
961.965	90.25
962.393	81.25
962.821	105.25
963.249	99.25
963.677	90.25
964.105	101.25
964.533	144.25
964.961	135.25
965.389	137.25
965.817	104.25
966.245	101.25
966.672	89.25
967.1	99.25
967.528	85.25
967.956	77.25
968.383	79.25
968.811	91.25
969.239	103.25
969.666	90.25
970.094	94.25
970.522	88.25
970.949	86.25
971.377	82.25
971.804	90.25
972.232	99.25
972.659	92.25
973.087	102.25
973.514	86.25
973.941	81.25
974.369	77.25
974.796	78.25
975.223	81.25
975.651	91.25
976.078	89.25
976.505	93.25
976.932	92.25
977.359	110.25
977.786	97.25
978.214	89.25
978.641	106.25
979.068	93.25
979.495	77.25
979.922	89.25
980.349	87.25
980.776	95.25
981.202	95.25
981.629	76.25
982.056	88.25
982.483	89.25
982.91	92.25
983.337	77.25
983.763	93.25
984.19	95.25
984.617	91.25
985.043	78.25
985.47	92.25
985.897	89.25
986.323	94.25
986.75	90.25
987.176	87.25
987.603	92.25
988.029	96.25
988.456	89.25
988.882	88.25
989.308	79.25
989.735	92.25
990.161	97.25
990.587	90.25
991.014	88.25
991.44	99.25
991.866	92.25
992.292	79.25
992.719	91.25
993.145	90.25
993.571	82.25
993.997	91.25
994.423	83.25
994.849	80.25
995.275	96.25
995.701	93.25
996.127	85.25
996.553	97.25
996.979	73.25
997.405	93.25
997.83	89.25
998.256	96.25
998.682	83.25
999.108	79.25
999.534	100.25
999.959	83.25
1000.385	97.25
1000.811	73.25
1001.236	89.25
1001.662	81.25
1002.087	90.25
1002.513	91.25
1002.938	91.25
1003.364	94.25
1003.789	84.25
1004.215	79.25
1004.64	90.25
1005.066	95.25
1005.491	94.25
1005.916	89.25
1006.342	96.25
1006.767	89.25
1007.192	89.25
1007.617	83.25
1008.042	65.25
1008.468	87.25
1008.893	94.25
1009.318	99.25
1009.743	77.25
1010.168	90.25
1010.593	104.25
1011.018	87.25
1011.443	93.25
1011.868	83.25
1012.293	100.25
1012.718	93.25
1013.143	97.25
1013.567	99.25
1013.992	80.25
1014.417	80.25
1014.842	83.25
1015.267	88.25
1015.691	67.25
1016.116	87.25
1016.541	82.25
1016.965	87.25
1017.39	89.25
1017.814	95.25
1018.239	77.25
1018.663	84.25
1019.088	90.25
1019.512	84.25
1019.937	106.25
1020.361	100.25
1020.785	97.25
1021.21	87.25
1021.634	97.25
1022.058	86.25
1022.483	82.25
1022.907	84.25
1023.331	91.25
1023.755	91.25
1024.179	83.25
1024.604	80.25
1025.028	89.25
1025.452	77.25
1025.876	88.25
1026.3	69.25
1026.724	98.25
1027.148	77.25
1027.572	80.25
1027.996	83.25
1028.42	95.25
1028.843	94.25
1029.267	91.25
1029.691	95.25
1030.115	84.25
1030.539	96.25
1030.962	81.25
1031.386	78.25
1031.81	74.25
1032.233	92.25
1032.657	94.25
1033.08	82.25
1033.504	76.25
1033.927	90.25
1034.351	93.25
1034.774	71.25
1035.198	91.25
1035.621	85.25
1036.045	80.25
1036.468	84.25
1036.891	87.25
1037.315	86.25
1037.738	78.25
1038.161	90.25
1038.584	108.25
1039.008	86.25
1039.431	78.25
1039.854	87.25
1040.277	95.25
1040.7	85.25
1041.123	97.25
1041.546	89.25
1041.969	65.25
1042.392	83.25
1042.815	89.25
1043.238	91.25
1043.661	92.25
1044.084	100.25
1044.507	82.25
1044.93	84.25
1045.352	77.25
1045.775	73.25
1046.198	88.25
1046.621	83.25
1047.043	103.25
1047.466	82.25
1047.889	70.25
1048.311	87.25
1048.734	75.25
1049.156	103.25
1049.579	82.25
1050.001	84.25
1050.424	92.25
1050.846	79.25
1051.269	85.25
1051.691	85.25
1052.113	87.25
1052.536	96.25
1052.958	95.25
1053.38	83.25
1053.802	74.25
1054.225	102.25
1054.647	79.25
1055.069	91.25
1055.491	96.25
1055.913	81.25
1056.335	76.25
1056.757	101.25
1057.179	83.25
1057.601	78.25
1058.023	95.25
1058.445	67.25
1058.867	84.25
1059.289	87.25
1059.711	81.25
1060.133	81.25
1060.555	91.25
1060.976	97.25
1061.398	84.25
1061.82	91.25
1062.241	75.25
1062.663	86.25
1063.085	82.25
1063.506	92.25
1063.928	75.25
1064.35	79.25
1064.771	78.25
1065.193	84.25
1065.614	84.25
1066.035	73.25
1066.457	97.25
1066.878	90.25
1067.3	94.25
1067.721	97.25
1068.142	96.25
1068.564	86.25
1068.985	85.25
1069.406	89.25
1069.827	89.25
1070.248	79.25
1070.67	89.25
1071.091	85.25
1071.512	83.25
1071.933	79.25
1072.354	83.25
1072.775	77.25
1073.196	79.25
1073.617	102.25
1074.038	98.25
1074.459	95.25
1074.88	72.25
1075.3	95.25
1075.721	97.25
1076.142	75.25
1076.563	90.25
1076.983	101.25
1077.404	90.25
1077.825	93.25
1078.246	83.25
1078.666	86.25
1079.087	99.25
1079.507	88.25
1079.928	79.25
1080.348	86.25
1080.769	83.25
1081.189	85.25
1081.61	81.25
1082.03	83.25
1082.451	79.25
1082.871	87.25
1083.291	77.25
1083.711	78.25
1084.132	93.25
1084.552	85.25
1084.972	75.25
1085.392	78.25
1085.813	91.25
1086.233	68.25
1086.653	99.25
1087.073	79.25
1087.493	89.25
1087.913	87.25
1088.333	91.25
1088.753	62.25
1089.173	88.25
1089.593	79.25
1090.013	98.25
1090.433	87.25
1090.852	56.25
1091.272	88.25
1091.692	72.25
1092.112	89.25
1092.531	87.25
1092.951	82.25
1093.371	82.25
1093.79	94.25
1094.21	86.25
1094.63	81.25
1095.049	88.25
1095.469	78.25
1095.888	98.25
1096.308	93.25
1096.727	82.25
1097.146	85.25
1097.566	81.25
1097.985	93.25
1098.405	104.25
1098.824	77.25
1099.243	75.25
1099.662	92.25
1100.082	96.25
1100.501	88.25
1100.92	91.25
1101.339	95.25
1101.758	73.25
