Data from 20170802-ORNL-NYSim-Air_HRD10391_10-36-58-625.txt Node
Date: Wed Aug 02 10:36:58 EDT 2017
User: Ender
Spectrometer: HR+D1039
Trigger mode: 0
Integration Time (sec): 1.510000E-3
Scans to average: 1
Electric dark correction enabled: true
Nonlinearity correction enabled: false
Boxcar width: 0
XAxis mode: Wavelengths
Number of Pixels in Spectrum: 2048
>>>>>Begin Spectral Data<<<<<
187.836	12.38
188.309	12.38
188.782	12.38
189.255	-7.62
189.728	7.38
190.201	-13.62
190.674	-5.62
191.147	-14.62
191.619	-15.62
192.092	-12.62
192.565	0.38
193.038	8.38
193.511	6.38
193.984	6.38
194.456	0.38
194.929	4.38
195.402	3.38
195.874	20.38
196.347	6.38
196.82	29.38
197.292	16.38
197.765	29.38
198.237	34.38
198.71	29.38
199.182	52.38
199.655	51.38
200.127	47.38
200.6	61.38
201.072	64.38
201.544	61.38
202.017	66.38
202.489	61.38
202.961	49.38
203.433	81.38
203.906	74.38
204.378	74.38
204.85	86.38
205.322	94.38
205.794	73.38
206.266	80.38
206.739	94.38
207.211	77.38
207.683	101.38
208.155	76.38
208.627	98.38
209.099	84.38
209.57	85.38
210.042	90.38
210.514	87.38
210.986	87.38
211.458	75.38
211.93	94.38
212.402	98.38
212.873	95.38
213.345	81.38
213.817	68.38
214.288	74.38
214.76	73.38
215.232	98.38
215.703	84.38
216.175	72.38
216.646	66.38
217.118	84.38
217.589	92.38
218.061	98.38
218.532	79.38
219.004	77.38
219.475	80.38
219.946	78.38
220.418	80.38
220.889	77.38
221.36	84.38
221.832	72.38
222.303	75.38
222.774	87.38
223.245	69.38
223.717	95.38
224.188	66.38
224.659	90.38
225.13	67.38
225.601	86.38
226.072	84.38
226.543	68.38
227.014	82.38
227.485	70.38
227.956	85.38
228.427	78.38
228.898	80.38
229.369	78.38
229.839	96.38
230.31	94.38
230.781	84.38
231.252	78.38
231.722	81.38
232.193	90.38
232.664	83.38
233.135	89.38
233.605	73.38
234.076	90.38
234.546	82.38
235.017	87.38
235.487	102.38
235.958	87.38
236.428	81.38
236.899	88.38
237.369	82.38
237.84	90.38
238.31	67.38
238.78	86.38
239.251	63.38
239.721	79.38
240.191	94.38
240.662	89.38
241.132	93.38
241.602	73.38
242.072	73.38
242.542	70.38
243.013	95.38
243.483	66.38
243.953	93.38
244.423	70.38
244.893	106.38
245.363	86.38
245.833	98.38
246.303	91.38
246.773	93.38
247.243	85.38
247.712	102.38
248.182	71.38
248.652	76.38
249.122	76.38
249.592	91.38
250.061	86.38
250.531	76.38
251.001	72.38
251.471	100.38
251.94	91.38
252.41	106.38
252.879	91.38
253.349	76.38
253.818	89.38
254.288	98.38
254.757	86.38
255.227	96.38
255.696	88.38
256.166	92.38
256.635	96.38
257.105	98.38
257.574	90.38
258.043	92.38
258.513	98.38
258.982	99.38
259.451	90.38
259.92	98.38
260.389	96.38
260.859	86.38
261.328	98.38
261.797	76.38
262.266	102.38
262.735	88.38
263.204	103.38
263.673	88.38
264.142	96.38
264.611	92.38
265.08	103.38
265.549	103.38
266.018	90.38
266.487	118.38
266.955	95.38
267.424	93.38
267.893	108.38
268.362	104.38
268.83	102.38
269.299	90.38
269.768	84.38
270.236	92.38
270.705	94.38
271.174	106.38
271.642	114.38
272.111	118.38
272.579	96.38
273.048	114.38
273.516	88.38
273.985	107.38
274.453	113.38
274.922	106.38
275.39	113.38
275.858	93.38
276.327	99.38
276.795	96.38
277.263	113.38
277.731	96.38
278.2	100.38
278.668	102.38
279.136	101.38
279.604	102.38
280.072	92.38
280.54	94.38
281.008	124.38
281.477	96.38
281.945	103.38
282.413	104.38
282.881	107.38
283.348	116.38
283.816	114.38
284.284	92.38
284.752	112.38
285.22	108.38
285.688	96.38
286.156	117.38
286.623	102.38
287.091	118.38
287.559	118.38
288.026	109.38
288.494	100.38
288.962	100.38
289.429	114.38
289.897	120.38
290.364	116.38
290.832	113.38
291.3	125.38
291.767	118.38
292.234	118.38
292.702	106.38
293.169	114.38
293.637	120.38
294.104	128.38
294.571	120.38
295.039	106.38
295.506	122.38
295.973	124.38
296.44	123.38
296.908	130.38
297.375	108.38
297.842	107.38
298.309	120.38
298.776	125.38
299.243	126.38
299.71	125.38
300.177	112.38
300.644	130.38
301.111	129.38
301.578	140.38
302.045	151.38
302.512	137.38
302.979	134.38
303.446	131.38
303.913	133.38
304.379	121.38
304.846	126.38
305.313	133.38
305.78	127.38
306.246	139.38
306.713	136.38
307.18	118.38
307.646	127.38
308.113	130.38
308.579	143.38
309.046	131.38
309.512	137.38
309.979	135.38
310.445	149.38
310.912	131.38
311.378	128.38
311.845	127.38
312.311	123.38
312.777	141.38
313.244	128.38
313.71	133.38
314.176	158.38
314.642	161.38
315.109	135.38
315.575	134.38
316.041	147.38
316.507	160.38
316.973	150.38
317.439	143.38
317.905	136.38
318.371	138.38
318.837	149.38
319.303	152.38
319.769	146.38
320.235	166.38
320.701	161.38
321.167	156.38
321.633	155.38
322.099	148.38
322.564	136.38
323.03	145.38
323.496	158.38
323.962	139.38
324.427	149.38
324.893	153.38
325.359	144.38
325.824	164.38
326.29	166.38
326.755	169.38
327.221	167.38
327.686	153.38
328.152	149.38
328.617	174.38
329.083	162.38
329.548	151.38
330.014	176.38
330.479	191.38
330.944	174.38
331.41	172.38
331.875	160.38
332.34	185.38
332.805	175.38
333.271	161.38
333.736	170.38
334.201	177.38
334.666	175.38
335.131	175.38
335.596	176.38
336.061	170.38
336.526	172.38
336.991	184.38
337.456	176.38
337.921	156.38
338.386	196.38
338.851	181.38
339.316	180.38
339.781	154.38
340.246	187.38
340.711	183.38
341.175	203.38
341.64	182.38
342.105	188.38
342.569	184.38
343.034	197.38
343.499	197.38
343.963	202.38
344.428	202.38
344.893	186.38
345.357	184.38
345.822	204.38
346.286	199.38
346.751	213.38
347.215	223.38
347.679	207.38
348.144	217.38
348.608	214.38
349.073	206.38
349.537	232.38
350.001	226.38
350.465	214.38
350.93	226.38
351.394	201.38
351.858	196.38
352.322	208.38
352.786	234.38
353.25	216.38
353.715	216.38
354.179	231.38
354.643	222.38
355.107	234.38
355.571	225.38
356.035	238.38
356.498	235.38
356.962	235.38
357.426	239.38
357.89	234.38
358.354	250.38
358.818	230.38
359.281	218.38
359.745	249.38
360.209	249.38
360.673	258.38
361.136	228.38
361.6	236.38
362.064	246.38
362.527	272.38
362.991	250.38
363.454	248.38
363.918	246.38
364.381	238.38
364.845	247.38
365.308	257.38
365.772	261.38
366.235	256.38
366.698	250.38
367.162	269.38
367.625	256.38
368.088	247.38
368.552	247.38
369.015	258.38
369.478	241.38
369.941	255.38
370.404	254.38
370.867	257.38
371.331	274.38
371.794	255.38
372.257	278.38
372.72	278.38
373.183	290.38
373.646	282.38
374.109	302.38
374.572	283.38
375.035	296.38
375.497	283.38
375.96	267.38
376.423	266.38
376.886	278.38
377.349	280.38
377.811	296.38
378.274	266.38
378.737	300.38
379.199	291.38
379.662	317.38
380.125	290.38
380.587	302.38
381.05	286.38
381.512	312.38
381.975	315.38
382.437	318.38
382.9	321.38
383.362	302.38
383.825	326.38
384.287	348.38
384.75	320.38
385.212	342.38
385.674	316.38
386.136	315.38
386.599	324.38
387.061	325.38
387.523	329.38
387.985	328.38
388.447	339.38
388.91	314.38
389.372	326.38
389.834	338.38
390.296	334.38
390.758	324.38
391.22	319.38
391.682	327.38
392.144	334.38
392.606	320.38
393.068	340.38
393.529	355.38
393.991	343.38
394.453	360.38
394.915	347.38
395.377	334.38
395.838	342.38
396.3	335.38
396.762	353.38
397.224	339.38
397.685	347.38
398.147	351.38
398.608	353.38
399.07	359.38
399.531	352.38
399.993	376.38
400.454	356.38
400.916	360.38
401.377	374.38
401.839	374.38
402.3	373.38
402.762	380.38
403.223	408.38
403.684	415.38
404.145	378.38
404.607	384.38
405.068	378.38
405.529	384.38
405.99	412.38
406.451	380.38
406.913	386.38
407.374	390.38
407.835	423.38
408.296	403.38
408.757	400.38
409.218	422.38
409.679	421.38
410.14	408.38
410.601	423.38
411.062	408.38
411.522	438.38
411.983	433.38
412.444	453.38
412.905	441.38
413.366	431.38
413.826	440.38
414.287	514.38
414.748	600.38
415.208	630.38
415.669	536.38
416.13	488.38
416.59	514.38
417.051	487.38
417.511	524.38
417.972	548.38
418.432	570.38
418.893	626.38
419.353	591.38
419.814	478.38
420.274	448.38
420.734	444.38
421.195	458.38
421.655	449.38
422.115	462.38
422.576	429.38
423.036	452.38
423.496	508.38
423.956	516.38
424.416	517.38
424.876	563.38
425.336	604.38
425.797	566.38
426.257	595.38
426.717	551.38
427.177	509.38
427.637	498.38
428.097	520.38
428.556	539.38
429.016	601.38
429.476	594.38
429.936	544.38
430.396	572.38
430.856	589.38
431.315	597.38
431.775	656.38
432.235	661.38
432.694	687.38
433.154	665.38
433.614	636.38
434.073	638.38
434.533	578.38
434.993	545.38
435.452	532.38
435.912	518.38
436.371	517.38
436.83	500.38
437.29	554.38
437.749	487.38
438.209	496.38
438.668	540.38
439.127	518.38
439.587	518.38
440.046	517.38
440.505	512.38
440.964	513.38
441.424	536.38
441.883	533.38
442.342	511.38
442.801	488.38
443.26	512.38
443.719	492.38
444.178	499.38
444.637	475.38
445.096	532.38
445.555	512.38
446.014	516.38
446.473	517.38
446.932	515.38
447.391	528.38
447.849	504.38
448.308	463.38
448.767	516.38
449.226	502.38
449.685	513.38
450.143	555.38
450.602	539.38
451.061	534.38
451.519	501.38
451.978	527.38
452.436	505.38
452.895	526.38
453.353	510.38
453.812	550.38
454.27	518.38
454.729	520.38
455.187	502.38
455.646	510.38
456.104	536.38
456.562	512.38
457.021	534.38
457.479	507.38
457.937	534.38
458.395	537.38
458.854	531.38
459.312	544.38
459.77	549.38
460.228	546.38
460.686	570.38
461.144	543.38
461.602	559.38
462.06	545.38
462.518	550.38
462.976	547.38
463.434	557.38
463.892	562.38
464.35	578.38
464.808	582.38
465.266	598.38
465.724	588.38
466.181	602.38
466.639	611.38
467.097	602.38
467.555	626.38
468.012	610.38
468.47	638.38
468.928	630.38
469.385	659.38
469.843	679.38
470.3	687.38
470.758	690.38
471.215	694.38
471.673	718.38
472.13	732.38
472.588	741.38
473.045	756.38
473.503	774.38
473.96	762.38
474.417	786.38
474.875	838.38
475.332	821.38
475.789	832.38
476.246	873.38
476.704	888.38
477.161	899.38
477.618	976.38
478.075	1044.38
478.532	1089.38
478.989	1154.38
479.446	1279.38
479.903	1328.38
480.36	1420.38
480.817	1562.38
481.274	1615.38
481.731	1726.38
482.188	1913.38
482.645	2049.38
483.102	2118.38
483.558	2278.38
484.015	2403.38
484.472	2377.38
484.929	2280.38
485.385	2244.38
485.842	2154.38
486.299	2086.38
486.755	1913.38
487.212	1841.38
487.668	1587.38
488.125	1465.38
488.582	1378.38
489.038	1341.38
489.494	1328.38
489.951	1248.38
490.407	1231.38
490.864	1188.38
491.32	1177.38
491.776	1164.38
492.233	1172.38
492.689	1160.38
493.145	1119.38
493.602	1104.38
494.058	1112.38
494.514	1118.38
494.97	1091.38
495.426	1143.38
495.882	1150.38
496.338	1096.38
496.794	1102.38
497.251	1148.38
497.707	1176.38
498.163	1164.38
498.618	1165.38
499.074	1125.38
499.53	1164.38
499.986	1127.38
500.442	1142.38
500.898	1164.38
501.354	1137.38
501.809	1150.38
502.265	1144.38
502.721	1180.38
503.177	1184.38
503.632	1183.38
504.088	1171.38
504.543	1186.38
504.999	1198.38
505.455	1216.38
505.91	1156.38
506.366	1161.38
506.821	1191.38
507.277	1176.38
507.732	1174.38
508.187	1193.38
508.643	1207.38
509.098	1174.38
509.553	1202.38
510.009	1201.38
510.464	1225.38
510.919	1221.38
511.375	1275.38
511.83	1271.38
512.285	1264.38
512.74	1283.38
513.195	1341.38
513.65	1324.38
514.105	1345.38
514.56	1391.38
515.015	1402.38
515.47	1359.38
515.925	1382.38
516.38	1354.38
516.835	1396.38
517.29	1396.38
517.745	1373.38
518.2	1370.38
518.655	1341.38
519.109	1355.38
519.564	1260.38
520.019	1320.38
520.474	1289.38
520.928	1283.38
521.383	1267.38
521.838	1262.38
522.292	1261.38
522.747	1244.38
523.201	1220.38
523.656	1208.38
524.11	1262.38
524.565	1240.38
525.019	1219.38
525.474	1244.38
525.928	1238.38
526.382	1206.38
526.837	1226.38
527.291	1242.38
527.745	1224.38
528.2	1252.38
528.654	1202.38
529.108	1271.38
529.562	1226.38
530.016	1217.38
530.47	1224.38
530.925	1193.38
531.379	1213.38
531.833	1230.38
532.287	1238.38
532.741	1242.38
533.195	1198.38
533.649	1216.38
534.103	1259.38
534.556	1245.38
535.01	1197.38
535.464	1214.38
535.918	1204.38
536.372	1222.38
536.826	1256.38
537.279	1221.38
537.733	1206.38
538.187	1243.38
538.64	1225.38
539.094	1231.38
539.548	1253.38
540.001	1246.38
540.455	1246.38
540.908	1268.38
541.362	1265.38
541.815	1262.38
542.269	1306.38
542.722	1290.38
543.175	1296.38
543.629	1333.38
544.082	1337.38
544.536	1358.38
544.989	1352.38
545.442	1312.38
545.895	1357.38
546.349	1377.38
546.802	1332.38
547.255	1309.38
547.708	1342.38
548.161	1376.38
548.614	1382.38
549.067	1388.38
549.52	1332.38
549.973	1359.38
550.426	1393.38
550.879	1374.38
551.332	1325.38
551.785	1401.38
552.238	1392.38
552.691	1349.38
553.144	1392.38
553.596	1407.38
554.049	1405.38
554.502	1442.38
554.955	1470.38
555.407	1526.38
555.86	1492.38
556.313	1470.38
556.765	1466.38
557.218	1436.38
557.67	1457.38
558.123	1442.38
558.576	1438.38
559.028	1416.38
559.48	1416.38
559.933	1434.38
560.385	1382.38
560.838	1357.38
561.29	1308.38
561.742	1304.38
562.195	1273.38
562.647	1234.38
563.099	1254.38
563.551	1236.38
564.004	1265.38
564.456	1258.38
564.908	1239.38
565.36	1235.38
565.812	1164.38
566.264	1202.38
566.716	1174.38
567.168	1164.38
567.62	1166.38
568.072	1176.38
568.524	1169.38
568.976	1140.38
569.428	1114.38
569.88	1127.38
570.332	1108.38
570.784	1117.38
571.235	1115.38
571.687	1183.38
572.139	1151.38
572.59	1155.38
573.042	1126.38
573.494	1196.38
573.945	1160.38
574.397	1128.38
574.849	1100.38
575.3	1064.38
575.752	1122.38
576.203	1071.38
576.655	1126.38
577.106	1105.38
577.557	1065.38
578.009	1104.38
578.46	1073.38
578.912	1080.38
579.363	1057.38
579.814	1072.38
580.265	1066.38
580.717	1074.38
581.168	1061.38
581.619	1059.38
582.07	1074.38
582.521	1094.38
582.972	1066.38
583.423	1099.38
583.875	1094.38
584.326	1096.38
584.777	1111.38
585.227	1110.38
585.678	1152.38
586.129	1138.38
586.58	1169.38
587.031	1174.38
587.482	1230.38
587.933	1248.38
588.384	1256.38
588.834	1185.38
589.285	1224.38
589.736	1209.38
590.186	1168.38
590.637	1223.38
591.088	1170.38
591.538	1182.38
591.989	1138.38
592.439	1157.38
592.89	1125.38
593.34	1150.38
593.791	1092.38
594.241	1098.38
594.692	1103.38
595.142	1087.38
595.593	1099.38
596.043	1084.38
596.493	1116.38
596.943	1094.38
597.394	1096.38
597.844	1115.38
598.294	1136.38
598.744	1186.38
599.195	1286.38
599.645	1332.38
600.095	1342.38
600.545	1395.38
600.995	1480.38
601.445	1531.38
601.895	1578.38
602.345	1602.38
602.795	1639.38
603.245	1571.38
603.695	1532.38
604.145	1416.38
604.594	1373.38
605.044	1325.38
605.494	1254.38
605.944	1194.38
606.393	1150.38
606.843	1098.38
607.293	1121.38
607.743	1107.38
608.192	1117.38
608.642	1108.38
609.091	1095.38
609.541	1091.38
609.99	1137.38
610.44	1094.38
610.889	1103.38
611.339	1077.38
611.788	1062.38
612.238	1075.38
612.687	1021.38
613.136	1070.38
613.586	1095.38
614.035	1056.38
614.484	1070.38
614.933	1079.38
615.383	1037.38
615.832	1050.38
616.281	1067.38
616.73	1013.38
617.179	1031.38
617.628	958.38
618.077	960.38
618.526	942.38
618.975	959.38
619.424	933.38
619.873	922.38
620.322	916.38
620.771	916.38
621.22	909.38
621.669	887.38
622.118	900.38
622.567	875.38
623.015	870.38
623.464	856.38
623.913	866.38
624.361	901.38
624.81	873.38
625.259	880.38
625.707	842.38
626.156	831.38
626.604	871.38
627.053	859.38
627.501	857.38
627.95	845.38
628.398	912.38
628.847	871.38
629.295	864.38
629.744	890.38
630.192	866.38
630.64	844.38
631.089	824.38
631.537	811.38
631.985	804.38
632.433	803.38
632.881	790.38
633.33	800.38
633.778	817.38
634.226	802.38
634.674	791.38
635.122	818.38
635.57	810.38
636.018	856.38
636.466	809.38
636.914	806.38
637.362	853.38
637.81	876.38
638.258	882.38
638.705	908.38
639.153	914.38
639.601	908.38
640.049	911.38
640.497	981.38
640.944	979.38
641.392	966.38
641.84	938.38
642.287	855.38
642.735	863.38
643.182	872.38
643.63	848.38
644.078	828.38
644.525	857.38
644.973	882.38
645.42	879.38
645.867	952.38
646.315	926.38
646.762	994.38
647.21	1002.38
647.657	1050.38
648.104	1081.38
648.551	1066.38
648.999	1218.38
649.446	1285.38
649.893	1430.38
650.34	1584.38
650.787	1924.38
651.234	2446.38
651.682	3218.38
652.129	4483.38
652.576	6460.38
653.023	8738.38
653.47	10820.38
653.917	12000.38
654.363	12625.38
654.81	13308.38
655.257	14094.38
655.704	10721.38
656.151	6545.38
656.598	4131.38
657.044	2905.38
657.491	2251.38
657.938	1830.38
658.385	1540.38
658.831	1324.38
659.278	1202.38
659.724	1127.38
660.171	1052.38
660.618	977.38
661.064	950.38
661.511	868.38
661.957	872.38
662.404	857.38
662.85	836.38
663.296	827.38
663.743	818.38
664.189	807.38
664.635	792.38
665.082	775.38
665.528	764.38
665.974	737.38
666.42	711.38
666.867	739.38
667.313	698.38
667.759	688.38
668.205	684.38
668.651	674.38
669.097	679.38
669.543	697.38
669.989	672.38
670.435	727.38
670.881	707.38
671.327	696.38
671.773	746.38
672.219	773.38
672.665	861.38
673.11	872.38
673.556	887.38
674.002	895.38
674.448	947.38
674.893	846.38
675.339	724.38
675.785	670.38
676.23	648.38
676.676	602.38
677.122	580.38
677.567	592.38
678.013	550.38
678.458	577.38
678.904	550.38
679.349	562.38
679.794	552.38
680.24	556.38
680.685	548.38
681.131	552.38
681.576	537.38
682.021	577.38
682.466	556.38
682.912	588.38
683.357	552.38
683.802	614.38
684.247	624.38
684.692	726.38
685.137	721.38
685.583	746.38
686.028	761.38
686.473	753.38
686.918	689.38
687.363	630.38
687.807	568.38
688.252	554.38
688.697	553.38
689.142	536.38
689.587	551.38
690.032	563.38
690.477	549.38
690.921	568.38
691.366	596.38
691.811	616.38
692.255	666.38
692.7	756.38
693.145	952.38
693.589	1392.38
694.034	1829.38
694.478	2042.38
694.923	1830.38
695.367	2267.38
695.812	2152.38
696.256	913.38
696.701	602.38
697.145	556.38
697.59	534.38
698.034	474.38
698.478	497.38
698.922	507.38
699.367	535.38
699.811	533.38
700.255	584.38
700.699	597.38
701.143	642.38
701.588	694.38
702.032	716.38
702.476	730.38
702.92	772.38
703.364	861.38
703.808	1262.38
704.252	1670.38
704.696	1916.38
705.14	1782.38
705.584	2236.38
706.027	1873.38
706.471	909.38
706.915	640.38
707.359	562.38
707.803	524.38
708.246	482.38
708.69	495.38
709.134	476.38
709.577	530.38
710.021	501.38
710.465	501.38
710.908	491.38
711.352	506.38
711.795	502.38
712.239	598.38
712.682	574.38
713.126	588.38
713.569	605.38
714.012	580.38
714.456	512.38
714.899	468.38
715.342	438.38
715.786	414.38
716.229	431.38
716.672	425.38
717.115	416.38
717.558	395.38
718.002	422.38
718.445	421.38
718.888	449.38
719.331	454.38
719.774	478.38
720.217	465.38
720.66	464.38
721.103	433.38
721.546	414.38
721.989	430.38
722.432	416.38
722.874	392.38
723.317	372.38
723.76	410.38
724.203	471.38
724.645	587.38
725.088	697.38
725.531	740.38
725.974	736.38
726.416	815.38
726.859	546.38
727.301	412.38
727.744	400.38
728.187	389.38
728.629	403.38
729.071	392.38
729.514	418.38
729.956	431.38
730.399	441.38
730.841	453.38
731.283	445.38
731.726	418.38
732.168	438.38
732.61	437.38
733.053	481.38
733.495	525.38
733.937	553.38
734.379	634.38
734.821	742.38
735.263	984.38
735.705	1691.38
736.148	2703.38
736.59	3186.38
737.032	2997.38
737.474	3224.38
737.916	1608.38
738.357	807.38
738.799	566.38
739.241	492.38
739.683	490.38
740.125	487.38
740.567	513.38
741.008	514.38
741.45	556.38
741.892	586.38
742.334	574.38
742.775	555.38
743.217	580.38
743.658	527.38
744.1	484.38
744.542	540.38
744.983	564.38
745.425	554.38
745.866	610.38
746.307	505.38
746.749	506.38
747.19	604.38
747.632	948.38
748.073	1816.38
748.514	2891.38
748.956	3500.38
749.397	4763.38
749.838	3868.38
750.279	3144.38
750.72	2380.38
751.162	1095.38
751.603	583.38
752.044	435.38
752.485	376.38
752.926	395.38
753.367	351.38
753.808	343.38
754.249	345.38
754.69	348.38
755.131	340.38
755.572	335.38
756.013	367.38
756.453	343.38
756.894	360.38
757.335	327.38
757.776	353.38
758.216	355.38
758.657	342.38
759.098	378.38
759.538	416.38
759.979	534.38
760.42	844.38
760.86	1803.38
761.301	4195.38
761.741	6296.38
762.182	6518.38
762.622	6170.38
763.063	2846.38
763.503	1132.38
763.943	620.38
764.384	464.38
764.824	417.38
765.264	367.38
765.705	360.38
766.145	350.38
766.585	322.38
767.025	336.38
767.465	316.38
767.906	328.38
768.346	313.38
768.786	353.38
769.226	406.38
769.666	659.38
770.106	1434.38
770.546	2512.38
770.986	2677.38
771.426	2692.38
771.866	1504.38
772.306	680.38
772.745	421.38
773.185	337.38
773.625	300.38
774.065	305.38
774.505	353.38
774.944	554.38
775.384	871.38
775.824	1023.38
776.263	1010.38
776.703	746.38
777.142	422.38
777.582	319.38
778.021	262.38
778.461	245.38
778.9	246.38
779.34	216.38
779.779	235.38
780.219	245.38
780.658	240.38
781.097	240.38
781.537	228.38
781.976	237.38
782.415	236.38
782.855	215.38
783.294	222.38
783.733	222.38
784.172	229.38
784.611	228.38
785.05	228.38
785.489	239.38
785.928	224.38
786.367	239.38
786.806	246.38
787.245	248.38
787.684	283.38
788.123	278.38
788.562	265.38
789.001	272.38
789.44	260.38
789.879	232.38
790.317	241.38
790.756	254.38
791.195	270.38
791.634	318.38
792.072	466.38
792.511	872.38
792.95	1839.38
793.388	2398.38
793.827	2117.38
794.265	1260.38
794.704	606.38
795.142	363.38
795.581	278.38
796.019	272.38
796.458	264.38
796.896	252.38
797.334	286.38
797.773	305.38
798.211	470.38
798.649	930.38
799.087	1546.38
799.526	2328.38
799.964	2644.38
800.402	2281.38
800.84	1328.38
801.278	685.38
801.716	387.38
802.154	314.38
802.592	294.38
803.03	286.38
803.468	274.38
803.906	281.38
804.344	284.38
804.782	255.38
805.22	292.38
805.658	292.38
806.096	282.38
806.533	325.38
806.971	345.38
807.409	458.38
807.847	694.38
808.284	1594.38
808.722	3066.38
809.16	4262.38
809.597	5937.38
810.035	7606.38
810.472	6576.38
810.91	3678.38
811.347	1795.38
811.785	804.38
812.222	515.38
812.66	394.38
813.097	336.38
813.535	290.38
813.972	249.38
814.409	230.38
814.846	251.38
815.284	239.38
815.721	221.38
816.158	238.38
816.595	269.38
817.032	336.38
817.47	366.38
817.907	301.38
818.344	266.38
818.781	248.38
819.218	272.38
819.655	344.38
820.092	415.38
820.529	448.38
820.966	384.38
821.403	321.38
821.839	279.38
822.276	252.38
822.713	279.38
823.15	305.38
823.587	269.38
824.023	358.38
824.46	738.38
824.897	1360.38
825.333	1444.38
825.77	886.38
826.206	522.38
826.643	325.38
827.08	250.38
827.516	219.38
827.953	184.38
828.389	190.38
828.825	174.38
829.262	191.38
829.698	169.38
830.135	153.38
830.571	173.38
831.007	168.38
831.443	166.38
831.88	150.38
832.316	188.38
832.752	164.38
833.188	190.38
833.624	183.38
834.06	169.38
834.497	154.38
834.933	191.38
835.369	176.38
835.805	189.38
836.241	184.38
836.677	203.38
837.112	221.38
837.548	262.38
837.984	295.38
838.42	471.38
838.856	1153.38
839.292	2376.38
839.727	2600.38
840.163	1761.38
840.599	2001.38
841.034	3015.38
841.47	2371.38
841.906	1343.38
842.341	794.38
842.777	473.38
843.212	439.38
843.648	366.38
844.083	252.38
844.519	232.38
844.954	198.38
845.39	185.38
845.825	161.38
846.261	163.38
846.696	151.38
847.131	156.38
847.566	163.38
848.002	163.38
848.437	146.38
848.872	147.38
849.307	189.38
849.742	229.38
850.177	454.38
850.613	918.38
851.048	1009.38
851.483	591.38
851.918	386.38
852.353	234.38
852.788	177.38
853.223	146.38
853.657	160.38
854.092	150.38
854.527	144.38
854.962	154.38
855.397	154.38
855.832	154.38
856.266	148.38
856.701	144.38
857.136	131.38
857.57	156.38
858.005	174.38
858.44	157.38
858.874	138.38
859.309	148.38
859.743	163.38
860.178	152.38
860.612	137.38
861.047	160.38
861.481	212.38
861.915	187.38
862.35	159.38
862.784	145.38
863.218	133.38
863.653	134.38
864.087	140.38
864.521	168.38
864.955	200.38
865.39	300.38
865.824	296.38
866.258	285.38
866.692	422.38
867.126	390.38
867.56	295.38
867.994	206.38
868.428	169.38
868.862	182.38
869.296	197.38
869.73	171.38
870.164	174.38
870.598	171.38
871.031	153.38
871.465	134.38
871.899	112.38
872.333	109.38
872.766	118.38
873.2	120.38
873.634	113.38
874.067	113.38
874.501	115.38
874.935	119.38
875.368	126.38
875.802	110.38
876.235	125.38
876.669	106.38
877.102	99.38
877.535	115.38
877.969	103.38
878.402	121.38
878.836	115.38
879.269	122.38
879.702	110.38
880.135	108.38
880.569	132.38
881.002	119.38
881.435	97.38
881.868	112.38
882.301	102.38
882.734	105.38
883.167	102.38
883.601	123.38
884.034	97.38
884.467	111.38
884.899	110.38
885.332	111.38
885.765	107.38
886.198	102.38
886.631	120.38
887.064	113.38
887.497	113.38
887.929	114.38
888.362	107.38
888.795	112.38
889.228	101.38
889.66	113.38
890.093	101.38
890.526	98.38
890.958	100.38
891.391	93.38
891.823	98.38
892.256	106.38
892.688	114.38
893.121	113.38
893.553	86.38
893.985	102.38
894.418	117.38
894.85	104.38
895.282	93.38
895.715	78.38
896.147	106.38
896.579	103.38
897.011	100.38
897.444	100.38
897.876	102.38
898.308	105.38
898.74	104.38
899.172	105.38
899.604	94.38
900.036	108.38
900.468	108.38
900.9	118.38
901.332	110.38
901.764	99.38
902.196	106.38
902.628	113.38
903.06	113.38
903.491	132.38
903.923	124.38
904.355	124.38
904.787	107.38
905.218	115.38
905.65	123.38
906.082	126.38
906.513	118.38
906.945	108.38
907.376	113.38
907.808	124.38
908.239	114.38
908.671	107.38
909.102	124.38
909.534	128.38
909.965	158.38
910.397	245.38
910.828	588.38
911.259	653.38
911.691	403.38
912.122	300.38
912.553	188.38
912.984	142.38
913.415	118.38
913.847	128.38
914.278	120.38
914.709	120.38
915.14	100.38
915.571	105.38
916.002	122.38
916.433	92.38
916.864	91.38
917.295	110.38
917.726	121.38
918.157	100.38
918.587	123.38
919.018	106.38
919.449	118.38
919.88	117.38
920.311	119.38
920.741	193.38
921.172	319.38
921.603	242.38
922.033	208.38
922.464	184.38
922.895	141.38
923.325	111.38
923.756	94.38
924.186	92.38
924.617	113.38
925.047	150.38
925.478	134.38
925.908	126.38
926.338	130.38
926.769	111.38
927.199	111.38
927.629	113.38
928.06	114.38
928.49	96.38
928.92	102.38
929.35	105.38
929.78	94.38
930.21	92.38
930.641	114.38
931.071	93.38
931.501	113.38
931.931	91.38
932.361	80.38
932.791	90.38
933.221	100.38
933.651	105.38
934.08	114.38
934.51	110.38
934.94	98.38
935.37	98.38
935.8	88.38
936.229	95.38
936.659	94.38
937.089	110.38
937.519	124.38
937.948	110.38
938.378	135.38
938.807	112.38
939.237	95.38
939.666	99.38
940.096	96.38
940.525	98.38
940.955	77.38
941.384	105.38
941.814	78.38
942.243	81.38
942.672	94.38
943.102	83.38
943.531	92.38
943.96	98.38
944.39	104.38
944.819	97.38
945.248	88.38
945.677	86.38
946.106	82.38
946.535	88.38
946.964	72.38
947.393	101.38
947.822	87.38
948.251	81.38
948.68	89.38
949.109	92.38
949.538	93.38
949.967	73.38
950.396	91.38
950.825	74.38
951.254	86.38
951.682	70.38
952.111	84.38
952.54	80.38
952.969	83.38
953.397	88.38
953.826	80.38
954.254	93.38
954.683	71.38
955.112	92.38
955.54	90.38
955.969	90.38
956.397	87.38
956.826	96.38
957.254	99.38
957.682	74.38
958.111	85.38
958.539	91.38
958.967	92.38
959.396	78.38
959.824	79.38
960.252	98.38
960.68	74.38
961.109	88.38
961.537	102.38
961.965	88.38
962.393	79.38
962.821	88.38
963.249	73.38
963.677	91.38
964.105	99.38
964.533	147.38
964.961	132.38
965.389	123.38
965.817	100.38
966.245	91.38
966.672	94.38
967.1	96.38
967.528	96.38
967.956	76.38
968.383	88.38
968.811	97.38
969.239	72.38
969.666	84.38
970.094	85.38
970.522	77.38
970.949	79.38
971.377	77.38
971.804	93.38
972.232	84.38
972.659	82.38
973.087	86.38
973.514	81.38
973.941	78.38
974.369	83.38
974.796	86.38
975.223	95.38
975.651	57.38
976.078	60.38
976.505	79.38
976.932	99.38
977.359	105.38
977.786	98.38
978.214	96.38
978.641	101.38
979.068	80.38
979.495	86.38
979.922	83.38
980.349	74.38
980.776	101.38
981.202	98.38
981.629	84.38
982.056	86.38
982.483	76.38
982.91	93.38
983.337	94.38
983.763	83.38
984.19	60.38
984.617	92.38
985.043	67.38
985.47	85.38
985.897	90.38
986.323	87.38
986.75	92.38
987.176	74.38
987.603	94.38
988.029	76.38
988.456	98.38
988.882	89.38
989.308	72.38
989.735	78.38
990.161	78.38
990.587	99.38
991.014	89.38
991.44	68.38
991.866	89.38
992.292	90.38
992.719	98.38
993.145	70.38
993.571	85.38
993.997	77.38
994.423	86.38
994.849	92.38
995.275	75.38
995.701	90.38
996.127	102.38
996.553	84.38
996.979	86.38
997.405	67.38
997.83	92.38
998.256	89.38
998.682	76.38
999.108	91.38
999.534	91.38
999.959	62.38
1000.385	77.38
1000.811	74.38
1001.236	75.38
1001.662	71.38
1002.087	77.38
1002.513	86.38
1002.938	92.38
1003.364	90.38
1003.789	86.38
1004.215	97.38
1004.64	75.38
1005.066	78.38
1005.491	92.38
1005.916	80.38
1006.342	83.38
1006.767	80.38
1007.192	90.38
1007.617	87.38
1008.042	90.38
1008.468	78.38
1008.893	80.38
1009.318	90.38
1009.743	77.38
1010.168	96.38
1010.593	95.38
1011.018	92.38
1011.443	80.38
1011.868	93.38
1012.293	72.38
1012.718	85.38
1013.143	87.38
1013.567	83.38
1013.992	89.38
1014.417	91.38
1014.842	83.38
1015.267	90.38
1015.691	87.38
1016.116	94.38
1016.541	80.38
1016.965	74.38
1017.39	82.38
1017.814	79.38
1018.239	80.38
1018.663	80.38
1019.088	91.38
1019.512	76.38
1019.937	77.38
1020.361	85.38
1020.785	84.38
1021.21	79.38
1021.634	75.38
1022.058	85.38
1022.483	69.38
1022.907	82.38
1023.331	72.38
1023.755	92.38
1024.179	96.38
1024.604	82.38
1025.028	72.38
1025.452	86.38
1025.876	86.38
1026.3	70.38
1026.724	90.38
1027.148	74.38
1027.572	68.38
1027.996	84.38
1028.42	84.38
1028.843	69.38
1029.267	87.38
1029.691	86.38
1030.115	80.38
1030.539	86.38
1030.962	79.38
1031.386	70.38
1031.81	79.38
1032.233	68.38
1032.657	79.38
1033.08	88.38
1033.504	82.38
1033.927	86.38
1034.351	78.38
1034.774	75.38
1035.198	81.38
1035.621	82.38
1036.045	84.38
1036.468	71.38
1036.891	74.38
1037.315	69.38
1037.738	76.38
1038.161	82.38
1038.584	78.38
1039.008	79.38
1039.431	82.38
1039.854	95.38
1040.277	79.38
1040.7	80.38
1041.123	67.38
1041.546	77.38
1041.969	86.38
1042.392	70.38
1042.815	87.38
1043.238	83.38
1043.661	80.38
1044.084	79.38
1044.507	90.38
1044.93	66.38
1045.352	78.38
1045.775	81.38
1046.198	74.38
1046.621	88.38
1047.043	96.38
1047.466	80.38
1047.889	87.38
1048.311	64.38
1048.734	85.38
1049.156	86.38
1049.579	68.38
1050.001	86.38
1050.424	73.38
1050.846	85.38
1051.269	85.38
1051.691	86.38
1052.113	73.38
1052.536	84.38
1052.958	72.38
1053.38	80.38
1053.802	81.38
1054.225	79.38
1054.647	74.38
1055.069	74.38
1055.491	88.38
1055.913	94.38
1056.335	78.38
1056.757	94.38
1057.179	86.38
1057.601	99.38
1058.023	66.38
1058.445	64.38
1058.867	80.38
1059.289	75.38
1059.711	78.38
1060.133	75.38
1060.555	72.38
1060.976	91.38
1061.398	95.38
1061.82	54.38
1062.241	85.38
1062.663	78.38
1063.085	75.38
1063.506	89.38
1063.928	67.38
1064.35	74.38
1064.771	99.38
1065.193	76.38
1065.614	64.38
1066.035	80.38
1066.457	98.38
1066.878	85.38
1067.3	84.38
1067.721	83.38
1068.142	99.38
1068.564	66.38
1068.985	67.38
1069.406	69.38
1069.827	72.38
1070.248	77.38
1070.67	81.38
1071.091	80.38
1071.512	86.38
1071.933	92.38
1072.354	87.38
1072.775	76.38
1073.196	94.38
1073.617	78.38
1074.038	87.38
1074.459	69.38
1074.88	78.38
1075.3	96.38
1075.721	78.38
1076.142	90.38
1076.563	68.38
1076.983	71.38
1077.404	80.38
1077.825	73.38
1078.246	85.38
1078.666	86.38
1079.087	70.38
1079.507	80.38
1079.928	89.38
1080.348	86.38
1080.769	96.38
1081.189	75.38
1081.61	89.38
1082.03	68.38
1082.451	93.38
1082.871	90.38
1083.291	92.38
1083.711	75.38
1084.132	81.38
1084.552	89.38
1084.972	76.38
1085.392	74.38
1085.813	72.38
1086.233	73.38
1086.653	73.38
1087.073	80.38
1087.493	79.38
1087.913	65.38
1088.333	95.38
1088.753	94.38
1089.173	86.38
1089.593	98.38
1090.013	66.38
1090.433	70.38
1090.852	72.38
1091.272	74.38
1091.692	80.38
1092.112	82.38
1092.531	80.38
1092.951	72.38
1093.371	78.38
1093.79	70.38
1094.21	105.38
1094.63	76.38
1095.049	78.38
1095.469	69.38
1095.888	70.38
1096.308	78.38
1096.727	79.38
1097.146	92.38
1097.566	64.38
1097.985	87.38
1098.405	72.38
1098.824	83.38
1099.243	92.38
1099.662	85.38
1100.082	92.38
1100.501	84.38
1100.92	93.38
1101.339	82.38
1101.758	55.38
