Data from 20170802-ORNL-NYSim-Air_HRD10391_10-37-32-641.txt Node
Date: Wed Aug 02 10:37:32 EDT 2017
User: Ender
Spectrometer: HR+D1039
Trigger mode: 0
Integration Time (sec): 1.510000E-3
Scans to average: 1
Electric dark correction enabled: true
Nonlinearity correction enabled: false
Boxcar width: 0
XAxis mode: Wavelengths
Number of Pixels in Spectrum: 2048
>>>>>Begin Spectral Data<<<<<
187.836	3.69
188.309	3.69
188.782	3.69
189.255	-8.31
189.728	-5.31
190.201	-3.31
190.674	-5.31
191.147	1.69
191.619	-9.31
192.092	-1.31
192.565	-9.31
193.038	-5.31
193.511	-17.31
193.984	-6.31
194.456	4.69
194.929	19.69
195.402	14.69
195.874	26.69
196.347	20.69
196.82	24.69
197.292	33.69
197.765	11.69
198.237	42.69
198.71	27.69
199.182	42.69
199.655	40.69
200.127	48.69
200.6	64.69
201.072	52.69
201.544	56.69
202.017	60.69
202.489	76.69
202.961	74.69
203.433	73.69
203.906	81.69
204.378	69.69
204.85	76.69
205.322	62.69
205.794	72.69
206.266	86.69
206.739	78.69
207.211	95.69
207.683	80.69
208.155	83.69
208.627	65.69
209.099	86.69
209.57	94.69
210.042	101.69
210.514	82.69
210.986	89.69
211.458	89.69
211.93	83.69
212.402	78.69
212.873	64.69
213.345	88.69
213.817	67.69
214.288	88.69
214.76	94.69
215.232	93.69
215.703	86.69
216.175	77.69
216.646	96.69
217.118	79.69
217.589	86.69
218.061	82.69
218.532	81.69
219.004	94.69
219.475	58.69
219.946	67.69
220.418	86.69
220.889	71.69
221.36	80.69
221.832	70.69
222.303	85.69
222.774	66.69
223.245	82.69
223.717	70.69
224.188	81.69
224.659	81.69
225.13	80.69
225.601	66.69
226.072	69.69
226.543	68.69
227.014	60.69
227.485	72.69
227.956	60.69
228.427	68.69
228.898	80.69
229.369	57.69
229.839	83.69
230.31	70.69
230.781	72.69
231.252	71.69
231.722	73.69
232.193	86.69
232.664	87.69
233.135	57.69
233.605	93.69
234.076	77.69
234.546	72.69
235.017	82.69
235.487	62.69
235.958	87.69
236.428	86.69
236.899	71.69
237.369	85.69
237.84	68.69
238.31	87.69
238.78	83.69
239.251	94.69
239.721	80.69
240.191	85.69
240.662	70.69
241.132	82.69
241.602	88.69
242.072	81.69
242.542	88.69
243.013	73.69
243.483	75.69
243.953	82.69
244.423	74.69
244.893	97.69
245.363	86.69
245.833	73.69
246.303	88.69
246.773	81.69
247.243	90.69
247.712	95.69
248.182	76.69
248.652	81.69
249.122	89.69
249.592	92.69
250.061	90.69
250.531	85.69
251.001	76.69
251.471	84.69
251.94	94.69
252.41	104.69
252.879	98.69
253.349	84.69
253.818	86.69
254.288	82.69
254.757	78.69
255.227	92.69
255.696	92.69
256.166	63.69
256.635	91.69
257.105	88.69
257.574	100.69
258.043	90.69
258.513	75.69
258.982	96.69
259.451	85.69
259.92	93.69
260.389	84.69
260.859	95.69
261.328	82.69
261.797	79.69
262.266	88.69
262.735	108.69
263.204	102.69
263.673	92.69
264.142	100.69
264.611	104.69
265.08	92.69
265.549	92.69
266.018	87.69
266.487	106.69
266.955	85.69
267.424	88.69
267.893	92.69
268.362	87.69
268.83	97.69
269.299	114.69
269.768	91.69
270.236	104.69
270.705	96.69
271.174	87.69
271.642	92.69
272.111	98.69
272.579	107.69
273.048	99.69
273.516	107.69
273.985	104.69
274.453	89.69
274.922	101.69
275.39	115.69
275.858	99.69
276.327	112.69
276.795	112.69
277.263	89.69
277.731	94.69
278.2	95.69
278.668	102.69
279.136	102.69
279.604	111.69
280.072	116.69
280.54	123.69
281.008	100.69
281.477	117.69
281.945	128.69
282.413	112.69
282.881	92.69
283.348	97.69
283.816	111.69
284.284	108.69
284.752	104.69
285.22	117.69
285.688	115.69
286.156	80.69
286.623	124.69
287.091	89.69
287.559	116.69
288.026	116.69
288.494	111.69
288.962	113.69
289.429	111.69
289.897	106.69
290.364	113.69
290.832	98.69
291.3	102.69
291.767	101.69
292.234	123.69
292.702	94.69
293.169	106.69
293.637	134.69
294.104	133.69
294.571	110.69
295.039	108.69
295.506	108.69
295.973	113.69
296.44	123.69
296.908	126.69
297.375	124.69
297.842	100.69
298.309	98.69
298.776	124.69
299.243	111.69
299.71	103.69
300.177	126.69
300.644	134.69
301.111	126.69
301.578	134.69
302.045	128.69
302.512	124.69
302.979	120.69
303.446	124.69
303.913	112.69
304.379	116.69
304.846	128.69
305.313	124.69
305.78	138.69
306.246	113.69
306.713	147.69
307.18	139.69
307.646	133.69
308.113	134.69
308.579	146.69
309.046	151.69
309.512	116.69
309.979	127.69
310.445	132.69
310.912	112.69
311.378	150.69
311.845	122.69
312.311	145.69
312.777	146.69
313.244	144.69
313.71	142.69
314.176	142.69
314.642	146.69
315.109	145.69
315.575	140.69
316.041	134.69
316.507	141.69
316.973	152.69
317.439	152.69
317.905	157.69
318.371	131.69
318.837	121.69
319.303	144.69
319.769	163.69
320.235	146.69
320.701	158.69
321.167	165.69
321.633	157.69
322.099	140.69
322.564	144.69
323.03	150.69
323.496	160.69
323.962	156.69
324.427	165.69
324.893	161.69
325.359	153.69
325.824	160.69
326.29	153.69
326.755	156.69
327.221	158.69
327.686	174.69
328.152	178.69
328.617	180.69
329.083	153.69
329.548	165.69
330.014	166.69
330.479	168.69
330.944	174.69
331.41	174.69
331.875	168.69
332.34	187.69
332.805	177.69
333.271	161.69
333.736	160.69
334.201	176.69
334.666	167.69
335.131	180.69
335.596	176.69
336.061	176.69
336.526	150.69
336.991	160.69
337.456	156.69
337.921	166.69
338.386	177.69
338.851	181.69
339.316	169.69
339.781	188.69
340.246	158.69
340.711	193.69
341.175	182.69
341.64	171.69
342.105	167.69
342.569	181.69
343.034	190.69
343.499	180.69
343.963	197.69
344.428	189.69
344.893	216.69
345.357	198.69
345.822	195.69
346.286	188.69
346.751	191.69
347.215	170.69
347.679	202.69
348.144	221.69
348.608	201.69
349.073	206.69
349.537	222.69
350.001	221.69
350.465	222.69
350.93	216.69
351.394	213.69
351.858	224.69
352.322	214.69
352.786	243.69
353.25	208.69
353.715	208.69
354.179	235.69
354.643	243.69
355.107	238.69
355.571	244.69
356.035	236.69
356.498	238.69
356.962	232.69
357.426	227.69
357.89	219.69
358.354	226.69
358.818	216.69
359.281	226.69
359.745	222.69
360.209	236.69
360.673	229.69
361.136	223.69
361.6	249.69
362.064	235.69
362.527	233.69
362.991	237.69
363.454	243.69
363.918	240.69
364.381	252.69
364.845	237.69
365.308	244.69
365.772	240.69
366.235	230.69
366.698	250.69
367.162	250.69
367.625	255.69
368.088	252.69
368.552	237.69
369.015	250.69
369.478	250.69
369.941	249.69
370.404	262.69
370.867	258.69
371.331	256.69
371.794	266.69
372.257	278.69
372.72	252.69
373.183	270.69
373.646	250.69
374.109	260.69
374.572	261.69
375.035	288.69
375.497	286.69
375.96	264.69
376.423	278.69
376.886	284.69
377.349	290.69
377.811	272.69
378.274	278.69
378.737	293.69
379.199	281.69
379.662	295.69
380.125	262.69
380.587	271.69
381.05	266.69
381.512	278.69
381.975	300.69
382.437	315.69
382.9	290.69
383.362	304.69
383.825	323.69
384.287	313.69
384.75	304.69
385.212	328.69
385.674	311.69
386.136	330.69
386.599	294.69
387.061	304.69
387.523	327.69
387.985	322.69
388.447	301.69
388.91	310.69
389.372	319.69
389.834	322.69
390.296	316.69
390.758	317.69
391.22	320.69
391.682	314.69
392.144	327.69
392.606	334.69
393.068	330.69
393.529	350.69
393.991	331.69
394.453	337.69
394.915	326.69
395.377	334.69
395.838	332.69
396.3	320.69
396.762	326.69
397.224	335.69
397.685	342.69
398.147	352.69
398.608	346.69
399.07	339.69
399.531	337.69
399.993	353.69
400.454	359.69
400.916	341.69
401.377	369.69
401.839	366.69
402.3	364.69
402.762	368.69
403.223	402.69
403.684	401.69
404.145	384.69
404.607	388.69
405.068	367.69
405.529	354.69
405.99	366.69
406.451	386.69
406.913	383.69
407.374	368.69
407.835	367.69
408.296	380.69
408.757	397.69
409.218	424.69
409.679	404.69
410.14	412.69
410.601	405.69
411.062	394.69
411.522	408.69
411.983	415.69
412.444	415.69
412.905	425.69
413.366	456.69
413.826	446.69
414.287	504.69
414.748	575.69
415.208	599.69
415.669	525.69
416.13	478.69
416.59	460.69
417.051	499.69
417.511	504.69
417.972	526.69
418.432	568.69
418.893	632.69
419.353	587.69
419.814	478.69
420.274	448.69
420.734	433.69
421.195	439.69
421.655	446.69
422.115	425.69
422.576	427.69
423.036	463.69
423.496	471.69
423.956	486.69
424.416	484.69
424.876	550.69
425.336	572.69
425.797	540.69
426.257	517.69
426.717	516.69
427.177	473.69
427.637	474.69
428.097	518.69
428.556	542.69
429.016	564.69
429.476	543.69
429.936	549.69
430.396	557.69
430.856	571.69
431.315	593.69
431.775	574.69
432.235	662.69
432.694	640.69
433.154	624.69
433.614	638.69
434.073	598.69
434.533	537.69
434.993	538.69
435.452	532.69
435.912	526.69
436.371	521.69
436.83	520.69
437.29	480.69
437.749	504.69
438.209	481.69
438.668	498.69
439.127	466.69
439.587	489.69
440.046	476.69
440.505	475.69
440.964	525.69
441.424	505.69
441.883	514.69
442.342	506.69
442.801	478.69
443.26	474.69
443.719	472.69
444.178	495.69
444.637	479.69
445.096	491.69
445.555	467.69
446.014	517.69
446.473	514.69
446.932	458.69
447.391	475.69
447.849	494.69
448.308	494.69
448.767	467.69
449.226	513.69
449.685	490.69
450.143	532.69
450.602	530.69
451.061	513.69
451.519	506.69
451.978	514.69
452.436	507.69
452.895	502.69
453.353	522.69
453.812	485.69
454.27	529.69
454.729	482.69
455.187	511.69
455.646	474.69
456.104	504.69
456.562	507.69
457.021	520.69
457.479	492.69
457.937	520.69
458.395	477.69
458.854	506.69
459.312	505.69
459.77	534.69
460.228	522.69
460.686	566.69
461.144	538.69
461.602	521.69
462.06	513.69
462.518	556.69
462.976	544.69
463.434	529.69
463.892	548.69
464.35	557.69
464.808	559.69
465.266	558.69
465.724	555.69
466.181	576.69
466.639	584.69
467.097	603.69
467.555	648.69
468.012	616.69
468.47	591.69
468.928	638.69
469.385	687.69
469.843	658.69
470.3	654.69
470.758	650.69
471.215	662.69
471.673	707.69
472.13	693.69
472.588	730.69
473.045	686.69
473.503	726.69
473.96	774.69
474.417	776.69
474.875	784.69
475.332	796.69
475.789	843.69
476.246	855.69
476.704	862.69
477.161	903.69
477.618	913.69
478.075	955.69
478.532	1021.69
478.989	1087.69
479.446	1170.69
479.903	1254.69
480.36	1360.69
480.817	1454.69
481.274	1527.69
481.731	1653.69
482.188	1769.69
482.645	1891.69
483.102	2004.69
483.558	2074.69
484.015	2229.69
484.472	2163.69
484.929	2165.69
485.385	2080.69
485.842	2033.69
486.299	1920.69
486.755	1814.69
487.212	1628.69
487.668	1497.69
488.125	1425.69
488.582	1291.69
489.038	1208.69
489.494	1258.69
489.951	1172.69
490.407	1160.69
490.864	1163.69
491.32	1128.69
491.776	1106.69
492.233	1103.69
492.689	1106.69
493.145	1074.69
493.602	1056.69
494.058	1073.69
494.514	1092.69
494.97	1101.69
495.426	1100.69
495.882	1073.69
496.338	1077.69
496.794	1112.69
497.251	1087.69
497.707	1102.69
498.163	1100.69
498.618	1108.69
499.074	1080.69
499.53	1122.69
499.986	1089.69
500.442	1092.69
500.898	1108.69
501.354	1132.69
501.809	1148.69
502.265	1083.69
502.721	1106.69
503.177	1082.69
503.632	1117.69
504.088	1139.69
504.543	1114.69
504.999	1174.69
505.455	1188.69
505.91	1134.69
506.366	1136.69
506.821	1138.69
507.277	1115.69
507.732	1154.69
508.187	1192.69
508.643	1133.69
509.098	1169.69
509.553	1164.69
510.009	1173.69
510.464	1174.69
510.919	1227.69
511.375	1204.69
511.83	1212.69
512.285	1276.69
512.74	1257.69
513.195	1308.69
513.65	1296.69
514.105	1300.69
514.56	1324.69
515.015	1311.69
515.47	1331.69
515.925	1356.69
516.38	1335.69
516.835	1351.69
517.29	1318.69
517.745	1349.69
518.2	1305.69
518.655	1290.69
519.109	1269.69
519.564	1248.69
520.019	1247.69
520.474	1258.69
520.928	1244.69
521.383	1246.69
521.838	1233.69
522.292	1258.69
522.747	1203.69
523.201	1222.69
523.656	1232.69
524.11	1212.69
524.565	1205.69
525.019	1193.69
525.474	1194.69
525.928	1215.69
526.382	1183.69
526.837	1179.69
527.291	1204.69
527.745	1201.69
528.2	1174.69
528.654	1208.69
529.108	1193.69
529.562	1159.69
530.016	1191.69
530.47	1170.69
530.925	1191.69
531.379	1206.69
531.833	1202.69
532.287	1187.69
532.741	1161.69
533.195	1216.69
533.649	1154.69
534.103	1150.69
534.556	1210.69
535.01	1196.69
535.464	1199.69
535.918	1209.69
536.372	1184.69
536.826	1196.69
537.279	1180.69
537.733	1171.69
538.187	1163.69
538.64	1162.69
539.094	1204.69
539.548	1222.69
540.001	1170.69
540.455	1230.69
540.908	1218.69
541.362	1246.69
541.815	1224.69
542.269	1265.69
542.722	1276.69
543.175	1296.69
543.629	1291.69
544.082	1254.69
544.536	1287.69
544.989	1274.69
545.442	1313.69
545.895	1295.69
546.349	1321.69
546.802	1296.69
547.255	1316.69
547.708	1322.69
548.161	1298.69
548.614	1377.69
549.067	1330.69
549.52	1364.69
549.973	1299.69
550.426	1300.69
550.879	1324.69
551.332	1307.69
551.785	1320.69
552.238	1350.69
552.691	1333.69
553.144	1347.69
553.596	1344.69
554.049	1404.69
554.502	1420.69
554.955	1432.69
555.407	1454.69
555.86	1452.69
556.313	1440.69
556.765	1388.69
557.218	1362.69
557.67	1387.69
558.123	1376.69
558.576	1366.69
559.028	1382.69
559.48	1352.69
559.933	1398.69
560.385	1350.69
560.838	1340.69
561.29	1284.69
561.742	1256.69
562.195	1267.69
562.647	1246.69
563.099	1215.69
563.551	1217.69
564.004	1247.69
564.456	1234.69
564.908	1217.69
565.36	1164.69
565.812	1125.69
566.264	1162.69
566.716	1130.69
567.168	1137.69
567.62	1122.69
568.072	1098.69
568.524	1125.69
568.976	1082.69
569.428	1117.69
569.88	1086.69
570.332	1101.69
570.784	1082.69
571.235	1075.69
571.687	1084.69
572.139	1109.69
572.59	1129.69
573.042	1123.69
573.494	1094.69
573.945	1127.69
574.397	1111.69
574.849	1077.69
575.3	1079.69
575.752	1087.69
576.203	1058.69
576.655	1092.69
577.106	1067.69
577.557	1075.69
578.009	1043.69
578.46	1053.69
578.912	1059.69
579.363	1048.69
579.814	1043.69
580.265	1032.69
580.717	1046.69
581.168	1064.69
581.619	1069.69
582.07	1052.69
582.521	1022.69
582.972	1043.69
583.423	1040.69
583.875	1043.69
584.326	1065.69
584.777	1076.69
585.227	1112.69
585.678	1096.69
586.129	1104.69
586.58	1090.69
587.031	1124.69
587.482	1142.69
587.933	1164.69
588.384	1197.69
588.834	1204.69
589.285	1161.69
589.736	1144.69
590.186	1175.69
590.637	1168.69
591.088	1175.69
591.538	1128.69
591.989	1116.69
592.439	1080.69
592.89	1078.69
593.34	1081.69
593.791	1074.69
594.241	1052.69
594.692	1042.69
595.142	1059.69
595.593	1052.69
596.043	1054.69
596.493	1065.69
596.943	1077.69
597.394	1110.69
597.844	1109.69
598.294	1122.69
598.744	1158.69
599.195	1210.69
599.645	1256.69
600.095	1314.69
600.545	1353.69
600.995	1422.69
601.445	1486.69
601.895	1523.69
602.345	1610.69
602.795	1620.69
603.245	1566.69
603.695	1503.69
604.145	1382.69
604.594	1325.69
605.044	1289.69
605.494	1182.69
605.944	1120.69
606.393	1091.69
606.843	1083.69
607.293	1073.69
607.743	1094.69
608.192	1060.69
608.642	1101.69
609.091	1084.69
609.541	1072.69
609.99	1076.69
610.44	1112.69
610.889	1041.69
611.339	1026.69
611.788	1014.69
612.238	1041.69
612.687	1018.69
613.136	1021.69
613.586	1058.69
614.035	1064.69
614.484	1041.69
614.933	1059.69
615.383	1046.69
615.832	1000.69
616.281	1007.69
616.73	965.69
617.179	958.69
617.628	946.69
618.077	931.69
618.526	931.69
618.975	907.69
619.424	862.69
619.873	906.69
620.322	928.69
620.771	925.69
621.22	878.69
621.669	876.69
622.118	835.69
622.567	837.69
623.015	821.69
623.464	835.69
623.913	848.69
624.361	805.69
624.81	833.69
625.259	850.69
625.707	828.69
626.156	832.69
626.604	826.69
627.053	824.69
627.501	827.69
627.95	837.69
628.398	856.69
628.847	816.69
629.295	816.69
629.744	823.69
630.192	844.69
630.64	802.69
631.089	806.69
631.537	778.69
631.985	782.69
632.433	784.69
632.881	782.69
633.33	779.69
633.778	787.69
634.226	770.69
634.674	750.69
635.122	770.69
635.57	818.69
636.018	823.69
636.466	800.69
636.914	831.69
637.362	810.69
637.81	822.69
638.258	839.69
638.705	850.69
639.153	873.69
639.601	922.69
640.049	884.69
640.497	932.69
640.944	933.69
641.392	900.69
641.84	875.69
642.287	836.69
642.735	821.69
643.182	814.69
643.63	811.69
644.078	835.69
644.525	840.69
644.973	866.69
645.42	868.69
645.867	899.69
646.315	892.69
646.762	958.69
647.21	962.69
647.657	1010.69
648.104	1024.69
648.551	1044.69
648.999	1115.69
649.446	1200.69
649.893	1327.69
650.34	1516.69
650.787	1791.69
651.234	2176.69
651.682	2935.69
652.129	4029.69
652.576	5711.69
653.023	7860.69
653.47	9737.69
653.917	10708.69
654.363	11423.69
654.81	12122.69
655.257	12628.69
655.704	9590.69
656.151	5865.69
656.598	3770.69
657.044	2654.69
657.491	2084.69
657.938	1658.69
658.385	1444.69
658.831	1285.69
659.278	1161.69
659.724	1058.69
660.171	1002.69
660.618	941.69
661.064	849.69
661.511	851.69
661.957	824.69
662.404	812.69
662.85	817.69
663.296	791.69
663.743	759.69
664.189	764.69
664.635	759.69
665.082	728.69
665.528	716.69
665.974	728.69
666.42	688.69
666.867	712.69
667.313	680.69
667.759	655.69
668.205	673.69
668.651	648.69
669.097	644.69
669.543	664.69
669.989	632.69
670.435	653.69
670.881	647.69
671.327	672.69
671.773	711.69
672.219	766.69
672.665	848.69
673.11	849.69
673.556	866.69
674.002	868.69
674.448	907.69
674.893	804.69
675.339	708.69
675.785	638.69
676.23	605.69
676.676	600.69
677.122	582.69
677.567	567.69
678.013	538.69
678.458	543.69
678.904	583.69
679.349	538.69
679.794	544.69
680.24	537.69
680.685	538.69
681.131	534.69
681.576	510.69
682.021	533.69
682.466	551.69
682.912	560.69
683.357	561.69
683.802	583.69
684.247	634.69
684.692	682.69
685.137	708.69
685.583	752.69
686.028	758.69
686.473	738.69
686.918	652.69
687.363	608.69
687.807	570.69
688.252	559.69
688.697	519.69
689.142	494.69
689.587	516.69
690.032	532.69
690.477	561.69
690.921	552.69
691.366	578.69
691.811	611.69
692.255	634.69
692.7	742.69
693.145	914.69
693.589	1365.69
694.034	1851.69
694.478	2004.69
694.923	1816.69
695.367	2241.69
695.812	2085.69
696.256	884.69
696.701	599.69
697.145	547.69
697.59	520.69
698.034	503.69
698.478	499.69
698.922	483.69
699.367	483.69
699.811	524.69
700.255	539.69
700.699	584.69
701.143	629.69
701.588	676.69
702.032	710.69
702.476	719.69
702.92	736.69
703.364	856.69
703.808	1202.69
704.252	1686.69
704.696	1855.69
705.14	1786.69
705.584	2246.69
706.027	1865.69
706.471	900.69
706.915	620.69
707.359	562.69
707.803	503.69
708.246	482.69
708.69	482.69
709.134	485.69
709.577	474.69
710.021	468.69
710.465	441.69
710.908	466.69
711.352	486.69
711.795	518.69
712.239	547.69
712.682	568.69
713.126	573.69
713.569	614.69
714.012	565.69
714.456	479.69
714.899	472.69
715.342	452.69
715.786	430.69
716.229	412.69
716.672	399.69
717.115	412.69
717.558	409.69
718.002	412.69
718.445	419.69
718.888	448.69
719.331	459.69
719.774	463.69
720.217	453.69
720.66	446.69
721.103	424.69
721.546	418.69
721.989	393.69
722.432	399.69
722.874	379.69
723.317	370.69
723.76	371.69
724.203	437.69
724.645	547.69
725.088	710.69
725.531	704.69
725.974	715.69
726.416	779.69
726.859	510.69
727.301	435.69
727.744	369.69
728.187	371.69
728.629	389.69
729.071	393.69
729.514	404.69
729.956	454.69
730.399	455.69
730.841	467.69
731.283	446.69
731.726	423.69
732.168	445.69
732.61	443.69
733.053	460.69
733.495	509.69
733.937	533.69
734.379	606.69
734.821	711.69
735.263	1004.69
735.705	1654.69
736.148	2700.69
736.59	3090.69
737.032	2944.69
737.474	3224.69
737.916	1574.69
738.357	763.69
738.799	532.69
739.241	486.69
739.683	461.69
740.125	484.69
740.567	474.69
741.008	488.69
741.45	542.69
741.892	538.69
742.334	567.69
742.775	555.69
743.217	571.69
743.658	504.69
744.1	480.69
744.542	499.69
744.983	562.69
745.425	572.69
745.866	593.69
746.307	484.69
746.749	488.69
747.19	598.69
747.632	969.69
748.073	1813.69
748.514	2810.69
748.956	3490.69
749.397	4698.69
749.838	3785.69
750.279	3153.69
750.72	2340.69
751.162	1069.69
751.603	607.69
752.044	426.69
752.485	384.69
752.926	352.69
753.367	332.69
753.808	319.69
754.249	321.69
754.69	330.69
755.131	345.69
755.572	333.69
756.013	325.69
756.453	334.69
756.894	330.69
757.335	325.69
757.776	327.69
758.216	309.69
758.657	339.69
759.098	357.69
759.538	414.69
759.979	519.69
760.42	819.69
760.86	1785.69
761.301	4192.69
761.741	6144.69
762.182	6354.69
762.622	6052.69
763.063	2738.69
763.503	1085.69
763.943	594.69
764.384	471.69
764.824	400.69
765.264	370.69
765.705	352.69
766.145	308.69
766.585	319.69
767.025	296.69
767.465	323.69
767.906	322.69
768.346	339.69
768.786	352.69
769.226	437.69
769.666	669.69
770.106	1408.69
770.546	2452.69
770.986	2678.69
771.426	2629.69
771.866	1492.69
772.306	649.69
772.745	408.69
773.185	311.69
773.625	289.69
774.065	318.69
774.505	331.69
774.944	542.69
775.384	847.69
775.824	986.69
776.263	946.69
776.703	679.69
777.142	431.69
777.582	297.69
778.021	262.69
778.461	237.69
778.9	250.69
779.34	240.69
779.779	240.69
780.219	239.69
780.658	231.69
781.097	228.69
781.537	226.69
781.976	253.69
782.415	236.69
782.855	221.69
783.294	200.69
783.733	218.69
784.172	217.69
784.611	231.69
785.05	223.69
785.489	217.69
785.928	223.69
786.367	226.69
786.806	262.69
787.245	248.69
787.684	278.69
788.123	270.69
788.562	286.69
789.001	270.69
789.44	250.69
789.879	245.69
790.317	238.69
790.756	243.69
791.195	266.69
791.634	315.69
792.072	420.69
792.511	859.69
792.95	1844.69
793.388	2370.69
793.827	2129.69
794.265	1216.69
794.704	590.69
795.142	347.69
795.581	274.69
796.019	269.69
796.458	241.69
796.896	262.69
797.334	299.69
797.773	328.69
798.211	489.69
798.649	920.69
799.087	1526.69
799.526	2313.69
799.964	2572.69
800.402	2197.69
800.84	1260.69
801.278	663.69
801.716	388.69
802.154	304.69
802.592	287.69
803.03	277.69
803.468	283.69
803.906	296.69
804.344	293.69
804.782	276.69
805.22	294.69
805.658	277.69
806.096	285.69
806.533	284.69
806.971	360.69
807.409	424.69
807.847	719.69
808.284	1491.69
808.722	2978.69
809.16	4260.69
809.597	5907.69
810.035	7538.69
810.472	6415.69
810.91	3542.69
811.347	1737.69
811.785	800.69
812.222	488.69
812.66	369.69
813.097	294.69
813.535	282.69
813.972	268.69
814.409	281.69
814.846	250.69
815.284	231.69
815.721	219.69
816.158	247.69
816.595	253.69
817.032	336.69
817.47	336.69
817.907	322.69
818.344	255.69
818.781	248.69
819.218	247.69
819.655	342.69
820.092	420.69
820.529	456.69
820.966	392.69
821.403	306.69
821.839	264.69
822.276	265.69
822.713	269.69
823.15	307.69
823.587	278.69
824.023	384.69
824.46	711.69
824.897	1370.69
825.333	1422.69
825.77	869.69
826.206	497.69
826.643	296.69
827.08	245.69
827.516	191.69
827.953	186.69
828.389	177.69
828.825	173.69
829.262	172.69
829.698	174.69
830.135	171.69
830.571	143.69
831.007	173.69
831.443	170.69
831.88	162.69
832.316	170.69
832.752	170.69
833.188	165.69
833.624	171.69
834.06	176.69
834.497	188.69
834.933	179.69
835.369	167.69
835.805	180.69
836.241	189.69
836.677	210.69
837.112	199.69
837.548	241.69
837.984	296.69
838.42	477.69
838.856	1111.69
839.292	2379.69
839.727	2574.69
840.163	1721.69
840.599	2014.69
841.034	2940.69
841.47	2291.69
841.906	1304.69
842.341	754.69
842.777	445.69
843.212	408.69
843.648	344.69
844.083	279.69
844.519	226.69
844.954	181.69
845.39	159.69
845.825	156.69
846.261	167.69
846.696	158.69
847.131	150.69
847.566	152.69
848.002	163.69
848.437	159.69
848.872	178.69
849.307	173.69
849.742	246.69
850.177	460.69
850.613	909.69
851.048	1016.69
851.483	589.69
851.918	374.69
852.353	231.69
852.788	198.69
853.223	166.69
853.657	162.69
854.092	164.69
854.527	141.69
854.962	157.69
855.397	167.69
855.832	149.69
856.266	136.69
856.701	141.69
857.136	136.69
857.57	143.69
858.005	178.69
858.44	162.69
858.874	157.69
859.309	152.69
859.743	163.69
860.178	154.69
860.612	147.69
861.047	162.69
861.481	236.69
861.915	182.69
862.35	156.69
862.784	143.69
863.218	125.69
863.653	146.69
864.087	149.69
864.521	150.69
864.955	178.69
865.39	300.69
865.824	281.69
866.258	319.69
866.692	411.69
867.126	398.69
867.56	289.69
867.994	205.69
868.428	169.69
868.862	166.69
869.296	179.69
869.73	182.69
870.164	181.69
870.598	157.69
871.031	166.69
871.465	152.69
871.899	125.69
872.333	120.69
872.766	116.69
873.2	152.69
873.634	139.69
874.067	126.69
874.501	132.69
874.935	136.69
875.368	111.69
875.802	126.69
876.235	126.69
876.669	114.69
877.102	136.69
877.535	113.69
877.969	131.69
878.402	106.69
878.836	111.69
879.269	109.69
879.702	104.69
880.135	100.69
880.569	109.69
881.002	104.69
881.435	112.69
881.868	125.69
882.301	113.69
882.734	100.69
883.167	116.69
883.601	104.69
884.034	112.69
884.467	100.69
884.899	101.69
885.332	100.69
885.765	108.69
886.198	114.69
886.631	97.69
887.064	102.69
887.497	102.69
887.929	119.69
888.362	117.69
888.795	124.69
889.228	113.69
889.66	103.69
890.093	108.69
890.526	102.69
890.958	124.69
891.391	108.69
891.823	116.69
892.256	120.69
892.688	116.69
893.121	103.69
893.553	99.69
893.985	107.69
894.418	96.69
894.85	114.69
895.282	96.69
895.715	101.69
896.147	96.69
896.579	102.69
897.011	98.69
897.444	96.69
897.876	110.69
898.308	112.69
898.74	87.69
899.172	115.69
899.604	107.69
900.036	105.69
900.468	108.69
900.9	120.69
901.332	105.69
901.764	101.69
902.196	114.69
902.628	103.69
903.06	116.69
903.491	127.69
903.923	122.69
904.355	128.69
904.787	118.69
905.218	127.69
905.65	127.69
906.082	108.69
906.513	131.69
906.945	100.69
907.376	110.69
907.808	107.69
908.239	113.69
908.671	122.69
909.102	124.69
909.534	121.69
909.965	169.69
910.397	244.69
910.828	578.69
911.259	573.69
911.691	421.69
912.122	298.69
912.553	179.69
912.984	130.69
913.415	120.69
913.847	117.69
914.278	123.69
914.709	124.69
915.14	125.69
915.571	119.69
916.002	113.69
916.433	106.69
916.864	119.69
917.295	125.69
917.726	108.69
918.157	117.69
918.587	131.69
919.018	110.69
919.449	104.69
919.88	120.69
920.311	117.69
920.741	170.69
921.172	316.69
921.603	232.69
922.033	182.69
922.464	151.69
922.895	126.69
923.325	98.69
923.756	111.69
924.186	86.69
924.617	121.69
925.047	140.69
925.478	141.69
925.908	126.69
926.338	112.69
926.769	112.69
927.199	109.69
927.629	120.69
928.06	92.69
928.49	102.69
928.92	109.69
929.35	103.69
929.78	106.69
930.21	106.69
930.641	89.69
931.071	90.69
931.501	100.69
931.931	94.69
932.361	106.69
932.791	87.69
933.221	102.69
933.651	94.69
934.08	119.69
934.51	109.69
934.94	82.69
935.37	96.69
935.8	88.69
936.229	92.69
936.659	106.69
937.089	86.69
937.519	114.69
937.948	118.69
938.378	95.69
938.807	92.69
939.237	86.69
939.666	88.69
940.096	92.69
940.525	88.69
940.955	90.69
941.384	96.69
941.814	90.69
942.243	69.69
942.672	80.69
943.102	93.69
943.531	85.69
943.96	97.69
944.39	79.69
944.819	91.69
945.248	109.69
945.677	72.69
946.106	97.69
946.535	86.69
946.964	85.69
947.393	108.69
947.822	91.69
948.251	95.69
948.68	87.69
949.109	108.69
949.538	91.69
949.967	96.69
950.396	93.69
950.825	86.69
951.254	94.69
951.682	97.69
952.111	90.69
952.54	92.69
952.969	89.69
953.397	86.69
953.826	82.69
954.254	74.69
954.683	93.69
955.112	86.69
955.54	92.69
955.969	97.69
956.397	87.69
956.826	77.69
957.254	81.69
957.682	97.69
958.111	82.69
958.539	93.69
958.967	95.69
959.396	75.69
959.824	82.69
960.252	91.69
960.68	77.69
961.109	101.69
961.537	76.69
961.965	85.69
962.393	92.69
962.821	90.69
963.249	95.69
963.677	96.69
964.105	102.69
964.533	149.69
964.961	112.69
965.389	116.69
965.817	110.69
966.245	116.69
966.672	105.69
967.1	100.69
967.528	94.69
967.956	97.69
968.383	91.69
968.811	81.69
969.239	78.69
969.666	88.69
970.094	103.69
970.522	91.69
970.949	71.69
971.377	74.69
971.804	88.69
972.232	82.69
972.659	96.69
973.087	88.69
973.514	97.69
973.941	88.69
974.369	107.69
974.796	83.69
975.223	78.69
975.651	103.69
976.078	92.69
976.505	81.69
976.932	75.69
977.359	112.69
977.786	100.69
978.214	93.69
978.641	92.69
979.068	92.69
979.495	92.69
979.922	89.69
980.349	92.69
980.776	90.69
981.202	79.69
981.629	83.69
982.056	96.69
982.483	98.69
982.91	78.69
983.337	93.69
983.763	94.69
984.19	87.69
984.617	96.69
985.043	88.69
985.47	90.69
985.897	85.69
986.323	92.69
986.75	73.69
987.176	77.69
987.603	69.69
988.029	72.69
988.456	86.69
988.882	64.69
989.308	77.69
989.735	92.69
990.161	93.69
990.587	91.69
991.014	83.69
991.44	72.69
991.866	77.69
992.292	86.69
992.719	75.69
993.145	92.69
993.571	88.69
993.997	69.69
994.423	77.69
994.849	81.69
995.275	87.69
995.701	84.69
996.127	77.69
996.553	76.69
996.979	66.69
997.405	89.69
997.83	78.69
998.256	95.69
998.682	81.69
999.108	94.69
999.534	80.69
999.959	87.69
1000.385	80.69
1000.811	94.69
1001.236	78.69
1001.662	95.69
1002.087	98.69
1002.513	92.69
1002.938	78.69
1003.364	62.69
1003.789	87.69
1004.215	84.69
1004.64	78.69
1005.066	88.69
1005.491	68.69
1005.916	78.69
1006.342	87.69
1006.767	79.69
1007.192	86.69
1007.617	82.69
1008.042	86.69
1008.468	88.69
1008.893	106.69
1009.318	72.69
1009.743	88.69
1010.168	92.69
1010.593	91.69
1011.018	88.69
1011.443	81.69
1011.868	80.69
1012.293	61.69
1012.718	84.69
1013.143	88.69
1013.567	78.69
1013.992	84.69
1014.417	91.69
1014.842	73.69
1015.267	76.69
1015.691	88.69
1016.116	69.69
1016.541	70.69
1016.965	73.69
1017.39	79.69
1017.814	89.69
1018.239	101.69
1018.663	84.69
1019.088	85.69
1019.512	69.69
1019.937	86.69
1020.361	79.69
1020.785	78.69
1021.21	72.69
1021.634	86.69
1022.058	80.69
1022.483	90.69
1022.907	86.69
1023.331	82.69
1023.755	71.69
1024.179	77.69
1024.604	92.69
1025.028	69.69
1025.452	82.69
1025.876	75.69
1026.3	79.69
1026.724	82.69
1027.148	89.69
1027.572	100.69
1027.996	98.69
1028.42	90.69
1028.843	85.69
1029.267	68.69
1029.691	87.69
1030.115	83.69
1030.539	82.69
1030.962	70.69
1031.386	82.69
1031.81	83.69
1032.233	84.69
1032.657	88.69
1033.08	79.69
1033.504	86.69
1033.927	78.69
1034.351	76.69
1034.774	75.69
1035.198	85.69
1035.621	70.69
1036.045	86.69
1036.468	73.69
1036.891	80.69
1037.315	92.69
1037.738	82.69
1038.161	87.69
1038.584	76.69
1039.008	96.69
1039.431	66.69
1039.854	79.69
1040.277	83.69
1040.7	72.69
1041.123	82.69
1041.546	93.69
1041.969	82.69
1042.392	64.69
1042.815	88.69
1043.238	74.69
1043.661	84.69
1044.084	76.69
1044.507	74.69
1044.93	89.69
1045.352	80.69
1045.775	70.69
1046.198	86.69
1046.621	75.69
1047.043	97.69
1047.466	88.69
1047.889	87.69
1048.311	76.69
1048.734	81.69
1049.156	79.69
1049.579	84.69
1050.001	88.69
1050.424	85.69
1050.846	79.69
1051.269	90.69
1051.691	87.69
1052.113	89.69
1052.536	86.69
1052.958	87.69
1053.38	65.69
1053.802	86.69
1054.225	82.69
1054.647	90.69
1055.069	84.69
1055.491	75.69
1055.913	79.69
1056.335	81.69
1056.757	78.69
1057.179	79.69
1057.601	73.69
1058.023	72.69
1058.445	94.69
1058.867	79.69
1059.289	70.69
1059.711	78.69
1060.133	88.69
1060.555	71.69
1060.976	85.69
1061.398	104.69
1061.82	97.69
1062.241	73.69
1062.663	77.69
1063.085	94.69
1063.506	78.69
1063.928	72.69
1064.35	77.69
1064.771	90.69
1065.193	66.69
1065.614	70.69
1066.035	89.69
1066.457	88.69
1066.878	77.69
1067.3	84.69
1067.721	79.69
1068.142	75.69
1068.564	74.69
1068.985	88.69
1069.406	72.69
1069.827	78.69
1070.248	90.69
1070.67	86.69
1071.091	88.69
1071.512	71.69
1071.933	79.69
1072.354	72.69
1072.775	99.69
1073.196	62.69
1073.617	84.69
1074.038	76.69
1074.459	85.69
1074.88	80.69
1075.3	74.69
1075.721	80.69
1076.142	76.69
1076.563	95.69
1076.983	86.69
1077.404	77.69
1077.825	76.69
1078.246	84.69
1078.666	89.69
1079.087	78.69
1079.507	94.69
1079.928	76.69
1080.348	72.69
1080.769	80.69
1081.189	76.69
1081.61	76.69
1082.03	71.69
1082.451	76.69
1082.871	93.69
1083.291	86.69
1083.711	83.69
1084.132	77.69
1084.552	63.69
1084.972	82.69
1085.392	73.69
1085.813	85.69
1086.233	83.69
1086.653	83.69
1087.073	72.69
1087.493	88.69
1087.913	63.69
1088.333	98.69
1088.753	94.69
1089.173	85.69
1089.593	89.69
1090.013	92.69
1090.433	79.69
1090.852	90.69
1091.272	86.69
1091.692	74.69
1092.112	76.69
1092.531	74.69
1092.951	68.69
1093.371	94.69
1093.79	80.69
1094.21	86.69
1094.63	87.69
1095.049	91.69
1095.469	57.69
1095.888	74.69
1096.308	66.69
1096.727	76.69
1097.146	94.69
1097.566	77.69
1097.985	94.69
1098.405	82.69
1098.824	75.69
1099.243	76.69
1099.662	86.69
1100.082	62.69
1100.501	90.69
1100.92	78.69
1101.339	85.69
1101.758	72.69
