Data from 20170802-ORNL-NYSim-Air_HRD10391_10-36-32-608.txt Node
Date: Wed Aug 02 10:36:32 EDT 2017
User: Ender
Spectrometer: HR+D1039
Trigger mode: 0
Integration Time (sec): 3.750000E-3
Scans to average: 1
Electric dark correction enabled: true
Nonlinearity correction enabled: false
Boxcar width: 0
XAxis mode: Wavelengths
Number of Pixels in Spectrum: 2048
>>>>>Begin Spectral Data<<<<<
187.836	-2.75
188.309	-2.75
188.782	-2.75
189.255	1.25
189.728	10.25
190.201	-5.75
190.674	-9.75
191.147	3.25
191.619	-16.75
192.092	-8.75
192.565	-3.75
193.038	-4.75
193.511	4.25
193.984	-7.75
194.456	7.25
194.929	10.25
195.402	7.25
195.874	16.25
196.347	35.25
196.82	29.25
197.292	21.25
197.765	34.25
198.237	36.25
198.71	39.25
199.182	39.25
199.655	46.25
200.127	54.25
200.6	66.25
201.072	71.25
201.544	63.25
202.017	70.25
202.489	80.25
202.961	70.25
203.433	81.25
203.906	60.25
204.378	72.25
204.85	81.25
205.322	94.25
205.794	85.25
206.266	76.25
206.739	98.25
207.211	93.25
207.683	92.25
208.155	89.25
208.627	91.25
209.099	83.25
209.57	82.25
210.042	85.25
210.514	92.25
210.986	80.25
211.458	101.25
211.93	74.25
212.402	78.25
212.873	83.25
213.345	77.25
213.817	87.25
214.288	75.25
214.76	103.25
215.232	93.25
215.703	88.25
216.175	89.25
216.646	86.25
217.118	84.25
217.589	97.25
218.061	88.25
218.532	78.25
219.004	85.25
219.475	102.25
219.946	99.25
220.418	97.25
220.889	93.25
221.36	85.25
221.832	82.25
222.303	82.25
222.774	72.25
223.245	76.25
223.717	92.25
224.188	85.25
224.659	69.25
225.13	85.25
225.601	81.25
226.072	82.25
226.543	87.25
227.014	73.25
227.485	85.25
227.956	84.25
228.427	90.25
228.898	96.25
229.369	93.25
229.839	111.25
230.31	88.25
230.781	89.25
231.252	96.25
231.722	80.25
232.193	78.25
232.664	93.25
233.135	96.25
233.605	100.25
234.076	101.25
234.546	76.25
235.017	87.25
235.487	98.25
235.958	95.25
236.428	89.25
236.899	99.25
237.369	110.25
237.84	119.25
238.31	119.25
238.78	111.25
239.251	101.25
239.721	86.25
240.191	96.25
240.662	88.25
241.132	81.25
241.602	103.25
242.072	111.25
242.542	114.25
243.013	104.25
243.483	108.25
243.953	106.25
244.423	105.25
244.893	117.25
245.363	123.25
245.833	124.25
246.303	96.25
246.773	121.25
247.243	112.25
247.712	148.25
248.182	130.25
248.652	123.25
249.122	111.25
249.592	101.25
250.061	134.25
250.531	105.25
251.001	115.25
251.471	95.25
251.94	91.25
252.41	131.25
252.879	112.25
253.349	126.25
253.818	93.25
254.288	116.25
254.757	123.25
255.227	112.25
255.696	127.25
256.166	121.25
256.635	119.25
257.105	123.25
257.574	127.25
258.043	129.25
258.513	112.25
258.982	119.25
259.451	133.25
259.92	131.25
260.389	129.25
260.859	123.25
261.328	122.25
261.797	121.25
262.266	113.25
262.735	109.25
263.204	113.25
263.673	126.25
264.142	126.25
264.611	138.25
265.08	141.25
265.549	152.25
266.018	136.25
266.487	130.25
266.955	117.25
267.424	125.25
267.893	129.25
268.362	143.25
268.83	149.25
269.299	141.25
269.768	140.25
270.236	143.25
270.705	143.25
271.174	137.25
271.642	151.25
272.111	139.25
272.579	147.25
273.048	112.25
273.516	129.25
273.985	136.25
274.453	138.25
274.922	145.25
275.39	142.25
275.858	153.25
276.327	144.25
276.795	163.25
277.263	156.25
277.731	149.25
278.2	145.25
278.668	128.25
279.136	139.25
279.604	145.25
280.072	140.25
280.54	149.25
281.008	146.25
281.477	140.25
281.945	131.25
282.413	175.25
282.881	132.25
283.348	131.25
283.816	156.25
284.284	156.25
284.752	147.25
285.22	150.25
285.688	151.25
286.156	135.25
286.623	160.25
287.091	143.25
287.559	171.25
288.026	173.25
288.494	157.25
288.962	160.25
289.429	149.25
289.897	174.25
290.364	153.25
290.832	139.25
291.3	154.25
291.767	167.25
292.234	175.25
292.702	187.25
293.169	173.25
293.637	177.25
294.104	163.25
294.571	166.25
295.039	167.25
295.506	182.25
295.973	161.25
296.44	194.25
296.908	163.25
297.375	178.25
297.842	160.25
298.309	157.25
298.776	175.25
299.243	178.25
299.71	179.25
300.177	183.25
300.644	174.25
301.111	172.25
301.578	178.25
302.045	199.25
302.512	175.25
302.979	183.25
303.446	184.25
303.913	199.25
304.379	174.25
304.846	172.25
305.313	179.25
305.78	188.25
306.246	197.25
306.713	209.25
307.18	196.25
307.646	189.25
308.113	205.25
308.579	204.25
309.046	199.25
309.512	193.25
309.979	200.25
310.445	218.25
310.912	227.25
311.378	210.25
311.845	197.25
312.311	221.25
312.777	200.25
313.244	218.25
313.71	209.25
314.176	231.25
314.642	235.25
315.109	258.25
315.575	231.25
316.041	203.25
316.507	247.25
316.973	241.25
317.439	241.25
317.905	236.25
318.371	229.25
318.837	249.25
319.303	233.25
319.769	239.25
320.235	239.25
320.701	247.25
321.167	219.25
321.633	249.25
322.099	253.25
322.564	255.25
323.03	242.25
323.496	251.25
323.962	231.25
324.427	217.25
324.893	238.25
325.359	239.25
325.824	239.25
326.29	247.25
326.755	245.25
327.221	261.25
327.686	247.25
328.152	267.25
328.617	275.25
329.083	291.25
329.548	265.25
330.014	272.25
330.479	269.25
330.944	275.25
331.41	290.25
331.875	264.25
332.34	287.25
332.805	301.25
333.271	302.25
333.736	273.25
334.201	287.25
334.666	281.25
335.131	289.25
335.596	285.25
336.061	298.25
336.526	298.25
336.991	285.25
337.456	281.25
337.921	284.25
338.386	290.25
338.851	287.25
339.316	290.25
339.781	282.25
340.246	287.25
340.711	282.25
341.175	307.25
341.64	295.25
342.105	300.25
342.569	291.25
343.034	335.25
343.499	318.25
343.963	301.25
344.428	315.25
344.893	327.25
345.357	329.25
345.822	313.25
346.286	343.25
346.751	335.25
347.215	331.25
347.679	341.25
348.144	352.25
348.608	336.25
349.073	355.25
349.537	372.25
350.001	363.25
350.465	358.25
350.93	394.25
351.394	389.25
351.858	379.25
352.322	382.25
352.786	383.25
353.25	375.25
353.715	377.25
354.179	409.25
354.643	400.25
355.107	425.25
355.571	397.25
356.035	412.25
356.498	389.25
356.962	393.25
357.426	399.25
357.89	410.25
358.354	407.25
358.818	397.25
359.281	381.25
359.745	391.25
360.209	403.25
360.673	407.25
361.136	400.25
361.6	401.25
362.064	391.25
362.527	418.25
362.991	411.25
363.454	415.25
363.918	419.25
364.381	421.25
364.845	416.25
365.308	422.25
365.772	419.25
366.235	437.25
366.698	420.25
367.162	417.25
367.625	440.25
368.088	429.25
368.552	433.25
369.015	434.25
369.478	440.25
369.941	446.25
370.404	465.25
370.867	449.25
371.331	457.25
371.794	447.25
372.257	457.25
372.72	454.25
373.183	460.25
373.646	458.25
374.109	462.25
374.572	472.25
375.035	474.25
375.497	496.25
375.96	472.25
376.423	498.25
376.886	474.25
377.349	481.25
377.811	496.25
378.274	494.25
378.737	468.25
379.199	518.25
379.662	513.25
380.125	521.25
380.587	526.25
381.05	550.25
381.512	556.25
381.975	536.25
382.437	557.25
382.9	552.25
383.362	556.25
383.825	544.25
384.287	561.25
384.75	571.25
385.212	539.25
385.674	558.25
386.136	565.25
386.599	580.25
387.061	540.25
387.523	598.25
387.985	592.25
388.447	599.25
388.91	597.25
389.372	565.25
389.834	571.25
390.296	589.25
390.758	596.25
391.22	587.25
391.682	546.25
392.144	606.25
392.606	612.25
393.068	590.25
393.529	617.25
393.991	641.25
394.453	624.25
394.915	606.25
395.377	621.25
395.838	612.25
396.3	583.25
396.762	618.25
397.224	607.25
397.685	592.25
398.147	590.25
398.608	652.25
399.07	630.25
399.531	668.25
399.993	663.25
400.454	675.25
400.916	645.25
401.377	673.25
401.839	679.25
402.3	692.25
402.762	689.25
403.223	766.25
403.684	769.25
404.145	722.25
404.607	685.25
405.068	678.25
405.529	694.25
405.99	719.25
406.451	712.25
406.913	687.25
407.374	695.25
407.835	719.25
408.296	713.25
408.757	727.25
409.218	739.25
409.679	704.25
410.14	766.25
410.601	773.25
411.062	765.25
411.522	798.25
411.983	777.25
412.444	801.25
412.905	830.25
413.366	849.25
413.826	913.25
414.287	1012.25
414.748	1151.25
415.208	1190.25
415.669	1025.25
416.13	926.25
416.59	945.25
417.051	963.25
417.511	993.25
417.972	1069.25
418.432	1131.25
418.893	1266.25
419.353	1178.25
419.814	935.25
420.274	867.25
420.734	864.25
421.195	885.25
421.655	849.25
422.115	895.25
422.576	888.25
423.036	866.25
423.496	904.25
423.956	939.25
424.416	973.25
424.876	1116.25
425.336	1109.25
425.797	1063.25
426.257	1023.25
426.717	988.25
427.177	883.25
427.637	875.25
428.097	911.25
428.556	961.25
429.016	1013.25
429.476	973.25
429.936	918.25
430.396	923.25
430.856	933.25
431.315	950.25
431.775	1035.25
432.235	1132.25
432.694	1097.25
433.154	1006.25
433.614	1043.25
434.073	999.25
434.533	962.25
434.993	933.25
435.452	945.25
435.912	921.25
436.371	907.25
436.83	933.25
437.29	956.25
437.749	926.25
438.209	931.25
438.668	961.25
439.127	957.25
439.587	960.25
440.046	962.25
440.505	956.25
440.964	1017.25
441.424	1009.25
441.883	1042.25
442.342	1007.25
442.801	967.25
443.26	966.25
443.719	957.25
444.178	949.25
444.637	1003.25
445.096	969.25
445.555	980.25
446.014	998.25
446.473	973.25
446.932	987.25
447.391	1021.25
447.849	1041.25
448.308	1025.25
448.767	1049.25
449.226	1038.25
449.685	1033.25
450.143	1076.25
450.602	1049.25
451.061	1029.25
451.519	1035.25
451.978	1033.25
452.436	998.25
452.895	1006.25
453.353	1010.25
453.812	994.25
454.27	1006.25
454.729	1006.25
455.187	1032.25
455.646	1013.25
456.104	1027.25
456.562	1046.25
457.021	1039.25
457.479	1034.25
457.937	1076.25
458.395	1099.25
458.854	1042.25
459.312	1060.25
459.77	1071.25
460.228	1070.25
460.686	1079.25
461.144	1068.25
461.602	1085.25
462.06	1091.25
462.518	1090.25
462.976	1112.25
463.434	1133.25
463.892	1131.25
464.35	1131.25
464.808	1177.25
465.266	1189.25
465.724	1176.25
466.181	1184.25
466.639	1201.25
467.097	1230.25
467.555	1284.25
468.012	1253.25
468.47	1290.25
468.928	1323.25
469.385	1344.25
469.843	1325.25
470.3	1360.25
470.758	1367.25
471.215	1411.25
471.673	1454.25
472.13	1434.25
472.588	1469.25
473.045	1488.25
473.503	1465.25
473.96	1487.25
474.417	1564.25
474.875	1566.25
475.332	1639.25
475.789	1677.25
476.246	1673.25
476.704	1709.25
477.161	1737.25
477.618	1712.25
478.075	1760.25
478.532	1816.25
478.989	1887.25
479.446	2032.25
479.903	1993.25
480.36	2052.25
480.817	2050.25
481.274	2113.25
481.731	2188.25
482.188	2263.25
482.645	2395.25
483.102	2384.25
483.558	2459.25
484.015	2525.25
484.472	2510.25
484.929	2510.25
485.385	2494.25
485.842	2427.25
486.299	2440.25
486.755	2423.25
487.212	2350.25
487.668	2330.25
488.125	2272.25
488.582	2193.25
489.038	2199.25
489.494	2249.25
489.951	2228.25
490.407	2242.25
490.864	2229.25
491.32	2177.25
491.776	2223.25
492.233	2273.25
492.689	2225.25
493.145	2212.25
493.602	2215.25
494.058	2288.25
494.514	2295.25
494.97	2283.25
495.426	2314.25
495.882	2379.25
496.338	2334.25
496.794	2357.25
497.251	2363.25
497.707	2399.25
498.163	2397.25
498.618	2409.25
499.074	2397.25
499.53	2445.25
499.986	2520.25
500.442	2428.25
500.898	2439.25
501.354	2444.25
501.809	2399.25
502.265	2481.25
502.721	2435.25
503.177	2443.25
503.632	2502.25
504.088	2495.25
504.543	2482.25
504.999	2553.25
505.455	2537.25
505.91	2479.25
506.366	2527.25
506.821	2544.25
507.277	2522.25
507.732	2549.25
508.187	2562.25
508.643	2587.25
509.098	2547.25
509.553	2592.25
510.009	2598.25
510.464	2681.25
510.919	2686.25
511.375	2711.25
511.83	2718.25
512.285	2805.25
512.74	2859.25
513.195	2884.25
513.65	2916.25
514.105	2989.25
514.56	2975.25
515.015	3053.25
515.47	3062.25
515.925	3045.25
516.38	3029.25
516.835	3035.25
517.29	3028.25
517.745	2999.25
518.2	2994.25
518.655	2911.25
519.109	2898.25
519.564	2839.25
520.019	2855.25
520.474	2838.25
520.928	2816.25
521.383	2827.25
521.838	2755.25
522.292	2732.25
522.747	2758.25
523.201	2737.25
523.656	2755.25
524.11	2695.25
524.565	2648.25
525.019	2705.25
525.474	2706.25
525.928	2654.25
526.382	2713.25
526.837	2708.25
527.291	2700.25
527.745	2691.25
528.2	2698.25
528.654	2652.25
529.108	2630.25
529.562	2687.25
530.016	2669.25
530.47	2654.25
530.925	2642.25
531.379	2681.25
531.833	2747.25
532.287	2717.25
532.741	2631.25
533.195	2669.25
533.649	2658.25
534.103	2717.25
534.556	2681.25
535.01	2703.25
535.464	2737.25
535.918	2693.25
536.372	2648.25
536.826	2661.25
537.279	2651.25
537.733	2679.25
538.187	2694.25
538.64	2638.25
539.094	2698.25
539.548	2707.25
540.001	2714.25
540.455	2749.25
540.908	2707.25
541.362	2778.25
541.815	2782.25
542.269	2905.25
542.722	2882.25
543.175	2894.25
543.629	2901.25
544.082	2912.25
544.536	2980.25
544.989	2930.25
545.442	2963.25
545.895	2947.25
546.349	2999.25
546.802	3021.25
547.255	2993.25
547.708	3011.25
548.161	2984.25
548.614	3092.25
549.067	3091.25
549.52	3047.25
549.973	2995.25
550.426	3089.25
550.879	3009.25
551.332	2973.25
551.785	3043.25
552.238	3058.25
552.691	3058.25
553.144	3091.25
553.596	3115.25
554.049	3149.25
554.502	3252.25
554.955	3330.25
555.407	3344.25
555.86	3273.25
556.313	3351.25
556.765	3262.25
557.218	3268.25
557.67	3199.25
558.123	3183.25
558.576	3220.25
559.028	3206.25
559.48	3187.25
559.933	3170.25
560.385	3127.25
560.838	3013.25
561.29	2914.25
561.742	2901.25
562.195	2834.25
562.647	2773.25
563.099	2809.25
563.551	2783.25
564.004	2809.25
564.456	2742.25
564.908	2723.25
565.36	2715.25
565.812	2584.25
566.264	2596.25
566.716	2521.25
567.168	2469.25
567.62	2506.25
568.072	2558.25
568.524	2479.25
568.976	2509.25
569.428	2413.25
569.88	2397.25
570.332	2426.25
570.784	2465.25
571.235	2431.25
571.687	2430.25
572.139	2499.25
572.59	2528.25
573.042	2590.25
573.494	2552.25
573.945	2495.25
574.397	2472.25
574.849	2467.25
575.3	2411.25
575.752	2427.25
576.203	2408.25
576.655	2386.25
577.106	2316.25
577.557	2354.25
578.009	2351.25
578.46	2379.25
578.912	2329.25
579.363	2351.25
579.814	2321.25
580.265	2303.25
580.717	2330.25
581.168	2334.25
581.619	2335.25
582.07	2391.25
582.521	2341.25
582.972	2291.25
583.423	2364.25
583.875	2343.25
584.326	2420.25
584.777	2397.25
585.227	2450.25
585.678	2511.25
586.129	2495.25
586.58	2546.25
587.031	2512.25
587.482	2643.25
587.933	2663.25
588.384	2651.25
588.834	2649.25
589.285	2590.25
589.736	2627.25
590.186	2621.25
590.637	2617.25
591.088	2608.25
591.538	2496.25
591.989	2447.25
592.439	2408.25
592.89	2429.25
593.34	2365.25
593.791	2414.25
594.241	2340.25
594.692	2331.25
595.142	2359.25
595.593	2372.25
596.043	2370.25
596.493	2341.25
596.943	2378.25
597.394	2426.25
597.844	2480.25
598.294	2571.25
598.744	2601.25
599.195	2780.25
599.645	2897.25
600.095	3063.25
600.545	3127.25
600.995	3254.25
601.445	3420.25
601.895	3598.25
602.345	3693.25
602.795	3720.25
603.245	3585.25
603.695	3344.25
604.145	3189.25
604.594	3087.25
605.044	2931.25
605.494	2696.25
605.944	2567.25
606.393	2508.25
606.843	2469.25
607.293	2431.25
607.743	2411.25
608.192	2431.25
608.642	2422.25
609.091	2413.25
609.541	2443.25
609.99	2419.25
610.44	2353.25
610.889	2347.25
611.339	2377.25
611.788	2263.25
612.238	2332.25
612.687	2377.25
613.136	2361.25
613.586	2358.25
614.035	2394.25
614.484	2441.25
614.933	2437.25
615.383	2402.25
615.832	2350.25
616.281	2270.25
616.73	2215.25
617.179	2156.25
617.628	2129.25
618.077	2061.25
618.526	2040.25
618.975	2020.25
619.424	2007.25
619.873	2012.25
620.322	1980.25
620.771	2005.25
621.22	1933.25
621.669	1901.25
622.118	1891.25
622.567	1847.25
623.015	1853.25
623.464	1843.25
623.913	1787.25
624.361	1818.25
624.81	1821.25
625.259	1810.25
625.707	1828.25
626.156	1836.25
626.604	1844.25
627.053	1887.25
627.501	1827.25
627.95	1853.25
628.398	1883.25
628.847	1817.25
629.295	1774.25
629.744	1826.25
630.192	1809.25
630.64	1791.25
631.089	1729.25
631.537	1743.25
631.985	1656.25
632.433	1653.25
632.881	1676.25
633.33	1677.25
633.778	1637.25
634.226	1664.25
634.674	1673.25
635.122	1702.25
635.57	1721.25
636.018	1756.25
636.466	1729.25
636.914	1755.25
637.362	1778.25
637.81	1826.25
638.258	1844.25
638.705	1815.25
639.153	1904.25
639.601	1884.25
640.049	1941.25
640.497	1961.25
640.944	2033.25
641.392	1978.25
641.84	1879.25
642.287	1783.25
642.735	1713.25
643.182	1681.25
643.63	1690.25
644.078	1657.25
644.525	1736.25
644.973	1724.25
645.42	1765.25
645.867	1753.25
646.315	1726.25
646.762	1769.25
647.21	1782.25
647.657	1805.25
648.104	1810.25
648.551	1708.25
648.999	1734.25
649.446	1708.25
649.893	1711.25
650.34	1755.25
650.787	1836.25
651.234	1979.25
651.682	2191.25
652.129	2597.25
652.576	3162.25
653.023	3954.25
653.47	4624.25
653.917	4972.25
654.363	5183.25
654.81	5367.25
655.257	5683.25
655.704	4593.25
656.151	3137.25
656.598	2418.25
657.044	2034.25
657.491	1846.25
657.938	1751.25
658.385	1672.25
658.831	1576.25
659.278	1567.25
659.724	1553.25
660.171	1525.25
660.618	1492.25
661.064	1452.25
661.511	1459.25
661.957	1477.25
662.404	1500.25
662.85	1506.25
663.296	1515.25
663.743	1473.25
664.189	1550.25
664.635	1518.25
665.082	1525.25
665.528	1463.25
665.974	1417.25
666.42	1465.25
666.867	1408.25
667.313	1353.25
667.759	1317.25
668.205	1363.25
668.651	1340.25
669.097	1326.25
669.543	1376.25
669.989	1401.25
670.435	1378.25
670.881	1397.25
671.327	1449.25
671.773	1530.25
672.219	1615.25
672.665	1749.25
673.11	1855.25
673.556	1885.25
674.002	1927.25
674.448	1959.25
674.893	1759.25
675.339	1529.25
675.785	1357.25
676.23	1311.25
676.676	1299.25
677.122	1223.25
677.567	1201.25
678.013	1186.25
678.458	1143.25
678.904	1125.25
679.349	1117.25
679.794	1125.25
680.24	1118.25
680.685	1113.25
681.131	1115.25
681.576	1113.25
682.021	1097.25
682.466	1111.25
682.912	1125.25
683.357	1181.25
683.802	1239.25
684.247	1354.25
684.692	1463.25
685.137	1553.25
685.583	1586.25
686.028	1644.25
686.473	1642.25
686.918	1438.25
687.363	1288.25
687.807	1213.25
688.252	1127.25
688.697	1121.25
689.142	1120.25
689.587	1100.25
690.032	1115.25
690.477	1153.25
690.921	1176.25
691.366	1244.25
691.811	1286.25
692.255	1339.25
692.7	1551.25
693.145	2014.25
693.589	3126.25
694.034	4172.25
694.478	4605.25
694.923	4320.25
695.367	5339.25
695.812	4842.25
696.256	1970.25
696.701	1289.25
697.145	1129.25
697.59	1087.25
698.034	1076.25
698.478	1044.25
698.922	1056.25
699.367	1079.25
699.811	1110.25
700.255	1165.25
700.699	1311.25
701.143	1401.25
701.588	1467.25
702.032	1527.25
702.476	1616.25
702.92	1663.25
703.364	1895.25
703.808	2825.25
704.252	3861.25
704.696	4431.25
705.14	4151.25
705.584	5183.25
706.027	4162.25
706.471	1928.25
706.915	1327.25
707.359	1157.25
707.803	1079.25
708.246	1037.25
708.69	1003.25
709.134	1003.25
709.577	1007.25
710.021	1007.25
710.465	993.25
710.908	992.25
711.352	977.25
711.795	1067.25
712.239	1183.25
712.682	1215.25
713.126	1213.25
713.569	1318.25
714.012	1243.25
714.456	1059.25
714.899	951.25
715.342	909.25
715.786	882.25
716.229	865.25
716.672	847.25
717.115	823.25
717.558	857.25
718.002	836.25
718.445	885.25
718.888	930.25
719.331	967.25
719.774	955.25
720.217	923.25
720.66	963.25
721.103	900.25
721.546	842.25
721.989	811.25
722.432	796.25
722.874	784.25
723.317	806.25
723.76	854.25
724.203	934.25
724.645	1210.25
725.088	1547.25
725.531	1622.25
725.974	1573.25
726.416	1717.25
726.859	1090.25
727.301	871.25
727.744	781.25
728.187	764.25
728.629	795.25
729.071	824.25
729.514	853.25
729.956	872.25
730.399	917.25
730.841	938.25
731.283	930.25
731.726	879.25
732.168	878.25
732.61	916.25
733.053	966.25
733.495	1040.25
733.937	1183.25
734.379	1325.25
734.821	1558.25
735.263	2124.25
735.705	3862.25
736.148	6338.25
736.59	7340.25
737.032	6865.25
737.474	7445.25
737.916	3478.25
738.357	1639.25
738.799	1131.25
739.241	1062.25
739.683	989.25
740.125	1102.25
740.567	1108.25
741.008	1160.25
741.45	1267.25
741.892	1287.25
742.334	1369.25
742.775	1313.25
743.217	1383.25
743.658	1127.25
744.1	1061.25
744.542	1264.25
744.983	1481.25
745.425	1455.25
745.866	1579.25
746.307	1189.25
746.749	1102.25
747.19	1305.25
747.632	2153.25
748.073	4221.25
748.514	6741.25
748.956	8177.25
749.397	11079.25
749.838	8899.25
750.279	7289.25
750.72	5371.25
751.162	2286.25
751.603	1225.25
752.044	873.25
752.485	746.25
752.926	712.25
753.367	711.25
753.808	692.25
754.249	681.25
754.69	684.25
755.131	679.25
755.572	666.25
756.013	667.25
756.453	650.25
756.894	639.25
757.335	680.25
757.776	641.25
758.216	698.25
758.657	690.25
759.098	763.25
759.538	862.25
759.979	1100.25
760.42	1769.25
760.86	4098.25
761.301	9875.25
761.741	14385.25
762.182	14812.25
762.622	13852.25
763.063	6282.25
763.503	2356.25
763.943	1210.25
764.384	918.25
764.824	790.25
765.264	728.25
765.705	686.25
766.145	675.25
766.585	655.25
767.025	618.25
767.465	619.25
767.906	615.25
768.346	645.25
768.786	695.25
769.226	909.25
769.666	1461.25
770.106	3209.25
770.546	5884.25
770.986	6283.25
771.426	6275.25
771.866	3309.25
772.306	1458.25
772.745	805.25
773.185	649.25
773.625	605.25
774.065	631.25
774.505	826.25
774.944	1476.25
775.384	2576.25
775.824	3045.25
776.263	2952.25
776.703	1962.25
777.142	1024.25
777.582	619.25
778.021	516.25
778.461	489.25
778.9	493.25
779.34	474.25
779.779	462.25
780.219	456.25
780.658	478.25
781.097	433.25
781.537	425.25
781.976	407.25
782.415	410.25
782.855	400.25
783.294	403.25
783.733	428.25
784.172	407.25
784.611	415.25
785.05	402.25
785.489	426.25
785.928	430.25
786.367	458.25
786.806	448.25
787.245	490.25
787.684	502.25
788.123	519.25
788.562	509.25
789.001	504.25
789.44	483.25
789.879	489.25
790.317	468.25
790.756	487.25
791.195	523.25
791.634	618.25
792.072	929.25
792.511	1920.25
792.95	4419.25
793.388	5583.25
793.827	4878.25
794.265	2700.25
794.704	1327.25
795.142	751.25
795.581	582.25
796.019	526.25
796.458	502.25
796.896	477.25
797.334	525.25
797.773	623.25
798.211	1017.25
798.649	2039.25
799.087	3499.25
799.526	5403.25
799.964	5967.25
800.402	5046.25
800.84	2741.25
801.278	1407.25
801.716	797.25
802.154	599.25
802.592	553.25
803.03	547.25
803.468	560.25
803.906	532.25
804.344	538.25
804.782	530.25
805.22	532.25
805.658	526.25
806.096	539.25
806.533	601.25
806.971	658.25
807.409	883.25
807.847	1468.25
808.284	3528.25
808.722	7175.25
809.16	10025.25
809.597	13686.25
810.035	15698.25
810.472	14747.25
810.91	8135.25
811.347	3841.25
811.785	1728.25
812.222	999.25
812.66	757.25
813.097	604.25
813.535	578.25
813.972	505.25
814.409	479.25
814.846	455.25
815.284	446.25
815.721	437.25
816.158	491.25
816.595	632.25
817.032	867.25
817.47	888.25
817.907	715.25
818.344	595.25
818.781	540.25
819.218	585.25
819.655	865.25
820.092	1209.25
820.529	1283.25
820.966	1036.25
821.403	759.25
821.839	573.25
822.276	590.25
822.713	647.25
823.15	637.25
823.587	603.25
824.023	745.25
824.46	1589.25
824.897	3107.25
825.333	3254.25
825.77	1897.25
826.206	1083.25
826.643	627.25
827.08	423.25
827.516	375.25
827.953	368.25
828.389	321.25
828.825	307.25
829.262	310.25
829.698	305.25
830.135	279.25
830.571	278.25
831.007	272.25
831.443	275.25
831.88	284.25
832.316	277.25
832.752	290.25
833.188	311.25
833.624	335.25
834.06	291.25
834.497	327.25
834.933	291.25
835.369	301.25
835.805	314.25
836.241	343.25
836.677	347.25
837.112	396.25
837.548	442.25
837.984	580.25
838.42	1002.25
838.856	2531.25
839.292	5521.25
839.727	5975.25
840.163	3879.25
840.599	4646.25
841.034	6903.25
841.47	5393.25
841.906	2887.25
842.341	1634.25
842.777	1054.25
843.212	1073.25
843.648	887.25
844.083	587.25
844.519	445.25
844.954	344.25
845.39	288.25
845.825	295.25
846.261	267.25
846.696	256.25
847.131	269.25
847.566	254.25
848.002	270.25
848.437	272.25
848.872	285.25
849.307	319.25
849.742	415.25
850.177	929.25
850.613	2023.25
851.048	2169.25
851.483	1188.25
851.918	745.25
852.353	424.25
852.788	294.25
853.223	269.25
853.657	250.25
854.092	247.25
854.527	247.25
854.962	230.25
855.397	294.25
855.832	262.25
856.266	242.25
856.701	254.25
857.136	245.25
857.57	256.25
858.005	318.25
858.44	334.25
858.874	299.25
859.309	263.25
859.743	255.25
860.178	262.25
860.612	235.25
861.047	327.25
861.481	467.25
861.915	421.25
862.35	317.25
862.784	257.25
863.218	261.25
863.653	245.25
864.087	282.25
864.521	305.25
864.955	400.25
865.39	608.25
865.824	611.25
866.258	721.25
866.692	1206.25
867.126	1185.25
867.56	780.25
867.994	503.25
868.428	377.25
868.862	367.25
869.296	380.25
869.73	409.25
870.164	414.25
870.598	393.25
871.031	293.25
871.465	255.25
871.899	194.25
872.333	190.25
872.766	179.25
873.2	177.25
873.634	192.25
874.067	191.25
874.501	186.25
874.935	173.25
875.368	191.25
875.802	181.25
876.235	177.25
876.669	167.25
877.102	163.25
877.535	165.25
877.969	168.25
878.402	176.25
878.836	161.25
879.269	161.25
879.702	136.25
880.135	161.25
880.569	166.25
881.002	164.25
881.435	160.25
881.868	150.25
882.301	158.25
882.734	148.25
883.167	161.25
883.601	135.25
884.034	148.25
884.467	150.25
884.899	143.25
885.332	149.25
885.765	153.25
886.198	147.25
886.631	143.25
887.064	137.25
887.497	145.25
887.929	130.25
888.362	129.25
888.795	155.25
889.228	165.25
889.66	140.25
890.093	141.25
890.526	135.25
890.958	143.25
891.391	129.25
891.823	144.25
892.256	119.25
892.688	137.25
893.121	131.25
893.553	134.25
893.985	140.25
894.418	130.25
894.85	141.25
895.282	124.25
895.715	117.25
896.147	146.25
896.579	139.25
897.011	129.25
897.444	126.25
897.876	134.25
898.308	143.25
898.74	131.25
899.172	133.25
899.604	146.25
900.036	145.25
900.468	149.25
900.9	152.25
901.332	151.25
901.764	155.25
902.196	170.25
902.628	155.25
903.06	197.25
903.491	239.25
903.923	202.25
904.355	226.25
904.787	217.25
905.218	190.25
905.65	154.25
906.082	144.25
906.513	159.25
906.945	150.25
907.376	143.25
907.808	156.25
908.239	146.25
908.671	156.25
909.102	173.25
909.534	169.25
909.965	268.25
910.397	437.25
910.828	1206.25
911.259	1311.25
911.691	812.25
912.122	581.25
912.553	333.25
912.984	220.25
913.415	174.25
913.847	162.25
914.278	174.25
914.709	145.25
915.14	147.25
915.571	161.25
916.002	147.25
916.433	133.25
916.864	145.25
917.295	158.25
917.726	153.25
918.157	169.25
918.587	163.25
919.018	174.25
919.449	175.25
919.88	167.25
920.311	175.25
920.741	293.25
921.172	629.25
921.603	487.25
922.033	371.25
922.464	263.25
922.895	199.25
923.325	168.25
923.756	154.25
924.186	160.25
924.617	177.25
925.047	236.25
925.478	266.25
925.908	229.25
926.338	193.25
926.769	173.25
927.199	159.25
927.629	147.25
928.06	148.25
928.49	147.25
928.92	149.25
929.35	131.25
929.78	121.25
930.21	121.25
930.641	109.25
931.071	101.25
931.501	119.25
931.931	112.25
932.361	101.25
932.791	117.25
933.221	115.25
933.651	135.25
934.08	149.25
934.51	133.25
934.94	147.25
935.37	151.25
935.8	128.25
936.229	113.25
936.659	125.25
937.089	123.25
937.519	178.25
937.948	221.25
938.378	195.25
938.807	159.25
939.237	147.25
939.666	94.25
940.096	113.25
940.525	99.25
940.955	103.25
941.384	88.25
941.814	99.25
942.243	97.25
942.672	95.25
943.102	99.25
943.531	83.25
943.96	93.25
944.39	89.25
944.819	92.25
945.248	107.25
945.677	107.25
946.106	111.25
946.535	95.25
946.964	91.25
947.393	94.25
947.822	101.25
948.251	107.25
948.68	96.25
949.109	95.25
949.538	80.25
949.967	71.25
950.396	95.25
950.825	95.25
951.254	86.25
951.682	93.25
952.111	97.25
952.54	102.25
952.969	111.25
953.397	88.25
953.826	105.25
954.254	95.25
954.683	104.25
955.112	83.25
955.54	81.25
955.969	110.25
956.397	105.25
956.826	103.25
957.254	100.25
957.682	114.25
958.111	93.25
958.539	82.25
958.967	105.25
959.396	101.25
959.824	102.25
960.252	104.25
960.68	91.25
961.109	95.25
961.537	78.25
961.965	90.25
962.393	102.25
962.821	102.25
963.249	100.25
963.677	106.25
964.105	140.25
964.533	243.25
964.961	197.25
965.389	164.25
965.817	127.25
966.245	94.25
966.672	95.25
967.1	102.25
967.528	107.25
967.956	97.25
968.383	97.25
968.811	108.25
969.239	93.25
969.666	92.25
970.094	90.25
970.522	91.25
970.949	108.25
971.377	82.25
971.804	87.25
972.232	94.25
972.659	101.25
973.087	98.25
973.514	96.25
973.941	83.25
974.369	80.25
974.796	91.25
975.223	69.25
975.651	81.25
976.078	92.25
976.505	112.25
976.932	116.25
977.359	146.25
977.786	136.25
978.214	109.25
978.641	103.25
979.068	97.25
979.495	69.25
979.922	95.25
980.349	89.25
980.776	86.25
981.202	91.25
981.629	93.25
982.056	79.25
982.483	92.25
982.91	86.25
983.337	97.25
983.763	94.25
984.19	83.25
984.617	73.25
985.043	90.25
985.47	93.25
985.897	98.25
986.323	100.25
986.75	97.25
987.176	99.25
987.603	102.25
988.029	93.25
988.456	85.25
988.882	91.25
989.308	88.25
989.735	89.25
990.161	95.25
990.587	81.25
991.014	88.25
991.44	92.25
991.866	97.25
992.292	90.25
992.719	93.25
993.145	93.25
993.571	84.25
993.997	83.25
994.423	88.25
994.849	89.25
995.275	75.25
995.701	89.25
996.127	96.25
996.553	95.25
996.979	92.25
997.405	79.25
997.83	80.25
998.256	100.25
998.682	89.25
999.108	78.25
999.534	94.25
999.959	99.25
1000.385	104.25
1000.811	84.25
1001.236	83.25
1001.662	69.25
1002.087	92.25
1002.513	97.25
1002.938	100.25
1003.364	85.25
1003.789	87.25
1004.215	83.25
1004.64	79.25
1005.066	91.25
1005.491	79.25
1005.916	87.25
1006.342	88.25
1006.767	102.25
1007.192	70.25
1007.617	95.25
1008.042	90.25
1008.468	97.25
1008.893	89.25
1009.318	102.25
1009.743	131.25
1010.168	129.25
1010.593	137.25
1011.018	134.25
1011.443	114.25
1011.868	114.25
1012.293	77.25
1012.718	89.25
1013.143	86.25
1013.567	89.25
1013.992	92.25
1014.417	97.25
1014.842	87.25
1015.267	104.25
1015.691	91.25
1016.116	110.25
1016.541	90.25
1016.965	82.25
1017.39	92.25
1017.814	87.25
1018.239	70.25
1018.663	96.25
1019.088	70.25
1019.512	96.25
1019.937	97.25
1020.361	79.25
1020.785	91.25
1021.21	73.25
1021.634	78.25
1022.058	74.25
1022.483	101.25
1022.907	81.25
1023.331	76.25
1023.755	72.25
1024.179	90.25
1024.604	89.25
1025.028	103.25
1025.452	99.25
1025.876	80.25
1026.3	105.25
1026.724	88.25
1027.148	69.25
1027.572	97.25
1027.996	90.25
1028.42	98.25
1028.843	96.25
1029.267	95.25
1029.691	97.25
1030.115	98.25
1030.539	73.25
1030.962	81.25
1031.386	93.25
1031.81	84.25
1032.233	90.25
1032.657	91.25
1033.08	86.25
1033.504	92.25
1033.927	83.25
1034.351	80.25
1034.774	79.25
1035.198	81.25
1035.621	88.25
1036.045	94.25
1036.468	83.25
1036.891	84.25
1037.315	85.25
1037.738	77.25
1038.161	91.25
1038.584	85.25
1039.008	80.25
1039.431	77.25
1039.854	72.25
1040.277	83.25
1040.7	78.25
1041.123	74.25
1041.546	85.25
1041.969	105.25
1042.392	97.25
1042.815	82.25
1043.238	72.25
1043.661	75.25
1044.084	95.25
1044.507	94.25
1044.93	84.25
1045.352	83.25
1045.775	91.25
1046.198	77.25
1046.621	88.25
1047.043	82.25
1047.466	87.25
1047.889	96.25
1048.311	107.25
1048.734	80.25
1049.156	90.25
1049.579	83.25
1050.001	85.25
1050.424	83.25
1050.846	81.25
1051.269	78.25
1051.691	78.25
1052.113	79.25
1052.536	80.25
1052.958	81.25
1053.38	97.25
1053.802	91.25
1054.225	85.25
1054.647	102.25
1055.069	93.25
1055.491	100.25
1055.913	89.25
1056.335	79.25
1056.757	86.25
1057.179	83.25
1057.601	85.25
1058.023	70.25
1058.445	81.25
1058.867	98.25
1059.289	75.25
1059.711	85.25
1060.133	87.25
1060.555	65.25
1060.976	76.25
1061.398	83.25
1061.82	93.25
1062.241	66.25
1062.663	71.25
1063.085	75.25
1063.506	91.25
1063.928	81.25
1064.35	89.25
1064.771	73.25
1065.193	85.25
1065.614	97.25
1066.035	87.25
1066.457	75.25
1066.878	82.25
1067.3	80.25
1067.721	89.25
1068.142	85.25
1068.564	90.25
1068.985	90.25
1069.406	68.25
1069.827	69.25
1070.248	85.25
1070.67	87.25
1071.091	88.25
1071.512	80.25
1071.933	91.25
1072.354	77.25
1072.775	80.25
1073.196	93.25
1073.617	81.25
1074.038	85.25
1074.459	74.25
1074.88	80.25
1075.3	82.25
1075.721	76.25
1076.142	88.25
1076.563	77.25
1076.983	79.25
1077.404	74.25
1077.825	76.25
1078.246	74.25
1078.666	101.25
1079.087	84.25
1079.507	84.25
1079.928	80.25
1080.348	89.25
1080.769	80.25
1081.189	87.25
1081.61	97.25
1082.03	96.25
1082.451	88.25
1082.871	91.25
1083.291	91.25
1083.711	87.25
1084.132	80.25
1084.552	72.25
1084.972	68.25
1085.392	77.25
1085.813	92.25
1086.233	70.25
1086.653	80.25
1087.073	86.25
1087.493	91.25
1087.913	88.25
1088.333	77.25
1088.753	96.25
1089.173	74.25
1089.593	85.25
1090.013	94.25
1090.433	98.25
1090.852	78.25
1091.272	71.25
1091.692	83.25
1092.112	98.25
1092.531	94.25
1092.951	84.25
1093.371	75.25
1093.79	85.25
1094.21	79.25
1094.63	76.25
1095.049	89.25
1095.469	97.25
1095.888	74.25
1096.308	83.25
1096.727	73.25
1097.146	87.25
1097.566	86.25
1097.985	78.25
1098.405	85.25
1098.824	77.25
1099.243	87.25
1099.662	86.25
1100.082	89.25
1100.501	83.25
1100.92	73.25
1101.339	68.25
1101.758	83.25
