Data from 20170802-ORNL-NYSim-Air_HRD10391_10-37-40-642.txt Node
Date: Wed Aug 02 10:37:40 EDT 2017
User: Ender
Spectrometer: HR+D1039
Trigger mode: 0
Integration Time (sec): 1.510000E-3
Scans to average: 1
Electric dark correction enabled: true
Nonlinearity correction enabled: false
Boxcar width: 0
XAxis mode: Wavelengths
Number of Pixels in Spectrum: 2048
>>>>>Begin Spectral Data<<<<<
187.836	7.75
188.309	7.75
188.782	7.75
189.255	-4.25
189.728	1.75
190.201	-0.25
190.674	-9.25
191.147	3.75
191.619	-5.25
192.092	-15.25
192.565	-2.25
193.038	-16.25
193.511	-3.25
193.984	-0.25
194.456	7.75
194.929	3.75
195.402	2.75
195.874	28.75
196.347	29.75
196.82	35.75
197.292	33.75
197.765	22.75
198.237	27.75
198.71	27.75
199.182	53.75
199.655	44.75
200.127	43.75
200.6	62.75
201.072	48.75
201.544	58.75
202.017	51.75
202.489	77.75
202.961	89.75
203.433	85.75
203.906	57.75
204.378	66.75
204.85	87.75
205.322	71.75
205.794	71.75
206.266	74.75
206.739	80.75
207.211	99.75
207.683	88.75
208.155	90.75
208.627	74.75
209.099	74.75
209.57	81.75
210.042	88.75
210.514	75.75
210.986	91.75
211.458	78.75
211.93	79.75
212.402	78.75
212.873	75.75
213.345	85.75
213.817	86.75
214.288	69.75
214.76	85.75
215.232	93.75
215.703	82.75
216.175	83.75
216.646	73.75
217.118	79.75
217.589	86.75
218.061	78.75
218.532	81.75
219.004	88.75
219.475	73.75
219.946	82.75
220.418	87.75
220.889	91.75
221.36	77.75
221.832	83.75
222.303	70.75
222.774	84.75
223.245	75.75
223.717	81.75
224.188	85.75
224.659	83.75
225.13	81.75
225.601	73.75
226.072	78.75
226.543	78.75
227.014	80.75
227.485	90.75
227.956	75.75
228.427	70.75
228.898	69.75
229.369	89.75
229.839	78.75
230.31	81.75
230.781	67.75
231.252	80.75
231.722	76.75
232.193	82.75
232.664	83.75
233.135	88.75
233.605	77.75
234.076	83.75
234.546	80.75
235.017	82.75
235.487	81.75
235.958	89.75
236.428	77.75
236.899	94.75
237.369	90.75
237.84	93.75
238.31	92.75
238.78	79.75
239.251	81.75
239.721	89.75
240.191	86.75
240.662	82.75
241.132	80.75
241.602	79.75
242.072	85.75
242.542	73.75
243.013	88.75
243.483	95.75
243.953	93.75
244.423	81.75
244.893	89.75
245.363	73.75
245.833	74.75
246.303	94.75
246.773	77.75
247.243	82.75
247.712	76.75
248.182	93.75
248.652	97.75
249.122	89.75
249.592	84.75
250.061	95.75
250.531	82.75
251.001	89.75
251.471	81.75
251.94	101.75
252.41	89.75
252.879	87.75
253.349	82.75
253.818	84.75
254.288	102.75
254.757	94.75
255.227	86.75
255.696	99.75
256.166	89.75
256.635	102.75
257.105	96.75
257.574	88.75
258.043	108.75
258.513	92.75
258.982	87.75
259.451	88.75
259.92	101.75
260.389	86.75
260.859	99.75
261.328	110.75
261.797	115.75
262.266	94.75
262.735	106.75
263.204	95.75
263.673	103.75
264.142	97.75
264.611	97.75
265.08	88.75
265.549	99.75
266.018	101.75
266.487	103.75
266.955	113.75
267.424	77.75
267.893	89.75
268.362	97.75
268.83	90.75
269.299	107.75
269.768	73.75
270.236	101.75
270.705	106.75
271.174	103.75
271.642	81.75
272.111	107.75
272.579	120.75
273.048	102.75
273.516	110.75
273.985	107.75
274.453	96.75
274.922	116.75
275.39	98.75
275.858	115.75
276.327	106.75
276.795	93.75
277.263	102.75
277.731	101.75
278.2	111.75
278.668	103.75
279.136	113.75
279.604	103.75
280.072	106.75
280.54	124.75
281.008	105.75
281.477	123.75
281.945	94.75
282.413	108.75
282.881	115.75
283.348	107.75
283.816	109.75
284.284	115.75
284.752	104.75
285.22	110.75
285.688	129.75
286.156	105.75
286.623	117.75
287.091	119.75
287.559	118.75
288.026	122.75
288.494	132.75
288.962	116.75
289.429	98.75
289.897	113.75
290.364	118.75
290.832	116.75
291.3	98.75
291.767	104.75
292.234	117.75
292.702	110.75
293.169	119.75
293.637	114.75
294.104	113.75
294.571	133.75
295.039	139.75
295.506	121.75
295.973	115.75
296.44	117.75
296.908	107.75
297.375	125.75
297.842	119.75
298.309	130.75
298.776	121.75
299.243	116.75
299.71	122.75
300.177	112.75
300.644	126.75
301.111	128.75
301.578	134.75
302.045	112.75
302.512	140.75
302.979	122.75
303.446	126.75
303.913	134.75
304.379	153.75
304.846	137.75
305.313	121.75
305.78	136.75
306.246	128.75
306.713	135.75
307.18	144.75
307.646	144.75
308.113	145.75
308.579	135.75
309.046	124.75
309.512	140.75
309.979	118.75
310.445	153.75
310.912	118.75
311.378	143.75
311.845	133.75
312.311	136.75
312.777	137.75
313.244	154.75
313.71	132.75
314.176	136.75
314.642	146.75
315.109	160.75
315.575	145.75
316.041	141.75
316.507	150.75
316.973	155.75
317.439	155.75
317.905	164.75
318.371	140.75
318.837	143.75
319.303	157.75
319.769	172.75
320.235	142.75
320.701	142.75
321.167	140.75
321.633	150.75
322.099	154.75
322.564	146.75
323.03	179.75
323.496	152.75
323.962	166.75
324.427	153.75
324.893	153.75
325.359	167.75
325.824	137.75
326.29	158.75
326.755	149.75
327.221	175.75
327.686	155.75
328.152	160.75
328.617	161.75
329.083	157.75
329.548	161.75
330.014	155.75
330.479	159.75
330.944	178.75
331.41	190.75
331.875	167.75
332.34	157.75
332.805	154.75
333.271	166.75
333.736	180.75
334.201	176.75
334.666	174.75
335.131	173.75
335.596	175.75
336.061	172.75
336.526	158.75
336.991	174.75
337.456	178.75
337.921	193.75
338.386	189.75
338.851	167.75
339.316	189.75
339.781	174.75
340.246	193.75
340.711	179.75
341.175	181.75
341.64	195.75
342.105	191.75
342.569	171.75
343.034	194.75
343.499	201.75
343.963	192.75
344.428	161.75
344.893	181.75
345.357	189.75
345.822	198.75
346.286	193.75
346.751	191.75
347.215	227.75
347.679	221.75
348.144	191.75
348.608	200.75
349.073	215.75
349.537	223.75
350.001	193.75
350.465	207.75
350.93	215.75
351.394	214.75
351.858	221.75
352.322	199.75
352.786	222.75
353.25	237.75
353.715	215.75
354.179	225.75
354.643	203.75
355.107	225.75
355.571	218.75
356.035	230.75
356.498	226.75
356.962	239.75
357.426	214.75
357.89	219.75
358.354	212.75
358.818	238.75
359.281	237.75
359.745	216.75
360.209	233.75
360.673	209.75
361.136	218.75
361.6	247.75
362.064	224.75
362.527	230.75
362.991	236.75
363.454	240.75
363.918	211.75
364.381	233.75
364.845	228.75
365.308	257.75
365.772	253.75
366.235	230.75
366.698	259.75
367.162	245.75
367.625	269.75
368.088	233.75
368.552	237.75
369.015	254.75
369.478	236.75
369.941	243.75
370.404	245.75
370.867	263.75
371.331	246.75
371.794	258.75
372.257	256.75
372.72	272.75
373.183	257.75
373.646	278.75
374.109	268.75
374.572	285.75
375.035	271.75
375.497	279.75
375.96	272.75
376.423	267.75
376.886	245.75
377.349	276.75
377.811	282.75
378.274	289.75
378.737	272.75
379.199	279.75
379.662	301.75
380.125	271.75
380.587	285.75
381.05	268.75
381.512	303.75
381.975	289.75
382.437	298.75
382.9	309.75
383.362	293.75
383.825	292.75
384.287	313.75
384.75	293.75
385.212	277.75
385.674	315.75
386.136	321.75
386.599	307.75
387.061	328.75
387.523	321.75
387.985	321.75
388.447	294.75
388.91	315.75
389.372	321.75
389.834	318.75
390.296	310.75
390.758	313.75
391.22	302.75
391.682	319.75
392.144	328.75
392.606	321.75
393.068	331.75
393.529	339.75
393.991	338.75
394.453	310.75
394.915	310.75
395.377	314.75
395.838	329.75
396.3	327.75
396.762	353.75
397.224	319.75
397.685	330.75
398.147	340.75
398.608	319.75
399.07	337.75
399.531	327.75
399.993	336.75
400.454	357.75
400.916	354.75
401.377	358.75
401.839	342.75
402.3	355.75
402.762	358.75
403.223	396.75
403.684	374.75
404.145	373.75
404.607	374.75
405.068	368.75
405.529	385.75
405.99	373.75
406.451	385.75
406.913	358.75
407.374	374.75
407.835	384.75
408.296	399.75
408.757	373.75
409.218	388.75
409.679	419.75
410.14	393.75
410.601	391.75
411.062	425.75
411.522	429.75
411.983	391.75
412.444	400.75
412.905	390.75
413.366	419.75
413.826	447.75
414.287	473.75
414.748	551.75
415.208	600.75
415.669	488.75
416.13	461.75
416.59	456.75
417.051	466.75
417.511	485.75
417.972	522.75
418.432	578.75
418.893	581.75
419.353	561.75
419.814	453.75
420.274	421.75
420.734	439.75
421.195	447.75
421.655	413.75
422.115	427.75
422.576	450.75
423.036	441.75
423.496	438.75
423.956	475.75
424.416	498.75
424.876	545.75
425.336	549.75
425.797	527.75
426.257	528.75
426.717	507.75
427.177	469.75
427.637	465.75
428.097	490.75
428.556	510.75
429.016	550.75
429.476	525.75
429.936	527.75
430.396	519.75
430.856	528.75
431.315	557.75
431.775	597.75
432.235	655.75
432.694	597.75
433.154	591.75
433.614	567.75
434.073	575.75
434.533	519.75
434.993	509.75
435.452	513.75
435.912	493.75
436.371	491.75
436.83	476.75
437.29	499.75
437.749	492.75
438.209	478.75
438.668	477.75
439.127	501.75
439.587	495.75
440.046	481.75
440.505	477.75
440.964	477.75
441.424	518.75
441.883	492.75
442.342	462.75
442.801	457.75
443.26	450.75
443.719	472.75
444.178	463.75
444.637	463.75
445.096	485.75
445.555	473.75
446.014	464.75
446.473	471.75
446.932	489.75
447.391	492.75
447.849	508.75
448.308	492.75
448.767	497.75
449.226	490.75
449.685	488.75
450.143	529.75
450.602	525.75
451.061	506.75
451.519	496.75
451.978	500.75
452.436	482.75
452.895	486.75
453.353	497.75
453.812	481.75
454.27	499.75
454.729	501.75
455.187	505.75
455.646	484.75
456.104	484.75
456.562	510.75
457.021	496.75
457.479	493.75
457.937	529.75
458.395	503.75
458.854	535.75
459.312	505.75
459.77	511.75
460.228	493.75
460.686	526.75
461.144	509.75
461.602	520.75
462.06	507.75
462.518	529.75
462.976	532.75
463.434	535.75
463.892	539.75
464.35	550.75
464.808	589.75
465.266	566.75
465.724	542.75
466.181	567.75
466.639	559.75
467.097	577.75
467.555	599.75
468.012	615.75
468.47	629.75
468.928	599.75
469.385	629.75
469.843	637.75
470.3	659.75
470.758	660.75
471.215	657.75
471.673	692.75
472.13	657.75
472.588	700.75
473.045	701.75
473.503	703.75
473.96	752.75
474.417	747.75
474.875	765.75
475.332	758.75
475.789	801.75
476.246	833.75
476.704	860.75
477.161	865.75
477.618	911.75
478.075	959.75
478.532	971.75
478.989	1049.75
479.446	1164.75
479.903	1203.75
480.36	1295.75
480.817	1396.75
481.274	1469.75
481.731	1573.75
482.188	1645.75
482.645	1798.75
483.102	1887.75
483.558	1985.75
484.015	2091.75
484.472	2133.75
484.929	2036.75
485.385	1977.75
485.842	1963.75
486.299	1851.75
486.755	1726.75
487.212	1594.75
487.668	1443.75
488.125	1379.75
488.582	1204.75
489.038	1207.75
489.494	1201.75
489.951	1169.75
490.407	1106.75
490.864	1113.75
491.32	1064.75
491.776	1098.75
492.233	1076.75
492.689	1103.75
493.145	1029.75
493.602	1028.75
494.058	1050.75
494.514	1051.75
494.97	1058.75
495.426	1070.75
495.882	1077.75
496.338	1060.75
496.794	1061.75
497.251	1103.75
497.707	1089.75
498.163	1110.75
498.618	1072.75
499.074	1083.75
499.53	1083.75
499.986	1101.75
500.442	1096.75
500.898	1059.75
501.354	1082.75
501.809	1086.75
502.265	1098.75
502.721	1115.75
503.177	1105.75
503.632	1075.75
504.088	1091.75
504.543	1090.75
504.999	1105.75
505.455	1145.75
505.91	1152.75
506.366	1124.75
506.821	1133.75
507.277	1105.75
507.732	1120.75
508.187	1121.75
508.643	1127.75
509.098	1157.75
509.553	1121.75
510.009	1174.75
510.464	1200.75
510.919	1215.75
511.375	1227.75
511.83	1204.75
512.285	1209.75
512.74	1263.75
513.195	1259.75
513.65	1298.75
514.105	1342.75
514.56	1307.75
515.015	1324.75
515.47	1328.75
515.925	1309.75
516.38	1321.75
516.835	1353.75
517.29	1292.75
517.745	1334.75
518.2	1302.75
518.655	1260.75
519.109	1273.75
519.564	1279.75
520.019	1228.75
520.474	1233.75
520.928	1219.75
521.383	1221.75
521.838	1225.75
522.292	1151.75
522.747	1174.75
523.201	1171.75
523.656	1221.75
524.11	1202.75
524.565	1151.75
525.019	1192.75
525.474	1185.75
525.928	1161.75
526.382	1179.75
526.837	1192.75
527.291	1152.75
527.745	1147.75
528.2	1195.75
528.654	1174.75
529.108	1186.75
529.562	1179.75
530.016	1157.75
530.47	1161.75
530.925	1152.75
531.379	1180.75
531.833	1221.75
532.287	1181.75
532.741	1204.75
533.195	1142.75
533.649	1198.75
534.103	1176.75
534.556	1151.75
535.01	1169.75
535.464	1149.75
535.918	1185.75
536.372	1189.75
536.826	1196.75
537.279	1159.75
537.733	1178.75
538.187	1204.75
538.64	1185.75
539.094	1177.75
539.548	1205.75
540.001	1212.75
540.455	1234.75
540.908	1207.75
541.362	1205.75
541.815	1235.75
542.269	1249.75
542.722	1234.75
543.175	1223.75
543.629	1261.75
544.082	1313.75
544.536	1281.75
544.989	1271.75
545.442	1330.75
545.895	1297.75
546.349	1293.75
546.802	1295.75
547.255	1283.75
547.708	1335.75
548.161	1299.75
548.614	1319.75
549.067	1374.75
549.52	1369.75
549.973	1308.75
550.426	1289.75
550.879	1321.75
551.332	1296.75
551.785	1303.75
552.238	1327.75
552.691	1321.75
553.144	1350.75
553.596	1389.75
554.049	1362.75
554.502	1433.75
554.955	1435.75
555.407	1429.75
555.86	1413.75
556.313	1418.75
556.765	1389.75
557.218	1407.75
557.67	1404.75
558.123	1387.75
558.576	1386.75
559.028	1382.75
559.48	1351.75
559.933	1347.75
560.385	1330.75
560.838	1272.75
561.29	1273.75
561.742	1258.75
562.195	1240.75
562.647	1204.75
563.099	1191.75
563.551	1188.75
564.004	1215.75
564.456	1186.75
564.908	1220.75
565.36	1166.75
565.812	1171.75
566.264	1150.75
566.716	1113.75
567.168	1131.75
567.62	1106.75
568.072	1073.75
568.524	1093.75
568.976	1083.75
569.428	1076.75
569.88	1085.75
570.332	1058.75
570.784	1086.75
571.235	1085.75
571.687	1088.75
572.139	1100.75
572.59	1089.75
573.042	1101.75
573.494	1103.75
573.945	1123.75
574.397	1111.75
574.849	1057.75
575.3	1102.75
575.752	1101.75
576.203	1051.75
576.655	1046.75
577.106	1047.75
577.557	1009.75
578.009	1026.75
578.46	1051.75
578.912	1042.75
579.363	1037.75
579.814	1011.75
580.265	1035.75
580.717	1033.75
581.168	1014.75
581.619	1051.75
582.07	1058.75
582.521	1057.75
582.972	1070.75
583.423	1038.75
583.875	1047.75
584.326	1019.75
584.777	1083.75
585.227	1080.75
585.678	1103.75
586.129	1159.75
586.58	1159.75
587.031	1169.75
587.482	1151.75
587.933	1267.75
588.384	1213.75
588.834	1201.75
589.285	1120.75
589.736	1179.75
590.186	1162.75
590.637	1160.75
591.088	1121.75
591.538	1113.75
591.989	1073.75
592.439	1088.75
592.89	1067.75
593.34	1028.75
593.791	1033.75
594.241	1063.75
594.692	1069.75
595.142	1071.75
595.593	1051.75
596.043	1060.75
596.493	1067.75
596.943	1103.75
597.394	1115.75
597.844	1063.75
598.294	1111.75
598.744	1117.75
599.195	1179.75
599.645	1261.75
600.095	1315.75
600.545	1390.75
600.995	1395.75
601.445	1470.75
601.895	1535.75
602.345	1637.75
602.795	1617.75
603.245	1556.75
603.695	1498.75
604.145	1429.75
604.594	1360.75
605.044	1244.75
605.494	1199.75
605.944	1112.75
606.393	1109.75
606.843	1097.75
607.293	1098.75
607.743	1040.75
608.192	1056.75
608.642	1084.75
609.091	1066.75
609.541	1058.75
609.99	1061.75
610.44	1096.75
610.889	1047.75
611.339	1017.75
611.788	999.75
612.238	1022.75
612.687	1043.75
613.136	1029.75
613.586	1038.75
614.035	1031.75
614.484	1045.75
614.933	1055.75
615.383	1025.75
615.832	985.75
616.281	990.75
616.73	986.75
617.179	946.75
617.628	951.75
618.077	921.75
618.526	917.75
618.975	929.75
619.424	893.75
619.873	895.75
620.322	861.75
620.771	897.75
621.22	878.75
621.669	852.75
622.118	865.75
622.567	844.75
623.015	820.75
623.464	849.75
623.913	809.75
624.361	805.75
624.81	807.75
625.259	804.75
625.707	819.75
626.156	816.75
626.604	817.75
627.053	822.75
627.501	809.75
627.95	841.75
628.398	844.75
628.847	850.75
629.295	822.75
629.744	802.75
630.192	807.75
630.64	781.75
631.089	786.75
631.537	776.75
631.985	767.75
632.433	797.75
632.881	747.75
633.33	788.75
633.778	755.75
634.226	775.75
634.674	794.75
635.122	786.75
635.57	815.75
636.018	808.75
636.466	791.75
636.914	824.75
637.362	813.75
637.81	800.75
638.258	843.75
638.705	853.75
639.153	897.75
639.601	864.75
640.049	909.75
640.497	908.75
640.944	914.75
641.392	916.75
641.84	908.75
642.287	834.75
642.735	817.75
643.182	825.75
643.63	812.75
644.078	825.75
644.525	787.75
644.973	827.75
645.42	843.75
645.867	866.75
646.315	845.75
646.762	908.75
647.21	915.75
647.657	993.75
648.104	1010.75
648.551	1015.75
648.999	1056.75
649.446	1170.75
649.893	1255.75
650.34	1431.75
650.787	1652.75
651.234	2083.75
651.682	2745.75
652.129	3787.75
652.576	5307.75
653.023	7203.75
653.47	8951.75
653.917	9813.75
654.363	10451.75
654.81	11153.75
655.257	11620.75
655.704	8817.75
656.151	5407.75
656.598	3451.75
657.044	2455.75
657.491	1935.75
657.938	1591.75
658.385	1358.75
658.831	1211.75
659.278	1091.75
659.724	1012.75
660.171	936.75
660.618	888.75
661.064	859.75
661.511	805.75
661.957	795.75
662.404	769.75
662.85	788.75
663.296	728.75
663.743	724.75
664.189	773.75
664.635	763.75
665.082	753.75
665.528	713.75
665.974	715.75
666.42	696.75
666.867	685.75
667.313	682.75
667.759	670.75
668.205	667.75
668.651	663.75
669.097	648.75
669.543	663.75
669.989	667.75
670.435	640.75
670.881	654.75
671.327	681.75
671.773	728.75
672.219	753.75
672.665	825.75
673.11	811.75
673.556	871.75
674.002	845.75
674.448	876.75
674.893	803.75
675.339	715.75
675.785	647.75
676.23	607.75
676.676	588.75
677.122	558.75
677.567	573.75
678.013	562.75
678.458	556.75
678.904	543.75
679.349	533.75
679.794	521.75
680.24	518.75
680.685	523.75
681.131	524.75
681.576	529.75
682.021	531.75
682.466	542.75
682.912	559.75
683.357	549.75
683.802	589.75
684.247	617.75
684.692	684.75
685.137	704.75
685.583	730.75
686.028	755.75
686.473	749.75
686.918	675.75
687.363	608.75
687.807	581.75
688.252	550.75
688.697	541.75
689.142	511.75
689.587	502.75
690.032	540.75
690.477	545.75
690.921	517.75
691.366	575.75
691.811	589.75
692.255	630.75
692.7	729.75
693.145	901.75
693.589	1379.75
694.034	1833.75
694.478	2015.75
694.923	1833.75
695.367	2251.75
695.812	2115.75
696.256	884.75
696.701	618.75
697.145	535.75
697.59	488.75
698.034	539.75
698.478	492.75
698.922	474.75
699.367	492.75
699.811	519.75
700.255	537.75
700.699	590.75
701.143	645.75
701.588	687.75
702.032	696.75
702.476	746.75
702.92	747.75
703.364	877.75
703.808	1232.75
704.252	1708.75
704.696	1873.75
705.14	1723.75
705.584	2211.75
706.027	1831.75
706.471	871.75
706.915	643.75
707.359	498.75
707.803	505.75
708.246	484.75
708.69	479.75
709.134	481.75
709.577	476.75
710.021	468.75
710.465	461.75
710.908	459.75
711.352	486.75
711.795	523.75
712.239	574.75
712.682	592.75
713.126	561.75
713.569	594.75
714.012	569.75
714.456	493.75
714.899	471.75
715.342	430.75
715.786	428.75
716.229	395.75
716.672	395.75
717.115	413.75
717.558	409.75
718.002	409.75
718.445	436.75
718.888	425.75
719.331	477.75
719.774	481.75
720.217	493.75
720.66	436.75
721.103	425.75
721.546	385.75
721.989	404.75
722.432	397.75
722.874	378.75
723.317	406.75
723.76	378.75
724.203	468.75
724.645	590.75
725.088	712.75
725.531	745.75
725.974	710.75
726.416	773.75
726.859	524.75
727.301	404.75
727.744	385.75
728.187	378.75
728.629	394.75
729.071	397.75
729.514	420.75
729.956	439.75
730.399	424.75
730.841	472.75
731.283	441.75
731.726	409.75
732.168	410.75
732.61	425.75
733.053	452.75
733.495	493.75
733.937	523.75
734.379	627.75
734.821	741.75
735.263	956.75
735.705	1645.75
736.148	2651.75
736.59	3029.75
737.032	2974.75
737.474	3180.75
737.916	1589.75
738.357	759.75
738.799	545.75
739.241	481.75
739.683	454.75
740.125	479.75
740.567	495.75
741.008	495.75
741.45	516.75
741.892	527.75
742.334	546.75
742.775	547.75
743.217	553.75
743.658	485.75
744.1	463.75
744.542	508.75
744.983	537.75
745.425	538.75
745.866	589.75
746.307	479.75
746.749	485.75
747.19	604.75
747.632	963.75
748.073	1773.75
748.514	2789.75
748.956	3470.75
749.397	4651.75
749.838	3797.75
750.279	3059.75
750.72	2353.75
751.162	1059.75
751.603	559.75
752.044	424.75
752.485	380.75
752.926	379.75
753.367	337.75
753.808	331.75
754.249	354.75
754.69	364.75
755.131	318.75
755.572	322.75
756.013	333.75
756.453	315.75
756.894	299.75
757.335	323.75
757.776	333.75
758.216	336.75
758.657	347.75
759.098	362.75
759.538	413.75
759.979	515.75
760.42	801.75
760.86	1735.75
761.301	4083.75
761.741	6079.75
762.182	6210.75
762.622	5890.75
763.063	2703.75
763.503	1099.75
763.943	599.75
764.384	549.75
764.824	498.75
765.264	456.75
765.705	415.75
766.145	353.75
766.585	332.75
767.025	317.75
767.465	350.75
767.906	368.75
768.346	382.75
768.786	411.75
769.226	429.75
769.666	672.75
770.106	1411.75
770.546	2478.75
770.986	2609.75
771.426	2606.75
771.866	1492.75
772.306	706.75
772.745	388.75
773.185	358.75
773.625	309.75
774.065	301.75
774.505	351.75
774.944	516.75
775.384	791.75
775.824	883.75
776.263	881.75
776.703	643.75
777.142	380.75
777.582	299.75
778.021	271.75
778.461	246.75
778.9	262.75
779.34	248.75
779.779	245.75
780.219	231.75
780.658	237.75
781.097	224.75
781.537	225.75
781.976	209.75
782.415	223.75
782.855	239.75
783.294	228.75
783.733	228.75
784.172	214.75
784.611	224.75
785.05	231.75
785.489	208.75
785.928	244.75
786.367	238.75
786.806	255.75
787.245	263.75
787.684	291.75
788.123	266.75
788.562	249.75
789.001	257.75
789.44	248.75
789.879	246.75
790.317	246.75
790.756	251.75
791.195	278.75
791.634	297.75
792.072	427.75
792.511	867.75
792.95	1805.75
793.388	2298.75
793.827	2080.75
794.265	1196.75
794.704	615.75
795.142	370.75
795.581	304.75
796.019	265.75
796.458	258.75
796.896	254.75
797.334	268.75
797.773	313.75
798.211	479.75
798.649	950.75
799.087	1521.75
799.526	2219.75
799.964	2545.75
800.402	2158.75
800.84	1271.75
801.278	647.75
801.716	391.75
802.154	318.75
802.592	268.75
803.03	288.75
803.468	300.75
803.906	296.75
804.344	274.75
804.782	281.75
805.22	269.75
805.658	290.75
806.096	295.75
806.533	309.75
806.971	336.75
807.409	412.75
807.847	677.75
808.284	1502.75
808.722	3039.75
809.16	4080.75
809.597	5722.75
810.035	7252.75
810.472	6270.75
810.91	3493.75
811.347	1701.75
811.785	796.75
812.222	454.75
812.66	361.75
813.097	318.75
813.535	289.75
813.972	263.75
814.409	249.75
814.846	229.75
815.284	234.75
815.721	221.75
816.158	243.75
816.595	265.75
817.032	295.75
817.47	330.75
817.907	269.75
818.344	262.75
818.781	253.75
819.218	262.75
819.655	321.75
820.092	395.75
820.529	403.75
820.966	362.75
821.403	283.75
821.839	256.75
822.276	245.75
822.713	270.75
823.15	291.75
823.587	259.75
824.023	355.75
824.46	751.75
824.897	1363.75
825.333	1439.75
825.77	870.75
826.206	539.75
826.643	312.75
827.08	220.75
827.516	201.75
827.953	193.75
828.389	179.75
828.825	187.75
829.262	183.75
829.698	158.75
830.135	181.75
830.571	175.75
831.007	165.75
831.443	166.75
831.88	166.75
832.316	167.75
832.752	167.75
833.188	185.75
833.624	156.75
834.06	172.75
834.497	160.75
834.933	189.75
835.369	188.75
835.805	204.75
836.241	180.75
836.677	197.75
837.112	215.75
837.548	235.75
837.984	312.75
838.42	469.75
838.856	1090.75
839.292	2288.75
839.727	2541.75
840.163	1717.75
840.599	2009.75
841.034	2911.75
841.47	2259.75
841.906	1322.75
842.341	730.75
842.777	467.75
843.212	404.75
843.648	325.75
844.083	265.75
844.519	201.75
844.954	191.75
845.39	173.75
845.825	173.75
846.261	155.75
846.696	152.75
847.131	164.75
847.566	181.75
848.002	140.75
848.437	139.75
848.872	173.75
849.307	196.75
849.742	239.75
850.177	408.75
850.613	897.75
851.048	934.75
851.483	553.75
851.918	391.75
852.353	221.75
852.788	189.75
853.223	159.75
853.657	141.75
854.092	145.75
854.527	136.75
854.962	137.75
855.397	172.75
855.832	140.75
856.266	155.75
856.701	139.75
857.136	148.75
857.57	155.75
858.005	159.75
858.44	161.75
858.874	169.75
859.309	151.75
859.743	147.75
860.178	147.75
860.612	157.75
861.047	173.75
861.481	178.75
861.915	181.75
862.35	169.75
862.784	138.75
863.218	142.75
863.653	133.75
864.087	150.75
864.521	145.75
864.955	203.75
865.39	271.75
865.824	287.75
866.258	308.75
866.692	397.75
867.126	380.75
867.56	244.75
867.994	209.75
868.428	177.75
868.862	185.75
869.296	158.75
869.73	173.75
870.164	173.75
870.598	168.75
871.031	155.75
871.465	137.75
871.899	144.75
872.333	118.75
872.766	121.75
873.2	115.75
873.634	143.75
874.067	128.75
874.501	127.75
874.935	144.75
875.368	117.75
875.802	127.75
876.235	139.75
876.669	131.75
877.102	122.75
877.535	109.75
877.969	107.75
878.402	114.75
878.836	107.75
879.269	117.75
879.702	121.75
880.135	105.75
880.569	112.75
881.002	97.75
881.435	107.75
881.868	116.75
882.301	102.75
882.734	113.75
883.167	116.75
883.601	105.75
884.034	121.75
884.467	96.75
884.899	105.75
885.332	111.75
885.765	109.75
886.198	99.75
886.631	108.75
887.064	113.75
887.497	105.75
887.929	117.75
888.362	103.75
888.795	104.75
889.228	120.75
889.66	103.75
890.093	126.75
890.526	109.75
890.958	102.75
891.391	111.75
891.823	121.75
892.256	99.75
892.688	119.75
893.121	115.75
893.553	122.75
893.985	129.75
894.418	103.75
894.85	92.75
895.282	106.75
895.715	109.75
896.147	102.75
896.579	119.75
897.011	110.75
897.444	113.75
897.876	113.75
898.308	103.75
898.74	108.75
899.172	106.75
899.604	101.75
900.036	93.75
900.468	124.75
900.9	106.75
901.332	95.75
901.764	129.75
902.196	115.75
902.628	117.75
903.06	137.75
903.491	143.75
903.923	127.75
904.355	113.75
904.787	139.75
905.218	118.75
905.65	121.75
906.082	114.75
906.513	109.75
906.945	108.75
907.376	107.75
907.808	106.75
908.239	108.75
908.671	132.75
909.102	119.75
909.534	120.75
909.965	172.75
910.397	250.75
910.828	561.75
911.259	609.75
911.691	399.75
912.122	279.75
912.553	179.75
912.984	130.75
913.415	125.75
913.847	106.75
914.278	117.75
914.709	119.75
915.14	119.75
915.571	118.75
916.002	102.75
916.433	99.75
916.864	113.75
917.295	115.75
917.726	97.75
918.157	117.75
918.587	140.75
919.018	107.75
919.449	109.75
919.88	111.75
920.311	115.75
920.741	185.75
921.172	300.75
921.603	257.75
922.033	201.75
922.464	181.75
922.895	114.75
923.325	116.75
923.756	107.75
924.186	102.75
924.617	116.75
925.047	143.75
925.478	129.75
925.908	115.75
926.338	138.75
926.769	123.75
927.199	118.75
927.629	96.75
928.06	107.75
928.49	123.75
928.92	98.75
929.35	113.75
929.78	91.75
930.21	113.75
930.641	87.75
931.071	89.75
931.501	93.75
931.931	91.75
932.361	104.75
932.791	98.75
933.221	99.75
933.651	103.75
934.08	114.75
934.51	118.75
934.94	107.75
935.37	114.75
935.8	89.75
936.229	93.75
936.659	94.75
937.089	102.75
937.519	111.75
937.948	122.75
938.378	130.75
938.807	100.75
939.237	104.75
939.666	95.75
940.096	88.75
940.525	85.75
940.955	92.75
941.384	90.75
941.814	88.75
942.243	83.75
942.672	84.75
943.102	96.75
943.531	81.75
943.96	81.75
944.39	95.75
944.819	82.75
945.248	90.75
945.677	80.75
946.106	102.75
946.535	102.75
946.964	88.75
947.393	96.75
947.822	78.75
948.251	99.75
948.68	91.75
949.109	93.75
949.538	95.75
949.967	101.75
950.396	93.75
950.825	91.75
951.254	90.75
951.682	101.75
952.111	94.75
952.54	91.75
952.969	86.75
953.397	101.75
953.826	101.75
954.254	92.75
954.683	85.75
955.112	111.75
955.54	95.75
955.969	98.75
956.397	88.75
956.826	86.75
957.254	93.75
957.682	99.75
958.111	87.75
958.539	81.75
958.967	84.75
959.396	89.75
959.824	71.75
960.252	89.75
960.68	73.75
961.109	89.75
961.537	78.75
961.965	83.75
962.393	76.75
962.821	93.75
963.249	76.75
963.677	99.75
964.105	116.75
964.533	148.75
964.961	130.75
965.389	121.75
965.817	123.75
966.245	105.75
966.672	96.75
967.1	89.75
967.528	88.75
967.956	92.75
968.383	95.75
968.811	93.75
969.239	87.75
969.666	89.75
970.094	88.75
970.522	114.75
970.949	90.75
971.377	99.75
971.804	97.75
972.232	86.75
972.659	75.75
973.087	73.75
973.514	91.75
973.941	87.75
974.369	104.75
974.796	83.75
975.223	79.75
975.651	67.75
976.078	92.75
976.505	100.75
976.932	76.75
977.359	117.75
977.786	101.75
978.214	98.75
978.641	114.75
979.068	86.75
979.495	95.75
979.922	75.75
980.349	89.75
980.776	81.75
981.202	91.75
981.629	91.75
982.056	73.75
982.483	102.75
982.91	81.75
983.337	88.75
983.763	68.75
984.19	93.75
984.617	83.75
985.043	80.75
985.47	97.75
985.897	87.75
986.323	88.75
986.75	95.75
987.176	89.75
987.603	98.75
988.029	69.75
988.456	79.75
988.882	65.75
989.308	98.75
989.735	69.75
990.161	92.75
990.587	85.75
991.014	97.75
991.44	86.75
991.866	86.75
992.292	84.75
992.719	99.75
993.145	85.75
993.571	75.75
993.997	85.75
994.423	90.75
994.849	79.75
995.275	85.75
995.701	85.75
996.127	82.75
996.553	98.75
996.979	84.75
997.405	85.75
997.83	83.75
998.256	101.75
998.682	87.75
999.108	89.75
999.534	89.75
999.959	81.75
1000.385	63.75
1000.811	79.75
1001.236	78.75
1001.662	102.75
1002.087	83.75
1002.513	89.75
1002.938	85.75
1003.364	87.75
1003.789	103.75
1004.215	90.75
1004.64	89.75
1005.066	93.75
1005.491	79.75
1005.916	76.75
1006.342	78.75
1006.767	89.75
1007.192	91.75
1007.617	99.75
1008.042	71.75
1008.468	84.75
1008.893	94.75
1009.318	77.75
1009.743	79.75
1010.168	95.75
1010.593	91.75
1011.018	101.75
1011.443	91.75
1011.868	93.75
1012.293	72.75
1012.718	89.75
1013.143	84.75
1013.567	88.75
1013.992	70.75
1014.417	92.75
1014.842	74.75
1015.267	98.75
1015.691	100.75
1016.116	82.75
1016.541	79.75
1016.965	87.75
1017.39	69.75
1017.814	89.75
1018.239	76.75
1018.663	95.75
1019.088	81.75
1019.512	95.75
1019.937	89.75
1020.361	92.75
1020.785	95.75
1021.21	72.75
1021.634	70.75
1022.058	67.75
1022.483	70.75
1022.907	74.75
1023.331	79.75
1023.755	83.75
1024.179	86.75
1024.604	69.75
1025.028	87.75
1025.452	87.75
1025.876	76.75
1026.3	75.75
1026.724	101.75
1027.148	79.75
1027.572	87.75
1027.996	79.75
1028.42	89.75
1028.843	76.75
1029.267	84.75
1029.691	80.75
1030.115	91.75
1030.539	88.75
1030.962	94.75
1031.386	82.75
1031.81	92.75
1032.233	93.75
1032.657	81.75
1033.08	85.75
1033.504	79.75
1033.927	78.75
1034.351	74.75
1034.774	84.75
1035.198	92.75
1035.621	68.75
1036.045	93.75
1036.468	87.75
1036.891	90.75
1037.315	73.75
1037.738	90.75
1038.161	86.75
1038.584	84.75
1039.008	85.75
1039.431	77.75
1039.854	81.75
1040.277	70.75
1040.7	75.75
1041.123	62.75
1041.546	106.75
1041.969	82.75
1042.392	76.75
1042.815	81.75
1043.238	102.75
1043.661	80.75
1044.084	87.75
1044.507	77.75
1044.93	59.75
1045.352	94.75
1045.775	80.75
1046.198	82.75
1046.621	89.75
1047.043	85.75
1047.466	88.75
1047.889	95.75
1048.311	81.75
1048.734	94.75
1049.156	80.75
1049.579	96.75
1050.001	100.75
1050.424	88.75
1050.846	74.75
1051.269	77.75
1051.691	95.75
1052.113	73.75
1052.536	90.75
1052.958	87.75
1053.38	85.75
1053.802	81.75
1054.225	72.75
1054.647	79.75
1055.069	86.75
1055.491	87.75
1055.913	67.75
1056.335	76.75
1056.757	89.75
1057.179	90.75
1057.601	76.75
1058.023	93.75
1058.445	75.75
1058.867	74.75
1059.289	87.75
1059.711	87.75
1060.133	88.75
1060.555	101.75
1060.976	95.75
1061.398	82.75
1061.82	64.75
1062.241	96.75
1062.663	77.75
1063.085	87.75
1063.506	80.75
1063.928	71.75
1064.35	67.75
1064.771	90.75
1065.193	95.75
1065.614	82.75
1066.035	77.75
1066.457	65.75
1066.878	86.75
1067.3	86.75
1067.721	71.75
1068.142	101.75
1068.564	89.75
1068.985	84.75
1069.406	88.75
1069.827	71.75
1070.248	87.75
1070.67	74.75
1071.091	79.75
1071.512	83.75
1071.933	81.75
1072.354	89.75
1072.775	101.75
1073.196	89.75
1073.617	91.75
1074.038	86.75
1074.459	88.75
1074.88	75.75
1075.3	79.75
1075.721	85.75
1076.142	82.75
1076.563	102.75
1076.983	86.75
1077.404	77.75
1077.825	89.75
1078.246	90.75
1078.666	85.75
1079.087	85.75
1079.507	101.75
1079.928	86.75
1080.348	101.75
1080.769	63.75
1081.189	82.75
1081.61	94.75
1082.03	97.75
1082.451	84.75
1082.871	81.75
1083.291	82.75
1083.711	89.75
1084.132	77.75
1084.552	74.75
1084.972	81.75
1085.392	86.75
1085.813	78.75
1086.233	86.75
1086.653	89.75
1087.073	82.75
1087.493	82.75
1087.913	78.75
1088.333	84.75
1088.753	87.75
1089.173	99.75
1089.593	83.75
1090.013	93.75
1090.433	75.75
1090.852	90.75
1091.272	93.75
1091.692	86.75
1092.112	82.75
1092.531	86.75
1092.951	101.75
1093.371	82.75
1093.79	70.75
1094.21	74.75
1094.63	94.75
1095.049	75.75
1095.469	81.75
1095.888	81.75
1096.308	69.75
1096.727	91.75
1097.146	87.75
1097.566	85.75
1097.985	71.75
1098.405	77.75
1098.824	88.75
1099.243	76.75
1099.662	81.75
1100.082	82.75
1100.501	91.75
1100.92	95.75
1101.339	89.75
1101.758	84.75
