Data from 20170802-ORNL-NYSim-Air_HRD10391_10-37-28-639.txt Node
Date: Wed Aug 02 10:37:28 EDT 2017
User: Ender
Spectrometer: HR+D1039
Trigger mode: 0
Integration Time (sec): 1.510000E-3
Scans to average: 1
Electric dark correction enabled: true
Nonlinearity correction enabled: false
Boxcar width: 0
XAxis mode: Wavelengths
Number of Pixels in Spectrum: 2048
>>>>>Begin Spectral Data<<<<<
187.836	2.44
188.309	2.44
188.782	2.44
189.255	-4.56
189.728	0.44
190.201	-3.56
190.674	-11.56
191.147	-3.56
191.619	6.44
192.092	-6.56
192.565	-3.56
193.038	-10.56
193.511	3.44
193.984	-2.56
194.456	-0.56
194.929	9.44
195.402	16.44
195.874	8.44
196.347	28.44
196.82	14.44
197.292	37.44
197.765	43.44
198.237	35.44
198.71	28.44
199.182	36.44
199.655	49.44
200.127	46.44
200.6	62.44
201.072	62.44
201.544	53.44
202.017	66.44
202.489	65.44
202.961	70.44
203.433	78.44
203.906	75.44
204.378	85.44
204.85	78.44
205.322	97.44
205.794	91.44
206.266	74.44
206.739	81.44
207.211	96.44
207.683	91.44
208.155	77.44
208.627	69.44
209.099	70.44
209.57	76.44
210.042	86.44
210.514	79.44
210.986	64.44
211.458	94.44
211.93	85.44
212.402	80.44
212.873	82.44
213.345	77.44
213.817	93.44
214.288	86.44
214.76	102.44
215.232	66.44
215.703	78.44
216.175	81.44
216.646	95.44
217.118	95.44
217.589	88.44
218.061	74.44
218.532	58.44
219.004	74.44
219.475	86.44
219.946	65.44
220.418	85.44
220.889	73.44
221.36	94.44
221.832	89.44
222.303	93.44
222.774	80.44
223.245	83.44
223.717	66.44
224.188	82.44
224.659	74.44
225.13	71.44
225.601	90.44
226.072	85.44
226.543	93.44
227.014	67.44
227.485	56.44
227.956	84.44
228.427	83.44
228.898	84.44
229.369	86.44
229.839	80.44
230.31	68.44
230.781	73.44
231.252	87.44
231.722	84.44
232.193	77.44
232.664	67.44
233.135	104.44
233.605	66.44
234.076	89.44
234.546	86.44
235.017	96.44
235.487	72.44
235.958	92.44
236.428	67.44
236.899	79.44
237.369	89.44
237.84	102.44
238.31	86.44
238.78	89.44
239.251	88.44
239.721	86.44
240.191	78.44
240.662	86.44
241.132	69.44
241.602	85.44
242.072	78.44
242.542	93.44
243.013	96.44
243.483	96.44
243.953	87.44
244.423	94.44
244.893	90.44
245.363	94.44
245.833	88.44
246.303	92.44
246.773	80.44
247.243	108.44
247.712	81.44
248.182	102.44
248.652	69.44
249.122	86.44
249.592	96.44
250.061	88.44
250.531	96.44
251.001	96.44
251.471	96.44
251.94	89.44
252.41	98.44
252.879	103.44
253.349	92.44
253.818	84.44
254.288	78.44
254.757	99.44
255.227	88.44
255.696	85.44
256.166	116.44
256.635	85.44
257.105	76.44
257.574	90.44
258.043	87.44
258.513	88.44
258.982	83.44
259.451	94.44
259.92	102.44
260.389	104.44
260.859	99.44
261.328	79.44
261.797	92.44
262.266	91.44
262.735	91.44
263.204	89.44
263.673	100.44
264.142	92.44
264.611	81.44
265.08	94.44
265.549	106.44
266.018	93.44
266.487	107.44
266.955	109.44
267.424	104.44
267.893	100.44
268.362	98.44
268.83	114.44
269.299	90.44
269.768	106.44
270.236	106.44
270.705	106.44
271.174	99.44
271.642	104.44
272.111	94.44
272.579	88.44
273.048	105.44
273.516	114.44
273.985	96.44
274.453	92.44
274.922	113.44
275.39	114.44
275.858	92.44
276.327	112.44
276.795	105.44
277.263	120.44
277.731	82.44
278.2	81.44
278.668	94.44
279.136	123.44
279.604	115.44
280.072	92.44
280.54	109.44
281.008	97.44
281.477	110.44
281.945	101.44
282.413	102.44
282.881	102.44
283.348	98.44
283.816	108.44
284.284	107.44
284.752	101.44
285.22	106.44
285.688	105.44
286.156	96.44
286.623	126.44
287.091	127.44
287.559	100.44
288.026	118.44
288.494	125.44
288.962	121.44
289.429	112.44
289.897	122.44
290.364	110.44
290.832	120.44
291.3	91.44
291.767	113.44
292.234	120.44
292.702	118.44
293.169	128.44
293.637	126.44
294.104	118.44
294.571	129.44
295.039	100.44
295.506	128.44
295.973	112.44
296.44	122.44
296.908	123.44
297.375	123.44
297.842	113.44
298.309	120.44
298.776	130.44
299.243	126.44
299.71	126.44
300.177	129.44
300.644	124.44
301.111	120.44
301.578	140.44
302.045	130.44
302.512	116.44
302.979	126.44
303.446	132.44
303.913	132.44
304.379	122.44
304.846	124.44
305.313	143.44
305.78	139.44
306.246	128.44
306.713	130.44
307.18	150.44
307.646	129.44
308.113	145.44
308.579	122.44
309.046	147.44
309.512	126.44
309.979	129.44
310.445	141.44
310.912	151.44
311.378	135.44
311.845	136.44
312.311	150.44
312.777	134.44
313.244	131.44
313.71	134.44
314.176	144.44
314.642	152.44
315.109	134.44
315.575	126.44
316.041	148.44
316.507	144.44
316.973	147.44
317.439	156.44
317.905	153.44
318.371	142.44
318.837	147.44
319.303	139.44
319.769	152.44
320.235	152.44
320.701	160.44
321.167	151.44
321.633	154.44
322.099	164.44
322.564	145.44
323.03	156.44
323.496	140.44
323.962	144.44
324.427	152.44
324.893	154.44
325.359	148.44
325.824	136.44
326.29	161.44
326.755	154.44
327.221	178.44
327.686	167.44
328.152	177.44
328.617	164.44
329.083	158.44
329.548	171.44
330.014	154.44
330.479	156.44
330.944	165.44
331.41	154.44
331.875	173.44
332.34	162.44
332.805	173.44
333.271	165.44
333.736	183.44
334.201	182.44
334.666	170.44
335.131	170.44
335.596	170.44
336.061	178.44
336.526	167.44
336.991	152.44
337.456	164.44
337.921	184.44
338.386	194.44
338.851	164.44
339.316	170.44
339.781	178.44
340.246	172.44
340.711	178.44
341.175	169.44
341.64	174.44
342.105	178.44
342.569	178.44
343.034	183.44
343.499	188.44
343.963	189.44
344.428	176.44
344.893	194.44
345.357	201.44
345.822	204.44
346.286	192.44
346.751	204.44
347.215	182.44
347.679	191.44
348.144	205.44
348.608	204.44
349.073	180.44
349.537	201.44
350.001	236.44
350.465	214.44
350.93	224.44
351.394	217.44
351.858	230.44
352.322	224.44
352.786	210.44
353.25	214.44
353.715	190.44
354.179	217.44
354.643	230.44
355.107	224.44
355.571	246.44
356.035	240.44
356.498	236.44
356.962	225.44
357.426	224.44
357.89	253.44
358.354	234.44
358.818	216.44
359.281	215.44
359.745	234.44
360.209	210.44
360.673	225.44
361.136	221.44
361.6	218.44
362.064	238.44
362.527	222.44
362.991	223.44
363.454	202.44
363.918	212.44
364.381	226.44
364.845	230.44
365.308	248.44
365.772	255.44
366.235	232.44
366.698	260.44
367.162	256.44
367.625	246.44
368.088	250.44
368.552	239.44
369.015	239.44
369.478	252.44
369.941	246.44
370.404	252.44
370.867	248.44
371.331	243.44
371.794	246.44
372.257	242.44
372.72	258.44
373.183	247.44
373.646	267.44
374.109	245.44
374.572	281.44
375.035	257.44
375.497	284.44
375.96	270.44
376.423	262.44
376.886	264.44
377.349	247.44
377.811	260.44
378.274	253.44
378.737	263.44
379.199	273.44
379.662	258.44
380.125	261.44
380.587	272.44
381.05	281.44
381.512	303.44
381.975	303.44
382.437	306.44
382.9	301.44
383.362	294.44
383.825	283.44
384.287	293.44
384.75	294.44
385.212	298.44
385.674	280.44
386.136	302.44
386.599	293.44
387.061	322.44
387.523	297.44
387.985	300.44
388.447	296.44
388.91	307.44
389.372	314.44
389.834	315.44
390.296	305.44
390.758	310.44
391.22	321.44
391.682	326.44
392.144	320.44
392.606	328.44
393.068	318.44
393.529	344.44
393.991	344.44
394.453	341.44
394.915	324.44
395.377	321.44
395.838	350.44
396.3	319.44
396.762	314.44
397.224	334.44
397.685	333.44
398.147	317.44
398.608	331.44
399.07	335.44
399.531	339.44
399.993	350.44
400.454	332.44
400.916	364.44
401.377	366.44
401.839	363.44
402.3	343.44
402.762	368.44
403.223	398.44
403.684	369.44
404.145	376.44
404.607	365.44
405.068	334.44
405.529	338.44
405.99	390.44
406.451	364.44
406.913	379.44
407.374	365.44
407.835	349.44
408.296	380.44
408.757	422.44
409.218	383.44
409.679	392.44
410.14	380.44
410.601	395.44
411.062	403.44
411.522	401.44
411.983	393.44
412.444	403.44
412.905	410.44
413.366	445.44
413.826	449.44
414.287	491.44
414.748	525.44
415.208	564.44
415.669	493.44
416.13	409.44
416.59	447.44
417.051	466.44
417.511	501.44
417.972	531.44
418.432	510.44
418.893	596.44
419.353	562.44
419.814	450.44
420.274	433.44
420.734	420.44
421.195	422.44
421.655	390.44
422.115	405.44
422.576	443.44
423.036	435.44
423.496	436.44
423.956	435.44
424.416	496.44
424.876	530.44
425.336	540.44
425.797	516.44
426.257	535.44
426.717	471.44
427.177	462.44
427.637	474.44
428.097	482.44
428.556	474.44
429.016	528.44
429.476	537.44
429.936	546.44
430.396	551.44
430.856	546.44
431.315	536.44
431.775	584.44
432.235	627.44
432.694	634.44
433.154	582.44
433.614	593.44
434.073	557.44
434.533	533.44
434.993	512.44
435.452	528.44
435.912	515.44
436.371	504.44
436.83	500.44
437.29	498.44
437.749	455.44
438.209	470.44
438.668	477.44
439.127	513.44
439.587	451.44
440.046	478.44
440.505	458.44
440.964	474.44
441.424	512.44
441.883	493.44
442.342	484.44
442.801	463.44
443.26	457.44
443.719	482.44
444.178	487.44
444.637	468.44
445.096	469.44
445.555	454.44
446.014	453.44
446.473	472.44
446.932	484.44
447.391	475.44
447.849	468.44
448.308	460.44
448.767	476.44
449.226	495.44
449.685	518.44
450.143	528.44
450.602	504.44
451.061	489.44
451.519	489.44
451.978	471.44
452.436	459.44
452.895	466.44
453.353	481.44
453.812	460.44
454.27	479.44
454.729	482.44
455.187	474.44
455.646	476.44
456.104	504.44
456.562	498.44
457.021	518.44
457.479	475.44
457.937	494.44
458.395	507.44
458.854	487.44
459.312	504.44
459.77	504.44
460.228	491.44
460.686	502.44
461.144	484.44
461.602	497.44
462.06	520.44
462.518	502.44
462.976	522.44
463.434	534.44
463.892	536.44
464.35	551.44
464.808	517.44
465.266	532.44
465.724	552.44
466.181	561.44
466.639	550.44
467.097	576.44
467.555	610.44
468.012	587.44
468.47	602.44
468.928	590.44
469.385	648.44
469.843	616.44
470.3	607.44
470.758	653.44
471.215	675.44
471.673	658.44
472.13	671.44
472.588	674.44
473.045	687.44
473.503	714.44
473.96	766.44
474.417	731.44
474.875	768.44
475.332	794.44
475.789	828.44
476.246	814.44
476.704	828.44
477.161	859.44
477.618	886.44
478.075	929.44
478.532	983.44
478.989	1057.44
479.446	1118.44
479.903	1236.44
480.36	1282.44
480.817	1415.44
481.274	1502.44
481.731	1589.44
482.188	1727.44
482.645	1853.44
483.102	1953.44
483.558	2064.44
484.015	2181.44
484.472	2174.44
484.929	2095.44
485.385	2073.44
485.842	1977.44
486.299	1903.44
486.755	1734.44
487.212	1602.44
487.668	1455.44
488.125	1350.44
488.582	1227.44
489.038	1220.44
489.494	1200.44
489.951	1157.44
490.407	1112.44
490.864	1098.44
491.32	1052.44
491.776	1095.44
492.233	1067.44
492.689	1051.44
493.145	1004.44
493.602	1014.44
494.058	1026.44
494.514	1064.44
494.97	1030.44
495.426	1015.44
495.882	1038.44
496.338	1040.44
496.794	1076.44
497.251	1053.44
497.707	1094.44
498.163	1056.44
498.618	1052.44
499.074	1100.44
499.53	1100.44
499.986	1110.44
500.442	1104.44
500.898	1093.44
501.354	1070.44
501.809	1070.44
502.265	1053.44
502.721	1075.44
503.177	1073.44
503.632	1100.44
504.088	1100.44
504.543	1096.44
504.999	1124.44
505.455	1110.44
505.91	1101.44
506.366	1100.44
506.821	1110.44
507.277	1094.44
507.732	1103.44
508.187	1090.44
508.643	1100.44
509.098	1118.44
509.553	1117.44
510.009	1116.44
510.464	1156.44
510.919	1173.44
511.375	1184.44
511.83	1150.44
512.285	1164.44
512.74	1201.44
513.195	1267.44
513.65	1249.44
514.105	1276.44
514.56	1274.44
515.015	1302.44
515.47	1309.44
515.925	1268.44
516.38	1332.44
516.835	1292.44
517.29	1287.44
517.745	1296.44
518.2	1272.44
518.655	1281.44
519.109	1230.44
519.564	1236.44
520.019	1246.44
520.474	1239.44
520.928	1218.44
521.383	1206.44
521.838	1195.44
522.292	1158.44
522.747	1189.44
523.201	1172.44
523.656	1185.44
524.11	1158.44
524.565	1170.44
525.019	1198.44
525.474	1152.44
525.928	1138.44
526.382	1140.44
526.837	1158.44
527.291	1173.44
527.745	1161.44
528.2	1178.44
528.654	1158.44
529.108	1115.44
529.562	1140.44
530.016	1146.44
530.47	1166.44
530.925	1124.44
531.379	1165.44
531.833	1162.44
532.287	1163.44
532.741	1145.44
533.195	1182.44
533.649	1167.44
534.103	1136.44
534.556	1132.44
535.01	1164.44
535.464	1162.44
535.918	1160.44
536.372	1179.44
536.826	1164.44
537.279	1140.44
537.733	1128.44
538.187	1123.44
538.64	1139.44
539.094	1181.44
539.548	1183.44
540.001	1171.44
540.455	1188.44
540.908	1208.44
541.362	1213.44
541.815	1225.44
542.269	1225.44
542.722	1216.44
543.175	1220.44
543.629	1231.44
544.082	1275.44
544.536	1262.44
544.989	1231.44
545.442	1254.44
545.895	1289.44
546.349	1237.44
546.802	1245.44
547.255	1255.44
547.708	1278.44
548.161	1273.44
548.614	1300.44
549.067	1323.44
549.52	1282.44
549.973	1309.44
550.426	1257.44
550.879	1324.44
551.332	1306.44
551.785	1287.44
552.238	1283.44
552.691	1290.44
553.144	1338.44
553.596	1354.44
554.049	1383.44
554.502	1394.44
554.955	1419.44
555.407	1442.44
555.86	1417.44
556.313	1409.44
556.765	1379.44
557.218	1357.44
557.67	1346.44
558.123	1370.44
558.576	1347.44
559.028	1333.44
559.48	1347.44
559.933	1344.44
560.385	1317.44
560.838	1250.44
561.29	1226.44
561.742	1237.44
562.195	1203.44
562.647	1210.44
563.099	1200.44
563.551	1197.44
564.004	1214.44
564.456	1206.44
564.908	1182.44
565.36	1146.44
565.812	1110.44
566.264	1095.44
566.716	1121.44
567.168	1104.44
567.62	1107.44
568.072	1075.44
568.524	1081.44
568.976	1058.44
569.428	1062.44
569.88	1071.44
570.332	1063.44
570.784	1072.44
571.235	1076.44
571.687	1097.44
572.139	1089.44
572.59	1051.44
573.042	1088.44
573.494	1108.44
573.945	1079.44
574.397	1069.44
574.849	1068.44
575.3	1050.44
575.752	1029.44
576.203	1011.44
576.655	1041.44
577.106	1011.44
577.557	1002.44
578.009	1011.44
578.46	999.44
578.912	999.44
579.363	986.44
579.814	1011.44
580.265	999.44
580.717	1008.44
581.168	1020.44
581.619	1035.44
582.07	1039.44
582.521	1025.44
582.972	1016.44
583.423	1034.44
583.875	1015.44
584.326	1008.44
584.777	1029.44
585.227	1082.44
585.678	1059.44
586.129	1069.44
586.58	1083.44
587.031	1095.44
587.482	1114.44
587.933	1145.44
588.384	1110.44
588.834	1123.44
589.285	1139.44
589.736	1136.44
590.186	1175.44
590.637	1125.44
591.088	1121.44
591.538	1108.44
591.989	1096.44
592.439	1072.44
592.89	1048.44
593.34	1038.44
593.791	1050.44
594.241	1072.44
594.692	1040.44
595.142	1034.44
595.593	1008.44
596.043	976.44
596.493	1048.44
596.943	1014.44
597.394	1062.44
597.844	1070.44
598.294	1069.44
598.744	1134.44
599.195	1184.44
599.645	1236.44
600.095	1314.44
600.545	1338.44
600.995	1363.44
601.445	1449.44
601.895	1496.44
602.345	1523.44
602.795	1564.44
603.245	1526.44
603.695	1436.44
604.145	1372.44
604.594	1287.44
605.044	1234.44
605.494	1184.44
605.944	1122.44
606.393	1106.44
606.843	1034.44
607.293	1051.44
607.743	1041.44
608.192	1044.44
608.642	1041.44
609.091	1038.44
609.541	1068.44
609.99	1036.44
610.44	1031.44
610.889	1015.44
611.339	1027.44
611.788	997.44
612.238	998.44
612.687	990.44
613.136	984.44
613.586	1016.44
614.035	1016.44
614.484	1027.44
614.933	1053.44
615.383	1023.44
615.832	982.44
616.281	974.44
616.73	980.44
617.179	950.44
617.628	928.44
618.077	904.44
618.526	897.44
618.975	893.44
619.424	896.44
619.873	897.44
620.322	887.44
620.771	879.44
621.22	849.44
621.669	824.44
622.118	837.44
622.567	794.44
623.015	808.44
623.464	819.44
623.913	837.44
624.361	816.44
624.81	785.44
625.259	785.44
625.707	821.44
626.156	834.44
626.604	836.44
627.053	843.44
627.501	818.44
627.95	820.44
628.398	822.44
628.847	821.44
629.295	812.44
629.744	796.44
630.192	813.44
630.64	778.44
631.089	786.44
631.537	774.44
631.985	753.44
632.433	760.44
632.881	764.44
633.33	757.44
633.778	764.44
634.226	772.44
634.674	768.44
635.122	785.44
635.57	763.44
636.018	803.44
636.466	776.44
636.914	791.44
637.362	809.44
637.81	792.44
638.258	821.44
638.705	862.44
639.153	882.44
639.601	873.44
640.049	872.44
640.497	905.44
640.944	924.44
641.392	916.44
641.84	871.44
642.287	861.44
642.735	820.44
643.182	810.44
643.63	801.44
644.078	781.44
644.525	820.44
644.973	852.44
645.42	818.44
645.867	865.44
646.315	878.44
646.762	885.44
647.21	953.44
647.657	985.44
648.104	1062.44
648.551	1018.44
648.999	1073.44
649.446	1198.44
649.893	1321.44
650.34	1508.44
650.787	1772.44
651.234	2202.44
651.682	2904.44
652.129	4098.44
652.576	5646.44
653.023	7836.44
653.47	9589.44
653.917	10734.44
654.363	11196.44
654.81	11964.44
655.257	12489.44
655.704	9715.44
656.151	5738.44
656.598	3728.44
657.044	2649.44
657.491	2052.44
657.938	1705.44
658.385	1402.44
658.831	1229.44
659.278	1150.44
659.724	1006.44
660.171	969.44
660.618	905.44
661.064	874.44
661.511	841.44
661.957	822.44
662.404	795.44
662.85	761.44
663.296	768.44
663.743	744.44
664.189	752.44
664.635	735.44
665.082	732.44
665.528	768.44
665.974	729.44
666.42	704.44
666.867	690.44
667.313	678.44
667.759	663.44
668.205	644.44
668.651	632.44
669.097	650.44
669.543	642.44
669.989	689.44
670.435	666.44
670.881	653.44
671.327	664.44
671.773	685.44
672.219	710.44
672.665	804.44
673.11	828.44
673.556	838.44
674.002	845.44
674.448	882.44
674.893	805.44
675.339	683.44
675.785	659.44
676.23	608.44
676.676	584.44
677.122	570.44
677.567	543.44
678.013	517.44
678.458	528.44
678.904	520.44
679.349	506.44
679.794	522.44
680.24	524.44
680.685	522.44
681.131	519.44
681.576	512.44
682.021	536.44
682.466	542.44
682.912	516.44
683.357	511.44
683.802	601.44
684.247	636.44
684.692	669.44
685.137	680.44
685.583	714.44
686.028	763.44
686.473	718.44
686.918	653.44
687.363	563.44
687.807	545.44
688.252	557.44
688.697	526.44
689.142	505.44
689.587	517.44
690.032	515.44
690.477	554.44
690.921	554.44
691.366	560.44
691.811	581.44
692.255	611.44
692.7	690.44
693.145	904.44
693.589	1341.44
694.034	1755.44
694.478	1945.44
694.923	1786.44
695.367	2159.44
695.812	2052.44
696.256	887.44
696.701	600.44
697.145	527.44
697.59	498.44
698.034	500.44
698.478	498.44
698.922	478.44
699.367	516.44
699.811	496.44
700.255	538.44
700.699	589.44
701.143	610.44
701.588	625.44
702.032	704.44
702.476	715.44
702.92	751.44
703.364	839.44
703.808	1218.44
704.252	1642.44
704.696	1830.44
705.14	1708.44
705.584	2152.44
706.027	1753.44
706.471	868.44
706.915	594.44
707.359	511.44
707.803	489.44
708.246	483.44
708.69	451.44
709.134	454.44
709.577	440.44
710.021	469.44
710.465	450.44
710.908	450.44
711.352	466.44
711.795	506.44
712.239	543.44
712.682	538.44
713.126	572.44
713.569	586.44
714.012	549.44
714.456	460.44
714.899	460.44
715.342	435.44
715.786	426.44
716.229	402.44
716.672	388.44
717.115	382.44
717.558	378.44
718.002	404.44
718.445	427.44
718.888	439.44
719.331	448.44
719.774	470.44
720.217	446.44
720.66	442.44
721.103	420.44
721.546	399.44
721.989	393.44
722.432	352.44
722.874	386.44
723.317	389.44
723.76	390.44
724.203	438.44
724.645	560.44
725.088	657.44
725.531	703.44
725.974	687.44
726.416	734.44
726.859	499.44
727.301	384.44
727.744	373.44
728.187	342.44
728.629	372.44
729.071	401.44
729.514	420.44
729.956	432.44
730.399	445.44
730.841	428.44
731.283	414.44
731.726	422.44
732.168	402.44
732.61	440.44
733.053	455.44
733.495	516.44
733.937	528.44
734.379	582.44
734.821	690.44
735.263	946.44
735.705	1584.44
736.148	2530.44
736.59	3000.44
737.032	2774.44
737.474	3057.44
737.916	1528.44
738.357	741.44
738.799	529.44
739.241	476.44
739.683	463.44
740.125	482.44
740.567	482.44
741.008	478.44
741.45	489.44
741.892	526.44
742.334	545.44
742.775	541.44
743.217	546.44
743.658	498.44
744.1	465.44
744.542	512.44
744.983	555.44
745.425	545.44
745.866	587.44
746.307	494.44
746.749	472.44
747.19	562.44
747.632	939.44
748.073	1796.44
748.514	2693.44
748.956	3289.44
749.397	4524.44
749.838	3663.44
750.279	3001.44
750.72	2288.44
751.162	1045.44
751.603	564.44
752.044	434.44
752.485	380.44
752.926	362.44
753.367	343.44
753.808	344.44
754.249	320.44
754.69	343.44
755.131	342.44
755.572	340.44
756.013	307.44
756.453	320.44
756.894	338.44
757.335	336.44
757.776	320.44
758.216	336.44
758.657	362.44
759.098	384.44
759.538	409.44
759.979	506.44
760.42	799.44
760.86	1729.44
761.301	4078.44
761.741	5929.44
762.182	6134.44
762.622	5746.44
763.063	2692.44
763.503	1074.44
763.943	596.44
764.384	444.44
764.824	388.44
765.264	355.44
765.705	345.44
766.145	307.44
766.585	327.44
767.025	322.44
767.465	284.44
767.906	327.44
768.346	328.44
768.786	341.44
769.226	414.44
769.666	640.44
770.106	1348.44
770.546	2404.44
770.986	2580.44
771.426	2552.44
771.866	1459.44
772.306	669.44
772.745	392.44
773.185	326.44
773.625	296.44
774.065	283.44
774.505	331.44
774.944	538.44
775.384	822.44
775.824	979.44
776.263	961.44
776.703	668.44
777.142	398.44
777.582	292.44
778.021	247.44
778.461	234.44
778.9	231.44
779.34	253.44
779.779	237.44
780.219	226.44
780.658	252.44
781.097	210.44
781.537	220.44
781.976	188.44
782.415	229.44
782.855	209.44
783.294	226.44
783.733	222.44
784.172	206.44
784.611	203.44
785.05	220.44
785.489	210.44
785.928	257.44
786.367	226.44
786.806	224.44
787.245	240.44
787.684	240.44
788.123	260.44
788.562	266.44
789.001	276.44
789.44	228.44
789.879	253.44
790.317	218.44
790.756	240.44
791.195	267.44
791.634	320.44
792.072	422.44
792.511	856.44
792.95	1804.44
793.388	2255.44
793.827	2030.44
794.265	1232.44
794.704	613.44
795.142	376.44
795.581	288.44
796.019	270.44
796.458	253.44
796.896	232.44
797.334	257.44
797.773	325.44
798.211	464.44
798.649	908.44
799.087	1459.44
799.526	2220.44
799.964	2490.44
800.402	2086.44
800.84	1249.44
801.278	697.44
801.716	388.44
802.154	313.44
802.592	282.44
803.03	287.44
803.468	294.44
803.906	299.44
804.344	293.44
804.782	273.44
805.22	264.44
805.658	242.44
806.096	265.44
806.533	304.44
806.971	332.44
807.409	405.44
807.847	657.44
808.284	1450.44
808.722	2952.44
809.16	4069.44
809.597	5672.44
810.035	7295.44
810.472	6245.44
810.91	3379.44
811.347	1682.44
811.785	804.44
812.222	466.44
812.66	360.44
813.097	303.44
813.535	274.44
813.972	271.44
814.409	242.44
814.846	228.44
815.284	229.44
815.721	217.44
816.158	243.44
816.595	265.44
817.032	326.44
817.47	357.44
817.907	272.44
818.344	260.44
818.781	262.44
819.218	266.44
819.655	340.44
820.092	414.44
820.529	430.44
820.966	381.44
821.403	296.44
821.839	245.44
822.276	252.44
822.713	283.44
823.15	301.44
823.587	282.44
824.023	347.44
824.46	676.44
824.897	1315.44
825.333	1395.44
825.77	854.44
826.206	513.44
826.643	318.44
827.08	222.44
827.516	210.44
827.953	200.44
828.389	178.44
828.825	171.44
829.262	173.44
829.698	171.44
830.135	157.44
830.571	152.44
831.007	157.44
831.443	168.44
831.88	161.44
832.316	182.44
832.752	162.44
833.188	162.44
833.624	196.44
834.06	181.44
834.497	176.44
834.933	204.44
835.369	200.44
835.805	178.44
836.241	182.44
836.677	193.44
837.112	199.44
837.548	254.44
837.984	278.44
838.42	471.44
838.856	1080.44
839.292	2232.44
839.727	2532.44
840.163	1642.44
840.599	1916.44
841.034	2841.44
841.47	2280.44
841.906	1287.44
842.341	763.44
842.777	447.44
843.212	423.44
843.648	364.44
844.083	268.44
844.519	234.44
844.954	172.44
845.39	182.44
845.825	171.44
846.261	173.44
846.696	154.44
847.131	139.44
847.566	161.44
848.002	174.44
848.437	173.44
848.872	152.44
849.307	165.44
849.742	231.44
850.177	411.44
850.613	886.44
851.048	970.44
851.483	553.44
851.918	383.44
852.353	252.44
852.788	163.44
853.223	166.44
853.657	152.44
854.092	157.44
854.527	134.44
854.962	144.44
855.397	161.44
855.832	172.44
856.266	149.44
856.701	141.44
857.136	127.44
857.57	144.44
858.005	178.44
858.44	169.44
858.874	148.44
859.309	150.44
859.743	161.44
860.178	168.44
860.612	144.44
861.047	171.44
861.481	209.44
861.915	191.44
862.35	173.44
862.784	148.44
863.218	162.44
863.653	153.44
864.087	138.44
864.521	147.44
864.955	207.44
865.39	297.44
865.824	303.44
866.258	317.44
866.692	398.44
867.126	379.44
867.56	279.44
867.994	212.44
868.428	168.44
868.862	166.44
869.296	184.44
869.73	202.44
870.164	191.44
870.598	179.44
871.031	156.44
871.465	152.44
871.899	131.44
872.333	129.44
872.766	126.44
873.2	132.44
873.634	139.44
874.067	112.44
874.501	128.44
874.935	121.44
875.368	141.44
875.802	128.44
876.235	139.44
876.669	109.44
877.102	120.44
877.535	106.44
877.969	112.44
878.402	115.44
878.836	112.44
879.269	120.44
879.702	110.44
880.135	127.44
880.569	118.44
881.002	102.44
881.435	97.44
881.868	114.44
882.301	125.44
882.734	94.44
883.167	120.44
883.601	114.44
884.034	113.44
884.467	97.44
884.899	110.44
885.332	104.44
885.765	104.44
886.198	118.44
886.631	94.44
887.064	120.44
887.497	118.44
887.929	120.44
888.362	97.44
888.795	94.44
889.228	114.44
889.66	113.44
890.093	102.44
890.526	100.44
890.958	106.44
891.391	102.44
891.823	113.44
892.256	117.44
892.688	128.44
893.121	110.44
893.553	95.44
893.985	98.44
894.418	94.44
894.85	118.44
895.282	100.44
895.715	95.44
896.147	108.44
896.579	119.44
897.011	107.44
897.444	118.44
897.876	106.44
898.308	116.44
898.74	116.44
899.172	105.44
899.604	105.44
900.036	118.44
900.468	115.44
900.9	120.44
901.332	112.44
901.764	114.44
902.196	136.44
902.628	112.44
903.06	133.44
903.491	134.44
903.923	121.44
904.355	121.44
904.787	128.44
905.218	120.44
905.65	126.44
906.082	120.44
906.513	112.44
906.945	112.44
907.376	123.44
907.808	118.44
908.239	109.44
908.671	126.44
909.102	114.44
909.534	124.44
909.965	136.44
910.397	244.44
910.828	571.44
911.259	611.44
911.691	388.44
912.122	288.44
912.553	181.44
912.984	161.44
913.415	108.44
913.847	138.44
914.278	110.44
914.709	116.44
915.14	97.44
915.571	102.44
916.002	105.44
916.433	107.44
916.864	106.44
917.295	107.44
917.726	109.44
918.157	127.44
918.587	120.44
919.018	94.44
919.449	120.44
919.88	114.44
920.311	126.44
920.741	186.44
921.172	319.44
921.603	269.44
922.033	186.44
922.464	155.44
922.895	123.44
923.325	110.44
923.756	114.44
924.186	115.44
924.617	125.44
925.047	117.44
925.478	152.44
925.908	133.44
926.338	113.44
926.769	115.44
927.199	104.44
927.629	104.44
928.06	100.44
928.49	129.44
928.92	104.44
929.35	81.44
929.78	101.44
930.21	82.44
930.641	93.44
931.071	97.44
931.501	116.44
931.931	89.44
932.361	102.44
932.791	114.44
933.221	100.44
933.651	116.44
934.08	108.44
934.51	116.44
934.94	106.44
935.37	105.44
935.8	83.44
936.229	95.44
936.659	108.44
937.089	97.44
937.519	126.44
937.948	100.44
938.378	125.44
938.807	107.44
939.237	100.44
939.666	99.44
940.096	84.44
940.525	81.44
940.955	82.44
941.384	94.44
941.814	98.44
942.243	92.44
942.672	92.44
943.102	85.44
943.531	87.44
943.96	103.44
944.39	95.44
944.819	100.44
945.248	100.44
945.677	88.44
946.106	85.44
946.535	75.44
946.964	85.44
947.393	90.44
947.822	84.44
948.251	94.44
948.68	91.44
949.109	93.44
949.538	78.44
949.967	88.44
950.396	102.44
950.825	102.44
951.254	105.44
951.682	85.44
952.111	99.44
952.54	98.44
952.969	78.44
953.397	93.44
953.826	95.44
954.254	86.44
954.683	81.44
955.112	92.44
955.54	72.44
955.969	90.44
956.397	84.44
956.826	68.44
957.254	86.44
957.682	86.44
958.111	79.44
958.539	86.44
958.967	95.44
959.396	82.44
959.824	84.44
960.252	90.44
960.68	90.44
961.109	108.44
961.537	92.44
961.965	100.44
962.393	92.44
962.821	88.44
963.249	93.44
963.677	83.44
964.105	113.44
964.533	158.44
964.961	142.44
965.389	120.44
965.817	102.44
966.245	82.44
966.672	99.44
967.1	89.44
967.528	80.44
967.956	90.44
968.383	92.44
968.811	93.44
969.239	95.44
969.666	89.44
970.094	93.44
970.522	82.44
970.949	79.44
971.377	94.44
971.804	94.44
972.232	85.44
972.659	74.44
973.087	74.44
973.514	77.44
973.941	112.44
974.369	73.44
974.796	94.44
975.223	82.44
975.651	93.44
976.078	80.44
976.505	99.44
976.932	95.44
977.359	104.44
977.786	102.44
978.214	108.44
978.641	85.44
979.068	94.44
979.495	68.44
979.922	69.44
980.349	75.44
980.776	96.44
981.202	96.44
981.629	68.44
982.056	92.44
982.483	93.44
982.91	94.44
983.337	82.44
983.763	83.44
984.19	97.44
984.617	98.44
985.043	85.44
985.47	73.44
985.897	91.44
986.323	91.44
986.75	89.44
987.176	88.44
987.603	83.44
988.029	89.44
988.456	88.44
988.882	83.44
989.308	76.44
989.735	86.44
990.161	91.44
990.587	85.44
991.014	58.44
991.44	73.44
991.866	94.44
992.292	92.44
992.719	96.44
993.145	100.44
993.571	90.44
993.997	94.44
994.423	75.44
994.849	69.44
995.275	74.44
995.701	82.44
996.127	97.44
996.553	81.44
996.979	81.44
997.405	94.44
997.83	91.44
998.256	81.44
998.682	71.44
999.108	81.44
999.534	83.44
999.959	100.44
1000.385	92.44
1000.811	85.44
1001.236	108.44
1001.662	88.44
1002.087	78.44
1002.513	82.44
1002.938	78.44
1003.364	94.44
1003.789	86.44
1004.215	77.44
1004.64	102.44
1005.066	92.44
1005.491	83.44
1005.916	81.44
1006.342	69.44
1006.767	64.44
1007.192	84.44
1007.617	82.44
1008.042	86.44
1008.468	84.44
1008.893	76.44
1009.318	97.44
1009.743	88.44
1010.168	93.44
1010.593	82.44
1011.018	99.44
1011.443	101.44
1011.868	73.44
1012.293	70.44
1012.718	90.44
1013.143	84.44
1013.567	89.44
1013.992	100.44
1014.417	80.44
1014.842	88.44
1015.267	90.44
1015.691	76.44
1016.116	86.44
1016.541	84.44
1016.965	89.44
1017.39	90.44
1017.814	110.44
1018.239	73.44
1018.663	74.44
1019.088	89.44
1019.512	105.44
1019.937	65.44
1020.361	79.44
1020.785	95.44
1021.21	86.44
1021.634	75.44
1022.058	68.44
1022.483	81.44
1022.907	92.44
1023.331	80.44
1023.755	76.44
1024.179	68.44
1024.604	97.44
1025.028	96.44
1025.452	86.44
1025.876	91.44
1026.3	87.44
1026.724	86.44
1027.148	75.44
1027.572	92.44
1027.996	85.44
1028.42	81.44
1028.843	83.44
1029.267	79.44
1029.691	90.44
1030.115	83.44
1030.539	101.44
1030.962	86.44
1031.386	77.44
1031.81	85.44
1032.233	82.44
1032.657	66.44
1033.08	83.44
1033.504	73.44
1033.927	73.44
1034.351	101.44
1034.774	69.44
1035.198	76.44
1035.621	81.44
1036.045	76.44
1036.468	93.44
1036.891	97.44
1037.315	88.44
1037.738	74.44
1038.161	85.44
1038.584	59.44
1039.008	82.44
1039.431	63.44
1039.854	79.44
1040.277	82.44
1040.7	71.44
1041.123	75.44
1041.546	93.44
1041.969	59.44
1042.392	73.44
1042.815	79.44
1043.238	84.44
1043.661	74.44
1044.084	97.44
1044.507	76.44
1044.93	81.44
1045.352	90.44
1045.775	86.44
1046.198	76.44
1046.621	84.44
1047.043	69.44
1047.466	63.44
1047.889	79.44
1048.311	75.44
1048.734	97.44
1049.156	76.44
1049.579	70.44
1050.001	81.44
1050.424	86.44
1050.846	78.44
1051.269	65.44
1051.691	85.44
1052.113	96.44
1052.536	78.44
1052.958	72.44
1053.38	78.44
1053.802	75.44
1054.225	72.44
1054.647	90.44
1055.069	96.44
1055.491	87.44
1055.913	87.44
1056.335	79.44
1056.757	74.44
1057.179	68.44
1057.601	96.44
1058.023	81.44
1058.445	85.44
1058.867	95.44
1059.289	84.44
1059.711	73.44
1060.133	84.44
1060.555	87.44
1060.976	72.44
1061.398	74.44
1061.82	83.44
1062.241	106.44
1062.663	85.44
1063.085	91.44
1063.506	84.44
1063.928	80.44
1064.35	89.44
1064.771	72.44
1065.193	100.44
1065.614	84.44
1066.035	80.44
1066.457	90.44
1066.878	75.44
1067.3	101.44
1067.721	74.44
1068.142	76.44
1068.564	76.44
1068.985	79.44
1069.406	86.44
1069.827	88.44
1070.248	93.44
1070.67	72.44
1071.091	84.44
1071.512	81.44
1071.933	93.44
1072.354	97.44
1072.775	92.44
1073.196	79.44
1073.617	82.44
1074.038	104.44
1074.459	87.44
1074.88	73.44
1075.3	70.44
1075.721	84.44
1076.142	91.44
1076.563	93.44
1076.983	82.44
1077.404	75.44
1077.825	86.44
1078.246	78.44
1078.666	79.44
1079.087	99.44
1079.507	88.44
1079.928	91.44
1080.348	90.44
1080.769	88.44
1081.189	80.44
1081.61	86.44
1082.03	72.44
1082.451	78.44
1082.871	86.44
1083.291	92.44
1083.711	82.44
1084.132	91.44
1084.552	84.44
1084.972	88.44
1085.392	95.44
1085.813	76.44
1086.233	85.44
1086.653	65.44
1087.073	76.44
1087.493	82.44
1087.913	97.44
1088.333	77.44
1088.753	79.44
1089.173	77.44
1089.593	86.44
1090.013	82.44
1090.433	91.44
1090.852	90.44
1091.272	94.44
1091.692	83.44
1092.112	82.44
1092.531	68.44
1092.951	87.44
1093.371	78.44
1093.79	88.44
1094.21	89.44
1094.63	76.44
1095.049	66.44
1095.469	82.44
1095.888	89.44
1096.308	80.44
1096.727	81.44
1097.146	84.44
1097.566	70.44
1097.985	77.44
1098.405	75.44
1098.824	79.44
1099.243	75.44
1099.662	81.44
1100.082	76.44
1100.501	82.44
1100.92	92.44
1101.339	82.44
1101.758	88.44
