Data from 20170802-ORNL-NYSim-Air_HRD10391_10-37-10-629.txt Node
Date: Wed Aug 02 10:37:10 EDT 2017
User: Ender
Spectrometer: HR+D1039
Trigger mode: 0
Integration Time (sec): 1.510000E-3
Scans to average: 1
Electric dark correction enabled: true
Nonlinearity correction enabled: false
Boxcar width: 0
XAxis mode: Wavelengths
Number of Pixels in Spectrum: 2048
>>>>>Begin Spectral Data<<<<<
187.836	0.62
188.309	0.62
188.782	0.62
189.255	4.62
189.728	9.62
190.201	-12.38
190.674	-12.38
191.147	-6.38
191.619	-4.38
192.092	4.62
192.565	-12.38
193.038	-16.38
193.511	4.62
193.984	-7.38
194.456	9.62
194.929	4.62
195.402	7.62
195.874	25.62
196.347	12.62
196.82	24.62
197.292	25.62
197.765	29.62
198.237	37.62
198.71	44.62
199.182	35.62
199.655	50.62
200.127	58.62
200.6	52.62
201.072	44.62
201.544	54.62
202.017	82.62
202.489	76.62
202.961	70.62
203.433	66.62
203.906	68.62
204.378	84.62
204.85	86.62
205.322	81.62
205.794	84.62
206.266	82.62
206.739	70.62
207.211	75.62
207.683	93.62
208.155	75.62
208.627	89.62
209.099	80.62
209.57	87.62
210.042	85.62
210.514	92.62
210.986	102.62
211.458	80.62
211.93	86.62
212.402	80.62
212.873	88.62
213.345	75.62
213.817	78.62
214.288	77.62
214.76	81.62
215.232	68.62
215.703	78.62
216.175	88.62
216.646	76.62
217.118	78.62
217.589	74.62
218.061	87.62
218.532	83.62
219.004	79.62
219.475	86.62
219.946	94.62
220.418	92.62
220.889	83.62
221.36	58.62
221.832	82.62
222.303	85.62
222.774	85.62
223.245	87.62
223.717	74.62
224.188	64.62
224.659	86.62
225.13	72.62
225.601	66.62
226.072	81.62
226.543	90.62
227.014	86.62
227.485	88.62
227.956	85.62
228.427	92.62
228.898	76.62
229.369	86.62
229.839	84.62
230.31	89.62
230.781	85.62
231.252	98.62
231.722	77.62
232.193	86.62
232.664	93.62
233.135	73.62
233.605	84.62
234.076	94.62
234.546	88.62
235.017	84.62
235.487	64.62
235.958	92.62
236.428	95.62
236.899	93.62
237.369	81.62
237.84	85.62
238.31	77.62
238.78	81.62
239.251	78.62
239.721	97.62
240.191	83.62
240.662	84.62
241.132	89.62
241.602	94.62
242.072	87.62
242.542	91.62
243.013	84.62
243.483	75.62
243.953	80.62
244.423	108.62
244.893	85.62
245.363	94.62
245.833	80.62
246.303	89.62
246.773	80.62
247.243	88.62
247.712	95.62
248.182	75.62
248.652	90.62
249.122	88.62
249.592	109.62
250.061	100.62
250.531	80.62
251.001	93.62
251.471	87.62
251.94	78.62
252.41	92.62
252.879	87.62
253.349	85.62
253.818	93.62
254.288	88.62
254.757	92.62
255.227	96.62
255.696	98.62
256.166	104.62
256.635	90.62
257.105	94.62
257.574	90.62
258.043	104.62
258.513	102.62
258.982	88.62
259.451	108.62
259.92	103.62
260.389	89.62
260.859	92.62
261.328	90.62
261.797	92.62
262.266	114.62
262.735	92.62
263.204	88.62
263.673	111.62
264.142	88.62
264.611	111.62
265.08	83.62
265.549	106.62
266.018	95.62
266.487	99.62
266.955	96.62
267.424	114.62
267.893	113.62
268.362	101.62
268.83	119.62
269.299	104.62
269.768	104.62
270.236	105.62
270.705	118.62
271.174	115.62
271.642	102.62
272.111	93.62
272.579	102.62
273.048	88.62
273.516	103.62
273.985	108.62
274.453	114.62
274.922	101.62
275.39	104.62
275.858	108.62
276.327	96.62
276.795	102.62
277.263	97.62
277.731	118.62
278.2	111.62
278.668	120.62
279.136	126.62
279.604	109.62
280.072	109.62
280.54	115.62
281.008	107.62
281.477	92.62
281.945	127.62
282.413	112.62
282.881	115.62
283.348	112.62
283.816	104.62
284.284	96.62
284.752	129.62
285.22	112.62
285.688	111.62
286.156	107.62
286.623	103.62
287.091	107.62
287.559	120.62
288.026	103.62
288.494	107.62
288.962	118.62
289.429	120.62
289.897	105.62
290.364	116.62
290.832	125.62
291.3	120.62
291.767	106.62
292.234	110.62
292.702	119.62
293.169	106.62
293.637	105.62
294.104	119.62
294.571	102.62
295.039	116.62
295.506	121.62
295.973	112.62
296.44	114.62
296.908	116.62
297.375	123.62
297.842	140.62
298.309	125.62
298.776	113.62
299.243	133.62
299.71	109.62
300.177	126.62
300.644	141.62
301.111	118.62
301.578	108.62
302.045	124.62
302.512	124.62
302.979	121.62
303.446	127.62
303.913	118.62
304.379	126.62
304.846	135.62
305.313	134.62
305.78	129.62
306.246	118.62
306.713	147.62
307.18	132.62
307.646	145.62
308.113	116.62
308.579	140.62
309.046	132.62
309.512	146.62
309.979	122.62
310.445	142.62
310.912	143.62
311.378	135.62
311.845	171.62
312.311	143.62
312.777	152.62
313.244	126.62
313.71	147.62
314.176	136.62
314.642	132.62
315.109	157.62
315.575	144.62
316.041	158.62
316.507	151.62
316.973	164.62
317.439	139.62
317.905	155.62
318.371	147.62
318.837	157.62
319.303	149.62
319.769	153.62
320.235	150.62
320.701	162.62
321.167	129.62
321.633	158.62
322.099	163.62
322.564	150.62
323.03	153.62
323.496	169.62
323.962	166.62
324.427	161.62
324.893	156.62
325.359	158.62
325.824	160.62
326.29	168.62
326.755	152.62
327.221	172.62
327.686	168.62
328.152	160.62
328.617	181.62
329.083	172.62
329.548	168.62
330.014	153.62
330.479	163.62
330.944	163.62
331.41	191.62
331.875	171.62
332.34	185.62
332.805	160.62
333.271	196.62
333.736	160.62
334.201	179.62
334.666	180.62
335.131	202.62
335.596	190.62
336.061	184.62
336.526	186.62
336.991	156.62
337.456	176.62
337.921	185.62
338.386	178.62
338.851	159.62
339.316	176.62
339.781	170.62
340.246	172.62
340.711	182.62
341.175	182.62
341.64	199.62
342.105	179.62
342.569	177.62
343.034	172.62
343.499	178.62
343.963	179.62
344.428	173.62
344.893	182.62
345.357	202.62
345.822	198.62
346.286	189.62
346.751	206.62
347.215	204.62
347.679	191.62
348.144	200.62
348.608	201.62
349.073	212.62
349.537	206.62
350.001	197.62
350.465	194.62
350.93	202.62
351.394	214.62
351.858	200.62
352.322	204.62
352.786	219.62
353.25	226.62
353.715	236.62
354.179	231.62
354.643	219.62
355.107	225.62
355.571	219.62
356.035	232.62
356.498	221.62
356.962	217.62
357.426	232.62
357.89	223.62
358.354	223.62
358.818	230.62
359.281	225.62
359.745	234.62
360.209	238.62
360.673	225.62
361.136	231.62
361.6	216.62
362.064	232.62
362.527	241.62
362.991	217.62
363.454	242.62
363.918	251.62
364.381	232.62
364.845	241.62
365.308	243.62
365.772	238.62
366.235	246.62
366.698	238.62
367.162	242.62
367.625	247.62
368.088	257.62
368.552	255.62
369.015	246.62
369.478	259.62
369.941	230.62
370.404	257.62
370.867	253.62
371.331	258.62
371.794	256.62
372.257	245.62
372.72	261.62
373.183	247.62
373.646	236.62
374.109	275.62
374.572	263.62
375.035	276.62
375.497	256.62
375.96	291.62
376.423	285.62
376.886	276.62
377.349	280.62
377.811	289.62
378.274	280.62
378.737	286.62
379.199	288.62
379.662	284.62
380.125	268.62
380.587	277.62
381.05	286.62
381.512	307.62
381.975	312.62
382.437	278.62
382.9	296.62
383.362	299.62
383.825	300.62
384.287	321.62
384.75	300.62
385.212	315.62
385.674	312.62
386.136	295.62
386.599	295.62
387.061	323.62
387.523	324.62
387.985	321.62
388.447	303.62
388.91	323.62
389.372	312.62
389.834	297.62
390.296	312.62
390.758	310.62
391.22	320.62
391.682	320.62
392.144	329.62
392.606	342.62
393.068	329.62
393.529	337.62
393.991	354.62
394.453	331.62
394.915	338.62
395.377	338.62
395.838	320.62
396.3	330.62
396.762	329.62
397.224	351.62
397.685	316.62
398.147	324.62
398.608	333.62
399.07	360.62
399.531	350.62
399.993	359.62
400.454	356.62
400.916	330.62
401.377	358.62
401.839	342.62
402.3	349.62
402.762	371.62
403.223	389.62
403.684	388.62
404.145	374.62
404.607	360.62
405.068	351.62
405.529	392.62
405.99	369.62
406.451	402.62
406.913	370.62
407.374	379.62
407.835	374.62
408.296	392.62
408.757	374.62
409.218	412.62
409.679	413.62
410.14	402.62
410.601	412.62
411.062	414.62
411.522	421.62
411.983	416.62
412.444	434.62
412.905	432.62
413.366	407.62
413.826	439.62
414.287	482.62
414.748	549.62
415.208	605.62
415.669	495.62
416.13	457.62
416.59	460.62
417.051	473.62
417.511	492.62
417.972	528.62
418.432	540.62
418.893	610.62
419.353	602.62
419.814	486.62
420.274	445.62
420.734	428.62
421.195	439.62
421.655	443.62
422.115	439.62
422.576	455.62
423.036	451.62
423.496	462.62
423.956	472.62
424.416	507.62
424.876	532.62
425.336	535.62
425.797	546.62
426.257	521.62
426.717	495.62
427.177	434.62
427.637	484.62
428.097	470.62
428.556	525.62
429.016	548.62
429.476	554.62
429.936	541.62
430.396	547.62
430.856	576.62
431.315	575.62
431.775	583.62
432.235	630.62
432.694	644.62
433.154	635.62
433.614	610.62
434.073	589.62
434.533	498.62
434.993	531.62
435.452	509.62
435.912	524.62
436.371	522.62
436.83	490.62
437.29	489.62
437.749	479.62
438.209	472.62
438.668	473.62
439.127	479.62
439.587	468.62
440.046	479.62
440.505	495.62
440.964	463.62
441.424	498.62
441.883	525.62
442.342	469.62
442.801	478.62
443.26	484.62
443.719	466.62
444.178	452.62
444.637	488.62
445.096	471.62
445.555	494.62
446.014	473.62
446.473	474.62
446.932	501.62
447.391	480.62
447.849	520.62
448.308	522.62
448.767	491.62
449.226	480.62
449.685	508.62
450.143	527.62
450.602	512.62
451.061	495.62
451.519	514.62
451.978	474.62
452.436	502.62
452.895	475.62
453.353	509.62
453.812	510.62
454.27	511.62
454.729	508.62
455.187	482.62
455.646	480.62
456.104	493.62
456.562	497.62
457.021	500.62
457.479	471.62
457.937	476.62
458.395	517.62
458.854	515.62
459.312	541.62
459.77	538.62
460.228	531.62
460.686	539.62
461.144	546.62
461.602	535.62
462.06	507.62
462.518	540.62
462.976	536.62
463.434	568.62
463.892	546.62
464.35	558.62
464.808	572.62
465.266	562.62
465.724	570.62
466.181	566.62
466.639	582.62
467.097	590.62
467.555	611.62
468.012	588.62
468.47	612.62
468.928	615.62
469.385	621.62
469.843	626.62
470.3	631.62
470.758	690.62
471.215	652.62
471.673	653.62
472.13	698.62
472.588	716.62
473.045	686.62
473.503	708.62
473.96	743.62
474.417	739.62
474.875	778.62
475.332	812.62
475.789	802.62
476.246	846.62
476.704	852.62
477.161	902.62
477.618	929.62
478.075	967.62
478.532	990.62
478.989	1068.62
479.446	1154.62
479.903	1237.62
480.36	1315.62
480.817	1384.62
481.274	1534.62
481.731	1636.62
482.188	1718.62
482.645	1901.62
483.102	1963.62
483.558	2048.62
484.015	2160.62
484.472	2160.62
484.929	2108.62
485.385	1974.62
485.842	1988.62
486.299	1898.62
486.755	1764.62
487.212	1624.62
487.668	1502.62
488.125	1381.62
488.582	1302.62
489.038	1215.62
489.494	1202.62
489.951	1176.62
490.407	1146.62
490.864	1083.62
491.32	1104.62
491.776	1105.62
492.233	1075.62
492.689	1118.62
493.145	1064.62
493.602	1060.62
494.058	1057.62
494.514	1032.62
494.97	1102.62
495.426	1086.62
495.882	1100.62
496.338	1083.62
496.794	1092.62
497.251	1072.62
497.707	1080.62
498.163	1090.62
498.618	1063.62
499.074	1098.62
499.53	1125.62
499.986	1117.62
500.442	1108.62
500.898	1112.62
501.354	1095.62
501.809	1096.62
502.265	1115.62
502.721	1122.62
503.177	1137.62
503.632	1153.62
504.088	1117.62
504.543	1158.62
504.999	1112.62
505.455	1110.62
505.91	1105.62
506.366	1124.62
506.821	1103.62
507.277	1119.62
507.732	1126.62
508.187	1124.62
508.643	1125.62
509.098	1144.62
509.553	1164.62
510.009	1138.62
510.464	1160.62
510.919	1152.62
511.375	1218.62
511.83	1228.62
512.285	1214.62
512.74	1236.62
513.195	1244.62
513.65	1265.62
514.105	1292.62
514.56	1310.62
515.015	1326.62
515.47	1336.62
515.925	1358.62
516.38	1326.62
516.835	1332.62
517.29	1304.62
517.745	1290.62
518.2	1316.62
518.655	1277.62
519.109	1270.62
519.564	1282.62
520.019	1255.62
520.474	1258.62
520.928	1224.62
521.383	1241.62
521.838	1215.62
522.292	1183.62
522.747	1195.62
523.201	1194.62
523.656	1153.62
524.11	1206.62
524.565	1163.62
525.019	1210.62
525.474	1221.62
525.928	1160.62
526.382	1167.62
526.837	1155.62
527.291	1198.62
527.745	1196.62
528.2	1183.62
528.654	1136.62
529.108	1163.62
529.562	1197.62
530.016	1152.62
530.47	1155.62
530.925	1192.62
531.379	1189.62
531.833	1206.62
532.287	1200.62
532.741	1176.62
533.195	1172.62
533.649	1168.62
534.103	1174.62
534.556	1163.62
535.01	1168.62
535.464	1144.62
535.918	1163.62
536.372	1161.62
536.826	1153.62
537.279	1158.62
537.733	1156.62
538.187	1232.62
538.64	1165.62
539.094	1177.62
539.548	1194.62
540.001	1176.62
540.455	1175.62
540.908	1173.62
541.362	1204.62
541.815	1206.62
542.269	1255.62
542.722	1231.62
543.175	1263.62
543.629	1271.62
544.082	1265.62
544.536	1308.62
544.989	1290.62
545.442	1261.62
545.895	1278.62
546.349	1286.62
546.802	1289.62
547.255	1280.62
547.708	1325.62
548.161	1285.62
548.614	1345.62
549.067	1330.62
549.52	1297.62
549.973	1281.62
550.426	1291.62
550.879	1268.62
551.332	1301.62
551.785	1306.62
552.238	1322.62
552.691	1327.62
553.144	1378.62
553.596	1366.62
554.049	1350.62
554.502	1425.62
554.955	1396.62
555.407	1450.62
555.86	1403.62
556.313	1373.62
556.765	1386.62
557.218	1402.62
557.67	1364.62
558.123	1371.62
558.576	1371.62
559.028	1334.62
559.48	1353.62
559.933	1364.62
560.385	1352.62
560.838	1291.62
561.29	1282.62
561.742	1272.62
562.195	1212.62
562.647	1232.62
563.099	1191.62
563.551	1214.62
564.004	1224.62
564.456	1199.62
564.908	1190.62
565.36	1204.62
565.812	1135.62
566.264	1140.62
566.716	1180.62
567.168	1100.62
567.62	1128.62
568.072	1137.62
568.524	1091.62
568.976	1089.62
569.428	1082.62
569.88	1063.62
570.332	1084.62
570.784	1095.62
571.235	1074.62
571.687	1085.62
572.139	1091.62
572.59	1095.62
573.042	1104.62
573.494	1140.62
573.945	1093.62
574.397	1082.62
574.849	1071.62
575.3	1077.62
575.752	1048.62
576.203	1058.62
576.655	1059.62
577.106	1065.62
577.557	1026.62
578.009	1001.62
578.46	1017.62
578.912	1029.62
579.363	1017.62
579.814	1005.62
580.265	1052.62
580.717	1045.62
581.168	1040.62
581.619	1016.62
582.07	1024.62
582.521	1018.62
582.972	1012.62
583.423	1033.62
583.875	1022.62
584.326	1064.62
584.777	1080.62
585.227	1092.62
585.678	1095.62
586.129	1094.62
586.58	1137.62
587.031	1118.62
587.482	1144.62
587.933	1154.62
588.384	1176.62
588.834	1160.62
589.285	1145.62
589.736	1170.62
590.186	1190.62
590.637	1127.62
591.088	1096.62
591.538	1109.62
591.989	1077.62
592.439	1074.62
592.89	1075.62
593.34	1074.62
593.791	1054.62
594.241	1044.62
594.692	1056.62
595.142	1066.62
595.593	1059.62
596.043	1048.62
596.493	1038.62
596.943	1083.62
597.394	1111.62
597.844	1048.62
598.294	1105.62
598.744	1151.62
599.195	1214.62
599.645	1226.62
600.095	1282.62
600.545	1382.62
600.995	1422.62
601.445	1475.62
601.895	1535.62
602.345	1565.62
602.795	1600.62
603.245	1528.62
603.695	1519.62
604.145	1394.62
604.594	1327.62
605.044	1271.62
605.494	1177.62
605.944	1119.62
606.393	1073.62
606.843	1043.62
607.293	1074.62
607.743	1057.62
608.192	1086.62
608.642	1080.62
609.091	1076.62
609.541	1037.62
609.99	1111.62
610.44	1078.62
610.889	1044.62
611.339	1046.62
611.788	968.62
612.238	1012.62
612.687	1011.62
613.136	1029.62
613.586	1062.62
614.035	1014.62
614.484	1041.62
614.933	1068.62
615.383	1056.62
615.832	992.62
616.281	1005.62
616.73	956.62
617.179	956.62
617.628	926.62
618.077	937.62
618.526	913.62
618.975	920.62
619.424	894.62
619.873	880.62
620.322	869.62
620.771	870.62
621.22	857.62
621.669	872.62
622.118	845.62
622.567	826.62
623.015	834.62
623.464	818.62
623.913	819.62
624.361	807.62
624.81	819.62
625.259	810.62
625.707	797.62
626.156	839.62
626.604	861.62
627.053	874.62
627.501	844.62
627.95	849.62
628.398	844.62
628.847	844.62
629.295	798.62
629.744	834.62
630.192	831.62
630.64	800.62
631.089	811.62
631.537	772.62
631.985	744.62
632.433	750.62
632.881	752.62
633.33	760.62
633.778	764.62
634.226	778.62
634.674	762.62
635.122	804.62
635.57	796.62
636.018	821.62
636.466	819.62
636.914	800.62
637.362	816.62
637.81	846.62
638.258	843.62
638.705	841.62
639.153	872.62
639.601	906.62
640.049	901.62
640.497	930.62
640.944	933.62
641.392	901.62
641.84	894.62
642.287	857.62
642.735	850.62
643.182	820.62
643.63	833.62
644.078	809.62
644.525	794.62
644.973	817.62
645.42	864.62
645.867	864.62
646.315	895.62
646.762	917.62
647.21	932.62
647.657	972.62
648.104	1038.62
648.551	1003.62
648.999	1090.62
649.446	1166.62
649.893	1292.62
650.34	1442.62
650.787	1741.62
651.234	2188.62
651.682	2818.62
652.129	3924.62
652.576	5657.62
653.023	7608.62
653.47	9431.62
653.917	10356.62
654.363	11207.62
654.81	11653.62
655.257	12250.62
655.704	9304.62
656.151	5608.62
656.598	3708.62
657.044	2590.62
657.491	2080.62
657.938	1632.62
658.385	1429.62
658.831	1256.62
659.278	1152.62
659.724	1036.62
660.171	997.62
660.618	908.62
661.064	880.62
661.511	831.62
661.957	820.62
662.404	813.62
662.85	780.62
663.296	772.62
663.743	756.62
664.189	746.62
664.635	738.62
665.082	740.62
665.528	748.62
665.974	679.62
666.42	684.62
666.867	679.62
667.313	662.62
667.759	673.62
668.205	662.62
668.651	654.62
669.097	642.62
669.543	672.62
669.989	658.62
670.435	648.62
670.881	656.62
671.327	677.62
671.773	701.62
672.219	747.62
672.665	785.62
673.11	841.62
673.556	860.62
674.002	867.62
674.448	893.62
674.893	776.62
675.339	707.62
675.785	650.62
676.23	585.62
676.676	597.62
677.122	554.62
677.567	550.62
678.013	540.62
678.458	530.62
678.904	526.62
679.349	543.62
679.794	537.62
680.24	539.62
680.685	527.62
681.131	550.62
681.576	544.62
682.021	535.62
682.466	530.62
682.912	545.62
683.357	555.62
683.802	568.62
684.247	631.62
684.692	692.62
685.137	717.62
685.583	726.62
686.028	771.62
686.473	733.62
686.918	649.62
687.363	598.62
687.807	572.62
688.252	549.62
688.697	515.62
689.142	524.62
689.587	479.62
690.032	515.62
690.477	536.62
690.921	545.62
691.366	587.62
691.811	613.62
692.255	636.62
692.7	732.62
693.145	910.62
693.589	1368.62
694.034	1738.62
694.478	1962.62
694.923	1829.62
695.367	2237.62
695.812	2060.62
696.256	894.62
696.701	599.62
697.145	527.62
697.59	520.62
698.034	476.62
698.478	500.62
698.922	532.62
699.367	490.62
699.811	507.62
700.255	559.62
700.699	598.62
701.143	644.62
701.588	655.62
702.032	670.62
702.476	707.62
702.92	717.62
703.364	854.62
703.808	1216.62
704.252	1659.62
704.696	1867.62
705.14	1756.62
705.584	2195.62
706.027	1841.62
706.471	864.62
706.915	604.62
707.359	544.62
707.803	509.62
708.246	488.62
708.69	474.62
709.134	471.62
709.577	476.62
710.021	468.62
710.465	481.62
710.908	459.62
711.352	458.62
711.795	511.62
712.239	561.62
712.682	552.62
713.126	557.62
713.569	616.62
714.012	539.62
714.456	464.62
714.899	442.62
715.342	458.62
715.786	436.62
716.229	409.62
716.672	407.62
717.115	412.62
717.558	414.62
718.002	425.62
718.445	439.62
718.888	453.62
719.331	450.62
719.774	466.62
720.217	476.62
720.66	430.62
721.103	418.62
721.546	399.62
721.989	413.62
722.432	383.62
722.874	381.62
723.317	401.62
723.76	393.62
724.203	453.62
724.645	565.62
725.088	695.62
725.531	768.62
725.974	720.62
726.416	775.62
726.859	534.62
727.301	402.62
727.744	386.62
728.187	379.62
728.629	375.62
729.071	393.62
729.514	416.62
729.956	434.62
730.399	428.62
730.841	450.62
731.283	435.62
731.726	428.62
732.168	433.62
732.61	433.62
733.053	450.62
733.495	494.62
733.937	568.62
734.379	592.62
734.821	703.62
735.263	944.62
735.705	1567.62
736.148	2571.62
736.59	3112.62
737.032	2920.62
737.474	3133.62
737.916	1536.62
738.357	750.62
738.799	518.62
739.241	496.62
739.683	468.62
740.125	489.62
740.567	513.62
741.008	488.62
741.45	540.62
741.892	539.62
742.334	563.62
742.775	562.62
743.217	549.62
743.658	501.62
744.1	470.62
744.542	494.62
744.983	591.62
745.425	543.62
745.866	583.62
746.307	499.62
746.749	476.62
747.19	583.62
747.632	950.62
748.073	1787.62
748.514	2710.62
748.956	3396.62
749.397	4630.62
749.838	3714.62
750.279	3028.62
750.72	2291.62
751.162	1031.62
751.603	561.62
752.044	442.62
752.485	375.62
752.926	374.62
753.367	343.62
753.808	324.62
754.249	329.62
754.69	313.62
755.131	327.62
755.572	310.62
756.013	336.62
756.453	316.62
756.894	344.62
757.335	340.62
757.776	320.62
758.216	332.62
758.657	355.62
759.098	374.62
759.538	413.62
759.979	534.62
760.42	770.62
760.86	1745.62
761.301	3994.62
761.741	6010.62
762.182	6248.62
762.622	5910.62
763.063	2722.62
763.503	1086.62
763.943	595.62
764.384	442.62
764.824	377.62
765.264	371.62
765.705	358.62
766.145	342.62
766.585	316.62
767.025	318.62
767.465	318.62
767.906	318.62
768.346	336.62
768.786	345.62
769.226	424.62
769.666	704.62
770.106	1444.62
770.546	2428.62
770.986	2606.62
771.426	2540.62
771.866	1474.62
772.306	686.62
772.745	380.62
773.185	337.62
773.625	296.62
774.065	313.62
774.505	374.62
774.944	540.62
775.384	874.62
775.824	971.62
776.263	963.62
776.703	687.62
777.142	416.62
777.582	282.62
778.021	243.62
778.461	242.62
778.9	226.62
779.34	245.62
779.779	240.62
780.219	243.62
780.658	238.62
781.097	218.62
781.537	217.62
781.976	219.62
782.415	228.62
782.855	225.62
783.294	222.62
783.733	214.62
784.172	224.62
784.611	222.62
785.05	209.62
785.489	212.62
785.928	214.62
786.367	250.62
786.806	253.62
787.245	243.62
787.684	245.62
788.123	267.62
788.562	246.62
789.001	244.62
789.44	246.62
789.879	215.62
790.317	244.62
790.756	265.62
791.195	268.62
791.634	313.62
792.072	427.62
792.511	840.62
792.95	1814.62
793.388	2309.62
793.827	2056.62
794.265	1194.62
794.704	596.62
795.142	382.62
795.581	303.62
796.019	233.62
796.458	268.62
796.896	268.62
797.334	284.62
797.773	305.62
798.211	458.62
798.649	932.62
799.087	1493.62
799.526	2230.62
799.964	2548.62
800.402	2142.62
800.84	1245.62
801.278	650.62
801.716	392.62
802.154	313.62
802.592	279.62
803.03	279.62
803.468	288.62
803.906	286.62
804.344	275.62
804.782	272.62
805.22	255.62
805.658	274.62
806.096	299.62
806.533	294.62
806.971	331.62
807.409	432.62
807.847	680.62
808.284	1491.62
808.722	2990.62
809.16	4176.62
809.597	5816.62
810.035	7452.62
810.472	6385.62
810.91	3561.62
811.347	1722.62
811.785	790.62
812.222	488.62
812.66	364.62
813.097	280.62
813.535	273.62
813.972	255.62
814.409	250.62
814.846	246.62
815.284	211.62
815.721	234.62
816.158	246.62
816.595	278.62
817.032	335.62
817.47	361.62
817.907	304.62
818.344	245.62
818.781	231.62
819.218	262.62
819.655	306.62
820.092	427.62
820.529	432.62
820.966	390.62
821.403	308.62
821.839	264.62
822.276	269.62
822.713	288.62
823.15	252.62
823.587	262.62
824.023	354.62
824.46	725.62
824.897	1322.62
825.333	1444.62
825.77	826.62
826.206	488.62
826.643	303.62
827.08	227.62
827.516	216.62
827.953	180.62
828.389	196.62
828.825	169.62
829.262	164.62
829.698	158.62
830.135	154.62
830.571	162.62
831.007	168.62
831.443	162.62
831.88	172.62
832.316	151.62
832.752	172.62
833.188	165.62
833.624	180.62
834.06	160.62
834.497	178.62
834.933	177.62
835.369	171.62
835.805	184.62
836.241	198.62
836.677	185.62
837.112	202.62
837.548	240.62
837.984	312.62
838.42	470.62
838.856	1117.62
839.292	2335.62
839.727	2512.62
840.163	1689.62
840.599	1958.62
841.034	2866.62
841.47	2297.62
841.906	1267.62
842.341	747.62
842.777	456.62
843.212	410.62
843.648	337.62
844.083	259.62
844.519	223.62
844.954	188.62
845.39	181.62
845.825	164.62
846.261	156.62
846.696	148.62
847.131	151.62
847.566	169.62
848.002	157.62
848.437	165.62
848.872	159.62
849.307	166.62
849.742	234.62
850.177	430.62
850.613	862.62
851.048	988.62
851.483	573.62
851.918	356.62
852.353	235.62
852.788	168.62
853.223	163.62
853.657	170.62
854.092	147.62
854.527	138.62
854.962	148.62
855.397	140.62
855.832	158.62
856.266	153.62
856.701	142.62
857.136	134.62
857.57	133.62
858.005	148.62
858.44	150.62
858.874	158.62
859.309	153.62
859.743	150.62
860.178	152.62
860.612	149.62
861.047	166.62
861.481	187.62
861.915	175.62
862.35	163.62
862.784	147.62
863.218	146.62
863.653	143.62
864.087	148.62
864.521	178.62
864.955	194.62
865.39	286.62
865.824	284.62
866.258	298.62
866.692	406.62
867.126	412.62
867.56	273.62
867.994	207.62
868.428	189.62
868.862	163.62
869.296	165.62
869.73	166.62
870.164	187.62
870.598	193.62
871.031	162.62
871.465	128.62
871.899	130.62
872.333	128.62
872.766	124.62
873.2	119.62
873.634	104.62
874.067	124.62
874.501	130.62
874.935	112.62
875.368	129.62
875.802	110.62
876.235	125.62
876.669	114.62
877.102	105.62
877.535	120.62
877.969	87.62
878.402	123.62
878.836	112.62
879.269	119.62
879.702	101.62
880.135	119.62
880.569	114.62
881.002	136.62
881.435	129.62
881.868	114.62
882.301	114.62
882.734	107.62
883.167	122.62
883.601	118.62
884.034	115.62
884.467	112.62
884.899	107.62
885.332	134.62
885.765	122.62
886.198	117.62
886.631	102.62
887.064	113.62
887.497	132.62
887.929	97.62
888.362	108.62
888.795	89.62
889.228	110.62
889.66	104.62
890.093	105.62
890.526	94.62
890.958	115.62
891.391	112.62
891.823	102.62
892.256	104.62
892.688	101.62
893.121	122.62
893.553	110.62
893.985	104.62
894.418	104.62
894.85	129.62
895.282	125.62
895.715	95.62
896.147	97.62
896.579	112.62
897.011	108.62
897.444	100.62
897.876	127.62
898.308	124.62
898.74	114.62
899.172	110.62
899.604	98.62
900.036	109.62
900.468	105.62
900.9	124.62
901.332	120.62
901.764	109.62
902.196	123.62
902.628	115.62
903.06	129.62
903.491	120.62
903.923	138.62
904.355	116.62
904.787	133.62
905.218	132.62
905.65	125.62
906.082	114.62
906.513	107.62
906.945	105.62
907.376	112.62
907.808	103.62
908.239	123.62
908.671	124.62
909.102	114.62
909.534	108.62
909.965	156.62
910.397	231.62
910.828	576.62
911.259	618.62
911.691	392.62
912.122	307.62
912.553	181.62
912.984	125.62
913.415	120.62
913.847	102.62
914.278	115.62
914.709	102.62
915.14	97.62
915.571	108.62
916.002	118.62
916.433	119.62
916.864	103.62
917.295	113.62
917.726	107.62
918.157	118.62
918.587	104.62
919.018	118.62
919.449	107.62
919.88	121.62
920.311	126.62
920.741	172.62
921.172	301.62
921.603	266.62
922.033	207.62
922.464	139.62
922.895	128.62
923.325	110.62
923.756	127.62
924.186	100.62
924.617	112.62
925.047	126.62
925.478	128.62
925.908	129.62
926.338	131.62
926.769	131.62
927.199	112.62
927.629	106.62
928.06	123.62
928.49	107.62
928.92	99.62
929.35	94.62
929.78	109.62
930.21	102.62
930.641	115.62
931.071	104.62
931.501	99.62
931.931	98.62
932.361	92.62
932.791	108.62
933.221	81.62
933.651	97.62
934.08	121.62
934.51	102.62
934.94	99.62
935.37	96.62
935.8	104.62
936.229	81.62
936.659	104.62
937.089	113.62
937.519	95.62
937.948	112.62
938.378	104.62
938.807	102.62
939.237	104.62
939.666	99.62
940.096	61.62
940.525	93.62
940.955	78.62
941.384	83.62
941.814	91.62
942.243	85.62
942.672	88.62
943.102	102.62
943.531	100.62
943.96	99.62
944.39	97.62
944.819	96.62
945.248	96.62
945.677	82.62
946.106	72.62
946.535	88.62
946.964	101.62
947.393	102.62
947.822	90.62
948.251	87.62
948.68	88.62
949.109	104.62
949.538	80.62
949.967	86.62
950.396	90.62
950.825	82.62
951.254	104.62
951.682	88.62
952.111	92.62
952.54	89.62
952.969	79.62
953.397	100.62
953.826	82.62
954.254	104.62
954.683	88.62
955.112	85.62
955.54	88.62
955.969	80.62
956.397	92.62
956.826	98.62
957.254	88.62
957.682	101.62
958.111	83.62
958.539	95.62
958.967	77.62
959.396	93.62
959.824	91.62
960.252	83.62
960.68	96.62
961.109	92.62
961.537	94.62
961.965	123.62
962.393	98.62
962.821	77.62
963.249	93.62
963.677	101.62
964.105	105.62
964.533	135.62
964.961	132.62
965.389	135.62
965.817	98.62
966.245	112.62
966.672	95.62
967.1	102.62
967.528	106.62
967.956	74.62
968.383	91.62
968.811	90.62
969.239	107.62
969.666	80.62
970.094	90.62
970.522	94.62
970.949	106.62
971.377	84.62
971.804	79.62
972.232	74.62
972.659	92.62
973.087	83.62
973.514	76.62
973.941	89.62
974.369	76.62
974.796	92.62
975.223	83.62
975.651	70.62
976.078	88.62
976.505	95.62
976.932	91.62
977.359	97.62
977.786	97.62
978.214	91.62
978.641	96.62
979.068	92.62
979.495	87.62
979.922	93.62
980.349	91.62
980.776	96.62
981.202	94.62
981.629	86.62
982.056	85.62
982.483	80.62
982.91	91.62
983.337	94.62
983.763	99.62
984.19	87.62
984.617	91.62
985.043	93.62
985.47	90.62
985.897	96.62
986.323	94.62
986.75	94.62
987.176	90.62
987.603	85.62
988.029	103.62
988.456	72.62
988.882	84.62
989.308	90.62
989.735	80.62
990.161	109.62
990.587	99.62
991.014	79.62
991.44	91.62
991.866	98.62
992.292	61.62
992.719	83.62
993.145	86.62
993.571	89.62
993.997	85.62
994.423	90.62
994.849	92.62
995.275	88.62
995.701	85.62
996.127	87.62
996.553	98.62
996.979	90.62
997.405	83.62
997.83	76.62
998.256	101.62
998.682	93.62
999.108	75.62
999.534	94.62
999.959	92.62
1000.385	81.62
1000.811	91.62
1001.236	87.62
1001.662	84.62
1002.087	90.62
1002.513	90.62
1002.938	79.62
1003.364	91.62
1003.789	94.62
1004.215	74.62
1004.64	78.62
1005.066	71.62
1005.491	80.62
1005.916	105.62
1006.342	97.62
1006.767	78.62
1007.192	96.62
1007.617	72.62
1008.042	93.62
1008.468	84.62
1008.893	64.62
1009.318	100.62
1009.743	105.62
1010.168	94.62
1010.593	105.62
1011.018	101.62
1011.443	114.62
1011.868	98.62
1012.293	92.62
1012.718	98.62
1013.143	92.62
1013.567	76.62
1013.992	83.62
1014.417	81.62
1014.842	90.62
1015.267	98.62
1015.691	97.62
1016.116	86.62
1016.541	67.62
1016.965	87.62
1017.39	82.62
1017.814	89.62
1018.239	85.62
1018.663	78.62
1019.088	90.62
1019.512	88.62
1019.937	94.62
1020.361	73.62
1020.785	79.62
1021.21	75.62
1021.634	86.62
1022.058	90.62
1022.483	82.62
1022.907	91.62
1023.331	73.62
1023.755	78.62
1024.179	94.62
1024.604	86.62
1025.028	75.62
1025.452	81.62
1025.876	105.62
1026.3	78.62
1026.724	86.62
1027.148	85.62
1027.572	86.62
1027.996	100.62
1028.42	87.62
1028.843	84.62
1029.267	79.62
1029.691	100.62
1030.115	87.62
1030.539	88.62
1030.962	101.62
1031.386	98.62
1031.81	86.62
1032.233	81.62
1032.657	96.62
1033.08	73.62
1033.504	106.62
1033.927	93.62
1034.351	106.62
1034.774	84.62
1035.198	76.62
1035.621	74.62
1036.045	81.62
1036.468	104.62
1036.891	94.62
1037.315	93.62
1037.738	86.62
1038.161	78.62
1038.584	84.62
1039.008	89.62
1039.431	76.62
1039.854	96.62
1040.277	80.62
1040.7	87.62
1041.123	78.62
1041.546	97.62
1041.969	85.62
1042.392	83.62
1042.815	80.62
1043.238	82.62
1043.661	92.62
1044.084	90.62
1044.507	78.62
1044.93	89.62
1045.352	84.62
1045.775	72.62
1046.198	82.62
1046.621	75.62
1047.043	84.62
1047.466	91.62
1047.889	63.62
1048.311	75.62
1048.734	96.62
1049.156	109.62
1049.579	82.62
1050.001	91.62
1050.424	92.62
1050.846	75.62
1051.269	86.62
1051.691	87.62
1052.113	89.62
1052.536	86.62
1052.958	86.62
1053.38	77.62
1053.802	78.62
1054.225	85.62
1054.647	70.62
1055.069	81.62
1055.491	96.62
1055.913	80.62
1056.335	71.62
1056.757	90.62
1057.179	82.62
1057.601	92.62
1058.023	94.62
1058.445	99.62
1058.867	79.62
1059.289	82.62
1059.711	90.62
1060.133	90.62
1060.555	95.62
1060.976	86.62
1061.398	90.62
1061.82	80.62
1062.241	74.62
1062.663	91.62
1063.085	85.62
1063.506	99.62
1063.928	64.62
1064.35	75.62
1064.771	59.62
1065.193	90.62
1065.614	74.62
1066.035	75.62
1066.457	90.62
1066.878	105.62
1067.3	104.62
1067.721	75.62
1068.142	71.62
1068.564	89.62
1068.985	79.62
1069.406	87.62
1069.827	90.62
1070.248	75.62
1070.67	65.62
1071.091	95.62
1071.512	72.62
1071.933	83.62
1072.354	88.62
1072.775	78.62
1073.196	73.62
1073.617	78.62
1074.038	95.62
1074.459	86.62
1074.88	68.62
1075.3	93.62
1075.721	91.62
1076.142	92.62
1076.563	78.62
1076.983	92.62
1077.404	70.62
1077.825	81.62
1078.246	92.62
1078.666	78.62
1079.087	92.62
1079.507	78.62
1079.928	76.62
1080.348	94.62
1080.769	84.62
1081.189	100.62
1081.61	90.62
1082.03	84.62
1082.451	75.62
1082.871	70.62
1083.291	91.62
1083.711	97.62
1084.132	80.62
1084.552	77.62
1084.972	76.62
1085.392	79.62
1085.813	86.62
1086.233	91.62
1086.653	96.62
1087.073	94.62
1087.493	82.62
1087.913	96.62
1088.333	89.62
1088.753	98.62
1089.173	85.62
1089.593	94.62
1090.013	73.62
1090.433	78.62
1090.852	80.62
1091.272	79.62
1091.692	84.62
1092.112	94.62
1092.531	82.62
1092.951	82.62
1093.371	81.62
1093.79	83.62
1094.21	77.62
1094.63	86.62
1095.049	93.62
1095.469	81.62
1095.888	71.62
1096.308	90.62
1096.727	90.62
1097.146	72.62
1097.566	82.62
1097.985	98.62
1098.405	79.62
1098.824	102.62
1099.243	96.62
1099.662	84.62
1100.082	91.62
1100.501	81.62
1100.92	70.62
1101.339	87.62
1101.758	94.62
