Data from 20170802-ORNL-NYSim-Air_HRD10391_10-37-30-640.txt Node
Date: Wed Aug 02 10:37:30 EDT 2017
User: Ender
Spectrometer: HR+D1039
Trigger mode: 0
Integration Time (sec): 1.510000E-3
Scans to average: 1
Electric dark correction enabled: true
Nonlinearity correction enabled: false
Boxcar width: 0
XAxis mode: Wavelengths
Number of Pixels in Spectrum: 2048
>>>>>Begin Spectral Data<<<<<
187.836	6.69
188.309	6.69
188.782	6.69
189.255	-7.31
189.728	-12.31
190.201	-2.31
190.674	3.69
191.147	-2.31
191.619	-3.31
192.092	-7.31
192.565	-5.31
193.038	4.69
193.511	-6.31
193.984	-6.31
194.456	9.69
194.929	14.69
195.402	11.69
195.874	1.69
196.347	45.69
196.82	7.69
197.292	39.69
197.765	32.69
198.237	49.69
198.71	21.69
199.182	41.69
199.655	57.69
200.127	47.69
200.6	40.69
201.072	56.69
201.544	61.69
202.017	65.69
202.489	63.69
202.961	57.69
203.433	66.69
203.906	71.69
204.378	89.69
204.85	92.69
205.322	70.69
205.794	73.69
206.266	70.69
206.739	71.69
207.211	96.69
207.683	83.69
208.155	92.69
208.627	87.69
209.099	105.69
209.57	90.69
210.042	88.69
210.514	76.69
210.986	91.69
211.458	89.69
211.93	86.69
212.402	88.69
212.873	89.69
213.345	85.69
213.817	90.69
214.288	66.69
214.76	73.69
215.232	70.69
215.703	92.69
216.175	82.69
216.646	66.69
217.118	78.69
217.589	84.69
218.061	77.69
218.532	71.69
219.004	78.69
219.475	65.69
219.946	78.69
220.418	82.69
220.889	79.69
221.36	89.69
221.832	73.69
222.303	83.69
222.774	71.69
223.245	69.69
223.717	71.69
224.188	69.69
224.659	91.69
225.13	91.69
225.601	82.69
226.072	92.69
226.543	77.69
227.014	82.69
227.485	82.69
227.956	76.69
228.427	63.69
228.898	100.69
229.369	78.69
229.839	97.69
230.31	81.69
230.781	96.69
231.252	87.69
231.722	86.69
232.193	91.69
232.664	77.69
233.135	94.69
233.605	86.69
234.076	86.69
234.546	87.69
235.017	82.69
235.487	83.69
235.958	77.69
236.428	86.69
236.899	62.69
237.369	85.69
237.84	80.69
238.31	79.69
238.78	94.69
239.251	90.69
239.721	85.69
240.191	90.69
240.662	98.69
241.132	83.69
241.602	90.69
242.072	80.69
242.542	75.69
243.013	80.69
243.483	67.69
243.953	87.69
244.423	85.69
244.893	87.69
245.363	97.69
245.833	73.69
246.303	87.69
246.773	95.69
247.243	81.69
247.712	97.69
248.182	99.69
248.652	87.69
249.122	95.69
249.592	98.69
250.061	101.69
250.531	93.69
251.001	94.69
251.471	94.69
251.94	86.69
252.41	93.69
252.879	83.69
253.349	86.69
253.818	83.69
254.288	80.69
254.757	98.69
255.227	92.69
255.696	103.69
256.166	97.69
256.635	103.69
257.105	92.69
257.574	99.69
258.043	88.69
258.513	93.69
258.982	87.69
259.451	87.69
259.92	91.69
260.389	82.69
260.859	97.69
261.328	102.69
261.797	87.69
262.266	101.69
262.735	92.69
263.204	90.69
263.673	91.69
264.142	103.69
264.611	100.69
265.08	106.69
265.549	110.69
266.018	81.69
266.487	93.69
266.955	86.69
267.424	92.69
267.893	101.69
268.362	93.69
268.83	101.69
269.299	102.69
269.768	106.69
270.236	111.69
270.705	105.69
271.174	108.69
271.642	118.69
272.111	106.69
272.579	96.69
273.048	116.69
273.516	96.69
273.985	99.69
274.453	128.69
274.922	118.69
275.39	102.69
275.858	101.69
276.327	106.69
276.795	97.69
277.263	92.69
277.731	98.69
278.2	93.69
278.668	103.69
279.136	109.69
279.604	115.69
280.072	116.69
280.54	97.69
281.008	124.69
281.477	105.69
281.945	111.69
282.413	117.69
282.881	114.69
283.348	117.69
283.816	116.69
284.284	92.69
284.752	111.69
285.22	99.69
285.688	108.69
286.156	123.69
286.623	139.69
287.091	113.69
287.559	107.69
288.026	95.69
288.494	111.69
288.962	126.69
289.429	108.69
289.897	113.69
290.364	109.69
290.832	120.69
291.3	123.69
291.767	105.69
292.234	110.69
292.702	126.69
293.169	128.69
293.637	116.69
294.104	111.69
294.571	129.69
295.039	122.69
295.506	138.69
295.973	136.69
296.44	103.69
296.908	105.69
297.375	122.69
297.842	130.69
298.309	125.69
298.776	131.69
299.243	127.69
299.71	119.69
300.177	114.69
300.644	133.69
301.111	143.69
301.578	119.69
302.045	122.69
302.512	115.69
302.979	132.69
303.446	120.69
303.913	119.69
304.379	141.69
304.846	144.69
305.313	137.69
305.78	139.69
306.246	118.69
306.713	145.69
307.18	137.69
307.646	135.69
308.113	124.69
308.579	137.69
309.046	144.69
309.512	149.69
309.979	131.69
310.445	160.69
310.912	122.69
311.378	139.69
311.845	157.69
312.311	157.69
312.777	152.69
313.244	137.69
313.71	156.69
314.176	144.69
314.642	137.69
315.109	153.69
315.575	131.69
316.041	143.69
316.507	130.69
316.973	131.69
317.439	142.69
317.905	158.69
318.371	133.69
318.837	157.69
319.303	143.69
319.769	149.69
320.235	145.69
320.701	163.69
321.167	157.69
321.633	154.69
322.099	154.69
322.564	148.69
323.03	165.69
323.496	178.69
323.962	157.69
324.427	136.69
324.893	155.69
325.359	160.69
325.824	165.69
326.29	161.69
326.755	161.69
327.221	180.69
327.686	161.69
328.152	137.69
328.617	163.69
329.083	157.69
329.548	171.69
330.014	179.69
330.479	165.69
330.944	183.69
331.41	180.69
331.875	161.69
332.34	156.69
332.805	183.69
333.271	161.69
333.736	163.69
334.201	165.69
334.666	163.69
335.131	176.69
335.596	175.69
336.061	191.69
336.526	170.69
336.991	169.69
337.456	167.69
337.921	165.69
338.386	176.69
338.851	167.69
339.316	171.69
339.781	160.69
340.246	175.69
340.711	184.69
341.175	171.69
341.64	207.69
342.105	174.69
342.569	202.69
343.034	185.69
343.499	199.69
343.963	183.69
344.428	184.69
344.893	184.69
345.357	200.69
345.822	199.69
346.286	186.69
346.751	192.69
347.215	198.69
347.679	207.69
348.144	202.69
348.608	202.69
349.073	200.69
349.537	200.69
350.001	195.69
350.465	202.69
350.93	210.69
351.394	218.69
351.858	215.69
352.322	226.69
352.786	232.69
353.25	237.69
353.715	246.69
354.179	219.69
354.643	213.69
355.107	231.69
355.571	218.69
356.035	220.69
356.498	234.69
356.962	215.69
357.426	221.69
357.89	235.69
358.354	222.69
358.818	225.69
359.281	243.69
359.745	247.69
360.209	215.69
360.673	231.69
361.136	213.69
361.6	225.69
362.064	214.69
362.527	222.69
362.991	234.69
363.454	247.69
363.918	243.69
364.381	203.69
364.845	240.69
365.308	249.69
365.772	231.69
366.235	229.69
366.698	258.69
367.162	231.69
367.625	215.69
368.088	247.69
368.552	257.69
369.015	235.69
369.478	229.69
369.941	241.69
370.404	253.69
370.867	263.69
371.331	232.69
371.794	258.69
372.257	262.69
372.72	269.69
373.183	269.69
373.646	256.69
374.109	258.69
374.572	266.69
375.035	281.69
375.497	275.69
375.96	260.69
376.423	249.69
376.886	277.69
377.349	282.69
377.811	275.69
378.274	297.69
378.737	294.69
379.199	281.69
379.662	279.69
380.125	274.69
380.587	283.69
381.05	272.69
381.512	273.69
381.975	299.69
382.437	297.69
382.9	306.69
383.362	290.69
383.825	296.69
384.287	304.69
384.75	306.69
385.212	302.69
385.674	323.69
386.136	296.69
386.599	319.69
387.061	314.69
387.523	300.69
387.985	307.69
388.447	321.69
388.91	308.69
389.372	312.69
389.834	307.69
390.296	297.69
390.758	294.69
391.22	305.69
391.682	297.69
392.144	305.69
392.606	315.69
393.068	330.69
393.529	355.69
393.991	344.69
394.453	325.69
394.915	338.69
395.377	323.69
395.838	329.69
396.3	321.69
396.762	299.69
397.224	325.69
397.685	332.69
398.147	334.69
398.608	324.69
399.07	329.69
399.531	322.69
399.993	342.69
400.454	322.69
400.916	347.69
401.377	353.69
401.839	339.69
402.3	336.69
402.762	376.69
403.223	358.69
403.684	359.69
404.145	361.69
404.607	351.69
405.068	347.69
405.529	340.69
405.99	369.69
406.451	372.69
406.913	354.69
407.374	393.69
407.835	370.69
408.296	361.69
408.757	387.69
409.218	384.69
409.679	389.69
410.14	386.69
410.601	391.69
411.062	415.69
411.522	384.69
411.983	390.69
412.444	390.69
412.905	383.69
413.366	397.69
413.826	420.69
414.287	474.69
414.748	559.69
415.208	563.69
415.669	480.69
416.13	459.69
416.59	441.69
417.051	453.69
417.511	476.69
417.972	511.69
418.432	506.69
418.893	576.69
419.353	560.69
419.814	469.69
420.274	403.69
420.734	421.69
421.195	409.69
421.655	413.69
422.115	396.69
422.576	412.69
423.036	443.69
423.496	446.69
423.956	455.69
424.416	482.69
424.876	544.69
425.336	523.69
425.797	537.69
426.257	532.69
426.717	482.69
427.177	449.69
427.637	450.69
428.097	469.69
428.556	499.69
429.016	540.69
429.476	539.69
429.936	524.69
430.396	529.69
430.856	542.69
431.315	567.69
431.775	569.69
432.235	620.69
432.694	617.69
433.154	594.69
433.614	602.69
434.073	550.69
434.533	513.69
434.993	489.69
435.452	503.69
435.912	486.69
436.371	491.69
436.83	469.69
437.29	487.69
437.749	454.69
438.209	438.69
438.668	440.69
439.127	478.69
439.587	465.69
440.046	452.69
440.505	463.69
440.964	476.69
441.424	497.69
441.883	507.69
442.342	462.69
442.801	443.69
443.26	458.69
443.719	468.69
444.178	442.69
444.637	473.69
445.096	459.69
445.555	478.69
446.014	459.69
446.473	479.69
446.932	460.69
447.391	475.69
447.849	469.69
448.308	470.69
448.767	476.69
449.226	511.69
449.685	489.69
450.143	503.69
450.602	509.69
451.061	477.69
451.519	458.69
451.978	471.69
452.436	494.69
452.895	472.69
453.353	469.69
453.812	499.69
454.27	487.69
454.729	480.69
455.187	465.69
455.646	457.69
456.104	462.69
456.562	476.69
457.021	501.69
457.479	479.69
457.937	506.69
458.395	492.69
458.854	492.69
459.312	472.69
459.77	509.69
460.228	503.69
460.686	492.69
461.144	510.69
461.602	471.69
462.06	509.69
462.518	506.69
462.976	535.69
463.434	505.69
463.892	507.69
464.35	528.69
464.808	551.69
465.266	543.69
465.724	531.69
466.181	542.69
466.639	547.69
467.097	552.69
467.555	578.69
468.012	597.69
468.47	569.69
468.928	584.69
469.385	604.69
469.843	614.69
470.3	628.69
470.758	666.69
471.215	690.69
471.673	683.69
472.13	660.69
472.588	643.69
473.045	675.69
473.503	690.69
473.96	695.69
474.417	755.69
474.875	754.69
475.332	794.69
475.789	795.69
476.246	793.69
476.704	870.69
477.161	863.69
477.618	849.69
478.075	914.69
478.532	957.69
478.989	1039.69
479.446	1128.69
479.903	1194.69
480.36	1281.69
480.817	1393.69
481.274	1431.69
481.731	1569.69
482.188	1715.69
482.645	1767.69
483.102	1895.69
483.558	2029.69
484.015	2113.69
484.472	2068.69
484.929	2055.69
485.385	1967.69
485.842	1910.69
486.299	1909.69
486.755	1765.69
487.212	1588.69
487.668	1440.69
488.125	1325.69
488.582	1229.69
489.038	1177.69
489.494	1197.69
489.951	1081.69
490.407	1116.69
490.864	1059.69
491.32	1048.69
491.776	1066.69
492.233	1088.69
492.689	1029.69
493.145	1033.69
493.602	1008.69
494.058	1040.69
494.514	1031.69
494.97	981.69
495.426	1023.69
495.882	1019.69
496.338	1044.69
496.794	1021.69
497.251	1031.69
497.707	1059.69
498.163	1062.69
498.618	1043.69
499.074	1023.69
499.53	1046.69
499.986	1076.69
500.442	1059.69
500.898	1043.69
501.354	1060.69
501.809	1059.69
502.265	1034.69
502.721	1059.69
503.177	1062.69
503.632	1071.69
504.088	1084.69
504.543	1063.69
504.999	1111.69
505.455	1051.69
505.91	1111.69
506.366	1088.69
506.821	1095.69
507.277	1049.69
507.732	1071.69
508.187	1109.69
508.643	1071.69
509.098	1089.69
509.553	1113.69
510.009	1101.69
510.464	1150.69
510.919	1145.69
511.375	1147.69
511.83	1159.69
512.285	1187.69
512.74	1190.69
513.195	1223.69
513.65	1265.69
514.105	1285.69
514.56	1233.69
515.015	1244.69
515.47	1279.69
515.925	1257.69
516.38	1297.69
516.835	1264.69
517.29	1284.69
517.745	1279.69
518.2	1282.69
518.655	1232.69
519.109	1212.69
519.564	1204.69
520.019	1193.69
520.474	1174.69
520.928	1217.69
521.383	1164.69
521.838	1159.69
522.292	1158.69
522.747	1163.69
523.201	1163.69
523.656	1140.69
524.11	1138.69
524.565	1149.69
525.019	1156.69
525.474	1132.69
525.928	1151.69
526.382	1165.69
526.837	1152.69
527.291	1149.69
527.745	1152.69
528.2	1165.69
528.654	1108.69
529.108	1126.69
529.562	1129.69
530.016	1104.69
530.47	1094.69
530.925	1142.69
531.379	1136.69
531.833	1123.69
532.287	1150.69
532.741	1159.69
533.195	1147.69
533.649	1133.69
534.103	1172.69
534.556	1149.69
535.01	1127.69
535.464	1095.69
535.918	1121.69
536.372	1131.69
536.826	1132.69
537.279	1177.69
537.733	1119.69
538.187	1139.69
538.64	1129.69
539.094	1130.69
539.548	1140.69
540.001	1136.69
540.455	1170.69
540.908	1161.69
541.362	1168.69
541.815	1179.69
542.269	1218.69
542.722	1200.69
543.175	1227.69
543.629	1221.69
544.082	1189.69
544.536	1224.69
544.989	1260.69
545.442	1257.69
545.895	1228.69
546.349	1241.69
546.802	1245.69
547.255	1229.69
547.708	1264.69
548.161	1261.69
548.614	1282.69
549.067	1268.69
549.52	1297.69
549.973	1273.69
550.426	1249.69
550.879	1238.69
551.332	1221.69
551.785	1258.69
552.238	1287.69
552.691	1289.69
553.144	1305.69
553.596	1301.69
554.049	1301.69
554.502	1357.69
554.955	1351.69
555.407	1419.69
555.86	1383.69
556.313	1352.69
556.765	1347.69
557.218	1363.69
557.67	1312.69
558.123	1305.69
558.576	1315.69
559.028	1299.69
559.48	1341.69
559.933	1326.69
560.385	1311.69
560.838	1241.69
561.29	1193.69
561.742	1223.69
562.195	1163.69
562.647	1233.69
563.099	1163.69
563.551	1202.69
564.004	1155.69
564.456	1183.69
564.908	1161.69
565.36	1135.69
565.812	1129.69
566.264	1114.69
566.716	1102.69
567.168	1104.69
567.62	1056.69
568.072	1103.69
568.524	1039.69
568.976	1052.69
569.428	1053.69
569.88	1047.69
570.332	1043.69
570.784	1058.69
571.235	1046.69
571.687	1038.69
572.139	1039.69
572.59	1052.69
573.042	1107.69
573.494	1083.69
573.945	1083.69
574.397	1034.69
574.849	1040.69
575.3	1034.69
575.752	1019.69
576.203	1021.69
576.655	1040.69
577.106	1016.69
577.557	989.69
578.009	975.69
578.46	991.69
578.912	977.69
579.363	978.69
579.814	984.69
580.265	951.69
580.717	1009.69
581.168	1013.69
581.619	986.69
582.07	1006.69
582.521	1005.69
582.972	1006.69
583.423	991.69
583.875	1008.69
584.326	1018.69
584.777	1030.69
585.227	1065.69
585.678	1060.69
586.129	1057.69
586.58	1041.69
587.031	1108.69
587.482	1120.69
587.933	1161.69
588.384	1124.69
588.834	1139.69
589.285	1121.69
589.736	1135.69
590.186	1104.69
590.637	1128.69
591.088	1104.69
591.538	1087.69
591.989	1070.69
592.439	1032.69
592.89	1046.69
593.34	1015.69
593.791	1051.69
594.241	1001.69
594.692	1005.69
595.142	1005.69
595.593	1011.69
596.043	1018.69
596.493	1057.69
596.943	1039.69
597.394	1034.69
597.844	1039.69
598.294	1098.69
598.744	1111.69
599.195	1158.69
599.645	1173.69
600.095	1299.69
600.545	1306.69
600.995	1367.69
601.445	1393.69
601.895	1436.69
602.345	1525.69
602.795	1513.69
603.245	1455.69
603.695	1381.69
604.145	1343.69
604.594	1303.69
605.044	1193.69
605.494	1141.69
605.944	1083.69
606.393	1090.69
606.843	1037.69
607.293	1011.69
607.743	1024.69
608.192	1025.69
608.642	1026.69
609.091	1042.69
609.541	1071.69
609.99	1050.69
610.44	1020.69
610.889	1000.69
611.339	1006.69
611.788	1007.69
612.238	963.69
612.687	965.69
613.136	1010.69
613.586	989.69
614.035	1001.69
614.484	1000.69
614.933	1013.69
615.383	996.69
615.832	1014.69
616.281	978.69
616.73	916.69
617.179	918.69
617.628	915.69
618.077	897.69
618.526	896.69
618.975	882.69
619.424	871.69
619.873	881.69
620.322	880.69
620.771	890.69
621.22	857.69
621.669	821.69
622.118	812.69
622.567	779.69
623.015	829.69
623.464	808.69
623.913	775.69
624.361	785.69
624.81	841.69
625.259	812.69
625.707	795.69
626.156	789.69
626.604	819.69
627.053	795.69
627.501	810.69
627.95	817.69
628.398	830.69
628.847	798.69
629.295	819.69
629.744	785.69
630.192	793.69
630.64	792.69
631.089	754.69
631.537	743.69
631.985	765.69
632.433	748.69
632.881	733.69
633.33	759.69
633.778	758.69
634.226	757.69
634.674	742.69
635.122	753.69
635.57	780.69
636.018	746.69
636.466	773.69
636.914	799.69
637.362	809.69
637.81	830.69
638.258	841.69
638.705	838.69
639.153	868.69
639.601	856.69
640.049	871.69
640.497	883.69
640.944	955.69
641.392	889.69
641.84	852.69
642.287	781.69
642.735	791.69
643.182	793.69
643.63	795.69
644.078	777.69
644.525	788.69
644.973	823.69
645.42	823.69
645.867	834.69
646.315	854.69
646.762	897.69
647.21	915.69
647.657	971.69
648.104	970.69
648.551	995.69
648.999	1033.69
649.446	1181.69
649.893	1304.69
650.34	1483.69
650.787	1718.69
651.234	2129.69
651.682	2797.69
652.129	3957.69
652.576	5591.69
653.023	7548.69
653.47	9367.69
653.917	10394.69
654.363	10939.69
654.81	11639.69
655.257	12190.69
655.704	9268.69
656.151	5595.69
656.598	3645.69
657.044	2581.69
657.491	2028.69
657.938	1601.69
658.385	1402.69
658.831	1253.69
659.278	1076.69
659.724	1022.69
660.171	935.69
660.618	907.69
661.064	878.69
661.511	845.69
661.957	813.69
662.404	800.69
662.85	773.69
663.296	767.69
663.743	741.69
664.189	727.69
664.635	741.69
665.082	709.69
665.528	709.69
665.974	683.69
666.42	682.69
666.867	682.69
667.313	678.69
667.759	642.69
668.205	649.69
668.651	634.69
669.097	659.69
669.543	646.69
669.989	641.69
670.435	658.69
670.881	670.69
671.327	689.69
671.773	713.69
672.219	758.69
672.665	793.69
673.11	821.69
673.556	843.69
674.002	825.69
674.448	862.69
674.893	777.69
675.339	697.69
675.785	631.69
676.23	601.69
676.676	577.69
677.122	576.69
677.567	550.69
678.013	546.69
678.458	537.69
678.904	515.69
679.349	520.69
679.794	531.69
680.24	511.69
680.685	532.69
681.131	503.69
681.576	524.69
682.021	515.69
682.466	506.69
682.912	522.69
683.357	545.69
683.802	551.69
684.247	614.69
684.692	671.69
685.137	670.69
685.583	698.69
686.028	707.69
686.473	732.69
686.918	651.69
687.363	585.69
687.807	553.69
688.252	537.69
688.697	513.69
689.142	504.69
689.587	515.69
690.032	515.69
690.477	517.69
690.921	531.69
691.366	570.69
691.811	577.69
692.255	603.69
692.7	701.69
693.145	878.69
693.589	1286.69
694.034	1733.69
694.478	1893.69
694.923	1781.69
695.367	2123.69
695.812	2000.69
696.256	845.69
696.701	569.69
697.145	537.69
697.59	485.69
698.034	487.69
698.478	495.69
698.922	489.69
699.367	472.69
699.811	493.69
700.255	540.69
700.699	574.69
701.143	631.69
701.588	665.69
702.032	710.69
702.476	694.69
702.92	715.69
703.364	833.69
703.808	1215.69
704.252	1640.69
704.696	1792.69
705.14	1676.69
705.584	2130.69
706.027	1743.69
706.471	874.69
706.915	610.69
707.359	536.69
707.803	499.69
708.246	485.69
708.69	476.69
709.134	476.69
709.577	437.69
710.021	463.69
710.465	462.69
710.908	443.69
711.352	478.69
711.795	489.69
712.239	520.69
712.682	580.69
713.126	545.69
713.569	581.69
714.012	535.69
714.456	471.69
714.899	430.69
715.342	399.69
715.786	428.69
716.229	401.69
716.672	429.69
717.115	363.69
717.558	378.69
718.002	375.69
718.445	424.69
718.888	442.69
719.331	453.69
719.774	420.69
720.217	423.69
720.66	431.69
721.103	416.69
721.546	414.69
721.989	387.69
722.432	414.69
722.874	385.69
723.317	369.69
723.76	409.69
724.203	440.69
724.645	567.69
725.088	661.69
725.531	709.69
725.974	719.69
726.416	749.69
726.859	500.69
727.301	425.69
727.744	387.69
728.187	371.69
728.629	374.69
729.071	384.69
729.514	426.69
729.956	425.69
730.399	411.69
730.841	424.69
731.283	417.69
731.726	423.69
732.168	420.69
732.61	424.69
733.053	447.69
733.495	503.69
733.937	531.69
734.379	550.69
734.821	692.69
735.263	905.69
735.705	1607.69
736.148	2496.69
736.59	2959.69
737.032	2812.69
737.474	3016.69
737.916	1517.69
738.357	740.69
738.799	514.69
739.241	478.69
739.683	476.69
740.125	455.69
740.567	479.69
741.008	482.69
741.45	526.69
741.892	523.69
742.334	545.69
742.775	531.69
743.217	537.69
743.658	473.69
744.1	461.69
744.542	509.69
744.983	586.69
745.425	546.69
745.866	551.69
746.307	512.69
746.749	463.69
747.19	553.69
747.632	915.69
748.073	1710.69
748.514	2686.69
748.956	3329.69
749.397	4399.69
749.838	3595.69
750.279	2957.69
750.72	2266.69
751.162	1049.69
751.603	553.69
752.044	440.69
752.485	369.69
752.926	353.69
753.367	332.69
753.808	307.69
754.249	328.69
754.69	320.69
755.131	334.69
755.572	315.69
756.013	325.69
756.453	312.69
756.894	308.69
757.335	314.69
757.776	317.69
758.216	336.69
758.657	368.69
759.098	359.69
759.538	400.69
759.979	519.69
760.42	763.69
760.86	1695.69
761.301	3961.69
761.741	5807.69
762.182	5983.69
762.622	5619.69
763.063	2638.69
763.503	1093.69
763.943	574.69
764.384	425.69
764.824	377.69
765.264	355.69
765.705	346.69
766.145	304.69
766.585	292.69
767.025	295.69
767.465	292.69
767.906	307.69
768.346	315.69
768.786	329.69
769.226	429.69
769.666	628.69
770.106	1358.69
770.546	2324.69
770.986	2587.69
771.426	2480.69
771.866	1423.69
772.306	659.69
772.745	399.69
773.185	308.69
773.625	277.69
774.065	294.69
774.505	351.69
774.944	515.69
775.384	838.69
775.824	927.69
776.263	915.69
776.703	663.69
777.142	413.69
777.582	269.69
778.021	265.69
778.461	257.69
778.9	248.69
779.34	231.69
779.779	237.69
780.219	241.69
780.658	219.69
781.097	242.69
781.537	220.69
781.976	217.69
782.415	204.69
782.855	211.69
783.294	210.69
783.733	219.69
784.172	226.69
784.611	205.69
785.05	220.69
785.489	213.69
785.928	215.69
786.367	221.69
786.806	239.69
787.245	269.69
787.684	254.69
788.123	287.69
788.562	263.69
789.001	243.69
789.44	230.69
789.879	221.69
790.317	234.69
790.756	256.69
791.195	265.69
791.634	293.69
792.072	440.69
792.511	821.69
792.95	1785.69
793.388	2231.69
793.827	1997.69
794.265	1156.69
794.704	592.69
795.142	345.69
795.581	277.69
796.019	270.69
796.458	239.69
796.896	245.69
797.334	254.69
797.773	292.69
798.211	467.69
798.649	881.69
799.087	1404.69
799.526	2133.69
799.964	2432.69
800.402	2071.69
800.84	1214.69
801.278	638.69
801.716	393.69
802.154	291.69
802.592	287.69
803.03	269.69
803.468	292.69
803.906	289.69
804.344	267.69
804.782	263.69
805.22	250.69
805.658	277.69
806.096	279.69
806.533	273.69
806.971	346.69
807.409	427.69
807.847	632.69
808.284	1463.69
808.722	2826.69
809.16	4048.69
809.597	5552.69
810.035	7184.69
810.472	6031.69
810.91	3370.69
811.347	1627.69
811.785	771.69
812.222	476.69
812.66	382.69
813.097	307.69
813.535	268.69
813.972	259.69
814.409	251.69
814.846	250.69
815.284	223.69
815.721	221.69
816.158	214.69
816.595	277.69
817.032	338.69
817.47	352.69
817.907	308.69
818.344	263.69
818.781	245.69
819.218	250.69
819.655	334.69
820.092	426.69
820.529	457.69
820.966	390.69
821.403	306.69
821.839	262.69
822.276	264.69
822.713	275.69
823.15	298.69
823.587	254.69
824.023	355.69
824.46	704.69
824.897	1299.69
825.333	1356.69
825.77	837.69
826.206	483.69
826.643	319.69
827.08	251.69
827.516	213.69
827.953	194.69
828.389	201.69
828.825	195.69
829.262	183.69
829.698	183.69
830.135	154.69
830.571	167.69
831.007	169.69
831.443	170.69
831.88	170.69
832.316	171.69
832.752	183.69
833.188	160.69
833.624	163.69
834.06	195.69
834.497	175.69
834.933	172.69
835.369	169.69
835.805	182.69
836.241	197.69
836.677	190.69
837.112	217.69
837.548	232.69
837.984	276.69
838.42	452.69
838.856	1063.69
839.292	2235.69
839.727	2465.69
840.163	1626.69
840.599	1921.69
841.034	2754.69
841.47	2189.69
841.906	1243.69
842.341	714.69
842.777	425.69
843.212	404.69
843.648	335.69
844.083	261.69
844.519	207.69
844.954	185.69
845.39	171.69
845.825	155.69
846.261	166.69
846.696	150.69
847.131	166.69
847.566	158.69
848.002	164.69
848.437	159.69
848.872	153.69
849.307	170.69
849.742	228.69
850.177	418.69
850.613	868.69
851.048	936.69
851.483	582.69
851.918	363.69
852.353	228.69
852.788	202.69
853.223	157.69
853.657	135.69
854.092	155.69
854.527	145.69
854.962	149.69
855.397	157.69
855.832	139.69
856.266	154.69
856.701	142.69
857.136	139.69
857.57	159.69
858.005	177.69
858.44	167.69
858.874	173.69
859.309	165.69
859.743	150.69
860.178	150.69
860.612	153.69
861.047	175.69
861.481	197.69
861.915	199.69
862.35	169.69
862.784	165.69
863.218	175.69
863.653	119.69
864.087	148.69
864.521	162.69
864.955	205.69
865.39	279.69
865.824	287.69
866.258	310.69
866.692	393.69
867.126	367.69
867.56	296.69
867.994	230.69
868.428	179.69
868.862	168.69
869.296	183.69
869.73	199.69
870.164	179.69
870.598	189.69
871.031	152.69
871.465	129.69
871.899	135.69
872.333	117.69
872.766	119.69
873.2	128.69
873.634	113.69
874.067	125.69
874.501	117.69
874.935	116.69
875.368	133.69
875.802	123.69
876.235	115.69
876.669	97.69
877.102	105.69
877.535	131.69
877.969	121.69
878.402	117.69
878.836	119.69
879.269	108.69
879.702	114.69
880.135	114.69
880.569	119.69
881.002	125.69
881.435	113.69
881.868	103.69
882.301	135.69
882.734	107.69
883.167	129.69
883.601	101.69
884.034	114.69
884.467	111.69
884.899	110.69
885.332	103.69
885.765	110.69
886.198	113.69
886.631	120.69
887.064	123.69
887.497	127.69
887.929	122.69
888.362	93.69
888.795	112.69
889.228	104.69
889.66	107.69
890.093	107.69
890.526	112.69
890.958	97.69
891.391	107.69
891.823	105.69
892.256	114.69
892.688	113.69
893.121	105.69
893.553	92.69
893.985	99.69
894.418	104.69
894.85	98.69
895.282	108.69
895.715	102.69
896.147	102.69
896.579	115.69
897.011	118.69
897.444	103.69
897.876	97.69
898.308	98.69
898.74	105.69
899.172	103.69
899.604	104.69
900.036	115.69
900.468	109.69
900.9	111.69
901.332	100.69
901.764	109.69
902.196	113.69
902.628	128.69
903.06	106.69
903.491	134.69
903.923	140.69
904.355	116.69
904.787	134.69
905.218	115.69
905.65	121.69
906.082	122.69
906.513	116.69
906.945	109.69
907.376	113.69
907.808	119.69
908.239	119.69
908.671	127.69
909.102	122.69
909.534	124.69
909.965	158.69
910.397	226.69
910.828	546.69
911.259	592.69
911.691	402.69
912.122	282.69
912.553	190.69
912.984	162.69
913.415	117.69
913.847	105.69
914.278	116.69
914.709	112.69
915.14	117.69
915.571	107.69
916.002	103.69
916.433	101.69
916.864	116.69
917.295	121.69
917.726	105.69
918.157	122.69
918.587	128.69
919.018	110.69
919.449	101.69
919.88	129.69
920.311	132.69
920.741	185.69
921.172	309.69
921.603	250.69
922.033	201.69
922.464	160.69
922.895	136.69
923.325	124.69
923.756	113.69
924.186	120.69
924.617	122.69
925.047	128.69
925.478	138.69
925.908	123.69
926.338	141.69
926.769	122.69
927.199	98.69
927.629	110.69
928.06	111.69
928.49	96.69
928.92	102.69
929.35	113.69
929.78	107.69
930.21	105.69
930.641	103.69
931.071	89.69
931.501	92.69
931.931	90.69
932.361	106.69
932.791	103.69
933.221	97.69
933.651	108.69
934.08	106.69
934.51	104.69
934.94	104.69
935.37	112.69
935.8	102.69
936.229	94.69
936.659	93.69
937.089	105.69
937.519	115.69
937.948	114.69
938.378	114.69
938.807	106.69
939.237	102.69
939.666	86.69
940.096	89.69
940.525	76.69
940.955	71.69
941.384	100.69
941.814	107.69
942.243	89.69
942.672	90.69
943.102	86.69
943.531	101.69
943.96	87.69
944.39	79.69
944.819	88.69
945.248	100.69
945.677	73.69
946.106	101.69
946.535	91.69
946.964	77.69
947.393	89.69
947.822	86.69
948.251	98.69
948.68	89.69
949.109	100.69
949.538	90.69
949.967	104.69
950.396	102.69
950.825	108.69
951.254	105.69
951.682	97.69
952.111	84.69
952.54	73.69
952.969	78.69
953.397	82.69
953.826	89.69
954.254	99.69
954.683	93.69
955.112	78.69
955.54	94.69
955.969	95.69
956.397	100.69
956.826	84.69
957.254	87.69
957.682	94.69
958.111	99.69
958.539	90.69
958.967	92.69
959.396	77.69
959.824	78.69
960.252	99.69
960.68	79.69
961.109	100.69
961.537	97.69
961.965	79.69
962.393	98.69
962.821	96.69
963.249	110.69
963.677	90.69
964.105	103.69
964.533	160.69
964.961	136.69
965.389	114.69
965.817	104.69
966.245	83.69
966.672	84.69
967.1	97.69
967.528	101.69
967.956	105.69
968.383	86.69
968.811	97.69
969.239	99.69
969.666	79.69
970.094	91.69
970.522	76.69
970.949	104.69
971.377	80.69
971.804	103.69
972.232	86.69
972.659	83.69
973.087	92.69
973.514	89.69
973.941	79.69
974.369	96.69
974.796	90.69
975.223	82.69
975.651	88.69
976.078	96.69
976.505	67.69
976.932	88.69
977.359	108.69
977.786	98.69
978.214	103.69
978.641	117.69
979.068	99.69
979.495	105.69
979.922	96.69
980.349	104.69
980.776	89.69
981.202	88.69
981.629	79.69
982.056	76.69
982.483	111.69
982.91	115.69
983.337	94.69
983.763	95.69
984.19	83.69
984.617	95.69
985.043	79.69
985.47	73.69
985.897	89.69
986.323	86.69
986.75	80.69
987.176	96.69
987.603	78.69
988.029	81.69
988.456	103.69
988.882	91.69
989.308	90.69
989.735	86.69
990.161	85.69
990.587	96.69
991.014	79.69
991.44	91.69
991.866	111.69
992.292	93.69
992.719	81.69
993.145	80.69
993.571	88.69
993.997	92.69
994.423	89.69
994.849	86.69
995.275	91.69
995.701	78.69
996.127	90.69
996.553	75.69
996.979	76.69
997.405	89.69
997.83	82.69
998.256	81.69
998.682	86.69
999.108	83.69
999.534	65.69
999.959	96.69
1000.385	105.69
1000.811	87.69
1001.236	83.69
1001.662	96.69
1002.087	79.69
1002.513	105.69
1002.938	102.69
1003.364	88.69
1003.789	77.69
1004.215	71.69
1004.64	91.69
1005.066	93.69
1005.491	78.69
1005.916	92.69
1006.342	79.69
1006.767	91.69
1007.192	78.69
1007.617	85.69
1008.042	82.69
1008.468	83.69
1008.893	91.69
1009.318	84.69
1009.743	90.69
1010.168	85.69
1010.593	82.69
1011.018	97.69
1011.443	79.69
1011.868	98.69
1012.293	75.69
1012.718	97.69
1013.143	103.69
1013.567	92.69
1013.992	95.69
1014.417	73.69
1014.842	80.69
1015.267	93.69
1015.691	87.69
1016.116	78.69
1016.541	88.69
1016.965	101.69
1017.39	80.69
1017.814	80.69
1018.239	86.69
1018.663	99.69
1019.088	82.69
1019.512	100.69
1019.937	91.69
1020.361	74.69
1020.785	92.69
1021.21	81.69
1021.634	87.69
1022.058	77.69
1022.483	94.69
1022.907	80.69
1023.331	65.69
1023.755	72.69
1024.179	83.69
1024.604	84.69
1025.028	81.69
1025.452	80.69
1025.876	76.69
1026.3	73.69
1026.724	92.69
1027.148	67.69
1027.572	92.69
1027.996	85.69
1028.42	87.69
1028.843	90.69
1029.267	87.69
1029.691	96.69
1030.115	103.69
1030.539	83.69
1030.962	81.69
1031.386	103.69
1031.81	82.69
1032.233	75.69
1032.657	99.69
1033.08	82.69
1033.504	95.69
1033.927	94.69
1034.351	86.69
1034.774	80.69
1035.198	93.69
1035.621	86.69
1036.045	86.69
1036.468	88.69
1036.891	82.69
1037.315	91.69
1037.738	67.69
1038.161	101.69
1038.584	68.69
1039.008	97.69
1039.431	85.69
1039.854	83.69
1040.277	79.69
1040.7	67.69
1041.123	85.69
1041.546	89.69
1041.969	74.69
1042.392	77.69
1042.815	86.69
1043.238	85.69
1043.661	84.69
1044.084	84.69
1044.507	83.69
1044.93	90.69
1045.352	72.69
1045.775	91.69
1046.198	87.69
1046.621	87.69
1047.043	85.69
1047.466	85.69
1047.889	89.69
1048.311	85.69
1048.734	97.69
1049.156	70.69
1049.579	80.69
1050.001	97.69
1050.424	91.69
1050.846	79.69
1051.269	93.69
1051.691	86.69
1052.113	78.69
1052.536	76.69
1052.958	88.69
1053.38	85.69
1053.802	105.69
1054.225	75.69
1054.647	93.69
1055.069	87.69
1055.491	79.69
1055.913	79.69
1056.335	86.69
1056.757	67.69
1057.179	86.69
1057.601	78.69
1058.023	79.69
1058.445	91.69
1058.867	96.69
1059.289	78.69
1059.711	87.69
1060.133	91.69
1060.555	78.69
1060.976	93.69
1061.398	89.69
1061.82	83.69
1062.241	85.69
1062.663	87.69
1063.085	73.69
1063.506	95.69
1063.928	99.69
1064.35	97.69
1064.771	77.69
1065.193	75.69
1065.614	89.69
1066.035	78.69
1066.457	69.69
1066.878	99.69
1067.3	92.69
1067.721	99.69
1068.142	104.69
1068.564	89.69
1068.985	79.69
1069.406	85.69
1069.827	87.69
1070.248	77.69
1070.67	95.69
1071.091	86.69
1071.512	76.69
1071.933	89.69
1072.354	84.69
1072.775	88.69
1073.196	77.69
1073.617	77.69
1074.038	93.69
1074.459	83.69
1074.88	78.69
1075.3	81.69
1075.721	70.69
1076.142	85.69
1076.563	76.69
1076.983	89.69
1077.404	87.69
1077.825	100.69
1078.246	89.69
1078.666	87.69
1079.087	77.69
1079.507	85.69
1079.928	90.69
1080.348	79.69
1080.769	85.69
1081.189	74.69
1081.61	77.69
1082.03	85.69
1082.451	86.69
1082.871	82.69
1083.291	87.69
1083.711	72.69
1084.132	71.69
1084.552	77.69
1084.972	102.69
1085.392	75.69
1085.813	73.69
1086.233	77.69
1086.653	77.69
1087.073	74.69
1087.493	85.69
1087.913	78.69
1088.333	94.69
1088.753	89.69
1089.173	82.69
1089.593	82.69
1090.013	83.69
1090.433	82.69
1090.852	69.69
1091.272	84.69
1091.692	74.69
1092.112	74.69
1092.531	76.69
1092.951	62.69
1093.371	94.69
1093.79	89.69
1094.21	81.69
1094.63	85.69
1095.049	75.69
1095.469	84.69
1095.888	89.69
1096.308	87.69
1096.727	90.69
1097.146	109.69
1097.566	77.69
1097.985	81.69
1098.405	89.69
1098.824	101.69
1099.243	82.69
1099.662	94.69
1100.082	88.69
1100.501	101.69
1100.92	91.69
1101.339	79.69
1101.758	87.69
