Data from 20170802-ORNL-NYSim-Air_HRD10391_10-37-31-640.txt Node
Date: Wed Aug 02 10:37:31 EDT 2017
User: Ender
Spectrometer: HR+D1039
Trigger mode: 0
Integration Time (sec): 1.510000E-3
Scans to average: 1
Electric dark correction enabled: true
Nonlinearity correction enabled: false
Boxcar width: 0
XAxis mode: Wavelengths
Number of Pixels in Spectrum: 2048
>>>>>Begin Spectral Data<<<<<
187.836	-5.88
188.309	-5.88
188.782	-5.88
189.255	-13.88
189.728	-4.88
190.201	-8.88
190.674	3.12
191.147	-0.88
191.619	-15.88
192.092	-7.88
192.565	-4.88
193.038	-4.88
193.511	1.12
193.984	7.12
194.456	18.12
194.929	6.12
195.402	10.12
195.874	22.12
196.347	30.12
196.82	22.12
197.292	18.12
197.765	44.12
198.237	26.12
198.71	40.12
199.182	50.12
199.655	33.12
200.127	57.12
200.6	57.12
201.072	61.12
201.544	65.12
202.017	66.12
202.489	73.12
202.961	72.12
203.433	76.12
203.906	75.12
204.378	80.12
204.85	69.12
205.322	67.12
205.794	61.12
206.266	98.12
206.739	80.12
207.211	78.12
207.683	87.12
208.155	87.12
208.627	92.12
209.099	98.12
209.57	88.12
210.042	87.12
210.514	83.12
210.986	80.12
211.458	100.12
211.93	98.12
212.402	109.12
212.873	94.12
213.345	82.12
213.817	86.12
214.288	73.12
214.76	70.12
215.232	91.12
215.703	78.12
216.175	99.12
216.646	88.12
217.118	76.12
217.589	74.12
218.061	80.12
218.532	72.12
219.004	69.12
219.475	91.12
219.946	71.12
220.418	95.12
220.889	89.12
221.36	98.12
221.832	95.12
222.303	69.12
222.774	83.12
223.245	97.12
223.717	77.12
224.188	70.12
224.659	59.12
225.13	88.12
225.601	70.12
226.072	78.12
226.543	90.12
227.014	90.12
227.485	89.12
227.956	68.12
228.427	84.12
228.898	81.12
229.369	99.12
229.839	80.12
230.31	80.12
230.781	84.12
231.252	74.12
231.722	83.12
232.193	70.12
232.664	71.12
233.135	71.12
233.605	89.12
234.076	82.12
234.546	82.12
235.017	103.12
235.487	78.12
235.958	78.12
236.428	96.12
236.899	80.12
237.369	77.12
237.84	85.12
238.31	79.12
238.78	74.12
239.251	78.12
239.721	89.12
240.191	100.12
240.662	98.12
241.132	103.12
241.602	92.12
242.072	68.12
242.542	84.12
243.013	107.12
243.483	82.12
243.953	94.12
244.423	104.12
244.893	83.12
245.363	95.12
245.833	86.12
246.303	87.12
246.773	82.12
247.243	81.12
247.712	100.12
248.182	102.12
248.652	100.12
249.122	95.12
249.592	94.12
250.061	78.12
250.531	96.12
251.001	98.12
251.471	80.12
251.94	81.12
252.41	95.12
252.879	98.12
253.349	103.12
253.818	87.12
254.288	96.12
254.757	95.12
255.227	111.12
255.696	83.12
256.166	90.12
256.635	79.12
257.105	107.12
257.574	87.12
258.043	106.12
258.513	86.12
258.982	102.12
259.451	97.12
259.92	92.12
260.389	92.12
260.859	98.12
261.328	96.12
261.797	108.12
262.266	102.12
262.735	88.12
263.204	120.12
263.673	99.12
264.142	95.12
264.611	94.12
265.08	94.12
265.549	98.12
266.018	124.12
266.487	102.12
266.955	103.12
267.424	90.12
267.893	111.12
268.362	93.12
268.83	112.12
269.299	103.12
269.768	102.12
270.236	96.12
270.705	107.12
271.174	103.12
271.642	114.12
272.111	91.12
272.579	117.12
273.048	97.12
273.516	95.12
273.985	88.12
274.453	106.12
274.922	88.12
275.39	106.12
275.858	111.12
276.327	104.12
276.795	108.12
277.263	93.12
277.731	105.12
278.2	85.12
278.668	102.12
279.136	101.12
279.604	101.12
280.072	130.12
280.54	128.12
281.008	108.12
281.477	124.12
281.945	116.12
282.413	121.12
282.881	108.12
283.348	111.12
283.816	111.12
284.284	98.12
284.752	106.12
285.22	106.12
285.688	132.12
286.156	124.12
286.623	107.12
287.091	112.12
287.559	118.12
288.026	114.12
288.494	118.12
288.962	105.12
289.429	116.12
289.897	121.12
290.364	112.12
290.832	104.12
291.3	113.12
291.767	121.12
292.234	113.12
292.702	112.12
293.169	108.12
293.637	115.12
294.104	118.12
294.571	133.12
295.039	120.12
295.506	110.12
295.973	124.12
296.44	95.12
296.908	122.12
297.375	131.12
297.842	106.12
298.309	140.12
298.776	120.12
299.243	131.12
299.71	104.12
300.177	129.12
300.644	128.12
301.111	120.12
301.578	141.12
302.045	124.12
302.512	137.12
302.979	133.12
303.446	132.12
303.913	122.12
304.379	137.12
304.846	134.12
305.313	127.12
305.78	136.12
306.246	136.12
306.713	129.12
307.18	144.12
307.646	127.12
308.113	130.12
308.579	128.12
309.046	164.12
309.512	128.12
309.979	136.12
310.445	139.12
310.912	149.12
311.378	143.12
311.845	163.12
312.311	150.12
312.777	136.12
313.244	131.12
313.71	147.12
314.176	157.12
314.642	132.12
315.109	157.12
315.575	148.12
316.041	142.12
316.507	154.12
316.973	154.12
317.439	138.12
317.905	132.12
318.371	172.12
318.837	143.12
319.303	146.12
319.769	161.12
320.235	138.12
320.701	157.12
321.167	154.12
321.633	162.12
322.099	159.12
322.564	149.12
323.03	154.12
323.496	144.12
323.962	137.12
324.427	151.12
324.893	153.12
325.359	170.12
325.824	166.12
326.29	160.12
326.755	175.12
327.221	176.12
327.686	164.12
328.152	161.12
328.617	156.12
329.083	164.12
329.548	174.12
330.014	162.12
330.479	174.12
330.944	164.12
331.41	177.12
331.875	164.12
332.34	160.12
332.805	171.12
333.271	176.12
333.736	168.12
334.201	195.12
334.666	186.12
335.131	187.12
335.596	187.12
336.061	163.12
336.526	165.12
336.991	169.12
337.456	162.12
337.921	172.12
338.386	167.12
338.851	192.12
339.316	174.12
339.781	189.12
340.246	190.12
340.711	171.12
341.175	178.12
341.64	172.12
342.105	188.12
342.569	179.12
343.034	176.12
343.499	191.12
343.963	184.12
344.428	196.12
344.893	197.12
345.357	193.12
345.822	174.12
346.286	193.12
346.751	190.12
347.215	220.12
347.679	214.12
348.144	200.12
348.608	212.12
349.073	240.12
349.537	216.12
350.001	209.12
350.465	211.12
350.93	215.12
351.394	230.12
351.858	226.12
352.322	225.12
352.786	214.12
353.25	232.12
353.715	238.12
354.179	223.12
354.643	214.12
355.107	228.12
355.571	234.12
356.035	212.12
356.498	194.12
356.962	228.12
357.426	231.12
357.89	224.12
358.354	223.12
358.818	219.12
359.281	228.12
359.745	235.12
360.209	234.12
360.673	229.12
361.136	222.12
361.6	235.12
362.064	238.12
362.527	247.12
362.991	243.12
363.454	233.12
363.918	204.12
364.381	243.12
364.845	232.12
365.308	237.12
365.772	243.12
366.235	245.12
366.698	226.12
367.162	258.12
367.625	253.12
368.088	251.12
368.552	274.12
369.015	268.12
369.478	261.12
369.941	250.12
370.404	250.12
370.867	247.12
371.331	240.12
371.794	262.12
372.257	270.12
372.72	247.12
373.183	263.12
373.646	277.12
374.109	262.12
374.572	250.12
375.035	241.12
375.497	284.12
375.96	257.12
376.423	260.12
376.886	280.12
377.349	285.12
377.811	279.12
378.274	282.12
378.737	265.12
379.199	286.12
379.662	278.12
380.125	286.12
380.587	279.12
381.05	303.12
381.512	309.12
381.975	293.12
382.437	302.12
382.9	308.12
383.362	287.12
383.825	291.12
384.287	301.12
384.75	300.12
385.212	314.12
385.674	324.12
386.136	307.12
386.599	326.12
387.061	320.12
387.523	304.12
387.985	312.12
388.447	325.12
388.91	311.12
389.372	321.12
389.834	327.12
390.296	322.12
390.758	307.12
391.22	320.12
391.682	308.12
392.144	332.12
392.606	321.12
393.068	337.12
393.529	334.12
393.991	344.12
394.453	336.12
394.915	315.12
395.377	324.12
395.838	312.12
396.3	313.12
396.762	351.12
397.224	335.12
397.685	330.12
398.147	320.12
398.608	351.12
399.07	372.12
399.531	338.12
399.993	350.12
400.454	339.12
400.916	353.12
401.377	342.12
401.839	355.12
402.3	368.12
402.762	378.12
403.223	398.12
403.684	392.12
404.145	388.12
404.607	363.12
405.068	360.12
405.529	389.12
405.99	384.12
406.451	377.12
406.913	395.12
407.374	356.12
407.835	376.12
408.296	354.12
408.757	386.12
409.218	433.12
409.679	416.12
410.14	411.12
410.601	400.12
411.062	406.12
411.522	400.12
411.983	416.12
412.444	398.12
412.905	438.12
413.366	432.12
413.826	433.12
414.287	474.12
414.748	564.12
415.208	559.12
415.669	494.12
416.13	458.12
416.59	450.12
417.051	480.12
417.511	506.12
417.972	508.12
418.432	535.12
418.893	576.12
419.353	578.12
419.814	449.12
420.274	432.12
420.734	410.12
421.195	428.12
421.655	424.12
422.115	450.12
422.576	441.12
423.036	430.12
423.496	435.12
423.956	475.12
424.416	494.12
424.876	532.12
425.336	535.12
425.797	508.12
426.257	506.12
426.717	505.12
427.177	475.12
427.637	479.12
428.097	471.12
428.556	509.12
429.016	545.12
429.476	520.12
429.936	523.12
430.396	518.12
430.856	535.12
431.315	552.12
431.775	599.12
432.235	605.12
432.694	622.12
433.154	617.12
433.614	591.12
434.073	597.12
434.533	538.12
434.993	514.12
435.452	506.12
435.912	481.12
436.371	507.12
436.83	483.12
437.29	479.12
437.749	460.12
438.209	462.12
438.668	491.12
439.127	519.12
439.587	478.12
440.046	486.12
440.505	474.12
440.964	475.12
441.424	522.12
441.883	491.12
442.342	483.12
442.801	476.12
443.26	450.12
443.719	460.12
444.178	452.12
444.637	466.12
445.096	471.12
445.555	469.12
446.014	472.12
446.473	460.12
446.932	475.12
447.391	459.12
447.849	487.12
448.308	461.12
448.767	492.12
449.226	494.12
449.685	495.12
450.143	510.12
450.602	506.12
451.061	488.12
451.519	490.12
451.978	492.12
452.436	479.12
452.895	467.12
453.353	492.12
453.812	459.12
454.27	477.12
454.729	489.12
455.187	490.12
455.646	481.12
456.104	474.12
456.562	490.12
457.021	488.12
457.479	482.12
457.937	519.12
458.395	504.12
458.854	496.12
459.312	506.12
459.77	480.12
460.228	499.12
460.686	522.12
461.144	515.12
461.602	540.12
462.06	518.12
462.518	534.12
462.976	521.12
463.434	532.12
463.892	537.12
464.35	542.12
464.808	554.12
465.266	524.12
465.724	550.12
466.181	557.12
466.639	568.12
467.097	567.12
467.555	588.12
468.012	579.12
468.47	595.12
468.928	624.12
469.385	616.12
469.843	640.12
470.3	651.12
470.758	643.12
471.215	647.12
471.673	642.12
472.13	692.12
472.588	685.12
473.045	713.12
473.503	689.12
473.96	725.12
474.417	728.12
474.875	772.12
475.332	797.12
475.789	792.12
476.246	839.12
476.704	853.12
477.161	855.12
477.618	902.12
478.075	936.12
478.532	1008.12
478.989	1068.12
479.446	1130.12
479.903	1179.12
480.36	1317.12
480.817	1406.12
481.274	1446.12
481.731	1577.12
482.188	1690.12
482.645	1789.12
483.102	1877.12
483.558	2042.12
484.015	2092.12
484.472	2142.12
484.929	2038.12
485.385	1997.12
485.842	1969.12
486.299	1863.12
486.755	1736.12
487.212	1590.12
487.668	1455.12
488.125	1329.12
488.582	1269.12
489.038	1216.12
489.494	1167.12
489.951	1152.12
490.407	1126.12
490.864	1114.12
491.32	1077.12
491.776	1062.12
492.233	1108.12
492.689	1065.12
493.145	1056.12
493.602	1042.12
494.058	1041.12
494.514	1054.12
494.97	1044.12
495.426	1076.12
495.882	1088.12
496.338	1048.12
496.794	1061.12
497.251	1025.12
497.707	1060.12
498.163	1040.12
498.618	1046.12
499.074	1081.12
499.53	1034.12
499.986	1073.12
500.442	1097.12
500.898	1037.12
501.354	1090.12
501.809	1076.12
502.265	1082.12
502.721	1076.12
503.177	1102.12
503.632	1104.12
504.088	1086.12
504.543	1101.12
504.999	1108.12
505.455	1091.12
505.91	1094.12
506.366	1091.12
506.821	1100.12
507.277	1093.12
507.732	1112.12
508.187	1103.12
508.643	1092.12
509.098	1132.12
509.553	1150.12
510.009	1105.12
510.464	1149.12
510.919	1180.12
511.375	1168.12
511.83	1195.12
512.285	1203.12
512.74	1192.12
513.195	1237.12
513.65	1251.12
514.105	1260.12
514.56	1243.12
515.015	1261.12
515.47	1301.12
515.925	1297.12
516.38	1269.12
516.835	1278.12
517.29	1244.12
517.745	1266.12
518.2	1286.12
518.655	1254.12
519.109	1214.12
519.564	1196.12
520.019	1190.12
520.474	1201.12
520.928	1191.12
521.383	1173.12
521.838	1170.12
522.292	1152.12
522.747	1165.12
523.201	1142.12
523.656	1152.12
524.11	1136.12
524.565	1178.12
525.019	1157.12
525.474	1166.12
525.928	1159.12
526.382	1183.12
526.837	1156.12
527.291	1170.12
527.745	1143.12
528.2	1165.12
528.654	1121.12
529.108	1138.12
529.562	1150.12
530.016	1144.12
530.47	1145.12
530.925	1086.12
531.379	1151.12
531.833	1129.12
532.287	1159.12
532.741	1145.12
533.195	1109.12
533.649	1135.12
534.103	1142.12
534.556	1114.12
535.01	1136.12
535.464	1108.12
535.918	1133.12
536.372	1156.12
536.826	1156.12
537.279	1154.12
537.733	1150.12
538.187	1163.12
538.64	1158.12
539.094	1144.12
539.548	1200.12
540.001	1146.12
540.455	1176.12
540.908	1175.12
541.362	1182.12
541.815	1179.12
542.269	1220.12
542.722	1191.12
543.175	1226.12
543.629	1224.12
544.082	1248.12
544.536	1240.12
544.989	1236.12
545.442	1258.12
545.895	1233.12
546.349	1275.12
546.802	1247.12
547.255	1260.12
547.708	1259.12
548.161	1287.12
548.614	1274.12
549.067	1312.12
549.52	1294.12
549.973	1274.12
550.426	1276.12
550.879	1243.12
551.332	1273.12
551.785	1297.12
552.238	1225.12
552.691	1283.12
553.144	1277.12
553.596	1320.12
554.049	1310.12
554.502	1355.12
554.955	1384.12
555.407	1420.12
555.86	1353.12
556.313	1355.12
556.765	1349.12
557.218	1340.12
557.67	1324.12
558.123	1323.12
558.576	1331.12
559.028	1297.12
559.48	1372.12
559.933	1379.12
560.385	1270.12
560.838	1252.12
561.29	1238.12
561.742	1200.12
562.195	1214.12
562.647	1188.12
563.099	1186.12
563.551	1162.12
564.004	1192.12
564.456	1197.12
564.908	1154.12
565.36	1104.12
565.812	1095.12
566.264	1094.12
566.716	1055.12
567.168	1093.12
567.62	1084.12
568.072	1071.12
568.524	1077.12
568.976	1089.12
569.428	1050.12
569.88	1046.12
570.332	1052.12
570.784	1067.12
571.235	1039.12
571.687	1050.12
572.139	1070.12
572.59	1072.12
573.042	1078.12
573.494	1078.12
573.945	1058.12
574.397	1042.12
574.849	1014.12
575.3	1012.12
575.752	994.12
576.203	1020.12
576.655	1029.12
577.106	1030.12
577.557	1000.12
578.009	1016.12
578.46	1006.12
578.912	990.12
579.363	985.12
579.814	1002.12
580.265	988.12
580.717	972.12
581.168	998.12
581.619	975.12
582.07	1020.12
582.521	1028.12
582.972	991.12
583.423	1000.12
583.875	1029.12
584.326	1019.12
584.777	1043.12
585.227	1048.12
585.678	1052.12
586.129	1058.12
586.58	1053.12
587.031	1113.12
587.482	1104.12
587.933	1124.12
588.384	1118.12
588.834	1112.12
589.285	1091.12
589.736	1115.12
590.186	1098.12
590.637	1095.12
591.088	1072.12
591.538	1078.12
591.989	1036.12
592.439	1026.12
592.89	1042.12
593.34	1030.12
593.791	1021.12
594.241	1002.12
594.692	1002.12
595.142	1003.12
595.593	1011.12
596.043	1021.12
596.493	1008.12
596.943	1010.12
597.394	1047.12
597.844	1045.12
598.294	1080.12
598.744	1101.12
599.195	1179.12
599.645	1206.12
600.095	1254.12
600.545	1319.12
600.995	1367.12
601.445	1426.12
601.895	1502.12
602.345	1530.12
602.795	1526.12
603.245	1471.12
603.695	1366.12
604.145	1334.12
604.594	1280.12
605.044	1240.12
605.494	1167.12
605.944	1101.12
606.393	1036.12
606.843	983.12
607.293	1040.12
607.743	1010.12
608.192	1045.12
608.642	1045.12
609.091	1059.12
609.541	1020.12
609.99	1025.12
610.44	1034.12
610.889	1002.12
611.339	1011.12
611.788	960.12
612.238	983.12
612.687	974.12
613.136	975.12
613.586	1051.12
614.035	978.12
614.484	996.12
614.933	991.12
615.383	1002.12
615.832	991.12
616.281	950.12
616.73	914.12
617.179	923.12
617.628	890.12
618.077	904.12
618.526	892.12
618.975	870.12
619.424	890.12
619.873	866.12
620.322	846.12
620.771	874.12
621.22	842.12
621.669	848.12
622.118	841.12
622.567	785.12
623.015	824.12
623.464	800.12
623.913	788.12
624.361	786.12
624.81	810.12
625.259	812.12
625.707	792.12
626.156	760.12
626.604	796.12
627.053	800.12
627.501	811.12
627.95	805.12
628.398	814.12
628.847	822.12
629.295	826.12
629.744	828.12
630.192	809.12
630.64	785.12
631.089	781.12
631.537	771.12
631.985	738.12
632.433	740.12
632.881	749.12
633.33	761.12
633.778	754.12
634.226	752.12
634.674	774.12
635.122	731.12
635.57	726.12
636.018	746.12
636.466	778.12
636.914	776.12
637.362	770.12
637.81	812.12
638.258	807.12
638.705	838.12
639.153	842.12
639.601	850.12
640.049	897.12
640.497	892.12
640.944	916.12
641.392	877.12
641.84	867.12
642.287	841.12
642.735	772.12
643.182	799.12
643.63	797.12
644.078	815.12
644.525	807.12
644.973	830.12
645.42	824.12
645.867	822.12
646.315	870.12
646.762	908.12
647.21	923.12
647.657	971.12
648.104	987.12
648.551	1022.12
648.999	1110.12
649.446	1139.12
649.893	1282.12
650.34	1446.12
650.787	1747.12
651.234	2066.12
651.682	2778.12
652.129	3824.12
652.576	5470.12
653.023	7503.12
653.47	9129.12
653.917	10276.12
654.363	10932.12
654.81	11613.12
655.257	11972.12
655.704	9140.12
656.151	5594.12
656.598	3604.12
657.044	2523.12
657.491	1998.12
657.938	1650.12
658.385	1393.12
658.831	1213.12
659.278	1149.12
659.724	1040.12
660.171	949.12
660.618	873.12
661.064	821.12
661.511	783.12
661.957	794.12
662.404	794.12
662.85	769.12
663.296	766.12
663.743	747.12
664.189	747.12
664.635	708.12
665.082	698.12
665.528	719.12
665.974	681.12
666.42	686.12
666.867	682.12
667.313	673.12
667.759	662.12
668.205	631.12
668.651	631.12
669.097	640.12
669.543	634.12
669.989	641.12
670.435	624.12
670.881	656.12
671.327	669.12
671.773	684.12
672.219	743.12
672.665	827.12
673.11	827.12
673.556	809.12
674.002	854.12
674.448	892.12
674.893	788.12
675.339	669.12
675.785	620.12
676.23	603.12
676.676	535.12
677.122	567.12
677.567	524.12
678.013	520.12
678.458	526.12
678.904	521.12
679.349	532.12
679.794	518.12
680.24	518.12
680.685	482.12
681.131	539.12
681.576	520.12
682.021	508.12
682.466	527.12
682.912	528.12
683.357	526.12
683.802	582.12
684.247	626.12
684.692	673.12
685.137	662.12
685.583	711.12
686.028	731.12
686.473	715.12
686.918	616.12
687.363	595.12
687.807	514.12
688.252	534.12
688.697	519.12
689.142	500.12
689.587	527.12
690.032	535.12
690.477	518.12
690.921	505.12
691.366	556.12
691.811	567.12
692.255	620.12
692.7	706.12
693.145	852.12
693.589	1284.12
694.034	1717.12
694.478	1882.12
694.923	1755.12
695.367	2142.12
695.812	1970.12
696.256	835.12
696.701	572.12
697.145	531.12
697.59	510.12
698.034	482.12
698.478	504.12
698.922	504.12
699.367	484.12
699.811	500.12
700.255	540.12
700.699	590.12
701.143	612.12
701.588	642.12
702.032	671.12
702.476	706.12
702.92	708.12
703.364	821.12
703.808	1200.12
704.252	1590.12
704.696	1765.12
705.14	1665.12
705.584	2120.12
706.027	1729.12
706.471	810.12
706.915	582.12
707.359	508.12
707.803	498.12
708.246	466.12
708.69	489.12
709.134	456.12
709.577	455.12
710.021	440.12
710.465	436.12
710.908	443.12
711.352	439.12
711.795	491.12
712.239	542.12
712.682	560.12
713.126	547.12
713.569	583.12
714.012	536.12
714.456	444.12
714.899	438.12
715.342	402.12
715.786	415.12
716.229	400.12
716.672	392.12
717.115	376.12
717.558	390.12
718.002	378.12
718.445	410.12
718.888	430.12
719.331	436.12
719.774	459.12
720.217	443.12
720.66	435.12
721.103	386.12
721.546	404.12
721.989	385.12
722.432	361.12
722.874	384.12
723.317	369.12
723.76	383.12
724.203	406.12
724.645	533.12
725.088	660.12
725.531	713.12
725.974	674.12
726.416	740.12
726.859	502.12
727.301	403.12
727.744	369.12
728.187	373.12
728.629	372.12
729.071	393.12
729.514	373.12
729.956	418.12
730.399	427.12
730.841	427.12
731.283	432.12
731.726	408.12
732.168	401.12
732.61	411.12
733.053	450.12
733.495	488.12
733.937	550.12
734.379	606.12
734.821	666.12
735.263	938.12
735.705	1518.12
736.148	2510.12
736.59	2977.12
737.032	2823.12
737.474	3025.12
737.916	1528.12
738.357	750.12
738.799	524.12
739.241	478.12
739.683	463.12
740.125	479.12
740.567	490.12
741.008	462.12
741.45	506.12
741.892	528.12
742.334	551.12
742.775	536.12
743.217	526.12
743.658	452.12
744.1	472.12
744.542	469.12
744.983	548.12
745.425	536.12
745.866	586.12
746.307	516.12
746.749	482.12
747.19	581.12
747.632	907.12
748.073	1677.12
748.514	2645.12
748.956	3203.12
749.397	4426.12
749.838	3563.12
750.279	2877.12
750.72	2160.12
751.162	992.12
751.603	547.12
752.044	439.12
752.485	384.12
752.926	338.12
753.367	321.12
753.808	325.12
754.249	344.12
754.69	305.12
755.131	315.12
755.572	327.12
756.013	319.12
756.453	311.12
756.894	336.12
757.335	341.12
757.776	321.12
758.216	316.12
758.657	338.12
759.098	356.12
759.538	407.12
759.979	499.12
760.42	777.12
760.86	1668.12
761.301	3930.12
761.741	5799.12
762.182	5943.12
762.622	5620.12
763.063	2560.12
763.503	1036.12
763.943	572.12
764.384	395.12
764.824	362.12
765.264	336.12
765.705	352.12
766.145	339.12
766.585	318.12
767.025	271.12
767.465	305.12
767.906	300.12
768.346	318.12
768.786	327.12
769.226	415.12
769.666	648.12
770.106	1315.12
770.546	2333.12
770.986	2580.12
771.426	2499.12
771.866	1411.12
772.306	664.12
772.745	393.12
773.185	335.12
773.625	286.12
774.065	259.12
774.505	341.12
774.944	520.12
775.384	798.12
775.824	924.12
776.263	933.12
776.703	675.12
777.142	409.12
777.582	281.12
778.021	254.12
778.461	258.12
778.9	266.12
779.34	241.12
779.779	238.12
780.219	239.12
780.658	240.12
781.097	251.12
781.537	256.12
781.976	238.12
782.415	218.12
782.855	228.12
783.294	220.12
783.733	219.12
784.172	221.12
784.611	241.12
785.05	219.12
785.489	222.12
785.928	226.12
786.367	243.12
786.806	228.12
787.245	238.12
787.684	262.12
788.123	259.12
788.562	254.12
789.001	268.12
789.44	226.12
789.879	244.12
790.317	241.12
790.756	263.12
791.195	245.12
791.634	338.12
792.072	429.12
792.511	854.12
792.95	1760.12
793.388	2188.12
793.827	2013.12
794.265	1146.12
794.704	622.12
795.142	336.12
795.581	294.12
796.019	278.12
796.458	256.12
796.896	258.12
797.334	268.12
797.773	320.12
798.211	466.12
798.649	853.12
799.087	1423.12
799.526	2125.12
799.964	2464.12
800.402	2081.12
800.84	1202.12
801.278	602.12
801.716	376.12
802.154	290.12
802.592	291.12
803.03	278.12
803.468	295.12
803.906	272.12
804.344	251.12
804.782	262.12
805.22	276.12
805.658	271.12
806.096	292.12
806.533	286.12
806.971	324.12
807.409	401.12
807.847	656.12
808.284	1444.12
808.722	2789.12
809.16	3986.12
809.597	5522.12
810.035	7053.12
810.472	5970.12
810.91	3346.12
811.347	1623.12
811.785	792.12
812.222	438.12
812.66	367.12
813.097	304.12
813.535	282.12
813.972	275.12
814.409	250.12
814.846	234.12
815.284	201.12
815.721	216.12
816.158	230.12
816.595	270.12
817.032	302.12
817.47	336.12
817.907	274.12
818.344	245.12
818.781	232.12
819.218	247.12
819.655	329.12
820.092	406.12
820.529	412.12
820.966	357.12
821.403	302.12
821.839	250.12
822.276	249.12
822.713	254.12
823.15	275.12
823.587	293.12
824.023	353.12
824.46	677.12
824.897	1288.12
825.333	1342.12
825.77	804.12
826.206	470.12
826.643	290.12
827.08	221.12
827.516	201.12
827.953	203.12
828.389	182.12
828.825	171.12
829.262	183.12
829.698	172.12
830.135	166.12
830.571	186.12
831.007	169.12
831.443	193.12
831.88	187.12
832.316	164.12
832.752	175.12
833.188	166.12
833.624	168.12
834.06	158.12
834.497	154.12
834.933	190.12
835.369	186.12
835.805	186.12
836.241	181.12
836.677	198.12
837.112	204.12
837.548	237.12
837.984	285.12
838.42	452.12
838.856	1084.12
839.292	2203.12
839.727	2428.12
840.163	1640.12
840.599	1890.12
841.034	2782.12
841.47	2204.12
841.906	1230.12
842.341	708.12
842.777	461.12
843.212	430.12
843.648	357.12
844.083	274.12
844.519	214.12
844.954	186.12
845.39	198.12
845.825	169.12
846.261	155.12
846.696	152.12
847.131	154.12
847.566	162.12
848.002	156.12
848.437	156.12
848.872	167.12
849.307	173.12
849.742	230.12
850.177	436.12
850.613	810.12
851.048	947.12
851.483	568.12
851.918	370.12
852.353	202.12
852.788	191.12
853.223	149.12
853.657	148.12
854.092	148.12
854.527	141.12
854.962	136.12
855.397	153.12
855.832	163.12
856.266	138.12
856.701	158.12
857.136	138.12
857.57	172.12
858.005	166.12
858.44	150.12
858.874	149.12
859.309	142.12
859.743	144.12
860.178	158.12
860.612	156.12
861.047	154.12
861.481	212.12
861.915	201.12
862.35	172.12
862.784	149.12
863.218	152.12
863.653	155.12
864.087	142.12
864.521	163.12
864.955	189.12
865.39	289.12
865.824	292.12
866.258	296.12
866.692	411.12
867.126	404.12
867.56	288.12
867.994	198.12
868.428	173.12
868.862	176.12
869.296	166.12
869.73	204.12
870.164	170.12
870.598	183.12
871.031	171.12
871.465	156.12
871.899	126.12
872.333	128.12
872.766	117.12
873.2	128.12
873.634	120.12
874.067	141.12
874.501	117.12
874.935	126.12
875.368	114.12
875.802	105.12
876.235	127.12
876.669	132.12
877.102	128.12
877.535	114.12
877.969	115.12
878.402	122.12
878.836	118.12
879.269	122.12
879.702	116.12
880.135	106.12
880.569	122.12
881.002	107.12
881.435	123.12
881.868	121.12
882.301	103.12
882.734	104.12
883.167	106.12
883.601	113.12
884.034	117.12
884.467	122.12
884.899	111.12
885.332	117.12
885.765	120.12
886.198	100.12
886.631	114.12
887.064	104.12
887.497	130.12
887.929	97.12
888.362	114.12
888.795	104.12
889.228	118.12
889.66	116.12
890.093	93.12
890.526	99.12
890.958	106.12
891.391	119.12
891.823	113.12
892.256	122.12
892.688	98.12
893.121	103.12
893.553	123.12
893.985	105.12
894.418	113.12
894.85	100.12
895.282	116.12
895.715	105.12
896.147	95.12
896.579	111.12
897.011	109.12
897.444	113.12
897.876	109.12
898.308	112.12
898.74	106.12
899.172	104.12
899.604	110.12
900.036	130.12
900.468	108.12
900.9	109.12
901.332	126.12
901.764	118.12
902.196	98.12
902.628	122.12
903.06	124.12
903.491	125.12
903.923	135.12
904.355	138.12
904.787	129.12
905.218	129.12
905.65	119.12
906.082	116.12
906.513	112.12
906.945	106.12
907.376	106.12
907.808	100.12
908.239	107.12
908.671	106.12
909.102	111.12
909.534	127.12
909.965	149.12
910.397	254.12
910.828	546.12
911.259	577.12
911.691	412.12
912.122	282.12
912.553	179.12
912.984	117.12
913.415	125.12
913.847	98.12
914.278	112.12
914.709	101.12
915.14	117.12
915.571	113.12
916.002	123.12
916.433	122.12
916.864	119.12
917.295	112.12
917.726	103.12
918.157	125.12
918.587	124.12
919.018	99.12
919.449	120.12
919.88	110.12
920.311	138.12
920.741	172.12
921.172	306.12
921.603	250.12
922.033	202.12
922.464	160.12
922.895	126.12
923.325	121.12
923.756	104.12
924.186	114.12
924.617	114.12
925.047	128.12
925.478	138.12
925.908	158.12
926.338	121.12
926.769	120.12
927.199	109.12
927.629	104.12
928.06	126.12
928.49	108.12
928.92	104.12
929.35	84.12
929.78	109.12
930.21	102.12
930.641	102.12
931.071	123.12
931.501	93.12
931.931	97.12
932.361	109.12
932.791	108.12
933.221	93.12
933.651	105.12
934.08	113.12
934.51	106.12
934.94	102.12
935.37	101.12
935.8	94.12
936.229	103.12
936.659	91.12
937.089	106.12
937.519	88.12
937.948	116.12
938.378	112.12
938.807	107.12
939.237	110.12
939.666	95.12
940.096	84.12
940.525	100.12
940.955	95.12
941.384	91.12
941.814	107.12
942.243	111.12
942.672	92.12
943.102	87.12
943.531	86.12
943.96	101.12
944.39	84.12
944.819	88.12
945.248	103.12
945.677	102.12
946.106	91.12
946.535	92.12
946.964	96.12
947.393	101.12
947.822	97.12
948.251	98.12
948.68	75.12
949.109	85.12
949.538	103.12
949.967	103.12
950.396	76.12
950.825	90.12
951.254	98.12
951.682	105.12
952.111	99.12
952.54	96.12
952.969	90.12
953.397	91.12
953.826	95.12
954.254	86.12
954.683	93.12
955.112	94.12
955.54	76.12
955.969	78.12
956.397	108.12
956.826	100.12
957.254	82.12
957.682	76.12
958.111	90.12
958.539	98.12
958.967	82.12
959.396	103.12
959.824	83.12
960.252	95.12
960.68	86.12
961.109	95.12
961.537	101.12
961.965	92.12
962.393	86.12
962.821	76.12
963.249	96.12
963.677	95.12
964.105	94.12
964.533	143.12
964.961	122.12
965.389	116.12
965.817	112.12
966.245	101.12
966.672	97.12
967.1	81.12
967.528	87.12
967.956	90.12
968.383	97.12
968.811	86.12
969.239	89.12
969.666	92.12
970.094	99.12
970.522	91.12
970.949	64.12
971.377	85.12
971.804	78.12
972.232	70.12
972.659	79.12
973.087	84.12
973.514	74.12
973.941	72.12
974.369	88.12
974.796	74.12
975.223	92.12
975.651	86.12
976.078	85.12
976.505	102.12
976.932	110.12
977.359	123.12
977.786	101.12
978.214	97.12
978.641	114.12
979.068	102.12
979.495	101.12
979.922	89.12
980.349	78.12
980.776	98.12
981.202	98.12
981.629	67.12
982.056	80.12
982.483	74.12
982.91	110.12
983.337	97.12
983.763	100.12
984.19	93.12
984.617	84.12
985.043	94.12
985.47	88.12
985.897	96.12
986.323	79.12
986.75	87.12
987.176	81.12
987.603	68.12
988.029	100.12
988.456	90.12
988.882	90.12
989.308	68.12
989.735	91.12
990.161	88.12
990.587	86.12
991.014	75.12
991.44	89.12
991.866	102.12
992.292	98.12
992.719	90.12
993.145	98.12
993.571	101.12
993.997	82.12
994.423	79.12
994.849	83.12
995.275	94.12
995.701	92.12
996.127	96.12
996.553	89.12
996.979	100.12
997.405	81.12
997.83	83.12
998.256	87.12
998.682	97.12
999.108	86.12
999.534	94.12
999.959	91.12
1000.385	91.12
1000.811	91.12
1001.236	89.12
1001.662	99.12
1002.087	82.12
1002.513	84.12
1002.938	100.12
1003.364	99.12
1003.789	96.12
1004.215	86.12
1004.64	87.12
1005.066	68.12
1005.491	72.12
1005.916	75.12
1006.342	87.12
1006.767	92.12
1007.192	90.12
1007.617	85.12
1008.042	81.12
1008.468	93.12
1008.893	78.12
1009.318	91.12
1009.743	103.12
1010.168	83.12
1010.593	109.12
1011.018	100.12
1011.443	84.12
1011.868	77.12
1012.293	97.12
1012.718	85.12
1013.143	90.12
1013.567	94.12
1013.992	77.12
1014.417	77.12
1014.842	74.12
1015.267	89.12
1015.691	75.12
1016.116	78.12
1016.541	79.12
1016.965	81.12
1017.39	77.12
1017.814	73.12
1018.239	95.12
1018.663	68.12
1019.088	71.12
1019.512	89.12
1019.937	107.12
1020.361	91.12
1020.785	79.12
1021.21	74.12
1021.634	90.12
1022.058	69.12
1022.483	76.12
1022.907	69.12
1023.331	69.12
1023.755	89.12
1024.179	85.12
1024.604	104.12
1025.028	111.12
1025.452	82.12
1025.876	76.12
1026.3	80.12
1026.724	87.12
1027.148	95.12
1027.572	76.12
1027.996	90.12
1028.42	86.12
1028.843	78.12
1029.267	72.12
1029.691	67.12
1030.115	89.12
1030.539	85.12
1030.962	89.12
1031.386	94.12
1031.81	90.12
1032.233	84.12
1032.657	99.12
1033.08	80.12
1033.504	82.12
1033.927	86.12
1034.351	77.12
1034.774	84.12
1035.198	76.12
1035.621	83.12
1036.045	90.12
1036.468	90.12
1036.891	93.12
1037.315	67.12
1037.738	76.12
1038.161	88.12
1038.584	94.12
1039.008	96.12
1039.431	81.12
1039.854	89.12
1040.277	83.12
1040.7	88.12
1041.123	84.12
1041.546	96.12
1041.969	74.12
1042.392	83.12
1042.815	81.12
1043.238	81.12
1043.661	77.12
1044.084	80.12
1044.507	88.12
1044.93	68.12
1045.352	104.12
1045.775	92.12
1046.198	82.12
1046.621	86.12
1047.043	78.12
1047.466	84.12
1047.889	88.12
1048.311	96.12
1048.734	87.12
1049.156	94.12
1049.579	87.12
1050.001	85.12
1050.424	67.12
1050.846	90.12
1051.269	67.12
1051.691	94.12
1052.113	66.12
1052.536	74.12
1052.958	86.12
1053.38	104.12
1053.802	78.12
1054.225	76.12
1054.647	80.12
1055.069	80.12
1055.491	72.12
1055.913	80.12
1056.335	72.12
1056.757	78.12
1057.179	85.12
1057.601	92.12
1058.023	75.12
1058.445	68.12
1058.867	86.12
1059.289	101.12
1059.711	110.12
1060.133	80.12
1060.555	75.12
1060.976	83.12
1061.398	72.12
1061.82	94.12
1062.241	90.12
1062.663	60.12
1063.085	94.12
1063.506	70.12
1063.928	86.12
1064.35	79.12
1064.771	89.12
1065.193	91.12
1065.614	95.12
1066.035	87.12
1066.457	82.12
1066.878	94.12
1067.3	69.12
1067.721	80.12
1068.142	82.12
1068.564	82.12
1068.985	80.12
1069.406	88.12
1069.827	83.12
1070.248	75.12
1070.67	88.12
1071.091	81.12
1071.512	76.12
1071.933	79.12
1072.354	83.12
1072.775	69.12
1073.196	90.12
1073.617	79.12
1074.038	88.12
1074.459	93.12
1074.88	76.12
1075.3	78.12
1075.721	81.12
1076.142	80.12
1076.563	79.12
1076.983	76.12
1077.404	85.12
1077.825	80.12
1078.246	89.12
1078.666	88.12
1079.087	70.12
1079.507	68.12
1079.928	78.12
1080.348	77.12
1080.769	84.12
1081.189	80.12
1081.61	75.12
1082.03	86.12
1082.451	76.12
1082.871	94.12
1083.291	81.12
1083.711	70.12
1084.132	87.12
1084.552	99.12
1084.972	96.12
1085.392	78.12
1085.813	80.12
1086.233	73.12
1086.653	84.12
1087.073	90.12
1087.493	78.12
1087.913	76.12
1088.333	85.12
1088.753	76.12
1089.173	77.12
1089.593	88.12
1090.013	91.12
1090.433	81.12
1090.852	93.12
1091.272	76.12
1091.692	91.12
1092.112	72.12
1092.531	70.12
1092.951	78.12
1093.371	76.12
1093.79	72.12
1094.21	97.12
1094.63	79.12
1095.049	77.12
1095.469	73.12
1095.888	73.12
1096.308	81.12
1096.727	87.12
1097.146	60.12
1097.566	86.12
1097.985	79.12
1098.405	93.12
1098.824	93.12
1099.243	93.12
1099.662	80.12
1100.082	80.12
1100.501	63.12
1100.92	78.12
1101.339	62.12
1101.758	77.12
