Data from 20170802-ORNL-NYSim-Air_HRD10391_10-37-04-626.txt Node
Date: Wed Aug 02 10:37:04 EDT 2017
User: Ender
Spectrometer: HR+D1039
Trigger mode: 0
Integration Time (sec): 1.510000E-3
Scans to average: 1
Electric dark correction enabled: true
Nonlinearity correction enabled: false
Boxcar width: 0
XAxis mode: Wavelengths
Number of Pixels in Spectrum: 2048
>>>>>Begin Spectral Data<<<<<
187.836	1.56
188.309	1.56
188.782	1.56
189.255	-5.44
189.728	-3.44
190.201	-0.44
190.674	-3.44
191.147	-0.44
191.619	8.56
192.092	-2.44
192.565	-16.44
193.038	0.56
193.511	-5.44
193.984	1.56
194.456	8.56
194.929	2.56
195.402	5.56
195.874	8.56
196.347	16.56
196.82	20.56
197.292	12.56
197.765	28.56
198.237	44.56
198.71	41.56
199.182	34.56
199.655	46.56
200.127	52.56
200.6	52.56
201.072	59.56
201.544	58.56
202.017	58.56
202.489	73.56
202.961	59.56
203.433	62.56
203.906	65.56
204.378	71.56
204.85	81.56
205.322	70.56
205.794	66.56
206.266	90.56
206.739	75.56
207.211	85.56
207.683	84.56
208.155	97.56
208.627	73.56
209.099	91.56
209.57	78.56
210.042	88.56
210.514	96.56
210.986	88.56
211.458	78.56
211.93	86.56
212.402	84.56
212.873	57.56
213.345	68.56
213.817	84.56
214.288	86.56
214.76	70.56
215.232	77.56
215.703	79.56
216.175	82.56
216.646	65.56
217.118	74.56
217.589	84.56
218.061	75.56
218.532	85.56
219.004	91.56
219.475	71.56
219.946	72.56
220.418	82.56
220.889	85.56
221.36	92.56
221.832	78.56
222.303	66.56
222.774	80.56
223.245	65.56
223.717	80.56
224.188	85.56
224.659	90.56
225.13	76.56
225.601	87.56
226.072	70.56
226.543	69.56
227.014	75.56
227.485	77.56
227.956	75.56
228.427	78.56
228.898	75.56
229.369	78.56
229.839	59.56
230.31	86.56
230.781	73.56
231.252	72.56
231.722	76.56
232.193	61.56
232.664	60.56
233.135	80.56
233.605	80.56
234.076	67.56
234.546	67.56
235.017	68.56
235.487	81.56
235.958	79.56
236.428	84.56
236.899	77.56
237.369	79.56
237.84	89.56
238.31	80.56
238.78	69.56
239.251	78.56
239.721	84.56
240.191	81.56
240.662	95.56
241.132	80.56
241.602	96.56
242.072	77.56
242.542	82.56
243.013	82.56
243.483	93.56
243.953	80.56
244.423	80.56
244.893	90.56
245.363	77.56
245.833	84.56
246.303	89.56
246.773	81.56
247.243	96.56
247.712	82.56
248.182	91.56
248.652	82.56
249.122	106.56
249.592	103.56
250.061	86.56
250.531	64.56
251.001	81.56
251.471	78.56
251.94	96.56
252.41	89.56
252.879	90.56
253.349	89.56
253.818	92.56
254.288	77.56
254.757	87.56
255.227	78.56
255.696	88.56
256.166	86.56
256.635	81.56
257.105	92.56
257.574	93.56
258.043	90.56
258.513	74.56
258.982	87.56
259.451	72.56
259.92	92.56
260.389	96.56
260.859	106.56
261.328	95.56
261.797	79.56
262.266	89.56
262.735	89.56
263.204	96.56
263.673	101.56
264.142	85.56
264.611	93.56
265.08	101.56
265.549	95.56
266.018	92.56
266.487	85.56
266.955	94.56
267.424	111.56
267.893	92.56
268.362	99.56
268.83	87.56
269.299	97.56
269.768	117.56
270.236	98.56
270.705	108.56
271.174	100.56
271.642	108.56
272.111	106.56
272.579	76.56
273.048	116.56
273.516	99.56
273.985	96.56
274.453	117.56
274.922	97.56
275.39	106.56
275.858	98.56
276.327	110.56
276.795	92.56
277.263	88.56
277.731	96.56
278.2	118.56
278.668	103.56
279.136	93.56
279.604	112.56
280.072	98.56
280.54	99.56
281.008	102.56
281.477	105.56
281.945	110.56
282.413	91.56
282.881	94.56
283.348	107.56
283.816	113.56
284.284	109.56
284.752	116.56
285.22	104.56
285.688	112.56
286.156	113.56
286.623	106.56
287.091	103.56
287.559	102.56
288.026	116.56
288.494	108.56
288.962	104.56
289.429	105.56
289.897	104.56
290.364	120.56
290.832	104.56
291.3	116.56
291.767	99.56
292.234	97.56
292.702	138.56
293.169	124.56
293.637	121.56
294.104	119.56
294.571	121.56
295.039	126.56
295.506	113.56
295.973	106.56
296.44	124.56
296.908	116.56
297.375	120.56
297.842	123.56
298.309	118.56
298.776	127.56
299.243	129.56
299.71	126.56
300.177	123.56
300.644	127.56
301.111	134.56
301.578	128.56
302.045	125.56
302.512	112.56
302.979	118.56
303.446	133.56
303.913	124.56
304.379	122.56
304.846	118.56
305.313	116.56
305.78	119.56
306.246	129.56
306.713	142.56
307.18	128.56
307.646	110.56
308.113	128.56
308.579	138.56
309.046	129.56
309.512	136.56
309.979	135.56
310.445	146.56
310.912	145.56
311.378	133.56
311.845	122.56
312.311	120.56
312.777	157.56
313.244	134.56
313.71	133.56
314.176	144.56
314.642	138.56
315.109	146.56
315.575	144.56
316.041	134.56
316.507	141.56
316.973	164.56
317.439	148.56
317.905	154.56
318.371	158.56
318.837	148.56
319.303	120.56
319.769	162.56
320.235	136.56
320.701	144.56
321.167	148.56
321.633	157.56
322.099	129.56
322.564	148.56
323.03	154.56
323.496	150.56
323.962	158.56
324.427	156.56
324.893	156.56
325.359	141.56
325.824	161.56
326.29	146.56
326.755	156.56
327.221	134.56
327.686	159.56
328.152	154.56
328.617	163.56
329.083	163.56
329.548	172.56
330.014	157.56
330.479	183.56
330.944	181.56
331.41	173.56
331.875	172.56
332.34	153.56
332.805	171.56
333.271	159.56
333.736	182.56
334.201	176.56
334.666	172.56
335.131	187.56
335.596	183.56
336.061	175.56
336.526	178.56
336.991	170.56
337.456	172.56
337.921	168.56
338.386	161.56
338.851	153.56
339.316	176.56
339.781	173.56
340.246	187.56
340.711	179.56
341.175	197.56
341.64	167.56
342.105	165.56
342.569	201.56
343.034	198.56
343.499	178.56
343.963	184.56
344.428	174.56
344.893	194.56
345.357	175.56
345.822	192.56
346.286	184.56
346.751	206.56
347.215	204.56
347.679	208.56
348.144	215.56
348.608	214.56
349.073	217.56
349.537	218.56
350.001	234.56
350.465	193.56
350.93	210.56
351.394	234.56
351.858	201.56
352.322	202.56
352.786	225.56
353.25	213.56
353.715	227.56
354.179	231.56
354.643	228.56
355.107	242.56
355.571	225.56
356.035	204.56
356.498	233.56
356.962	218.56
357.426	237.56
357.89	219.56
358.354	236.56
358.818	228.56
359.281	232.56
359.745	219.56
360.209	221.56
360.673	241.56
361.136	214.56
361.6	232.56
362.064	228.56
362.527	257.56
362.991	258.56
363.454	225.56
363.918	243.56
364.381	243.56
364.845	261.56
365.308	260.56
365.772	257.56
366.235	241.56
366.698	247.56
367.162	238.56
367.625	244.56
368.088	258.56
368.552	244.56
369.015	254.56
369.478	264.56
369.941	267.56
370.404	262.56
370.867	247.56
371.331	273.56
371.794	261.56
372.257	276.56
372.72	252.56
373.183	272.56
373.646	257.56
374.109	293.56
374.572	274.56
375.035	263.56
375.497	292.56
375.96	275.56
376.423	295.56
376.886	269.56
377.349	254.56
377.811	285.56
378.274	290.56
378.737	276.56
379.199	295.56
379.662	284.56
380.125	284.56
380.587	304.56
381.05	319.56
381.512	275.56
381.975	304.56
382.437	295.56
382.9	293.56
383.362	281.56
383.825	293.56
384.287	318.56
384.75	285.56
385.212	304.56
385.674	317.56
386.136	332.56
386.599	321.56
387.061	318.56
387.523	331.56
387.985	313.56
388.447	340.56
388.91	319.56
389.372	328.56
389.834	335.56
390.296	325.56
390.758	319.56
391.22	310.56
391.682	308.56
392.144	321.56
392.606	336.56
393.068	342.56
393.529	349.56
393.991	368.56
394.453	366.56
394.915	336.56
395.377	329.56
395.838	323.56
396.3	316.56
396.762	327.56
397.224	327.56
397.685	331.56
398.147	351.56
398.608	354.56
399.07	358.56
399.531	352.56
399.993	362.56
400.454	361.56
400.916	386.56
401.377	353.56
401.839	367.56
402.3	381.56
402.762	398.56
403.223	406.56
403.684	379.56
404.145	404.56
404.607	370.56
405.068	380.56
405.529	383.56
405.99	372.56
406.451	386.56
406.913	373.56
407.374	388.56
407.835	371.56
408.296	378.56
408.757	384.56
409.218	406.56
409.679	402.56
410.14	406.56
410.601	411.56
411.062	421.56
411.522	412.56
411.983	426.56
412.444	423.56
412.905	442.56
413.366	470.56
413.826	456.56
414.287	516.56
414.748	590.56
415.208	595.56
415.669	514.56
416.13	468.56
416.59	456.56
417.051	484.56
417.511	508.56
417.972	536.56
418.432	549.56
418.893	624.56
419.353	589.56
419.814	495.56
420.274	435.56
420.734	417.56
421.195	449.56
421.655	414.56
422.115	450.56
422.576	425.56
423.036	461.56
423.496	445.56
423.956	487.56
424.416	522.56
424.876	561.56
425.336	545.56
425.797	566.56
426.257	550.56
426.717	542.56
427.177	492.56
427.637	495.56
428.097	493.56
428.556	526.56
429.016	550.56
429.476	580.56
429.936	549.56
430.396	563.56
430.856	571.56
431.315	600.56
431.775	615.56
432.235	640.56
432.694	644.56
433.154	618.56
433.614	620.56
434.073	587.56
434.533	528.56
434.993	541.56
435.452	539.56
435.912	536.56
436.371	504.56
436.83	496.56
437.29	499.56
437.749	485.56
438.209	480.56
438.668	546.56
439.127	512.56
439.587	484.56
440.046	505.56
440.505	476.56
440.964	502.56
441.424	530.56
441.883	536.56
442.342	530.56
442.801	486.56
443.26	503.56
443.719	472.56
444.178	487.56
444.637	492.56
445.096	486.56
445.555	490.56
446.014	452.56
446.473	498.56
446.932	477.56
447.391	494.56
447.849	515.56
448.308	482.56
448.767	502.56
449.226	516.56
449.685	536.56
450.143	530.56
450.602	523.56
451.061	517.56
451.519	491.56
451.978	507.56
452.436	516.56
452.895	518.56
453.353	502.56
453.812	490.56
454.27	503.56
454.729	530.56
455.187	503.56
455.646	520.56
456.104	506.56
456.562	501.56
457.021	503.56
457.479	458.56
457.937	519.56
458.395	537.56
458.854	486.56
459.312	516.56
459.77	525.56
460.228	530.56
460.686	541.56
461.144	498.56
461.602	530.56
462.06	559.56
462.518	543.56
462.976	529.56
463.434	531.56
463.892	551.56
464.35	540.56
464.808	563.56
465.266	581.56
465.724	586.56
466.181	571.56
466.639	594.56
467.097	609.56
467.555	606.56
468.012	600.56
468.47	634.56
468.928	636.56
469.385	632.56
469.843	630.56
470.3	649.56
470.758	677.56
471.215	636.56
471.673	679.56
472.13	705.56
472.588	744.56
473.045	717.56
473.503	703.56
473.96	754.56
474.417	819.56
474.875	777.56
475.332	826.56
475.789	813.56
476.246	870.56
476.704	864.56
477.161	916.56
477.618	944.56
478.075	986.56
478.532	1040.56
478.989	1111.56
479.446	1215.56
479.903	1236.56
480.36	1352.56
480.817	1428.56
481.274	1493.56
481.731	1640.56
482.188	1756.56
482.645	1883.56
483.102	2002.56
483.558	2091.56
484.015	2221.56
484.472	2190.56
484.929	2120.56
485.385	2047.56
485.842	2006.56
486.299	1956.56
486.755	1806.56
487.212	1680.56
487.668	1536.56
488.125	1432.56
488.582	1309.56
489.038	1290.56
489.494	1243.56
489.951	1183.56
490.407	1160.56
490.864	1175.56
491.32	1124.56
491.776	1134.56
492.233	1129.56
492.689	1132.56
493.145	1052.56
493.602	1089.56
494.058	1095.56
494.514	1052.56
494.97	1083.56
495.426	1089.56
495.882	1094.56
496.338	1112.56
496.794	1095.56
497.251	1095.56
497.707	1099.56
498.163	1131.56
498.618	1108.56
499.074	1120.56
499.53	1144.56
499.986	1138.56
500.442	1103.56
500.898	1124.56
501.354	1108.56
501.809	1092.56
502.265	1109.56
502.721	1114.56
503.177	1111.56
503.632	1140.56
504.088	1102.56
504.543	1156.56
504.999	1134.56
505.455	1141.56
505.91	1144.56
506.366	1154.56
506.821	1147.56
507.277	1142.56
507.732	1140.56
508.187	1129.56
508.643	1159.56
509.098	1125.56
509.553	1173.56
510.009	1167.56
510.464	1216.56
510.919	1228.56
511.375	1226.56
511.83	1228.56
512.285	1235.56
512.74	1262.56
513.195	1276.56
513.65	1291.56
514.105	1333.56
514.56	1306.56
515.015	1367.56
515.47	1368.56
515.925	1316.56
516.38	1315.56
516.835	1340.56
517.29	1348.56
517.745	1322.56
518.2	1343.56
518.655	1292.56
519.109	1276.56
519.564	1271.56
520.019	1242.56
520.474	1223.56
520.928	1235.56
521.383	1252.56
521.838	1231.56
522.292	1243.56
522.747	1203.56
523.201	1215.56
523.656	1213.56
524.11	1202.56
524.565	1210.56
525.019	1199.56
525.474	1198.56
525.928	1182.56
526.382	1198.56
526.837	1214.56
527.291	1200.56
527.745	1214.56
528.2	1176.56
528.654	1195.56
529.108	1211.56
529.562	1184.56
530.016	1212.56
530.47	1203.56
530.925	1172.56
531.379	1208.56
531.833	1185.56
532.287	1188.56
532.741	1161.56
533.195	1174.56
533.649	1184.56
534.103	1201.56
534.556	1224.56
535.01	1156.56
535.464	1155.56
535.918	1187.56
536.372	1208.56
536.826	1173.56
537.279	1192.56
537.733	1177.56
538.187	1175.56
538.64	1211.56
539.094	1236.56
539.548	1218.56
540.001	1238.56
540.455	1226.56
540.908	1216.56
541.362	1260.56
541.815	1263.56
542.269	1245.56
542.722	1277.56
543.175	1268.56
543.629	1274.56
544.082	1294.56
544.536	1316.56
544.989	1320.56
545.442	1318.56
545.895	1320.56
546.349	1333.56
546.802	1301.56
547.255	1317.56
547.708	1345.56
548.161	1356.56
548.614	1338.56
549.067	1325.56
549.52	1286.56
549.973	1333.56
550.426	1329.56
550.879	1322.56
551.332	1332.56
551.785	1336.56
552.238	1342.56
552.691	1346.56
553.144	1377.56
553.596	1358.56
554.049	1417.56
554.502	1448.56
554.955	1424.56
555.407	1453.56
555.86	1448.56
556.313	1440.56
556.765	1395.56
557.218	1387.56
557.67	1387.56
558.123	1427.56
558.576	1376.56
559.028	1393.56
559.48	1433.56
559.933	1400.56
560.385	1375.56
560.838	1306.56
561.29	1309.56
561.742	1254.56
562.195	1253.56
562.647	1235.56
563.099	1227.56
563.551	1252.56
564.004	1259.56
564.456	1236.56
564.908	1172.56
565.36	1178.56
565.812	1154.56
566.264	1140.56
566.716	1140.56
567.168	1121.56
567.62	1132.56
568.072	1118.56
568.524	1136.56
568.976	1099.56
569.428	1069.56
569.88	1093.56
570.332	1095.56
570.784	1098.56
571.235	1105.56
571.687	1083.56
572.139	1113.56
572.59	1126.56
573.042	1130.56
573.494	1112.56
573.945	1127.56
574.397	1097.56
574.849	1082.56
575.3	1091.56
575.752	1104.56
576.203	1070.56
576.655	1104.56
577.106	1070.56
577.557	1044.56
578.009	1040.56
578.46	1086.56
578.912	1039.56
579.363	1040.56
579.814	1060.56
580.265	1024.56
580.717	1053.56
581.168	1042.56
581.619	1067.56
582.07	1059.56
582.521	1075.56
582.972	1067.56
583.423	1041.56
583.875	1024.56
584.326	1042.56
584.777	1071.56
585.227	1091.56
585.678	1118.56
586.129	1116.56
586.58	1109.56
587.031	1160.56
587.482	1167.56
587.933	1158.56
588.384	1175.56
588.834	1184.56
589.285	1149.56
589.736	1187.56
590.186	1146.56
590.637	1159.56
591.088	1159.56
591.538	1135.56
591.989	1101.56
592.439	1077.56
592.89	1083.56
593.34	1068.56
593.791	1068.56
594.241	1083.56
594.692	1078.56
595.142	1062.56
595.593	1063.56
596.043	1055.56
596.493	1054.56
596.943	1032.56
597.394	1095.56
597.844	1096.56
598.294	1138.56
598.744	1145.56
599.195	1198.56
599.645	1305.56
600.095	1325.56
600.545	1358.56
600.995	1445.56
601.445	1509.56
601.895	1570.56
602.345	1584.56
602.795	1579.56
603.245	1562.56
603.695	1481.56
604.145	1398.56
604.594	1344.56
605.044	1292.56
605.494	1214.56
605.944	1155.56
606.393	1122.56
606.843	1099.56
607.293	1127.56
607.743	1078.56
608.192	1054.56
608.642	1073.56
609.091	1086.56
609.541	1090.56
609.99	1114.56
610.44	1053.56
610.889	1091.56
611.339	1036.56
611.788	1042.56
612.238	1042.56
612.687	1078.56
613.136	1044.56
613.586	1054.56
614.035	1046.56
614.484	1039.56
614.933	1061.56
615.383	1056.56
615.832	1020.56
616.281	984.56
616.73	996.56
617.179	956.56
617.628	938.56
618.077	923.56
618.526	890.56
618.975	929.56
619.424	886.56
619.873	913.56
620.322	872.56
620.771	876.56
621.22	872.56
621.669	900.56
622.118	873.56
622.567	854.56
623.015	848.56
623.464	835.56
623.913	852.56
624.361	853.56
624.81	826.56
625.259	836.56
625.707	809.56
626.156	836.56
626.604	814.56
627.053	834.56
627.501	848.56
627.95	849.56
628.398	861.56
628.847	851.56
629.295	852.56
629.744	831.56
630.192	834.56
630.64	797.56
631.089	806.56
631.537	820.56
631.985	781.56
632.433	782.56
632.881	787.56
633.33	766.56
633.778	770.56
634.226	796.56
634.674	768.56
635.122	822.56
635.57	809.56
636.018	786.56
636.466	806.56
636.914	791.56
637.362	802.56
637.81	849.56
638.258	850.56
638.705	864.56
639.153	890.56
639.601	897.56
640.049	917.56
640.497	911.56
640.944	982.56
641.392	955.56
641.84	870.56
642.287	834.56
642.735	829.56
643.182	825.56
643.63	836.56
644.078	812.56
644.525	838.56
644.973	871.56
645.42	864.56
645.867	923.56
646.315	874.56
646.762	919.56
647.21	959.56
647.657	983.56
648.104	1022.56
648.551	1034.56
648.999	1093.56
649.446	1188.56
649.893	1304.56
650.34	1458.56
650.787	1780.56
651.234	2172.56
651.682	2840.56
652.129	3949.56
652.576	5650.56
653.023	7786.56
653.47	9590.56
653.917	10510.56
654.363	11292.56
654.81	11874.56
655.257	12406.56
655.704	9517.56
656.151	5787.56
656.598	3745.56
657.044	2690.56
657.491	2063.56
657.938	1646.56
658.385	1421.56
658.831	1300.56
659.278	1150.56
659.724	1073.56
660.171	993.56
660.618	942.56
661.064	860.56
661.511	852.56
661.957	826.56
662.404	798.56
662.85	793.56
663.296	776.56
663.743	770.56
664.189	778.56
664.635	744.56
665.082	747.56
665.528	740.56
665.974	740.56
666.42	720.56
666.867	723.56
667.313	684.56
667.759	695.56
668.205	644.56
668.651	668.56
669.097	664.56
669.543	640.56
669.989	676.56
670.435	668.56
670.881	654.56
671.327	691.56
671.773	773.56
672.219	778.56
672.665	836.56
673.11	855.56
673.556	845.56
674.002	846.56
674.448	891.56
674.893	823.56
675.339	732.56
675.785	666.56
676.23	590.56
676.676	600.56
677.122	575.56
677.567	581.56
678.013	560.56
678.458	536.56
678.904	546.56
679.349	542.56
679.794	534.56
680.24	566.56
680.685	541.56
681.131	522.56
681.576	533.56
682.021	550.56
682.466	537.56
682.912	526.56
683.357	547.56
683.802	587.56
684.247	627.56
684.692	698.56
685.137	720.56
685.583	761.56
686.028	748.56
686.473	758.56
686.918	673.56
687.363	592.56
687.807	593.56
688.252	563.56
688.697	524.56
689.142	522.56
689.587	503.56
690.032	537.56
690.477	584.56
690.921	569.56
691.366	596.56
691.811	619.56
692.255	658.56
692.7	725.56
693.145	898.56
693.589	1344.56
694.034	1795.56
694.478	1968.56
694.923	1850.56
695.367	2261.56
695.812	2054.56
696.256	911.56
696.701	594.56
697.145	529.56
697.59	517.56
698.034	532.56
698.478	494.56
698.922	528.56
699.367	512.56
699.811	520.56
700.255	538.56
700.699	600.56
701.143	644.56
701.588	715.56
702.032	710.56
702.476	702.56
702.92	746.56
703.364	826.56
703.808	1241.56
704.252	1649.56
704.696	1867.56
705.14	1773.56
705.584	2178.56
706.027	1837.56
706.471	878.56
706.915	651.56
707.359	550.56
707.803	490.56
708.246	495.56
708.69	485.56
709.134	488.56
709.577	474.56
710.021	471.56
710.465	471.56
710.908	474.56
711.352	466.56
711.795	502.56
712.239	550.56
712.682	560.56
713.126	564.56
713.569	603.56
714.012	570.56
714.456	464.56
714.899	452.56
715.342	427.56
715.786	422.56
716.229	422.56
716.672	399.56
717.115	410.56
717.558	400.56
718.002	402.56
718.445	424.56
718.888	422.56
719.331	468.56
719.774	452.56
720.217	468.56
720.66	438.56
721.103	427.56
721.546	441.56
721.989	381.56
722.432	402.56
722.874	404.56
723.317	402.56
723.76	370.56
724.203	438.56
724.645	566.56
725.088	665.56
725.531	730.56
725.974	695.56
726.416	800.56
726.859	530.56
727.301	406.56
727.744	398.56
728.187	395.56
728.629	397.56
729.071	384.56
729.514	384.56
729.956	435.56
730.399	453.56
730.841	440.56
731.283	420.56
731.726	429.56
732.168	454.56
732.61	439.56
733.053	452.56
733.495	483.56
733.937	537.56
734.379	597.56
734.821	699.56
735.263	953.56
735.705	1632.56
736.148	2648.56
736.59	3081.56
737.032	2871.56
737.474	3134.56
737.916	1534.56
738.357	787.56
738.799	548.56
739.241	469.56
739.683	466.56
740.125	469.56
740.567	505.56
741.008	500.56
741.45	542.56
741.892	564.56
742.334	586.56
742.775	542.56
743.217	564.56
743.658	502.56
744.1	453.56
744.542	527.56
744.983	568.56
745.425	544.56
745.866	583.56
746.307	509.56
746.749	491.56
747.19	605.56
747.632	958.56
748.073	1763.56
748.514	2827.56
748.956	3440.56
749.397	4627.56
749.838	3732.56
750.279	3076.56
750.72	2362.56
751.162	1060.56
751.603	586.56
752.044	433.56
752.485	373.56
752.926	343.56
753.367	350.56
753.808	337.56
754.249	324.56
754.69	336.56
755.131	301.56
755.572	346.56
756.013	319.56
756.453	304.56
756.894	324.56
757.335	347.56
757.776	345.56
758.216	328.56
758.657	331.56
759.098	374.56
759.538	404.56
759.979	543.56
760.42	813.56
760.86	1778.56
761.301	4131.56
761.741	6124.56
762.182	6349.56
762.622	5943.56
763.063	2742.56
763.503	1123.56
763.943	604.56
764.384	445.56
764.824	394.56
765.264	358.56
765.705	352.56
766.145	326.56
766.585	304.56
767.025	313.56
767.465	299.56
767.906	331.56
768.346	329.56
768.786	373.56
769.226	439.56
769.666	663.56
770.106	1414.56
770.546	2484.56
770.986	2679.56
771.426	2587.56
771.866	1473.56
772.306	672.56
772.745	404.56
773.185	311.56
773.625	294.56
774.065	293.56
774.505	362.56
774.944	549.56
775.384	839.56
775.824	967.56
776.263	958.56
776.703	716.56
777.142	408.56
777.582	295.56
778.021	287.56
778.461	249.56
778.9	236.56
779.34	258.56
779.779	260.56
780.219	240.56
780.658	235.56
781.097	239.56
781.537	222.56
781.976	214.56
782.415	233.56
782.855	224.56
783.294	216.56
783.733	237.56
784.172	228.56
784.611	216.56
785.05	242.56
785.489	234.56
785.928	228.56
786.367	214.56
786.806	246.56
787.245	266.56
787.684	266.56
788.123	272.56
788.562	232.56
789.001	242.56
789.44	243.56
789.879	248.56
790.317	242.56
790.756	253.56
791.195	279.56
791.634	314.56
792.072	458.56
792.511	868.56
792.95	1883.56
793.388	2308.56
793.827	2062.56
794.265	1196.56
794.704	612.56
795.142	354.56
795.581	295.56
796.019	263.56
796.458	246.56
796.896	257.56
797.334	268.56
797.773	338.56
798.211	491.56
798.649	905.56
799.087	1488.56
799.526	2266.56
799.964	2596.56
800.402	2121.56
800.84	1281.56
801.278	655.56
801.716	357.56
802.154	314.56
802.592	294.56
803.03	272.56
803.468	270.56
803.906	272.56
804.344	281.56
804.782	280.56
805.22	274.56
805.658	276.56
806.096	284.56
806.533	277.56
806.971	331.56
807.409	440.56
807.847	658.56
808.284	1543.56
808.722	2999.56
809.16	4145.56
809.597	5820.56
810.035	7470.56
810.472	6400.56
810.91	3541.56
811.347	1738.56
811.785	820.56
812.222	468.56
812.66	352.56
813.097	321.56
813.535	280.56
813.972	246.56
814.409	260.56
814.846	255.56
815.284	228.56
815.721	224.56
816.158	231.56
816.595	290.56
817.032	354.56
817.47	336.56
817.907	285.56
818.344	257.56
818.781	247.56
819.218	249.56
819.655	340.56
820.092	402.56
820.529	444.56
820.966	372.56
821.403	315.56
821.839	247.56
822.276	244.56
822.713	277.56
823.15	312.56
823.587	275.56
824.023	360.56
824.46	754.56
824.897	1351.56
825.333	1428.56
825.77	864.56
826.206	528.56
826.643	330.56
827.08	236.56
827.516	216.56
827.953	198.56
828.389	192.56
828.825	169.56
829.262	170.56
829.698	166.56
830.135	180.56
830.571	152.56
831.007	178.56
831.443	148.56
831.88	148.56
832.316	170.56
832.752	169.56
833.188	185.56
833.624	181.56
834.06	197.56
834.497	195.56
834.933	167.56
835.369	174.56
835.805	166.56
836.241	167.56
836.677	200.56
837.112	228.56
837.548	259.56
837.984	292.56
838.42	458.56
838.856	1090.56
839.292	2304.56
839.727	2552.56
840.163	1714.56
840.599	1940.56
841.034	2936.56
841.47	2328.56
841.906	1315.56
842.341	752.56
842.777	486.56
843.212	449.56
843.648	363.56
844.083	282.56
844.519	232.56
844.954	202.56
845.39	176.56
845.825	172.56
846.261	152.56
846.696	148.56
847.131	157.56
847.566	168.56
848.002	158.56
848.437	145.56
848.872	159.56
849.307	186.56
849.742	226.56
850.177	424.56
850.613	906.56
851.048	982.56
851.483	582.56
851.918	376.56
852.353	234.56
852.788	152.56
853.223	151.56
853.657	149.56
854.092	143.56
854.527	135.56
854.962	137.56
855.397	140.56
855.832	153.56
856.266	155.56
856.701	149.56
857.136	131.56
857.57	142.56
858.005	168.56
858.44	148.56
858.874	152.56
859.309	158.56
859.743	167.56
860.178	147.56
860.612	145.56
861.047	156.56
861.481	193.56
861.915	190.56
862.35	168.56
862.784	140.56
863.218	135.56
863.653	136.56
864.087	139.56
864.521	152.56
864.955	207.56
865.39	309.56
865.824	300.56
866.258	278.56
866.692	426.56
867.126	394.56
867.56	287.56
867.994	215.56
868.428	175.56
868.862	170.56
869.296	198.56
869.73	172.56
870.164	180.56
870.598	183.56
871.031	156.56
871.465	133.56
871.899	130.56
872.333	113.56
872.766	112.56
873.2	129.56
873.634	133.56
874.067	133.56
874.501	114.56
874.935	128.56
875.368	128.56
875.802	136.56
876.235	126.56
876.669	123.56
877.102	113.56
877.535	113.56
877.969	106.56
878.402	114.56
878.836	118.56
879.269	107.56
879.702	138.56
880.135	104.56
880.569	98.56
881.002	120.56
881.435	106.56
881.868	104.56
882.301	95.56
882.734	108.56
883.167	102.56
883.601	110.56
884.034	106.56
884.467	95.56
884.899	128.56
885.332	118.56
885.765	116.56
886.198	93.56
886.631	94.56
887.064	109.56
887.497	96.56
887.929	106.56
888.362	99.56
888.795	109.56
889.228	97.56
889.66	106.56
890.093	114.56
890.526	104.56
890.958	117.56
891.391	115.56
891.823	111.56
892.256	116.56
892.688	104.56
893.121	100.56
893.553	102.56
893.985	92.56
894.418	95.56
894.85	108.56
895.282	106.56
895.715	105.56
896.147	115.56
896.579	102.56
897.011	95.56
897.444	97.56
897.876	91.56
898.308	111.56
898.74	105.56
899.172	97.56
899.604	91.56
900.036	89.56
900.468	94.56
900.9	116.56
901.332	108.56
901.764	119.56
902.196	114.56
902.628	106.56
903.06	123.56
903.491	137.56
903.923	139.56
904.355	122.56
904.787	112.56
905.218	117.56
905.65	114.56
906.082	101.56
906.513	120.56
906.945	124.56
907.376	104.56
907.808	108.56
908.239	98.56
908.671	106.56
909.102	102.56
909.534	125.56
909.965	148.56
910.397	236.56
910.828	539.56
911.259	592.56
911.691	411.56
912.122	276.56
912.553	186.56
912.984	125.56
913.415	116.56
913.847	123.56
914.278	100.56
914.709	116.56
915.14	116.56
915.571	105.56
916.002	110.56
916.433	91.56
916.864	94.56
917.295	126.56
917.726	119.56
918.157	113.56
918.587	122.56
919.018	98.56
919.449	122.56
919.88	114.56
920.311	136.56
920.741	172.56
921.172	320.56
921.603	253.56
922.033	197.56
922.464	169.56
922.895	130.56
923.325	100.56
923.756	113.56
924.186	98.56
924.617	119.56
925.047	130.56
925.478	140.56
925.908	131.56
926.338	110.56
926.769	116.56
927.199	118.56
927.629	108.56
928.06	118.56
928.49	100.56
928.92	102.56
929.35	100.56
929.78	88.56
930.21	95.56
930.641	98.56
931.071	88.56
931.501	86.56
931.931	96.56
932.361	108.56
932.791	92.56
933.221	99.56
933.651	91.56
934.08	106.56
934.51	108.56
934.94	103.56
935.37	102.56
935.8	97.56
936.229	86.56
936.659	90.56
937.089	90.56
937.519	128.56
937.948	127.56
938.378	97.56
938.807	107.56
939.237	94.56
939.666	104.56
940.096	75.56
940.525	92.56
940.955	87.56
941.384	90.56
941.814	70.56
942.243	98.56
942.672	88.56
943.102	98.56
943.531	86.56
943.96	74.56
944.39	86.56
944.819	88.56
945.248	86.56
945.677	88.56
946.106	78.56
946.535	79.56
946.964	96.56
947.393	84.56
947.822	67.56
948.251	85.56
948.68	68.56
949.109	82.56
949.538	72.56
949.967	95.56
950.396	77.56
950.825	87.56
951.254	88.56
951.682	98.56
952.111	90.56
952.54	81.56
952.969	84.56
953.397	82.56
953.826	98.56
954.254	82.56
954.683	90.56
955.112	93.56
955.54	83.56
955.969	83.56
956.397	85.56
956.826	81.56
957.254	88.56
957.682	93.56
958.111	89.56
958.539	78.56
958.967	88.56
959.396	98.56
959.824	86.56
960.252	84.56
960.68	86.56
961.109	88.56
961.537	85.56
961.965	92.56
962.393	81.56
962.821	99.56
963.249	86.56
963.677	90.56
964.105	101.56
964.533	140.56
964.961	126.56
965.389	116.56
965.817	105.56
966.245	116.56
966.672	81.56
967.1	86.56
967.528	91.56
967.956	82.56
968.383	87.56
968.811	84.56
969.239	79.56
969.666	83.56
970.094	76.56
970.522	96.56
970.949	103.56
971.377	72.56
971.804	77.56
972.232	64.56
972.659	71.56
973.087	62.56
973.514	85.56
973.941	95.56
974.369	66.56
974.796	88.56
975.223	86.56
975.651	92.56
976.078	95.56
976.505	84.56
976.932	92.56
977.359	113.56
977.786	99.56
978.214	80.56
978.641	84.56
979.068	84.56
979.495	88.56
979.922	84.56
980.349	78.56
980.776	89.56
981.202	71.56
981.629	87.56
982.056	69.56
982.483	82.56
982.91	72.56
983.337	82.56
983.763	78.56
984.19	78.56
984.617	86.56
985.043	86.56
985.47	76.56
985.897	73.56
986.323	67.56
986.75	80.56
987.176	92.56
987.603	80.56
988.029	72.56
988.456	82.56
988.882	76.56
989.308	91.56
989.735	83.56
990.161	88.56
990.587	81.56
991.014	72.56
991.44	96.56
991.866	81.56
992.292	96.56
992.719	84.56
993.145	91.56
993.571	100.56
993.997	89.56
994.423	94.56
994.849	91.56
995.275	84.56
995.701	66.56
996.127	71.56
996.553	69.56
996.979	72.56
997.405	84.56
997.83	65.56
998.256	92.56
998.682	70.56
999.108	94.56
999.534	55.56
999.959	67.56
1000.385	85.56
1000.811	81.56
1001.236	91.56
1001.662	88.56
1002.087	82.56
1002.513	76.56
1002.938	59.56
1003.364	95.56
1003.789	80.56
1004.215	89.56
1004.64	87.56
1005.066	84.56
1005.491	86.56
1005.916	90.56
1006.342	92.56
1006.767	75.56
1007.192	70.56
1007.617	84.56
1008.042	90.56
1008.468	73.56
1008.893	78.56
1009.318	90.56
1009.743	91.56
1010.168	106.56
1010.593	91.56
1011.018	97.56
1011.443	71.56
1011.868	98.56
1012.293	76.56
1012.718	84.56
1013.143	89.56
1013.567	98.56
1013.992	93.56
1014.417	71.56
1014.842	74.56
1015.267	86.56
1015.691	82.56
1016.116	88.56
1016.541	76.56
1016.965	65.56
1017.39	77.56
1017.814	79.56
1018.239	72.56
1018.663	99.56
1019.088	91.56
1019.512	69.56
1019.937	76.56
1020.361	88.56
1020.785	92.56
1021.21	77.56
1021.634	73.56
1022.058	92.56
1022.483	81.56
1022.907	63.56
1023.331	98.56
1023.755	80.56
1024.179	87.56
1024.604	71.56
1025.028	78.56
1025.452	89.56
1025.876	87.56
1026.3	88.56
1026.724	82.56
1027.148	94.56
1027.572	78.56
1027.996	71.56
1028.42	86.56
1028.843	73.56
1029.267	66.56
1029.691	76.56
1030.115	67.56
1030.539	78.56
1030.962	64.56
1031.386	73.56
1031.81	66.56
1032.233	73.56
1032.657	64.56
1033.08	79.56
1033.504	73.56
1033.927	84.56
1034.351	89.56
1034.774	77.56
1035.198	75.56
1035.621	57.56
1036.045	70.56
1036.468	75.56
1036.891	73.56
1037.315	77.56
1037.738	72.56
1038.161	76.56
1038.584	88.56
1039.008	79.56
1039.431	85.56
1039.854	84.56
1040.277	77.56
1040.7	74.56
1041.123	72.56
1041.546	58.56
1041.969	81.56
1042.392	66.56
1042.815	89.56
1043.238	74.56
1043.661	75.56
1044.084	68.56
1044.507	86.56
1044.93	85.56
1045.352	72.56
1045.775	84.56
1046.198	83.56
1046.621	90.56
1047.043	78.56
1047.466	83.56
1047.889	88.56
1048.311	84.56
1048.734	86.56
1049.156	77.56
1049.579	82.56
1050.001	78.56
1050.424	85.56
1050.846	81.56
1051.269	82.56
1051.691	82.56
1052.113	81.56
1052.536	74.56
1052.958	64.56
1053.38	62.56
1053.802	88.56
1054.225	85.56
1054.647	59.56
1055.069	100.56
1055.491	77.56
1055.913	88.56
1056.335	83.56
1056.757	86.56
1057.179	80.56
1057.601	89.56
1058.023	65.56
1058.445	87.56
1058.867	69.56
1059.289	84.56
1059.711	80.56
1060.133	73.56
1060.555	74.56
1060.976	78.56
1061.398	78.56
1061.82	74.56
1062.241	86.56
1062.663	84.56
1063.085	77.56
1063.506	73.56
1063.928	72.56
1064.35	75.56
1064.771	65.56
1065.193	82.56
1065.614	92.56
1066.035	71.56
1066.457	86.56
1066.878	90.56
1067.3	80.56
1067.721	84.56
1068.142	89.56
1068.564	92.56
1068.985	86.56
1069.406	75.56
1069.827	64.56
1070.248	86.56
1070.67	60.56
1071.091	85.56
1071.512	59.56
1071.933	71.56
1072.354	94.56
1072.775	68.56
1073.196	73.56
1073.617	78.56
1074.038	82.56
1074.459	69.56
1074.88	83.56
1075.3	80.56
1075.721	72.56
1076.142	93.56
1076.563	69.56
1076.983	80.56
1077.404	87.56
1077.825	84.56
1078.246	79.56
1078.666	85.56
1079.087	70.56
1079.507	80.56
1079.928	77.56
1080.348	54.56
1080.769	85.56
1081.189	78.56
1081.61	70.56
1082.03	76.56
1082.451	82.56
1082.871	90.56
1083.291	69.56
1083.711	79.56
1084.132	100.56
1084.552	73.56
1084.972	61.56
1085.392	96.56
1085.813	74.56
1086.233	95.56
1086.653	65.56
1087.073	87.56
1087.493	79.56
1087.913	86.56
1088.333	73.56
1088.753	79.56
1089.173	81.56
1089.593	76.56
1090.013	68.56
1090.433	85.56
1090.852	84.56
1091.272	89.56
1091.692	90.56
1092.112	80.56
1092.531	74.56
1092.951	65.56
1093.371	78.56
1093.79	98.56
1094.21	84.56
1094.63	76.56
1095.049	78.56
1095.469	71.56
1095.888	76.56
1096.308	87.56
1096.727	58.56
1097.146	91.56
1097.566	76.56
1097.985	76.56
1098.405	64.56
1098.824	72.56
1099.243	73.56
1099.662	94.56
1100.082	84.56
1100.501	70.56
1100.92	85.56
1101.339	77.56
1101.758	68.56
