Data from 20170802-ORNL-NYSim-Air_HRD10391_10-36-54-623.txt Node
Date: Wed Aug 02 10:36:54 EDT 2017
User: Ender
Spectrometer: HR+D1039
Trigger mode: 0
Integration Time (sec): 1.510000E-3
Scans to average: 1
Electric dark correction enabled: true
Nonlinearity correction enabled: false
Boxcar width: 0
XAxis mode: Wavelengths
Number of Pixels in Spectrum: 2048
>>>>>Begin Spectral Data<<<<<
187.836	4.06
188.309	4.06
188.782	4.06
189.255	-4.94
189.728	-10.94
190.201	1.06
190.674	-18.94
191.147	0.06
191.619	-6.94
192.092	-17.94
192.565	-5.94
193.038	13.06
193.511	16.06
193.984	-2.94
194.456	9.06
194.929	10.06
195.402	6.06
195.874	9.06
196.347	14.06
196.82	15.06
197.292	28.06
197.765	16.06
198.237	41.06
198.71	37.06
199.182	44.06
199.655	44.06
200.127	50.06
200.6	46.06
201.072	75.06
201.544	70.06
202.017	64.06
202.489	69.06
202.961	71.06
203.433	81.06
203.906	74.06
204.378	74.06
204.85	78.06
205.322	95.06
205.794	70.06
206.266	81.06
206.739	79.06
207.211	71.06
207.683	88.06
208.155	87.06
208.627	89.06
209.099	75.06
209.57	68.06
210.042	87.06
210.514	99.06
210.986	69.06
211.458	84.06
211.93	85.06
212.402	71.06
212.873	77.06
213.345	68.06
213.817	93.06
214.288	90.06
214.76	98.06
215.232	84.06
215.703	81.06
216.175	78.06
216.646	77.06
217.118	85.06
217.589	117.06
218.061	86.06
218.532	85.06
219.004	70.06
219.475	79.06
219.946	77.06
220.418	66.06
220.889	63.06
221.36	76.06
221.832	74.06
222.303	75.06
222.774	87.06
223.245	78.06
223.717	85.06
224.188	70.06
224.659	74.06
225.13	57.06
225.601	76.06
226.072	84.06
226.543	82.06
227.014	80.06
227.485	71.06
227.956	65.06
228.427	99.06
228.898	76.06
229.369	82.06
229.839	98.06
230.31	89.06
230.781	82.06
231.252	70.06
231.722	97.06
232.193	79.06
232.664	88.06
233.135	70.06
233.605	101.06
234.076	92.06
234.546	82.06
235.017	90.06
235.487	81.06
235.958	83.06
236.428	75.06
236.899	87.06
237.369	80.06
237.84	79.06
238.31	77.06
238.78	82.06
239.251	81.06
239.721	89.06
240.191	92.06
240.662	90.06
241.132	81.06
241.602	87.06
242.072	80.06
242.542	103.06
243.013	95.06
243.483	86.06
243.953	79.06
244.423	77.06
244.893	90.06
245.363	91.06
245.833	90.06
246.303	97.06
246.773	83.06
247.243	94.06
247.712	90.06
248.182	84.06
248.652	78.06
249.122	87.06
249.592	78.06
250.061	103.06
250.531	79.06
251.001	89.06
251.471	98.06
251.94	94.06
252.41	101.06
252.879	87.06
253.349	92.06
253.818	82.06
254.288	100.06
254.757	87.06
255.227	105.06
255.696	88.06
256.166	89.06
256.635	103.06
257.105	105.06
257.574	83.06
258.043	89.06
258.513	103.06
258.982	98.06
259.451	89.06
259.92	91.06
260.389	79.06
260.859	88.06
261.328	83.06
261.797	95.06
262.266	92.06
262.735	95.06
263.204	82.06
263.673	111.06
264.142	94.06
264.611	105.06
265.08	90.06
265.549	101.06
266.018	112.06
266.487	100.06
266.955	94.06
267.424	90.06
267.893	97.06
268.362	97.06
268.83	95.06
269.299	103.06
269.768	103.06
270.236	99.06
270.705	100.06
271.174	103.06
271.642	93.06
272.111	112.06
272.579	109.06
273.048	94.06
273.516	123.06
273.985	99.06
274.453	110.06
274.922	115.06
275.39	90.06
275.858	95.06
276.327	99.06
276.795	110.06
277.263	105.06
277.731	127.06
278.2	103.06
278.668	123.06
279.136	107.06
279.604	105.06
280.072	112.06
280.54	110.06
281.008	116.06
281.477	107.06
281.945	107.06
282.413	119.06
282.881	103.06
283.348	107.06
283.816	103.06
284.284	101.06
284.752	120.06
285.22	129.06
285.688	98.06
286.156	121.06
286.623	101.06
287.091	119.06
287.559	114.06
288.026	115.06
288.494	111.06
288.962	142.06
289.429	110.06
289.897	108.06
290.364	111.06
290.832	134.06
291.3	111.06
291.767	121.06
292.234	119.06
292.702	127.06
293.169	120.06
293.637	134.06
294.104	137.06
294.571	128.06
295.039	114.06
295.506	117.06
295.973	108.06
296.44	116.06
296.908	105.06
297.375	112.06
297.842	117.06
298.309	123.06
298.776	119.06
299.243	135.06
299.71	119.06
300.177	120.06
300.644	135.06
301.111	117.06
301.578	131.06
302.045	136.06
302.512	119.06
302.979	122.06
303.446	122.06
303.913	148.06
304.379	127.06
304.846	133.06
305.313	137.06
305.78	130.06
306.246	128.06
306.713	152.06
307.18	146.06
307.646	132.06
308.113	136.06
308.579	126.06
309.046	154.06
309.512	137.06
309.979	138.06
310.445	146.06
310.912	140.06
311.378	149.06
311.845	142.06
312.311	159.06
312.777	165.06
313.244	154.06
313.71	160.06
314.176	151.06
314.642	151.06
315.109	137.06
315.575	151.06
316.041	152.06
316.507	158.06
316.973	151.06
317.439	145.06
317.905	167.06
318.371	151.06
318.837	145.06
319.303	162.06
319.769	162.06
320.235	145.06
320.701	159.06
321.167	166.06
321.633	167.06
322.099	155.06
322.564	157.06
323.03	161.06
323.496	167.06
323.962	176.06
324.427	172.06
324.893	164.06
325.359	186.06
325.824	153.06
326.29	183.06
326.755	169.06
327.221	179.06
327.686	173.06
328.152	173.06
328.617	176.06
329.083	191.06
329.548	168.06
330.014	171.06
330.479	167.06
330.944	183.06
331.41	173.06
331.875	181.06
332.34	171.06
332.805	171.06
333.271	172.06
333.736	170.06
334.201	176.06
334.666	191.06
335.131	206.06
335.596	175.06
336.061	177.06
336.526	183.06
336.991	200.06
337.456	171.06
337.921	187.06
338.386	172.06
338.851	187.06
339.316	201.06
339.781	175.06
340.246	173.06
340.711	179.06
341.175	184.06
341.64	191.06
342.105	194.06
342.569	203.06
343.034	214.06
343.499	185.06
343.963	178.06
344.428	171.06
344.893	197.06
345.357	193.06
345.822	200.06
346.286	222.06
346.751	215.06
347.215	223.06
347.679	211.06
348.144	225.06
348.608	214.06
349.073	210.06
349.537	234.06
350.001	232.06
350.465	223.06
350.93	210.06
351.394	208.06
351.858	221.06
352.322	233.06
352.786	219.06
353.25	241.06
353.715	231.06
354.179	225.06
354.643	256.06
355.107	248.06
355.571	250.06
356.035	259.06
356.498	229.06
356.962	235.06
357.426	238.06
357.89	247.06
358.354	244.06
358.818	240.06
359.281	257.06
359.745	243.06
360.209	259.06
360.673	228.06
361.136	241.06
361.6	227.06
362.064	259.06
362.527	252.06
362.991	236.06
363.454	264.06
363.918	240.06
364.381	242.06
364.845	229.06
365.308	251.06
365.772	251.06
366.235	255.06
366.698	254.06
367.162	260.06
367.625	251.06
368.088	267.06
368.552	284.06
369.015	269.06
369.478	288.06
369.941	287.06
370.404	260.06
370.867	286.06
371.331	259.06
371.794	251.06
372.257	263.06
372.72	259.06
373.183	289.06
373.646	277.06
374.109	279.06
374.572	281.06
375.035	288.06
375.497	286.06
375.96	292.06
376.423	283.06
376.886	295.06
377.349	311.06
377.811	291.06
378.274	289.06
378.737	302.06
379.199	284.06
379.662	295.06
380.125	300.06
380.587	306.06
381.05	289.06
381.512	304.06
381.975	325.06
382.437	301.06
382.9	303.06
383.362	320.06
383.825	318.06
384.287	301.06
384.75	340.06
385.212	307.06
385.674	339.06
386.136	313.06
386.599	316.06
387.061	329.06
387.523	336.06
387.985	323.06
388.447	318.06
388.91	341.06
389.372	360.06
389.834	351.06
390.296	338.06
390.758	333.06
391.22	323.06
391.682	352.06
392.144	347.06
392.606	343.06
393.068	334.06
393.529	351.06
393.991	359.06
394.453	360.06
394.915	356.06
395.377	357.06
395.838	330.06
396.3	354.06
396.762	333.06
397.224	344.06
397.685	349.06
398.147	346.06
398.608	360.06
399.07	343.06
399.531	375.06
399.993	353.06
400.454	363.06
400.916	362.06
401.377	382.06
401.839	379.06
402.3	370.06
402.762	398.06
403.223	416.06
403.684	403.06
404.145	414.06
404.607	384.06
405.068	400.06
405.529	411.06
405.99	422.06
406.451	395.06
406.913	414.06
407.374	392.06
407.835	409.06
408.296	395.06
408.757	429.06
409.218	416.06
409.679	421.06
410.14	424.06
410.601	439.06
411.062	421.06
411.522	435.06
411.983	448.06
412.444	450.06
412.905	434.06
413.366	466.06
413.826	497.06
414.287	539.06
414.748	607.06
415.208	647.06
415.669	547.06
416.13	489.06
416.59	474.06
417.051	492.06
417.511	521.06
417.972	545.06
418.432	592.06
418.893	643.06
419.353	621.06
419.814	486.06
420.274	442.06
420.734	445.06
421.195	457.06
421.655	465.06
422.115	454.06
422.576	465.06
423.036	454.06
423.496	491.06
423.956	535.06
424.416	517.06
424.876	581.06
425.336	591.06
425.797	599.06
426.257	549.06
426.717	546.06
427.177	514.06
427.637	515.06
428.097	546.06
428.556	557.06
429.016	602.06
429.476	579.06
429.936	577.06
430.396	564.06
430.856	588.06
431.315	620.06
431.775	647.06
432.235	713.06
432.694	723.06
433.154	650.06
433.614	661.06
434.073	652.06
434.533	595.06
434.993	578.06
435.452	544.06
435.912	516.06
436.371	541.06
436.83	545.06
437.29	526.06
437.749	523.06
438.209	516.06
438.668	519.06
439.127	505.06
439.587	510.06
440.046	520.06
440.505	539.06
440.964	519.06
441.424	560.06
441.883	551.06
442.342	500.06
442.801	500.06
443.26	524.06
443.719	517.06
444.178	476.06
444.637	509.06
445.096	503.06
445.555	487.06
446.014	530.06
446.473	498.06
446.932	519.06
447.391	501.06
447.849	522.06
448.308	510.06
448.767	513.06
449.226	527.06
449.685	532.06
450.143	534.06
450.602	538.06
451.061	538.06
451.519	553.06
451.978	509.06
452.436	513.06
452.895	508.06
453.353	514.06
453.812	527.06
454.27	511.06
454.729	536.06
455.187	521.06
455.646	519.06
456.104	517.06
456.562	522.06
457.021	547.06
457.479	525.06
457.937	520.06
458.395	563.06
458.854	528.06
459.312	518.06
459.77	537.06
460.228	529.06
460.686	565.06
461.144	542.06
461.602	543.06
462.06	527.06
462.518	558.06
462.976	558.06
463.434	574.06
463.892	588.06
464.35	588.06
464.808	608.06
465.266	579.06
465.724	612.06
466.181	609.06
466.639	611.06
467.097	615.06
467.555	650.06
468.012	623.06
468.47	645.06
468.928	674.06
469.385	677.06
469.843	692.06
470.3	661.06
470.758	703.06
471.215	699.06
471.673	727.06
472.13	747.06
472.588	763.06
473.045	754.06
473.503	782.06
473.96	820.06
474.417	791.06
474.875	836.06
475.332	875.06
475.789	867.06
476.246	900.06
476.704	929.06
477.161	939.06
477.618	941.06
478.075	991.06
478.532	1102.06
478.989	1194.06
479.446	1274.06
479.903	1358.06
480.36	1478.06
480.817	1527.06
481.274	1647.06
481.731	1791.06
482.188	1951.06
482.645	2130.06
483.102	2189.06
483.558	2335.06
484.015	2420.06
484.472	2423.06
484.929	2398.06
485.385	2262.06
485.842	2251.06
486.299	2130.06
486.755	2019.06
487.212	1778.06
487.668	1639.06
488.125	1534.06
488.582	1384.06
489.038	1341.06
489.494	1299.06
489.951	1257.06
490.407	1248.06
490.864	1177.06
491.32	1165.06
491.776	1151.06
492.233	1199.06
492.689	1151.06
493.145	1154.06
493.602	1142.06
494.058	1113.06
494.514	1135.06
494.97	1149.06
495.426	1142.06
495.882	1173.06
496.338	1184.06
496.794	1139.06
497.251	1182.06
497.707	1174.06
498.163	1152.06
498.618	1146.06
499.074	1184.06
499.53	1193.06
499.986	1181.06
500.442	1190.06
500.898	1155.06
501.354	1178.06
501.809	1185.06
502.265	1171.06
502.721	1217.06
503.177	1173.06
503.632	1181.06
504.088	1189.06
504.543	1191.06
504.999	1202.06
505.455	1235.06
505.91	1197.06
506.366	1226.06
506.821	1169.06
507.277	1158.06
507.732	1188.06
508.187	1185.06
508.643	1230.06
509.098	1223.06
509.553	1236.06
510.009	1274.06
510.464	1263.06
510.919	1265.06
511.375	1281.06
511.83	1298.06
512.285	1330.06
512.74	1347.06
513.195	1367.06
513.65	1335.06
514.105	1410.06
514.56	1406.06
515.015	1465.06
515.47	1391.06
515.925	1407.06
516.38	1413.06
516.835	1415.06
517.29	1385.06
517.745	1373.06
518.2	1398.06
518.655	1353.06
519.109	1352.06
519.564	1381.06
520.019	1340.06
520.474	1340.06
520.928	1335.06
521.383	1296.06
521.838	1309.06
522.292	1266.06
522.747	1285.06
523.201	1306.06
523.656	1287.06
524.11	1240.06
524.565	1251.06
525.019	1244.06
525.474	1236.06
525.928	1257.06
526.382	1244.06
526.837	1245.06
527.291	1271.06
527.745	1253.06
528.2	1237.06
528.654	1263.06
529.108	1249.06
529.562	1218.06
530.016	1230.06
530.47	1228.06
530.925	1225.06
531.379	1251.06
531.833	1301.06
532.287	1282.06
532.741	1266.06
533.195	1286.06
533.649	1261.06
534.103	1258.06
534.556	1259.06
535.01	1271.06
535.464	1263.06
535.918	1279.06
536.372	1259.06
536.826	1233.06
537.279	1259.06
537.733	1247.06
538.187	1246.06
538.64	1231.06
539.094	1272.06
539.548	1273.06
540.001	1239.06
540.455	1303.06
540.908	1281.06
541.362	1271.06
541.815	1344.06
542.269	1317.06
542.722	1315.06
543.175	1354.06
543.629	1313.06
544.082	1389.06
544.536	1404.06
544.989	1397.06
545.442	1400.06
545.895	1422.06
546.349	1378.06
546.802	1398.06
547.255	1392.06
547.708	1397.06
548.161	1404.06
548.614	1443.06
549.067	1444.06
549.52	1409.06
549.973	1403.06
550.426	1384.06
550.879	1411.06
551.332	1413.06
551.785	1382.06
552.238	1392.06
552.691	1383.06
553.144	1414.06
553.596	1476.06
554.049	1461.06
554.502	1496.06
554.955	1507.06
555.407	1539.06
555.86	1517.06
556.313	1521.06
556.765	1466.06
557.218	1477.06
557.67	1524.06
558.123	1425.06
558.576	1445.06
559.028	1417.06
559.48	1495.06
559.933	1486.06
560.385	1423.06
560.838	1395.06
561.29	1376.06
561.742	1350.06
562.195	1316.06
562.647	1321.06
563.099	1335.06
563.551	1291.06
564.004	1309.06
564.456	1283.06
564.908	1247.06
565.36	1256.06
565.812	1213.06
566.264	1218.06
566.716	1192.06
567.168	1172.06
567.62	1187.06
568.072	1175.06
568.524	1158.06
568.976	1166.06
569.428	1128.06
569.88	1122.06
570.332	1147.06
570.784	1137.06
571.235	1155.06
571.687	1135.06
572.139	1184.06
572.59	1205.06
573.042	1191.06
573.494	1159.06
573.945	1181.06
574.397	1165.06
574.849	1121.06
575.3	1160.06
575.752	1120.06
576.203	1133.06
576.655	1137.06
577.106	1117.06
577.557	1119.06
578.009	1113.06
578.46	1101.06
578.912	1100.06
579.363	1117.06
579.814	1078.06
580.265	1104.06
580.717	1123.06
581.168	1087.06
581.619	1142.06
582.07	1114.06
582.521	1116.06
582.972	1119.06
583.423	1101.06
583.875	1134.06
584.326	1122.06
584.777	1159.06
585.227	1184.06
585.678	1140.06
586.129	1155.06
586.58	1168.06
587.031	1182.06
587.482	1202.06
587.933	1217.06
588.384	1263.06
588.834	1223.06
589.285	1225.06
589.736	1213.06
590.186	1215.06
590.637	1212.06
591.088	1194.06
591.538	1162.06
591.989	1158.06
592.439	1154.06
592.89	1142.06
593.34	1121.06
593.791	1135.06
594.241	1136.06
594.692	1150.06
595.142	1134.06
595.593	1125.06
596.043	1119.06
596.493	1106.06
596.943	1135.06
597.394	1165.06
597.844	1162.06
598.294	1180.06
598.744	1191.06
599.195	1320.06
599.645	1290.06
600.095	1393.06
600.545	1447.06
600.995	1537.06
601.445	1572.06
601.895	1650.06
602.345	1695.06
602.795	1672.06
603.245	1621.06
603.695	1577.06
604.145	1453.06
604.594	1399.06
605.044	1338.06
605.494	1261.06
605.944	1205.06
606.393	1169.06
606.843	1165.06
607.293	1167.06
607.743	1143.06
608.192	1109.06
608.642	1144.06
609.091	1125.06
609.541	1132.06
609.99	1164.06
610.44	1096.06
610.889	1104.06
611.339	1112.06
611.788	1080.06
612.238	1096.06
612.687	1099.06
613.136	1086.06
613.586	1125.06
614.035	1126.06
614.484	1073.06
614.933	1143.06
615.383	1098.06
615.832	1095.06
616.281	1088.06
616.73	1053.06
617.179	1032.06
617.628	1025.06
618.077	994.06
618.526	956.06
618.975	950.06
619.424	959.06
619.873	955.06
620.322	977.06
620.771	910.06
621.22	913.06
621.669	908.06
622.118	919.06
622.567	915.06
623.015	882.06
623.464	874.06
623.913	907.06
624.361	836.06
624.81	864.06
625.259	889.06
625.707	857.06
626.156	870.06
626.604	869.06
627.053	871.06
627.501	879.06
627.95	895.06
628.398	906.06
628.847	892.06
629.295	909.06
629.744	894.06
630.192	862.06
630.64	845.06
631.089	847.06
631.537	839.06
631.985	821.06
632.433	789.06
632.881	816.06
633.33	832.06
633.778	837.06
634.226	858.06
634.674	851.06
635.122	817.06
635.57	857.06
636.018	851.06
636.466	840.06
636.914	881.06
637.362	867.06
637.81	861.06
638.258	909.06
638.705	909.06
639.153	944.06
639.601	962.06
640.049	971.06
640.497	967.06
640.944	1007.06
641.392	1003.06
641.84	940.06
642.287	889.06
642.735	891.06
643.182	856.06
643.63	862.06
644.078	875.06
644.525	905.06
644.973	944.06
645.42	927.06
645.867	935.06
646.315	951.06
646.762	1002.06
647.21	1016.06
647.657	1066.06
648.104	1120.06
648.551	1124.06
648.999	1212.06
649.446	1299.06
649.893	1446.06
650.34	1673.06
650.787	1983.06
651.234	2475.06
651.682	3252.06
652.129	4595.06
652.576	6481.06
653.023	8904.06
653.47	10918.06
653.917	12153.06
654.363	12815.06
654.81	13501.06
655.257	14204.06
655.704	10879.06
656.151	6617.06
656.598	4229.06
657.044	2984.06
657.491	2332.06
657.938	1935.06
658.385	1609.06
658.831	1390.06
659.278	1264.06
659.724	1139.06
660.171	1071.06
660.618	1022.06
661.064	939.06
661.511	919.06
661.957	879.06
662.404	879.06
662.85	834.06
663.296	838.06
663.743	847.06
664.189	821.06
664.635	803.06
665.082	783.06
665.528	763.06
665.974	771.06
666.42	773.06
666.867	776.06
667.313	722.06
667.759	693.06
668.205	718.06
668.651	699.06
669.097	709.06
669.543	713.06
669.989	716.06
670.435	711.06
670.881	737.06
671.327	747.06
671.773	779.06
672.219	802.06
672.665	875.06
673.11	890.06
673.556	927.06
674.002	927.06
674.448	979.06
674.893	861.06
675.339	769.06
675.785	690.06
676.23	639.06
676.676	616.06
677.122	631.06
677.567	584.06
678.013	571.06
678.458	565.06
678.904	567.06
679.349	578.06
679.794	560.06
680.24	586.06
680.685	567.06
681.131	547.06
681.576	567.06
682.021	550.06
682.466	573.06
682.912	559.06
683.357	598.06
683.802	623.06
684.247	680.06
684.692	683.06
685.137	751.06
685.583	765.06
686.028	771.06
686.473	781.06
686.918	703.06
687.363	635.06
687.807	608.06
688.252	570.06
688.697	550.06
689.142	533.06
689.587	525.06
690.032	555.06
690.477	566.06
690.921	581.06
691.366	589.06
691.811	637.06
692.255	685.06
692.7	782.06
693.145	941.06
693.589	1406.06
694.034	1885.06
694.478	2094.06
694.923	1883.06
695.367	2405.06
695.812	2171.06
696.256	936.06
696.701	631.06
697.145	547.06
697.59	538.06
698.034	530.06
698.478	519.06
698.922	540.06
699.367	527.06
699.811	559.06
700.255	566.06
700.699	623.06
701.143	669.06
701.588	719.06
702.032	754.06
702.476	814.06
702.92	796.06
703.364	925.06
703.808	1319.06
704.252	1780.06
704.696	1951.06
705.14	1876.06
705.584	2271.06
706.027	1901.06
706.471	927.06
706.915	637.06
707.359	555.06
707.803	542.06
708.246	503.06
708.69	498.06
709.134	484.06
709.577	495.06
710.021	499.06
710.465	481.06
710.908	529.06
711.352	480.06
711.795	494.06
712.239	592.06
712.682	602.06
713.126	575.06
713.569	629.06
714.012	602.06
714.456	528.06
714.899	447.06
715.342	443.06
715.786	446.06
716.229	447.06
716.672	426.06
717.115	418.06
717.558	390.06
718.002	420.06
718.445	451.06
718.888	472.06
719.331	489.06
719.774	504.06
720.217	477.06
720.66	443.06
721.103	429.06
721.546	416.06
721.989	437.06
722.432	428.06
722.874	391.06
723.317	425.06
723.76	409.06
724.203	479.06
724.645	595.06
725.088	727.06
725.531	752.06
725.974	779.06
726.416	805.06
726.859	548.06
727.301	440.06
727.744	421.06
728.187	390.06
728.629	399.06
729.071	402.06
729.514	430.06
729.956	435.06
730.399	451.06
730.841	481.06
731.283	443.06
731.726	453.06
732.168	459.06
732.61	435.06
733.053	492.06
733.495	536.06
733.937	552.06
734.379	638.06
734.821	734.06
735.263	1025.06
735.705	1669.06
736.148	2807.06
736.59	3255.06
737.032	3043.06
737.474	3266.06
737.916	1672.06
738.357	820.06
738.799	576.06
739.241	511.06
739.683	492.06
740.125	507.06
740.567	494.06
741.008	525.06
741.45	584.06
741.892	567.06
742.334	613.06
742.775	575.06
743.217	600.06
743.658	507.06
744.1	493.06
744.542	549.06
744.983	600.06
745.425	611.06
745.866	627.06
746.307	570.06
746.749	523.06
747.19	613.06
747.632	1010.06
748.073	1884.06
748.514	2921.06
748.956	3598.06
749.397	4891.06
749.838	3974.06
750.279	3241.06
750.72	2422.06
751.162	1124.06
751.603	611.06
752.044	437.06
752.485	411.06
752.926	358.06
753.367	378.06
753.808	360.06
754.249	349.06
754.69	358.06
755.131	351.06
755.572	351.06
756.013	340.06
756.453	335.06
756.894	345.06
757.335	382.06
757.776	329.06
758.216	346.06
758.657	369.06
759.098	397.06
759.538	444.06
759.979	526.06
760.42	858.06
760.86	1863.06
761.301	4308.06
761.741	6429.06
762.182	6598.06
762.622	6181.06
763.063	2881.06
763.503	1173.06
763.943	599.06
764.384	480.06
764.824	420.06
765.264	362.06
765.705	352.06
766.145	331.06
766.585	347.06
767.025	311.06
767.465	328.06
767.906	325.06
768.346	325.06
768.786	358.06
769.226	432.06
769.666	686.06
770.106	1472.06
770.546	2562.06
770.986	2819.06
771.426	2709.06
771.866	1543.06
772.306	712.06
772.745	432.06
773.185	336.06
773.625	338.06
774.065	309.06
774.505	389.06
774.944	576.06
775.384	877.06
775.824	1085.06
776.263	1079.06
776.703	751.06
777.142	429.06
777.582	315.06
778.021	274.06
778.461	247.06
778.9	271.06
779.34	240.06
779.779	249.06
780.219	258.06
780.658	257.06
781.097	235.06
781.537	237.06
781.976	224.06
782.415	219.06
782.855	236.06
783.294	222.06
783.733	239.06
784.172	236.06
784.611	238.06
785.05	233.06
785.489	242.06
785.928	251.06
786.367	242.06
786.806	259.06
787.245	258.06
787.684	290.06
788.123	251.06
788.562	262.06
789.001	261.06
789.44	255.06
789.879	261.06
790.317	255.06
790.756	289.06
791.195	265.06
791.634	315.06
792.072	457.06
792.511	897.06
792.95	1936.06
793.388	2447.06
793.827	2186.06
794.265	1267.06
794.704	620.06
795.142	357.06
795.581	292.06
796.019	258.06
796.458	253.06
796.896	279.06
797.334	269.06
797.773	339.06
798.211	502.06
798.649	956.06
799.087	1572.06
799.526	2423.06
799.964	2660.06
800.402	2234.06
800.84	1339.06
801.278	716.06
801.716	403.06
802.154	321.06
802.592	287.06
803.03	339.06
803.468	290.06
803.906	302.06
804.344	297.06
804.782	288.06
805.22	287.06
805.658	282.06
806.096	311.06
806.533	312.06
806.971	345.06
807.409	460.06
807.847	738.06
808.284	1563.06
808.722	3143.06
809.16	4387.06
809.597	6081.06
810.035	7891.06
810.472	6685.06
810.91	3742.06
811.347	1850.06
811.785	861.06
812.222	495.06
812.66	373.06
813.097	364.06
813.535	311.06
813.972	285.06
814.409	261.06
814.846	257.06
815.284	237.06
815.721	223.06
816.158	216.06
816.595	301.06
817.032	356.06
817.47	377.06
817.907	314.06
818.344	278.06
818.781	246.06
819.218	265.06
819.655	350.06
820.092	433.06
820.529	490.06
820.966	420.06
821.403	326.06
821.839	273.06
822.276	270.06
822.713	308.06
823.15	315.06
823.587	277.06
824.023	355.06
824.46	766.06
824.897	1381.06
825.333	1469.06
825.77	908.06
826.206	520.06
826.643	321.06
827.08	241.06
827.516	216.06
827.953	205.06
828.389	199.06
828.825	182.06
829.262	208.06
829.698	191.06
830.135	183.06
830.571	183.06
831.007	183.06
831.443	175.06
831.88	177.06
832.316	179.06
832.752	171.06
833.188	177.06
833.624	186.06
834.06	187.06
834.497	172.06
834.933	186.06
835.369	194.06
835.805	202.06
836.241	210.06
836.677	197.06
837.112	228.06
837.548	251.06
837.984	336.06
838.42	482.06
838.856	1203.06
839.292	2459.06
839.727	2670.06
840.163	1827.06
840.599	2072.06
841.034	3010.06
841.47	2422.06
841.906	1374.06
842.341	796.06
842.777	503.06
843.212	459.06
843.648	363.06
844.083	301.06
844.519	239.06
844.954	219.06
845.39	176.06
845.825	181.06
846.261	185.06
846.696	161.06
847.131	156.06
847.566	171.06
848.002	160.06
848.437	157.06
848.872	166.06
849.307	209.06
849.742	243.06
850.177	455.06
850.613	949.06
851.048	1033.06
851.483	604.06
851.918	373.06
852.353	261.06
852.788	182.06
853.223	148.06
853.657	155.06
854.092	153.06
854.527	156.06
854.962	157.06
855.397	157.06
855.832	180.06
856.266	163.06
856.701	151.06
857.136	152.06
857.57	146.06
858.005	183.06
858.44	173.06
858.874	152.06
859.309	171.06
859.743	142.06
860.178	162.06
860.612	155.06
861.047	187.06
861.481	221.06
861.915	222.06
862.35	148.06
862.784	165.06
863.218	108.06
863.653	149.06
864.087	174.06
864.521	170.06
864.955	215.06
865.39	312.06
865.824	317.06
866.258	329.06
866.692	449.06
867.126	441.06
867.56	323.06
867.994	237.06
868.428	176.06
868.862	174.06
869.296	176.06
869.73	209.06
870.164	185.06
870.598	188.06
871.031	180.06
871.465	156.06
871.899	141.06
872.333	112.06
872.766	121.06
873.2	130.06
873.634	122.06
874.067	125.06
874.501	125.06
874.935	115.06
875.368	130.06
875.802	139.06
876.235	98.06
876.669	125.06
877.102	137.06
877.535	136.06
877.969	108.06
878.402	110.06
878.836	124.06
879.269	119.06
879.702	112.06
880.135	113.06
880.569	107.06
881.002	108.06
881.435	121.06
881.868	131.06
882.301	108.06
882.734	113.06
883.167	126.06
883.601	104.06
884.034	115.06
884.467	115.06
884.899	114.06
885.332	121.06
885.765	111.06
886.198	103.06
886.631	112.06
887.064	104.06
887.497	118.06
887.929	131.06
888.362	118.06
888.795	114.06
889.228	108.06
889.66	97.06
890.093	114.06
890.526	122.06
890.958	131.06
891.391	108.06
891.823	107.06
892.256	111.06
892.688	106.06
893.121	110.06
893.553	106.06
893.985	114.06
894.418	94.06
894.85	102.06
895.282	117.06
895.715	109.06
896.147	110.06
896.579	101.06
897.011	121.06
897.444	126.06
897.876	105.06
898.308	106.06
898.74	114.06
899.172	119.06
899.604	103.06
900.036	115.06
900.468	110.06
900.9	107.06
901.332	122.06
901.764	118.06
902.196	109.06
902.628	117.06
903.06	123.06
903.491	118.06
903.923	131.06
904.355	117.06
904.787	104.06
905.218	125.06
905.65	119.06
906.082	120.06
906.513	113.06
906.945	113.06
907.376	108.06
907.808	119.06
908.239	110.06
908.671	110.06
909.102	118.06
909.534	138.06
909.965	155.06
910.397	253.06
910.828	595.06
911.259	635.06
911.691	459.06
912.122	293.06
912.553	179.06
912.984	117.06
913.415	127.06
913.847	125.06
914.278	121.06
914.709	116.06
915.14	111.06
915.571	115.06
916.002	99.06
916.433	119.06
916.864	110.06
917.295	107.06
917.726	119.06
918.157	118.06
918.587	115.06
919.018	105.06
919.449	126.06
919.88	131.06
920.311	137.06
920.741	174.06
921.172	338.06
921.603	250.06
922.033	225.06
922.464	169.06
922.895	128.06
923.325	116.06
923.756	109.06
924.186	115.06
924.617	120.06
925.047	137.06
925.478	131.06
925.908	136.06
926.338	133.06
926.769	118.06
927.199	114.06
927.629	107.06
928.06	98.06
928.49	100.06
928.92	116.06
929.35	105.06
929.78	111.06
930.21	108.06
930.641	101.06
931.071	95.06
931.501	101.06
931.931	94.06
932.361	92.06
932.791	77.06
933.221	93.06
933.651	83.06
934.08	106.06
934.51	102.06
934.94	105.06
935.37	95.06
935.8	88.06
936.229	102.06
936.659	69.06
937.089	116.06
937.519	103.06
937.948	119.06
938.378	119.06
938.807	114.06
939.237	107.06
939.666	101.06
940.096	98.06
940.525	97.06
940.955	82.06
941.384	96.06
941.814	101.06
942.243	102.06
942.672	89.06
943.102	85.06
943.531	85.06
943.96	84.06
944.39	78.06
944.819	97.06
945.248	77.06
945.677	85.06
946.106	87.06
946.535	79.06
946.964	75.06
947.393	76.06
947.822	95.06
948.251	89.06
948.68	98.06
949.109	84.06
949.538	64.06
949.967	95.06
950.396	100.06
950.825	86.06
951.254	77.06
951.682	87.06
952.111	82.06
952.54	90.06
952.969	91.06
953.397	99.06
953.826	90.06
954.254	74.06
954.683	89.06
955.112	81.06
955.54	94.06
955.969	83.06
956.397	86.06
956.826	94.06
957.254	95.06
957.682	73.06
958.111	91.06
958.539	85.06
958.967	95.06
959.396	80.06
959.824	73.06
960.252	72.06
960.68	76.06
961.109	93.06
961.537	96.06
961.965	76.06
962.393	97.06
962.821	80.06
963.249	72.06
963.677	100.06
964.105	104.06
964.533	164.06
964.961	131.06
965.389	135.06
965.817	130.06
966.245	108.06
966.672	101.06
967.1	80.06
967.528	93.06
967.956	86.06
968.383	85.06
968.811	92.06
969.239	98.06
969.666	84.06
970.094	65.06
970.522	97.06
970.949	77.06
971.377	97.06
971.804	85.06
972.232	80.06
972.659	77.06
973.087	87.06
973.514	76.06
973.941	81.06
974.369	87.06
974.796	88.06
975.223	80.06
975.651	100.06
976.078	75.06
976.505	102.06
976.932	99.06
977.359	104.06
977.786	90.06
978.214	89.06
978.641	83.06
979.068	81.06
979.495	90.06
979.922	90.06
980.349	90.06
980.776	93.06
981.202	98.06
981.629	61.06
982.056	74.06
982.483	79.06
982.91	74.06
983.337	73.06
983.763	87.06
984.19	92.06
984.617	70.06
985.043	81.06
985.47	92.06
985.897	63.06
986.323	99.06
986.75	89.06
987.176	100.06
987.603	99.06
988.029	70.06
988.456	89.06
988.882	82.06
989.308	88.06
989.735	96.06
990.161	79.06
990.587	94.06
991.014	87.06
991.44	90.06
991.866	88.06
992.292	82.06
992.719	72.06
993.145	83.06
993.571	81.06
993.997	67.06
994.423	93.06
994.849	101.06
995.275	93.06
995.701	83.06
996.127	81.06
996.553	76.06
996.979	73.06
997.405	90.06
997.83	87.06
998.256	91.06
998.682	75.06
999.108	79.06
999.534	79.06
999.959	80.06
1000.385	86.06
1000.811	88.06
1001.236	82.06
1001.662	65.06
1002.087	86.06
1002.513	89.06
1002.938	92.06
1003.364	74.06
1003.789	101.06
1004.215	89.06
1004.64	91.06
1005.066	84.06
1005.491	75.06
1005.916	84.06
1006.342	80.06
1006.767	78.06
1007.192	84.06
1007.617	79.06
1008.042	73.06
1008.468	79.06
1008.893	91.06
1009.318	101.06
1009.743	83.06
1010.168	99.06
1010.593	93.06
1011.018	91.06
1011.443	105.06
1011.868	81.06
1012.293	88.06
1012.718	68.06
1013.143	79.06
1013.567	83.06
1013.992	82.06
1014.417	85.06
1014.842	74.06
1015.267	79.06
1015.691	87.06
1016.116	85.06
1016.541	90.06
1016.965	70.06
1017.39	90.06
1017.814	79.06
1018.239	88.06
1018.663	96.06
1019.088	81.06
1019.512	88.06
1019.937	87.06
1020.361	75.06
1020.785	67.06
1021.21	85.06
1021.634	84.06
1022.058	94.06
1022.483	88.06
1022.907	95.06
1023.331	90.06
1023.755	85.06
1024.179	81.06
1024.604	87.06
1025.028	86.06
1025.452	88.06
1025.876	75.06
1026.3	72.06
1026.724	70.06
1027.148	75.06
1027.572	83.06
1027.996	71.06
1028.42	93.06
1028.843	81.06
1029.267	82.06
1029.691	82.06
1030.115	90.06
1030.539	77.06
1030.962	83.06
1031.386	78.06
1031.81	85.06
1032.233	89.06
1032.657	92.06
1033.08	95.06
1033.504	82.06
1033.927	103.06
1034.351	80.06
1034.774	74.06
1035.198	72.06
1035.621	91.06
1036.045	95.06
1036.468	73.06
1036.891	93.06
1037.315	76.06
1037.738	69.06
1038.161	77.06
1038.584	86.06
1039.008	84.06
1039.431	74.06
1039.854	67.06
1040.277	77.06
1040.7	68.06
1041.123	72.06
1041.546	76.06
1041.969	67.06
1042.392	98.06
1042.815	88.06
1043.238	73.06
1043.661	77.06
1044.084	89.06
1044.507	81.06
1044.93	86.06
1045.352	88.06
1045.775	88.06
1046.198	95.06
1046.621	85.06
1047.043	63.06
1047.466	87.06
1047.889	62.06
1048.311	76.06
1048.734	83.06
1049.156	79.06
1049.579	84.06
1050.001	103.06
1050.424	95.06
1050.846	92.06
1051.269	95.06
1051.691	92.06
1052.113	83.06
1052.536	81.06
1052.958	79.06
1053.38	82.06
1053.802	97.06
1054.225	107.06
1054.647	89.06
1055.069	80.06
1055.491	75.06
1055.913	85.06
1056.335	83.06
1056.757	72.06
1057.179	83.06
1057.601	78.06
1058.023	82.06
1058.445	75.06
1058.867	91.06
1059.289	90.06
1059.711	73.06
1060.133	68.06
1060.555	91.06
1060.976	75.06
1061.398	80.06
1061.82	96.06
1062.241	86.06
1062.663	79.06
1063.085	85.06
1063.506	90.06
1063.928	92.06
1064.35	79.06
1064.771	85.06
1065.193	78.06
1065.614	79.06
1066.035	85.06
1066.457	65.06
1066.878	95.06
1067.3	82.06
1067.721	69.06
1068.142	91.06
1068.564	80.06
1068.985	78.06
1069.406	88.06
1069.827	97.06
1070.248	99.06
1070.67	61.06
1071.091	74.06
1071.512	79.06
1071.933	85.06
1072.354	90.06
1072.775	79.06
1073.196	95.06
1073.617	79.06
1074.038	85.06
1074.459	78.06
1074.88	90.06
1075.3	89.06
1075.721	84.06
1076.142	61.06
1076.563	88.06
1076.983	89.06
1077.404	88.06
1077.825	70.06
1078.246	85.06
1078.666	73.06
1079.087	85.06
1079.507	97.06
1079.928	74.06
1080.348	73.06
1080.769	88.06
1081.189	53.06
1081.61	84.06
1082.03	69.06
1082.451	87.06
1082.871	83.06
1083.291	95.06
1083.711	85.06
1084.132	72.06
1084.552	74.06
1084.972	73.06
1085.392	75.06
1085.813	85.06
1086.233	89.06
1086.653	85.06
1087.073	83.06
1087.493	86.06
1087.913	88.06
1088.333	94.06
1088.753	76.06
1089.173	97.06
1089.593	101.06
1090.013	77.06
1090.433	82.06
1090.852	78.06
1091.272	93.06
1091.692	78.06
1092.112	79.06
1092.531	64.06
1092.951	81.06
1093.371	90.06
1093.79	83.06
1094.21	91.06
1094.63	96.06
1095.049	93.06
1095.469	82.06
1095.888	86.06
1096.308	93.06
1096.727	90.06
1097.146	88.06
1097.566	79.06
1097.985	82.06
1098.405	63.06
1098.824	89.06
1099.243	86.06
1099.662	83.06
1100.082	78.06
1100.501	80.06
1100.92	93.06
1101.339	76.06
1101.758	86.06
