Data from 20170802-ORNL-NYSim-Air_HRD10391_10-37-13-631.txt Node
Date: Wed Aug 02 10:37:13 EDT 2017
User: Ender
Spectrometer: HR+D1039
Trigger mode: 0
Integration Time (sec): 1.510000E-3
Scans to average: 1
Electric dark correction enabled: true
Nonlinearity correction enabled: false
Boxcar width: 0
XAxis mode: Wavelengths
Number of Pixels in Spectrum: 2048
>>>>>Begin Spectral Data<<<<<
187.836	6.62
188.309	6.62
188.782	6.62
189.255	-6.38
189.728	-8.38
190.201	-14.38
190.674	-15.38
191.147	-15.38
191.619	-1.38
192.092	-8.38
192.565	-3.38
193.038	-5.38
193.511	12.62
193.984	-4.38
194.456	-0.38
194.929	29.62
195.402	8.62
195.874	25.62
196.347	19.62
196.82	23.62
197.292	21.62
197.765	23.62
198.237	39.62
198.71	33.62
199.182	55.62
199.655	50.62
200.127	51.62
200.6	60.62
201.072	73.62
201.544	79.62
202.017	58.62
202.489	55.62
202.961	63.62
203.433	91.62
203.906	73.62
204.378	84.62
204.85	87.62
205.322	81.62
205.794	82.62
206.266	79.62
206.739	73.62
207.211	81.62
207.683	74.62
208.155	99.62
208.627	79.62
209.099	88.62
209.57	94.62
210.042	94.62
210.514	81.62
210.986	96.62
211.458	91.62
211.93	98.62
212.402	104.62
212.873	83.62
213.345	78.62
213.817	85.62
214.288	92.62
214.76	83.62
215.232	79.62
215.703	98.62
216.175	82.62
216.646	81.62
217.118	98.62
217.589	83.62
218.061	96.62
218.532	89.62
219.004	90.62
219.475	74.62
219.946	92.62
220.418	73.62
220.889	88.62
221.36	87.62
221.832	69.62
222.303	75.62
222.774	99.62
223.245	65.62
223.717	69.62
224.188	76.62
224.659	81.62
225.13	92.62
225.601	85.62
226.072	77.62
226.543	85.62
227.014	80.62
227.485	68.62
227.956	79.62
228.427	88.62
228.898	83.62
229.369	76.62
229.839	74.62
230.31	81.62
230.781	75.62
231.252	93.62
231.722	86.62
232.193	97.62
232.664	89.62
233.135	79.62
233.605	91.62
234.076	89.62
234.546	72.62
235.017	103.62
235.487	80.62
235.958	93.62
236.428	84.62
236.899	85.62
237.369	85.62
237.84	77.62
238.31	91.62
238.78	65.62
239.251	96.62
239.721	93.62
240.191	78.62
240.662	101.62
241.132	87.62
241.602	91.62
242.072	92.62
242.542	73.62
243.013	86.62
243.483	99.62
243.953	112.62
244.423	92.62
244.893	90.62
245.363	82.62
245.833	97.62
246.303	83.62
246.773	86.62
247.243	82.62
247.712	93.62
248.182	80.62
248.652	89.62
249.122	99.62
249.592	86.62
250.061	109.62
250.531	98.62
251.001	105.62
251.471	103.62
251.94	79.62
252.41	100.62
252.879	101.62
253.349	95.62
253.818	85.62
254.288	91.62
254.757	85.62
255.227	95.62
255.696	94.62
256.166	83.62
256.635	104.62
257.105	101.62
257.574	119.62
258.043	89.62
258.513	103.62
258.982	115.62
259.451	91.62
259.92	100.62
260.389	91.62
260.859	100.62
261.328	108.62
261.797	105.62
262.266	103.62
262.735	103.62
263.204	108.62
263.673	108.62
264.142	107.62
264.611	87.62
265.08	106.62
265.549	79.62
266.018	103.62
266.487	81.62
266.955	107.62
267.424	113.62
267.893	101.62
268.362	107.62
268.83	111.62
269.299	117.62
269.768	93.62
270.236	99.62
270.705	84.62
271.174	105.62
271.642	112.62
272.111	113.62
272.579	105.62
273.048	117.62
273.516	108.62
273.985	116.62
274.453	97.62
274.922	113.62
275.39	107.62
275.858	119.62
276.327	103.62
276.795	102.62
277.263	104.62
277.731	112.62
278.2	108.62
278.668	112.62
279.136	100.62
279.604	107.62
280.072	124.62
280.54	107.62
281.008	104.62
281.477	107.62
281.945	109.62
282.413	118.62
282.881	127.62
283.348	122.62
283.816	124.62
284.284	117.62
284.752	113.62
285.22	129.62
285.688	109.62
286.156	111.62
286.623	139.62
287.091	106.62
287.559	128.62
288.026	105.62
288.494	104.62
288.962	143.62
289.429	118.62
289.897	143.62
290.364	136.62
290.832	120.62
291.3	117.62
291.767	116.62
292.234	128.62
292.702	131.62
293.169	109.62
293.637	107.62
294.104	114.62
294.571	131.62
295.039	131.62
295.506	114.62
295.973	134.62
296.44	119.62
296.908	122.62
297.375	116.62
297.842	123.62
298.309	132.62
298.776	111.62
299.243	107.62
299.71	128.62
300.177	128.62
300.644	119.62
301.111	126.62
301.578	140.62
302.045	123.62
302.512	145.62
302.979	118.62
303.446	123.62
303.913	133.62
304.379	121.62
304.846	137.62
305.313	120.62
305.78	139.62
306.246	131.62
306.713	135.62
307.18	138.62
307.646	154.62
308.113	133.62
308.579	136.62
309.046	151.62
309.512	146.62
309.979	151.62
310.445	147.62
310.912	140.62
311.378	150.62
311.845	128.62
312.311	144.62
312.777	154.62
313.244	155.62
313.71	145.62
314.176	155.62
314.642	163.62
315.109	142.62
315.575	145.62
316.041	161.62
316.507	134.62
316.973	141.62
317.439	145.62
317.905	169.62
318.371	158.62
318.837	144.62
319.303	133.62
319.769	165.62
320.235	143.62
320.701	167.62
321.167	152.62
321.633	155.62
322.099	173.62
322.564	170.62
323.03	177.62
323.496	157.62
323.962	159.62
324.427	143.62
324.893	153.62
325.359	168.62
325.824	165.62
326.29	188.62
326.755	163.62
327.221	161.62
327.686	186.62
328.152	158.62
328.617	159.62
329.083	165.62
329.548	172.62
330.014	170.62
330.479	172.62
330.944	172.62
331.41	180.62
331.875	170.62
332.34	167.62
332.805	170.62
333.271	178.62
333.736	186.62
334.201	175.62
334.666	191.62
335.131	167.62
335.596	179.62
336.061	191.62
336.526	187.62
336.991	189.62
337.456	169.62
337.921	180.62
338.386	178.62
338.851	168.62
339.316	159.62
339.781	174.62
340.246	181.62
340.711	195.62
341.175	187.62
341.64	186.62
342.105	213.62
342.569	178.62
343.034	197.62
343.499	187.62
343.963	184.62
344.428	176.62
344.893	191.62
345.357	194.62
345.822	194.62
346.286	207.62
346.751	209.62
347.215	211.62
347.679	210.62
348.144	215.62
348.608	222.62
349.073	206.62
349.537	216.62
350.001	213.62
350.465	223.62
350.93	238.62
351.394	211.62
351.858	224.62
352.322	231.62
352.786	215.62
353.25	217.62
353.715	227.62
354.179	222.62
354.643	239.62
355.107	231.62
355.571	213.62
356.035	252.62
356.498	230.62
356.962	231.62
357.426	232.62
357.89	228.62
358.354	247.62
358.818	232.62
359.281	244.62
359.745	239.62
360.209	259.62
360.673	240.62
361.136	249.62
361.6	231.62
362.064	247.62
362.527	236.62
362.991	245.62
363.454	243.62
363.918	257.62
364.381	246.62
364.845	245.62
365.308	258.62
365.772	271.62
366.235	247.62
366.698	267.62
367.162	224.62
367.625	240.62
368.088	259.62
368.552	254.62
369.015	247.62
369.478	273.62
369.941	256.62
370.404	252.62
370.867	281.62
371.331	265.62
371.794	270.62
372.257	283.62
372.72	269.62
373.183	248.62
373.646	283.62
374.109	265.62
374.572	271.62
375.035	275.62
375.497	271.62
375.96	280.62
376.423	277.62
376.886	275.62
377.349	286.62
377.811	305.62
378.274	296.62
378.737	274.62
379.199	298.62
379.662	295.62
380.125	306.62
380.587	313.62
381.05	288.62
381.512	287.62
381.975	307.62
382.437	298.62
382.9	318.62
383.362	305.62
383.825	324.62
384.287	315.62
384.75	307.62
385.212	306.62
385.674	326.62
386.136	308.62
386.599	311.62
387.061	308.62
387.523	337.62
387.985	335.62
388.447	316.62
388.91	341.62
389.372	330.62
389.834	319.62
390.296	301.62
390.758	306.62
391.22	323.62
391.682	332.62
392.144	335.62
392.606	333.62
393.068	334.62
393.529	368.62
393.991	335.62
394.453	339.62
394.915	317.62
395.377	329.62
395.838	350.62
396.3	317.62
396.762	363.62
397.224	357.62
397.685	339.62
398.147	343.62
398.608	365.62
399.07	362.62
399.531	340.62
399.993	364.62
400.454	371.62
400.916	361.62
401.377	385.62
401.839	400.62
402.3	375.62
402.762	395.62
403.223	398.62
403.684	397.62
404.145	384.62
404.607	385.62
405.068	367.62
405.529	384.62
405.99	393.62
406.451	405.62
406.913	381.62
407.374	382.62
407.835	400.62
408.296	407.62
408.757	403.62
409.218	419.62
409.679	394.62
410.14	421.62
410.601	406.62
411.062	403.62
411.522	419.62
411.983	435.62
412.444	427.62
412.905	429.62
413.366	457.62
413.826	453.62
414.287	510.62
414.748	590.62
415.208	610.62
415.669	512.62
416.13	501.62
416.59	474.62
417.051	462.62
417.511	508.62
417.972	540.62
418.432	555.62
418.893	628.62
419.353	606.62
419.814	516.62
420.274	438.62
420.734	437.62
421.195	456.62
421.655	427.62
422.115	439.62
422.576	436.62
423.036	451.62
423.496	470.62
423.956	477.62
424.416	511.62
424.876	550.62
425.336	578.62
425.797	543.62
426.257	549.62
426.717	507.62
427.177	510.62
427.637	466.62
428.097	522.62
428.556	530.62
429.016	579.62
429.476	575.62
429.936	538.62
430.396	538.62
430.856	580.62
431.315	599.62
431.775	607.62
432.235	668.62
432.694	672.62
433.154	633.62
433.614	619.62
434.073	605.62
434.533	549.62
434.993	549.62
435.452	546.62
435.912	510.62
436.371	511.62
436.83	547.62
437.29	515.62
437.749	496.62
438.209	472.62
438.668	507.62
439.127	514.62
439.587	533.62
440.046	507.62
440.505	494.62
440.964	507.62
441.424	517.62
441.883	516.62
442.342	501.62
442.801	482.62
443.26	492.62
443.719	495.62
444.178	478.62
444.637	500.62
445.096	478.62
445.555	482.62
446.014	496.62
446.473	512.62
446.932	508.62
447.391	513.62
447.849	502.62
448.308	503.62
448.767	493.62
449.226	513.62
449.685	502.62
450.143	517.62
450.602	525.62
451.061	520.62
451.519	509.62
451.978	521.62
452.436	496.62
452.895	503.62
453.353	503.62
453.812	498.62
454.27	494.62
454.729	529.62
455.187	494.62
455.646	499.62
456.104	522.62
456.562	493.62
457.021	508.62
457.479	487.62
457.937	527.62
458.395	542.62
458.854	521.62
459.312	547.62
459.77	502.62
460.228	511.62
460.686	547.62
461.144	540.62
461.602	560.62
462.06	537.62
462.518	566.62
462.976	564.62
463.434	536.62
463.892	547.62
464.35	573.62
464.808	573.62
465.266	576.62
465.724	563.62
466.181	601.62
466.639	599.62
467.097	591.62
467.555	633.62
468.012	624.62
468.47	633.62
468.928	663.62
469.385	678.62
469.843	662.62
470.3	645.62
470.758	681.62
471.215	682.62
471.673	691.62
472.13	728.62
472.588	717.62
473.045	704.62
473.503	745.62
473.96	768.62
474.417	767.62
474.875	804.62
475.332	811.62
475.789	827.62
476.246	863.62
476.704	847.62
477.161	905.62
477.618	918.62
478.075	963.62
478.532	1039.62
478.989	1104.62
479.446	1209.62
479.903	1260.62
480.36	1380.62
480.817	1386.62
481.274	1497.62
481.731	1669.62
482.188	1752.62
482.645	1893.62
483.102	1965.62
483.558	2140.62
484.015	2176.62
484.472	2208.62
484.929	2153.62
485.385	2015.62
485.842	2003.62
486.299	1945.62
486.755	1818.62
487.212	1661.62
487.668	1480.62
488.125	1405.62
488.582	1292.62
489.038	1258.62
489.494	1242.62
489.951	1212.62
490.407	1162.62
490.864	1135.62
491.32	1126.62
491.776	1088.62
492.233	1103.62
492.689	1115.62
493.145	1082.62
493.602	1078.62
494.058	1103.62
494.514	1061.62
494.97	1111.62
495.426	1137.62
495.882	1084.62
496.338	1077.62
496.794	1090.62
497.251	1083.62
497.707	1104.62
498.163	1090.62
498.618	1083.62
499.074	1107.62
499.53	1129.62
499.986	1134.62
500.442	1145.62
500.898	1123.62
501.354	1131.62
501.809	1147.62
502.265	1117.62
502.721	1136.62
503.177	1113.62
503.632	1157.62
504.088	1119.62
504.543	1149.62
504.999	1132.62
505.455	1177.62
505.91	1175.62
506.366	1178.62
506.821	1139.62
507.277	1139.62
507.732	1132.62
508.187	1150.62
508.643	1162.62
509.098	1165.62
509.553	1187.62
510.009	1145.62
510.464	1169.62
510.919	1250.62
511.375	1221.62
511.83	1229.62
512.285	1260.62
512.74	1292.62
513.195	1334.62
513.65	1313.62
514.105	1319.62
514.56	1332.62
515.015	1336.62
515.47	1357.62
515.925	1349.62
516.38	1363.62
516.835	1342.62
517.29	1355.62
517.745	1369.62
518.2	1308.62
518.655	1321.62
519.109	1287.62
519.564	1268.62
520.019	1275.62
520.474	1263.62
520.928	1260.62
521.383	1221.62
521.838	1236.62
522.292	1231.62
522.747	1249.62
523.201	1271.62
523.656	1197.62
524.11	1193.62
524.565	1236.62
525.019	1264.62
525.474	1210.62
525.928	1184.62
526.382	1206.62
526.837	1165.62
527.291	1203.62
527.745	1215.62
528.2	1188.62
528.654	1198.62
529.108	1180.62
529.562	1226.62
530.016	1206.62
530.47	1195.62
530.925	1200.62
531.379	1225.62
531.833	1189.62
532.287	1203.62
532.741	1199.62
533.195	1196.62
533.649	1241.62
534.103	1254.62
534.556	1229.62
535.01	1251.62
535.464	1180.62
535.918	1197.62
536.372	1225.62
536.826	1220.62
537.279	1178.62
537.733	1167.62
538.187	1203.62
538.64	1180.62
539.094	1218.62
539.548	1213.62
540.001	1215.62
540.455	1234.62
540.908	1180.62
541.362	1259.62
541.815	1296.62
542.269	1307.62
542.722	1283.62
543.175	1292.62
543.629	1273.62
544.082	1335.62
544.536	1304.62
544.989	1310.62
545.442	1294.62
545.895	1320.62
546.349	1303.62
546.802	1313.62
547.255	1317.62
547.708	1325.62
548.161	1348.62
548.614	1328.62
549.067	1341.62
549.52	1350.62
549.973	1321.62
550.426	1327.62
550.879	1333.62
551.332	1325.62
551.785	1343.62
552.238	1319.62
552.691	1336.62
553.144	1387.62
553.596	1369.62
554.049	1441.62
554.502	1432.62
554.955	1462.62
555.407	1489.62
555.86	1475.62
556.313	1447.62
556.765	1451.62
557.218	1437.62
557.67	1456.62
558.123	1403.62
558.576	1381.62
559.028	1385.62
559.48	1398.62
559.933	1411.62
560.385	1387.62
560.838	1294.62
561.29	1273.62
561.742	1289.62
562.195	1263.62
562.647	1275.62
563.099	1267.62
563.551	1237.62
564.004	1233.62
564.456	1241.62
564.908	1220.62
565.36	1200.62
565.812	1160.62
566.264	1169.62
566.716	1123.62
567.168	1123.62
567.62	1128.62
568.072	1142.62
568.524	1123.62
568.976	1131.62
569.428	1094.62
569.88	1119.62
570.332	1073.62
570.784	1121.62
571.235	1116.62
571.687	1126.62
572.139	1120.62
572.59	1115.62
573.042	1149.62
573.494	1129.62
573.945	1131.62
574.397	1109.62
574.849	1067.62
575.3	1131.62
575.752	1085.62
576.203	1051.62
576.655	1098.62
577.106	1038.62
577.557	1057.62
578.009	1073.62
578.46	1069.62
578.912	1038.62
579.363	1053.62
579.814	1051.62
580.265	1029.62
580.717	1071.62
581.168	1078.62
581.619	1097.62
582.07	1035.62
582.521	1053.62
582.972	1055.62
583.423	1063.62
583.875	1098.62
584.326	1068.62
584.777	1105.62
585.227	1123.62
585.678	1119.62
586.129	1137.62
586.58	1127.62
587.031	1158.62
587.482	1151.62
587.933	1168.62
588.384	1202.62
588.834	1218.62
589.285	1190.62
589.736	1193.62
590.186	1183.62
590.637	1175.62
591.088	1162.62
591.538	1137.62
591.989	1133.62
592.439	1140.62
592.89	1133.62
593.34	1109.62
593.791	1086.62
594.241	1090.62
594.692	1061.62
595.142	1039.62
595.593	1084.62
596.043	1058.62
596.493	1075.62
596.943	1087.62
597.394	1086.62
597.844	1121.62
598.294	1129.62
598.744	1159.62
599.195	1202.62
599.645	1257.62
600.095	1346.62
600.545	1416.62
600.995	1463.62
601.445	1480.62
601.895	1579.62
602.345	1643.62
602.795	1584.62
603.245	1527.62
603.695	1474.62
604.145	1435.62
604.594	1353.62
605.044	1309.62
605.494	1189.62
605.944	1158.62
606.393	1099.62
606.843	1077.62
607.293	1119.62
607.743	1075.62
608.192	1107.62
608.642	1094.62
609.091	1083.62
609.541	1116.62
609.99	1117.62
610.44	1077.62
610.889	1096.62
611.339	1062.62
611.788	1050.62
612.238	1062.62
612.687	1067.62
613.136	1083.62
613.586	1058.62
614.035	1041.62
614.484	1028.62
614.933	1071.62
615.383	1031.62
615.832	1020.62
616.281	996.62
616.73	999.62
617.179	953.62
617.628	921.62
618.077	974.62
618.526	925.62
618.975	923.62
619.424	915.62
619.873	946.62
620.322	917.62
620.771	925.62
621.22	896.62
621.669	889.62
622.118	863.62
622.567	853.62
623.015	851.62
623.464	860.62
623.913	844.62
624.361	861.62
624.81	854.62
625.259	865.62
625.707	861.62
626.156	823.62
626.604	848.62
627.053	869.62
627.501	867.62
627.95	834.62
628.398	903.62
628.847	861.62
629.295	869.62
629.744	872.62
630.192	825.62
630.64	835.62
631.089	795.62
631.537	813.62
631.985	771.62
632.433	785.62
632.881	781.62
633.33	813.62
633.778	787.62
634.226	790.62
634.674	789.62
635.122	833.62
635.57	820.62
636.018	829.62
636.466	841.62
636.914	825.62
637.362	835.62
637.81	867.62
638.258	842.62
638.705	855.62
639.153	887.62
639.601	915.62
640.049	936.62
640.497	925.62
640.944	969.62
641.392	953.62
641.84	892.62
642.287	883.62
642.735	835.62
643.182	825.62
643.63	851.62
644.078	850.62
644.525	852.62
644.973	875.62
645.42	871.62
645.867	892.62
646.315	915.62
646.762	952.62
647.21	994.62
647.657	1005.62
648.104	978.62
648.551	1096.62
648.999	1124.62
649.446	1213.62
649.893	1335.62
650.34	1497.62
650.787	1793.62
651.234	2189.62
651.682	2920.62
652.129	3974.62
652.576	5742.62
653.023	7831.62
653.47	9560.62
653.917	10639.62
654.363	11330.62
654.81	11910.62
655.257	12371.62
655.704	9558.62
656.151	5773.62
656.598	3765.62
657.044	2683.62
657.491	2073.62
657.938	1701.62
658.385	1467.62
658.831	1299.62
659.278	1156.62
659.724	1091.62
660.171	1014.62
660.618	933.62
661.064	884.62
661.511	816.62
661.957	851.62
662.404	799.62
662.85	846.62
663.296	806.62
663.743	787.62
664.189	773.62
664.635	768.62
665.082	760.62
665.528	749.62
665.974	732.62
666.42	700.62
666.867	716.62
667.313	665.62
667.759	651.62
668.205	676.62
668.651	650.62
669.097	667.62
669.543	683.62
669.989	675.62
670.435	684.62
670.881	690.62
671.327	700.62
671.773	738.62
672.219	779.62
672.665	831.62
673.11	861.62
673.556	883.62
674.002	867.62
674.448	916.62
674.893	821.62
675.339	717.62
675.785	663.62
676.23	624.62
676.676	621.62
677.122	584.62
677.567	564.62
678.013	574.62
678.458	552.62
678.904	555.62
679.349	535.62
679.794	514.62
680.24	557.62
680.685	543.62
681.131	521.62
681.576	538.62
682.021	555.62
682.466	550.62
682.912	529.62
683.357	585.62
683.802	606.62
684.247	671.62
684.692	695.62
685.137	732.62
685.583	745.62
686.028	739.62
686.473	759.62
686.918	679.62
687.363	622.62
687.807	581.62
688.252	562.62
688.697	532.62
689.142	547.62
689.587	504.62
690.032	527.62
690.477	558.62
690.921	558.62
691.366	597.62
691.811	614.62
692.255	659.62
692.7	714.62
693.145	901.62
693.589	1354.62
694.034	1797.62
694.478	1991.62
694.923	1836.62
695.367	2224.62
695.812	2100.62
696.256	917.62
696.701	602.62
697.145	529.62
697.59	535.62
698.034	502.62
698.478	521.62
698.922	495.62
699.367	509.62
699.811	570.62
700.255	549.62
700.699	606.62
701.143	637.62
701.588	683.62
702.032	736.62
702.476	717.62
702.92	763.62
703.364	879.62
703.808	1237.62
704.252	1691.62
704.696	1861.62
705.14	1799.62
705.584	2196.62
706.027	1846.62
706.471	891.62
706.915	620.62
707.359	547.62
707.803	516.62
708.246	469.62
708.69	504.62
709.134	470.62
709.577	497.62
710.021	495.62
710.465	475.62
710.908	472.62
711.352	484.62
711.795	529.62
712.239	553.62
712.682	592.62
713.126	577.62
713.569	617.62
714.012	582.62
714.456	475.62
714.899	474.62
715.342	467.62
715.786	435.62
716.229	405.62
716.672	412.62
717.115	383.62
717.558	377.62
718.002	418.62
718.445	454.62
718.888	469.62
719.331	479.62
719.774	467.62
720.217	468.62
720.66	448.62
721.103	419.62
721.546	433.62
721.989	374.62
722.432	392.62
722.874	383.62
723.317	377.62
723.76	396.62
724.203	463.62
724.645	577.62
725.088	713.62
725.531	741.62
725.974	721.62
726.416	776.62
726.859	543.62
727.301	451.62
727.744	408.62
728.187	401.62
728.629	391.62
729.071	408.62
729.514	428.62
729.956	445.62
730.399	443.62
730.841	469.62
731.283	435.62
731.726	423.62
732.168	452.62
732.61	450.62
733.053	483.62
733.495	495.62
733.937	564.62
734.379	637.62
734.821	735.62
735.263	976.62
735.705	1649.62
736.148	2716.62
736.59	3069.62
737.032	2918.62
737.474	3159.62
737.916	1573.62
738.357	790.62
738.799	563.62
739.241	493.62
739.683	490.62
740.125	512.62
740.567	499.62
741.008	517.62
741.45	549.62
741.892	592.62
742.334	594.62
742.775	571.62
743.217	607.62
743.658	515.62
744.1	507.62
744.542	545.62
744.983	559.62
745.425	580.62
745.866	615.62
746.307	525.62
746.749	518.62
747.19	611.62
747.632	946.62
748.073	1803.62
748.514	2800.62
748.956	3481.62
749.397	4683.62
749.838	3832.62
750.279	3096.62
750.72	2281.62
751.162	1055.62
751.603	566.62
752.044	466.62
752.485	386.62
752.926	365.62
753.367	361.62
753.808	349.62
754.249	341.62
754.69	361.62
755.131	324.62
755.572	339.62
756.013	334.62
756.453	309.62
756.894	321.62
757.335	348.62
757.776	344.62
758.216	358.62
758.657	352.62
759.098	367.62
759.538	418.62
759.979	519.62
760.42	813.62
760.86	1773.62
761.301	4107.62
761.741	6124.62
762.182	6399.62
762.622	6052.62
763.063	2785.62
763.503	1134.62
763.943	607.62
764.384	453.62
764.824	404.62
765.264	387.62
765.705	367.62
766.145	328.62
766.585	335.62
767.025	330.62
767.465	320.62
767.906	331.62
768.346	326.62
768.786	350.62
769.226	413.62
769.666	677.62
770.106	1403.62
770.546	2522.62
770.986	2679.62
771.426	2660.62
771.866	1469.62
772.306	713.62
772.745	409.62
773.185	345.62
773.625	310.62
774.065	332.62
774.505	375.62
774.944	539.62
775.384	869.62
775.824	1016.62
776.263	986.62
776.703	699.62
777.142	411.62
777.582	311.62
778.021	263.62
778.461	273.62
778.9	244.62
779.34	250.62
779.779	243.62
780.219	263.62
780.658	243.62
781.097	229.62
781.537	234.62
781.976	235.62
782.415	242.62
782.855	229.62
783.294	225.62
783.733	226.62
784.172	235.62
784.611	241.62
785.05	223.62
785.489	229.62
785.928	235.62
786.367	237.62
786.806	260.62
787.245	265.62
787.684	276.62
788.123	271.62
788.562	257.62
789.001	251.62
789.44	243.62
789.879	269.62
790.317	250.62
790.756	259.62
791.195	267.62
791.634	311.62
792.072	442.62
792.511	870.62
792.95	1867.62
793.388	2353.62
793.827	2066.62
794.265	1240.62
794.704	627.62
795.142	378.62
795.581	310.62
796.019	270.62
796.458	265.62
796.896	253.62
797.334	291.62
797.773	304.62
798.211	482.62
798.649	904.62
799.087	1481.62
799.526	2309.62
799.964	2577.62
800.402	2134.62
800.84	1245.62
801.278	661.62
801.716	399.62
802.154	301.62
802.592	285.62
803.03	271.62
803.468	267.62
803.906	281.62
804.344	289.62
804.782	280.62
805.22	275.62
805.658	255.62
806.096	292.62
806.533	310.62
806.971	349.62
807.409	451.62
807.847	711.62
808.284	1551.62
808.722	3100.62
809.16	4166.62
809.597	5905.62
810.035	7519.62
810.472	6407.62
810.91	3561.62
811.347	1732.62
811.785	819.62
812.222	468.62
812.66	380.62
813.097	315.62
813.535	287.62
813.972	258.62
814.409	247.62
814.846	241.62
815.284	224.62
815.721	255.62
816.158	243.62
816.595	274.62
817.032	361.62
817.47	363.62
817.907	334.62
818.344	270.62
818.781	253.62
819.218	275.62
819.655	347.62
820.092	414.62
820.529	445.62
820.966	397.62
821.403	312.62
821.839	278.62
822.276	266.62
822.713	292.62
823.15	305.62
823.587	296.62
824.023	359.62
824.46	704.62
824.897	1384.62
825.333	1457.62
825.77	887.62
826.206	521.62
826.643	314.62
827.08	246.62
827.516	222.62
827.953	205.62
828.389	179.62
828.825	178.62
829.262	177.62
829.698	190.62
830.135	177.62
830.571	159.62
831.007	176.62
831.443	155.62
831.88	172.62
832.316	179.62
832.752	149.62
833.188	174.62
833.624	175.62
834.06	193.62
834.497	185.62
834.933	185.62
835.369	182.62
835.805	199.62
836.241	186.62
836.677	198.62
837.112	212.62
837.548	241.62
837.984	284.62
838.42	495.62
838.856	1130.62
839.292	2324.62
839.727	2591.62
840.163	1770.62
840.599	2015.62
841.034	2959.62
841.47	2321.62
841.906	1277.62
842.341	760.62
842.777	517.62
843.212	444.62
843.648	355.62
844.083	273.62
844.519	212.62
844.954	194.62
845.39	185.62
845.825	196.62
846.261	172.62
846.696	159.62
847.131	175.62
847.566	164.62
848.002	151.62
848.437	164.62
848.872	179.62
849.307	191.62
849.742	247.62
850.177	422.62
850.613	879.62
851.048	1007.62
851.483	603.62
851.918	404.62
852.353	247.62
852.788	183.62
853.223	153.62
853.657	148.62
854.092	137.62
854.527	162.62
854.962	161.62
855.397	156.62
855.832	151.62
856.266	162.62
856.701	164.62
857.136	138.62
857.57	157.62
858.005	177.62
858.44	160.62
858.874	161.62
859.309	165.62
859.743	155.62
860.178	147.62
860.612	159.62
861.047	180.62
861.481	204.62
861.915	212.62
862.35	171.62
862.784	160.62
863.218	154.62
863.653	161.62
864.087	151.62
864.521	163.62
864.955	222.62
865.39	315.62
865.824	307.62
866.258	322.62
866.692	430.62
867.126	403.62
867.56	289.62
867.994	229.62
868.428	187.62
868.862	184.62
869.296	164.62
869.73	204.62
870.164	195.62
870.598	185.62
871.031	161.62
871.465	151.62
871.899	143.62
872.333	118.62
872.766	140.62
873.2	123.62
873.634	116.62
874.067	130.62
874.501	147.62
874.935	118.62
875.368	115.62
875.802	131.62
876.235	119.62
876.669	127.62
877.102	124.62
877.535	118.62
877.969	115.62
878.402	135.62
878.836	123.62
879.269	118.62
879.702	122.62
880.135	120.62
880.569	135.62
881.002	116.62
881.435	102.62
881.868	121.62
882.301	105.62
882.734	105.62
883.167	117.62
883.601	108.62
884.034	110.62
884.467	132.62
884.899	109.62
885.332	119.62
885.765	128.62
886.198	122.62
886.631	123.62
887.064	118.62
887.497	123.62
887.929	113.62
888.362	115.62
888.795	119.62
889.228	99.62
889.66	115.62
890.093	102.62
890.526	106.62
890.958	110.62
891.391	115.62
891.823	112.62
892.256	107.62
892.688	122.62
893.121	119.62
893.553	110.62
893.985	108.62
894.418	110.62
894.85	90.62
895.282	103.62
895.715	121.62
896.147	103.62
896.579	121.62
897.011	97.62
897.444	122.62
897.876	102.62
898.308	104.62
898.74	112.62
899.172	109.62
899.604	108.62
900.036	119.62
900.468	110.62
900.9	89.62
901.332	105.62
901.764	115.62
902.196	127.62
902.628	122.62
903.06	138.62
903.491	139.62
903.923	110.62
904.355	122.62
904.787	127.62
905.218	136.62
905.65	125.62
906.082	123.62
906.513	111.62
906.945	109.62
907.376	99.62
907.808	103.62
908.239	112.62
908.671	128.62
909.102	126.62
909.534	121.62
909.965	160.62
910.397	245.62
910.828	555.62
911.259	635.62
911.691	398.62
912.122	287.62
912.553	194.62
912.984	125.62
913.415	126.62
913.847	138.62
914.278	135.62
914.709	110.62
915.14	114.62
915.571	106.62
916.002	115.62
916.433	115.62
916.864	94.62
917.295	118.62
917.726	108.62
918.157	123.62
918.587	111.62
919.018	111.62
919.449	119.62
919.88	133.62
920.311	131.62
920.741	155.62
921.172	328.62
921.603	238.62
922.033	222.62
922.464	166.62
922.895	141.62
923.325	117.62
923.756	102.62
924.186	108.62
924.617	118.62
925.047	146.62
925.478	153.62
925.908	149.62
926.338	145.62
926.769	118.62
927.199	113.62
927.629	110.62
928.06	106.62
928.49	109.62
928.92	112.62
929.35	95.62
929.78	95.62
930.21	106.62
930.641	93.62
931.071	97.62
931.501	103.62
931.931	84.62
932.361	105.62
932.791	93.62
933.221	103.62
933.651	89.62
934.08	106.62
934.51	109.62
934.94	109.62
935.37	111.62
935.8	101.62
936.229	115.62
936.659	112.62
937.089	113.62
937.519	112.62
937.948	123.62
938.378	107.62
938.807	123.62
939.237	122.62
939.666	105.62
940.096	89.62
940.525	89.62
940.955	79.62
941.384	90.62
941.814	86.62
942.243	89.62
942.672	104.62
943.102	91.62
943.531	97.62
943.96	92.62
944.39	81.62
944.819	110.62
945.248	101.62
945.677	90.62
946.106	98.62
946.535	89.62
946.964	102.62
947.393	103.62
947.822	111.62
948.251	102.62
948.68	94.62
949.109	95.62
949.538	97.62
949.967	101.62
950.396	94.62
950.825	94.62
951.254	105.62
951.682	93.62
952.111	89.62
952.54	82.62
952.969	93.62
953.397	89.62
953.826	99.62
954.254	91.62
954.683	87.62
955.112	86.62
955.54	80.62
955.969	95.62
956.397	105.62
956.826	115.62
957.254	102.62
957.682	69.62
958.111	91.62
958.539	72.62
958.967	78.62
959.396	74.62
959.824	90.62
960.252	85.62
960.68	81.62
961.109	83.62
961.537	85.62
961.965	87.62
962.393	92.62
962.821	90.62
963.249	91.62
963.677	95.62
964.105	110.62
964.533	146.62
964.961	143.62
965.389	120.62
965.817	120.62
966.245	98.62
966.672	69.62
967.1	90.62
967.528	105.62
967.956	107.62
968.383	91.62
968.811	80.62
969.239	94.62
969.666	91.62
970.094	86.62
970.522	90.62
970.949	97.62
971.377	108.62
971.804	69.62
972.232	80.62
972.659	84.62
973.087	92.62
973.514	83.62
973.941	90.62
974.369	85.62
974.796	90.62
975.223	86.62
975.651	81.62
976.078	101.62
976.505	105.62
976.932	101.62
977.359	102.62
977.786	102.62
978.214	105.62
978.641	95.62
979.068	93.62
979.495	89.62
979.922	78.62
980.349	76.62
980.776	83.62
981.202	81.62
981.629	81.62
982.056	100.62
982.483	85.62
982.91	86.62
983.337	102.62
983.763	100.62
984.19	108.62
984.617	88.62
985.043	104.62
985.47	89.62
985.897	108.62
986.323	101.62
986.75	86.62
987.176	89.62
987.603	93.62
988.029	96.62
988.456	98.62
988.882	85.62
989.308	86.62
989.735	92.62
990.161	105.62
990.587	91.62
991.014	107.62
991.44	83.62
991.866	89.62
992.292	93.62
992.719	91.62
993.145	107.62
993.571	90.62
993.997	80.62
994.423	92.62
994.849	93.62
995.275	66.62
995.701	77.62
996.127	110.62
996.553	77.62
996.979	103.62
997.405	92.62
997.83	93.62
998.256	89.62
998.682	83.62
999.108	89.62
999.534	83.62
999.959	90.62
1000.385	85.62
1000.811	96.62
1001.236	87.62
1001.662	77.62
1002.087	86.62
1002.513	92.62
1002.938	81.62
1003.364	93.62
1003.789	87.62
1004.215	88.62
1004.64	95.62
1005.066	89.62
1005.491	81.62
1005.916	81.62
1006.342	81.62
1006.767	84.62
1007.192	88.62
1007.617	106.62
1008.042	90.62
1008.468	82.62
1008.893	95.62
1009.318	99.62
1009.743	87.62
1010.168	89.62
1010.593	102.62
1011.018	117.62
1011.443	94.62
1011.868	115.62
1012.293	101.62
1012.718	86.62
1013.143	93.62
1013.567	100.62
1013.992	82.62
1014.417	95.62
1014.842	92.62
1015.267	85.62
1015.691	90.62
1016.116	77.62
1016.541	93.62
1016.965	92.62
1017.39	100.62
1017.814	95.62
1018.239	87.62
1018.663	87.62
1019.088	95.62
1019.512	87.62
1019.937	91.62
1020.361	93.62
1020.785	100.62
1021.21	82.62
1021.634	93.62
1022.058	70.62
1022.483	101.62
1022.907	91.62
1023.331	93.62
1023.755	74.62
1024.179	84.62
1024.604	111.62
1025.028	87.62
1025.452	87.62
1025.876	91.62
1026.3	92.62
1026.724	87.62
1027.148	93.62
1027.572	89.62
1027.996	100.62
1028.42	93.62
1028.843	99.62
1029.267	89.62
1029.691	81.62
1030.115	97.62
1030.539	69.62
1030.962	72.62
1031.386	95.62
1031.81	78.62
1032.233	82.62
1032.657	99.62
1033.08	77.62
1033.504	79.62
1033.927	93.62
1034.351	92.62
1034.774	94.62
1035.198	91.62
1035.621	74.62
1036.045	89.62
1036.468	81.62
1036.891	89.62
1037.315	84.62
1037.738	89.62
1038.161	97.62
1038.584	81.62
1039.008	79.62
1039.431	91.62
1039.854	99.62
1040.277	91.62
1040.7	97.62
1041.123	82.62
1041.546	97.62
1041.969	103.62
1042.392	85.62
1042.815	65.62
1043.238	83.62
1043.661	86.62
1044.084	90.62
1044.507	89.62
1044.93	84.62
1045.352	99.62
1045.775	85.62
1046.198	76.62
1046.621	75.62
1047.043	91.62
1047.466	98.62
1047.889	75.62
1048.311	91.62
1048.734	92.62
1049.156	87.62
1049.579	103.62
1050.001	93.62
1050.424	89.62
1050.846	66.62
1051.269	98.62
1051.691	77.62
1052.113	83.62
1052.536	97.62
1052.958	84.62
1053.38	81.62
1053.802	87.62
1054.225	82.62
1054.647	93.62
1055.069	68.62
1055.491	81.62
1055.913	80.62
1056.335	69.62
1056.757	78.62
1057.179	83.62
1057.601	84.62
1058.023	83.62
1058.445	77.62
1058.867	75.62
1059.289	88.62
1059.711	96.62
1060.133	85.62
1060.555	80.62
1060.976	74.62
1061.398	88.62
1061.82	87.62
1062.241	83.62
1062.663	86.62
1063.085	93.62
1063.506	81.62
1063.928	91.62
1064.35	92.62
1064.771	107.62
1065.193	81.62
1065.614	80.62
1066.035	76.62
1066.457	86.62
1066.878	81.62
1067.3	81.62
1067.721	92.62
1068.142	92.62
1068.564	85.62
1068.985	72.62
1069.406	85.62
1069.827	92.62
1070.248	82.62
1070.67	91.62
1071.091	85.62
1071.512	100.62
1071.933	86.62
1072.354	81.62
1072.775	80.62
1073.196	84.62
1073.617	109.62
1074.038	97.62
1074.459	91.62
1074.88	107.62
1075.3	83.62
1075.721	64.62
1076.142	86.62
1076.563	91.62
1076.983	95.62
1077.404	109.62
1077.825	94.62
1078.246	92.62
1078.666	75.62
1079.087	88.62
1079.507	92.62
1079.928	82.62
1080.348	88.62
1080.769	75.62
1081.189	89.62
1081.61	84.62
1082.03	85.62
1082.451	94.62
1082.871	75.62
1083.291	91.62
1083.711	78.62
1084.132	70.62
1084.552	74.62
1084.972	78.62
1085.392	75.62
1085.813	79.62
1086.233	83.62
1086.653	89.62
1087.073	85.62
1087.493	93.62
1087.913	92.62
1088.333	80.62
1088.753	83.62
1089.173	78.62
1089.593	71.62
1090.013	95.62
1090.433	71.62
1090.852	85.62
1091.272	95.62
1091.692	83.62
1092.112	73.62
1092.531	76.62
1092.951	101.62
1093.371	83.62
1093.79	90.62
1094.21	82.62
1094.63	93.62
1095.049	92.62
1095.469	91.62
1095.888	91.62
1096.308	76.62
1096.727	84.62
1097.146	87.62
1097.566	81.62
1097.985	92.62
1098.405	93.62
1098.824	101.62
1099.243	85.62
1099.662	104.62
1100.082	93.62
1100.501	76.62
1100.92	84.62
1101.339	106.62
1101.758	91.62
