Data from 20170802-ORNL-NYSim-Air_HRD10391_10-36-55-624.txt Node
Date: Wed Aug 02 10:36:55 EDT 2017
User: Ender
Spectrometer: HR+D1039
Trigger mode: 0
Integration Time (sec): 1.510000E-3
Scans to average: 1
Electric dark correction enabled: true
Nonlinearity correction enabled: false
Boxcar width: 0
XAxis mode: Wavelengths
Number of Pixels in Spectrum: 2048
>>>>>Begin Spectral Data<<<<<
187.836	-1.88
188.309	-1.88
188.782	-1.88
189.255	-5.88
189.728	-0.88
190.201	0.12
190.674	-7.88
191.147	-15.88
191.619	-0.88
192.092	4.12
192.565	4.12
193.038	-18.88
193.511	5.12
193.984	-1.88
194.456	6.12
194.929	7.12
195.402	6.12
195.874	21.12
196.347	13.12
196.82	31.12
197.292	23.12
197.765	37.12
198.237	38.12
198.71	56.12
199.182	52.12
199.655	34.12
200.127	64.12
200.6	41.12
201.072	52.12
201.544	68.12
202.017	62.12
202.489	75.12
202.961	76.12
203.433	89.12
203.906	79.12
204.378	90.12
204.85	80.12
205.322	88.12
205.794	63.12
206.266	68.12
206.739	79.12
207.211	79.12
207.683	91.12
208.155	82.12
208.627	79.12
209.099	79.12
209.57	102.12
210.042	98.12
210.514	90.12
210.986	85.12
211.458	88.12
211.93	88.12
212.402	89.12
212.873	76.12
213.345	94.12
213.817	83.12
214.288	87.12
214.76	97.12
215.232	97.12
215.703	90.12
216.175	78.12
216.646	84.12
217.118	64.12
217.589	82.12
218.061	71.12
218.532	75.12
219.004	82.12
219.475	66.12
219.946	85.12
220.418	71.12
220.889	79.12
221.36	76.12
221.832	60.12
222.303	88.12
222.774	63.12
223.245	68.12
223.717	85.12
224.188	66.12
224.659	70.12
225.13	84.12
225.601	65.12
226.072	82.12
226.543	83.12
227.014	75.12
227.485	62.12
227.956	74.12
228.427	82.12
228.898	60.12
229.369	80.12
229.839	76.12
230.31	82.12
230.781	84.12
231.252	90.12
231.722	88.12
232.193	68.12
232.664	78.12
233.135	87.12
233.605	92.12
234.076	90.12
234.546	92.12
235.017	75.12
235.487	82.12
235.958	102.12
236.428	102.12
236.899	74.12
237.369	77.12
237.84	82.12
238.31	86.12
238.78	64.12
239.251	70.12
239.721	98.12
240.191	80.12
240.662	89.12
241.132	84.12
241.602	88.12
242.072	90.12
242.542	74.12
243.013	86.12
243.483	90.12
243.953	64.12
244.423	92.12
244.893	75.12
245.363	92.12
245.833	96.12
246.303	89.12
246.773	93.12
247.243	89.12
247.712	85.12
248.182	82.12
248.652	101.12
249.122	91.12
249.592	83.12
250.061	95.12
250.531	86.12
251.001	99.12
251.471	101.12
251.94	96.12
252.41	100.12
252.879	83.12
253.349	84.12
253.818	90.12
254.288	92.12
254.757	96.12
255.227	85.12
255.696	92.12
256.166	93.12
256.635	92.12
257.105	107.12
257.574	96.12
258.043	108.12
258.513	99.12
258.982	84.12
259.451	90.12
259.92	105.12
260.389	105.12
260.859	87.12
261.328	88.12
261.797	102.12
262.266	78.12
262.735	102.12
263.204	107.12
263.673	100.12
264.142	94.12
264.611	80.12
265.08	88.12
265.549	103.12
266.018	104.12
266.487	97.12
266.955	104.12
267.424	113.12
267.893	100.12
268.362	95.12
268.83	82.12
269.299	99.12
269.768	106.12
270.236	103.12
270.705	95.12
271.174	91.12
271.642	85.12
272.111	112.12
272.579	111.12
273.048	110.12
273.516	124.12
273.985	95.12
274.453	90.12
274.922	98.12
275.39	88.12
275.858	92.12
276.327	93.12
276.795	97.12
277.263	110.12
277.731	115.12
278.2	96.12
278.668	86.12
279.136	106.12
279.604	101.12
280.072	103.12
280.54	105.12
281.008	102.12
281.477	111.12
281.945	113.12
282.413	98.12
282.881	132.12
283.348	114.12
283.816	104.12
284.284	112.12
284.752	102.12
285.22	114.12
285.688	100.12
286.156	110.12
286.623	114.12
287.091	119.12
287.559	105.12
288.026	92.12
288.494	111.12
288.962	110.12
289.429	109.12
289.897	112.12
290.364	118.12
290.832	97.12
291.3	118.12
291.767	110.12
292.234	104.12
292.702	129.12
293.169	125.12
293.637	110.12
294.104	112.12
294.571	106.12
295.039	114.12
295.506	113.12
295.973	126.12
296.44	112.12
296.908	114.12
297.375	115.12
297.842	107.12
298.309	122.12
298.776	103.12
299.243	131.12
299.71	111.12
300.177	118.12
300.644	125.12
301.111	126.12
301.578	128.12
302.045	123.12
302.512	132.12
302.979	132.12
303.446	139.12
303.913	128.12
304.379	121.12
304.846	127.12
305.313	153.12
305.78	137.12
306.246	132.12
306.713	133.12
307.18	131.12
307.646	126.12
308.113	136.12
308.579	136.12
309.046	140.12
309.512	123.12
309.979	137.12
310.445	154.12
310.912	142.12
311.378	135.12
311.845	132.12
312.311	120.12
312.777	139.12
313.244	130.12
313.71	136.12
314.176	152.12
314.642	128.12
315.109	141.12
315.575	142.12
316.041	134.12
316.507	128.12
316.973	118.12
317.439	166.12
317.905	155.12
318.371	146.12
318.837	136.12
319.303	139.12
319.769	139.12
320.235	120.12
320.701	154.12
321.167	138.12
321.633	140.12
322.099	148.12
322.564	153.12
323.03	176.12
323.496	156.12
323.962	147.12
324.427	148.12
324.893	148.12
325.359	149.12
325.824	167.12
326.29	149.12
326.755	154.12
327.221	167.12
327.686	160.12
328.152	175.12
328.617	167.12
329.083	145.12
329.548	173.12
330.014	174.12
330.479	177.12
330.944	161.12
331.41	169.12
331.875	172.12
332.34	166.12
332.805	181.12
333.271	171.12
333.736	175.12
334.201	150.12
334.666	168.12
335.131	168.12
335.596	183.12
336.061	186.12
336.526	160.12
336.991	178.12
337.456	191.12
337.921	185.12
338.386	187.12
338.851	188.12
339.316	162.12
339.781	170.12
340.246	183.12
340.711	180.12
341.175	165.12
341.64	179.12
342.105	182.12
342.569	186.12
343.034	202.12
343.499	196.12
343.963	194.12
344.428	185.12
344.893	214.12
345.357	206.12
345.822	200.12
346.286	194.12
346.751	197.12
347.215	219.12
347.679	187.12
348.144	200.12
348.608	212.12
349.073	209.12
349.537	223.12
350.001	220.12
350.465	228.12
350.93	228.12
351.394	223.12
351.858	211.12
352.322	219.12
352.786	240.12
353.25	188.12
353.715	237.12
354.179	227.12
354.643	249.12
355.107	243.12
355.571	240.12
356.035	239.12
356.498	238.12
356.962	250.12
357.426	217.12
357.89	242.12
358.354	228.12
358.818	231.12
359.281	235.12
359.745	239.12
360.209	242.12
360.673	217.12
361.136	240.12
361.6	215.12
362.064	252.12
362.527	209.12
362.991	248.12
363.454	258.12
363.918	235.12
364.381	246.12
364.845	226.12
365.308	259.12
365.772	265.12
366.235	249.12
366.698	262.12
367.162	252.12
367.625	244.12
368.088	244.12
368.552	249.12
369.015	226.12
369.478	243.12
369.941	268.12
370.404	252.12
370.867	279.12
371.331	238.12
371.794	268.12
372.257	260.12
372.72	265.12
373.183	250.12
373.646	272.12
374.109	265.12
374.572	272.12
375.035	300.12
375.497	275.12
375.96	270.12
376.423	264.12
376.886	280.12
377.349	291.12
377.811	268.12
378.274	298.12
378.737	271.12
379.199	275.12
379.662	263.12
380.125	292.12
380.587	288.12
381.05	298.12
381.512	289.12
381.975	299.12
382.437	312.12
382.9	301.12
383.362	322.12
383.825	296.12
384.287	312.12
384.75	278.12
385.212	303.12
385.674	324.12
386.136	309.12
386.599	322.12
387.061	312.12
387.523	344.12
387.985	335.12
388.447	339.12
388.91	328.12
389.372	336.12
389.834	316.12
390.296	322.12
390.758	335.12
391.22	315.12
391.682	328.12
392.144	339.12
392.606	348.12
393.068	339.12
393.529	338.12
393.991	345.12
394.453	339.12
394.915	350.12
395.377	334.12
395.838	348.12
396.3	349.12
396.762	342.12
397.224	350.12
397.685	349.12
398.147	359.12
398.608	335.12
399.07	344.12
399.531	351.12
399.993	358.12
400.454	381.12
400.916	360.12
401.377	356.12
401.839	361.12
402.3	378.12
402.762	378.12
403.223	407.12
403.684	392.12
404.145	377.12
404.607	409.12
405.068	366.12
405.529	378.12
405.99	380.12
406.451	372.12
406.913	413.12
407.374	383.12
407.835	398.12
408.296	391.12
408.757	405.12
409.218	393.12
409.679	402.12
410.14	410.12
410.601	422.12
411.062	425.12
411.522	424.12
411.983	416.12
412.444	408.12
412.905	448.12
413.366	418.12
413.826	472.12
414.287	474.12
414.748	610.12
415.208	612.12
415.669	526.12
416.13	489.12
416.59	460.12
417.051	494.12
417.511	472.12
417.972	512.12
418.432	555.12
418.893	602.12
419.353	579.12
419.814	471.12
420.274	436.12
420.734	417.12
421.195	433.12
421.655	460.12
422.115	421.12
422.576	438.12
423.036	464.12
423.496	462.12
423.956	485.12
424.416	514.12
424.876	536.12
425.336	551.12
425.797	539.12
426.257	538.12
426.717	524.12
427.177	470.12
427.637	506.12
428.097	512.12
428.556	535.12
429.016	577.12
429.476	578.12
429.936	549.12
430.396	556.12
430.856	584.12
431.315	584.12
431.775	638.12
432.235	673.12
432.694	656.12
433.154	622.12
433.614	612.12
434.073	608.12
434.533	578.12
434.993	526.12
435.452	520.12
435.912	523.12
436.371	508.12
436.83	512.12
437.29	535.12
437.749	492.12
438.209	472.12
438.668	482.12
439.127	506.12
439.587	468.12
440.046	507.12
440.505	489.12
440.964	488.12
441.424	502.12
441.883	512.12
442.342	510.12
442.801	487.12
443.26	470.12
443.719	483.12
444.178	475.12
444.637	500.12
445.096	495.12
445.555	499.12
446.014	488.12
446.473	488.12
446.932	489.12
447.391	494.12
447.849	507.12
448.308	474.12
448.767	505.12
449.226	492.12
449.685	519.12
450.143	527.12
450.602	540.12
451.061	506.12
451.519	530.12
451.978	501.12
452.436	473.12
452.895	502.12
453.353	470.12
453.812	510.12
454.27	514.12
454.729	488.12
455.187	534.12
455.646	502.12
456.104	496.12
456.562	510.12
457.021	508.12
457.479	505.12
457.937	506.12
458.395	521.12
458.854	501.12
459.312	505.12
459.77	528.12
460.228	546.12
460.686	521.12
461.144	532.12
461.602	534.12
462.06	502.12
462.518	551.12
462.976	534.12
463.434	544.12
463.892	546.12
464.35	581.12
464.808	552.12
465.266	587.12
465.724	573.12
466.181	592.12
466.639	564.12
467.097	604.12
467.555	624.12
468.012	619.12
468.47	622.12
468.928	634.12
469.385	634.12
469.843	654.12
470.3	656.12
470.758	670.12
471.215	665.12
471.673	712.12
472.13	695.12
472.588	700.12
473.045	730.12
473.503	728.12
473.96	728.12
474.417	733.12
474.875	770.12
475.332	793.12
475.789	811.12
476.246	850.12
476.704	879.12
477.161	908.12
477.618	923.12
478.075	970.12
478.532	1062.12
478.989	1135.12
479.446	1250.12
479.903	1289.12
480.36	1451.12
480.817	1516.12
481.274	1590.12
481.731	1714.12
482.188	1863.12
482.645	1974.12
483.102	2102.12
483.558	2231.12
484.015	2316.12
484.472	2303.12
484.929	2303.12
485.385	2203.12
485.842	2144.12
486.299	2020.12
486.755	1908.12
487.212	1695.12
487.668	1580.12
488.125	1424.12
488.582	1326.12
489.038	1275.12
489.494	1222.12
489.951	1188.12
490.407	1192.12
490.864	1191.12
491.32	1125.12
491.776	1128.12
492.233	1083.12
492.689	1110.12
493.145	1097.12
493.602	1090.12
494.058	1069.12
494.514	1067.12
494.97	1082.12
495.426	1090.12
495.882	1083.12
496.338	1081.12
496.794	1116.12
497.251	1093.12
497.707	1110.12
498.163	1136.12
498.618	1082.12
499.074	1101.12
499.53	1078.12
499.986	1122.12
500.442	1121.12
500.898	1094.12
501.354	1092.12
501.809	1100.12
502.265	1103.12
502.721	1114.12
503.177	1108.12
503.632	1134.12
504.088	1172.12
504.543	1158.12
504.999	1148.12
505.455	1178.12
505.91	1135.12
506.366	1154.12
506.821	1128.12
507.277	1137.12
507.732	1128.12
508.187	1113.12
508.643	1141.12
509.098	1146.12
509.553	1149.12
510.009	1169.12
510.464	1240.12
510.919	1224.12
511.375	1207.12
511.83	1214.12
512.285	1228.12
512.74	1268.12
513.195	1286.12
513.65	1326.12
514.105	1348.12
514.56	1354.12
515.015	1341.12
515.47	1374.12
515.925	1345.12
516.38	1357.12
516.835	1338.12
517.29	1336.12
517.745	1336.12
518.2	1305.12
518.655	1292.12
519.109	1281.12
519.564	1292.12
520.019	1254.12
520.474	1250.12
520.928	1233.12
521.383	1215.12
521.838	1215.12
522.292	1229.12
522.747	1215.12
523.201	1154.12
523.656	1205.12
524.11	1202.12
524.565	1164.12
525.019	1181.12
525.474	1198.12
525.928	1189.12
526.382	1210.12
526.837	1199.12
527.291	1197.12
527.745	1203.12
528.2	1177.12
528.654	1186.12
529.108	1204.12
529.562	1190.12
530.016	1191.12
530.47	1164.12
530.925	1164.12
531.379	1203.12
531.833	1196.12
532.287	1175.12
532.741	1168.12
533.195	1170.12
533.649	1184.12
534.103	1184.12
534.556	1196.12
535.01	1201.12
535.464	1186.12
535.918	1187.12
536.372	1168.12
536.826	1189.12
537.279	1184.12
537.733	1178.12
538.187	1182.12
538.64	1204.12
539.094	1192.12
539.548	1240.12
540.001	1197.12
540.455	1206.12
540.908	1238.12
541.362	1241.12
541.815	1217.12
542.269	1264.12
542.722	1262.12
543.175	1301.12
543.629	1249.12
544.082	1267.12
544.536	1276.12
544.989	1281.12
545.442	1282.12
545.895	1295.12
546.349	1266.12
546.802	1288.12
547.255	1310.12
547.708	1340.12
548.161	1299.12
548.614	1314.12
549.067	1330.12
549.52	1317.12
549.973	1324.12
550.426	1322.12
550.879	1309.12
551.332	1314.12
551.785	1326.12
552.238	1358.12
552.691	1346.12
553.144	1334.12
553.596	1348.12
554.049	1394.12
554.502	1381.12
554.955	1406.12
555.407	1460.12
555.86	1462.12
556.313	1437.12
556.765	1384.12
557.218	1421.12
557.67	1378.12
558.123	1371.12
558.576	1378.12
559.028	1384.12
559.48	1356.12
559.933	1402.12
560.385	1361.12
560.838	1307.12
561.29	1261.12
561.742	1278.12
562.195	1242.12
562.647	1217.12
563.099	1268.12
563.551	1233.12
564.004	1215.12
564.456	1227.12
564.908	1174.12
565.36	1166.12
565.812	1163.12
566.264	1131.12
566.716	1137.12
567.168	1126.12
567.62	1120.12
568.072	1098.12
568.524	1089.12
568.976	1109.12
569.428	1052.12
569.88	1107.12
570.332	1096.12
570.784	1110.12
571.235	1077.12
571.687	1120.12
572.139	1106.12
572.59	1119.12
573.042	1126.12
573.494	1119.12
573.945	1117.12
574.397	1109.12
574.849	1080.12
575.3	1115.12
575.752	1089.12
576.203	1043.12
576.655	1065.12
577.106	1059.12
577.557	1035.12
578.009	1065.12
578.46	1043.12
578.912	1045.12
579.363	1048.12
579.814	1060.12
580.265	1009.12
580.717	1044.12
581.168	1046.12
581.619	1051.12
582.07	1062.12
582.521	1074.12
582.972	1080.12
583.423	1095.12
583.875	1069.12
584.326	1055.12
584.777	1038.12
585.227	1057.12
585.678	1106.12
586.129	1117.12
586.58	1116.12
587.031	1139.12
587.482	1137.12
587.933	1177.12
588.384	1170.12
588.834	1196.12
589.285	1145.12
589.736	1128.12
590.186	1141.12
590.637	1164.12
591.088	1137.12
591.538	1123.12
591.989	1064.12
592.439	1110.12
592.89	1075.12
593.34	1074.12
593.791	1083.12
594.241	1078.12
594.692	1067.12
595.142	1032.12
595.593	1061.12
596.043	1052.12
596.493	1057.12
596.943	1064.12
597.394	1094.12
597.844	1095.12
598.294	1116.12
598.744	1166.12
599.195	1175.12
599.645	1217.12
600.095	1298.12
600.545	1346.12
600.995	1428.12
601.445	1478.12
601.895	1528.12
602.345	1582.12
602.795	1603.12
603.245	1510.12
603.695	1463.12
604.145	1396.12
604.594	1320.12
605.044	1263.12
605.494	1163.12
605.944	1138.12
606.393	1092.12
606.843	1105.12
607.293	1065.12
607.743	1050.12
608.192	1057.12
608.642	1078.12
609.091	1071.12
609.541	1087.12
609.99	1109.12
610.44	1030.12
610.889	1048.12
611.339	1024.12
611.788	1027.12
612.238	1044.12
612.687	1022.12
613.136	1023.12
613.586	1075.12
614.035	1026.12
614.484	1076.12
614.933	1038.12
615.383	1047.12
615.832	1036.12
616.281	1002.12
616.73	983.12
617.179	958.12
617.628	947.12
618.077	928.12
618.526	945.12
618.975	937.12
619.424	898.12
619.873	872.12
620.322	898.12
620.771	882.12
621.22	872.12
621.669	839.12
622.118	863.12
622.567	838.12
623.015	851.12
623.464	825.12
623.913	834.12
624.361	837.12
624.81	824.12
625.259	835.12
625.707	824.12
626.156	792.12
626.604	848.12
627.053	834.12
627.501	840.12
627.95	847.12
628.398	871.12
628.847	848.12
629.295	841.12
629.744	853.12
630.192	810.12
630.64	828.12
631.089	815.12
631.537	800.12
631.985	777.12
632.433	774.12
632.881	776.12
633.33	775.12
633.778	762.12
634.226	765.12
634.674	791.12
635.122	788.12
635.57	804.12
636.018	809.12
636.466	785.12
636.914	837.12
637.362	852.12
637.81	833.12
638.258	826.12
638.705	876.12
639.153	892.12
639.601	912.12
640.049	916.12
640.497	956.12
640.944	937.12
641.392	971.12
641.84	887.12
642.287	887.12
642.735	838.12
643.182	803.12
643.63	825.12
644.078	823.12
644.525	844.12
644.973	861.12
645.42	870.12
645.867	878.12
646.315	893.12
646.762	937.12
647.21	969.12
647.657	1002.12
648.104	1077.12
648.551	1122.12
648.999	1154.12
649.446	1266.12
649.893	1423.12
650.34	1662.12
650.787	1896.12
651.234	2375.12
651.682	3158.12
652.129	4415.12
652.576	6294.12
653.023	8590.12
653.47	10514.12
653.917	11807.12
654.363	12396.12
654.81	13231.12
655.257	13727.12
655.704	10659.12
656.151	6412.12
656.598	4110.12
657.044	2877.12
657.491	2236.12
657.938	1822.12
658.385	1562.12
658.831	1340.12
659.278	1211.12
659.724	1104.12
660.171	1004.12
660.618	977.12
661.064	902.12
661.511	859.12
661.957	859.12
662.404	838.12
662.85	804.12
663.296	816.12
663.743	777.12
664.189	780.12
664.635	782.12
665.082	765.12
665.528	722.12
665.974	725.12
666.42	722.12
666.867	719.12
667.313	705.12
667.759	692.12
668.205	662.12
668.651	658.12
669.097	664.12
669.543	668.12
669.989	656.12
670.435	673.12
670.881	678.12
671.327	708.12
671.773	740.12
672.219	791.12
672.665	847.12
673.11	864.12
673.556	861.12
674.002	874.12
674.448	877.12
674.893	812.12
675.339	720.12
675.785	636.12
676.23	628.12
676.676	591.12
677.122	573.12
677.567	571.12
678.013	561.12
678.458	516.12
678.904	541.12
679.349	542.12
679.794	553.12
680.24	548.12
680.685	504.12
681.131	533.12
681.576	508.12
682.021	528.12
682.466	498.12
682.912	543.12
683.357	552.12
683.802	572.12
684.247	644.12
684.692	676.12
685.137	713.12
685.583	735.12
686.028	722.12
686.473	749.12
686.918	704.12
687.363	628.12
687.807	554.12
688.252	582.12
688.697	506.12
689.142	520.12
689.587	509.12
690.032	498.12
690.477	525.12
690.921	583.12
691.366	571.12
691.811	591.12
692.255	633.12
692.7	711.12
693.145	941.12
693.589	1298.12
694.034	1752.12
694.478	1960.12
694.923	1800.12
695.367	2270.12
695.812	2061.12
696.256	834.12
696.701	604.12
697.145	529.12
697.59	514.12
698.034	515.12
698.478	521.12
698.922	503.12
699.367	522.12
699.811	530.12
700.255	547.12
700.699	591.12
701.143	669.12
701.588	682.12
702.032	708.12
702.476	752.12
702.92	766.12
703.364	831.12
703.808	1223.12
704.252	1668.12
704.696	1856.12
705.14	1729.12
705.584	2225.12
706.027	1808.12
706.471	902.12
706.915	632.12
707.359	532.12
707.803	490.12
708.246	465.12
708.69	465.12
709.134	487.12
709.577	464.12
710.021	468.12
710.465	480.12
710.908	474.12
711.352	479.12
711.795	533.12
712.239	536.12
712.682	579.12
713.126	538.12
713.569	591.12
714.012	578.12
714.456	465.12
714.899	440.12
715.342	421.12
715.786	416.12
716.229	402.12
716.672	424.12
717.115	386.12
717.558	408.12
718.002	406.12
718.445	434.12
718.888	450.12
719.331	459.12
719.774	462.12
720.217	454.12
720.66	415.12
721.103	425.12
721.546	400.12
721.989	408.12
722.432	374.12
722.874	390.12
723.317	381.12
723.76	407.12
724.203	443.12
724.645	559.12
725.088	713.12
725.531	710.12
725.974	714.12
726.416	735.12
726.859	540.12
727.301	406.12
727.744	371.12
728.187	364.12
728.629	380.12
729.071	400.12
729.514	387.12
729.956	439.12
730.399	431.12
730.841	433.12
731.283	426.12
731.726	414.12
732.168	442.12
732.61	446.12
733.053	442.12
733.495	501.12
733.937	556.12
734.379	591.12
734.821	728.12
735.263	970.12
735.705	1628.12
736.148	2650.12
736.59	3119.12
737.032	2938.12
737.474	3128.12
737.916	1561.12
738.357	791.12
738.799	528.12
739.241	460.12
739.683	507.12
740.125	500.12
740.567	481.12
741.008	530.12
741.45	544.12
741.892	536.12
742.334	562.12
742.775	564.12
743.217	574.12
743.658	506.12
744.1	466.12
744.542	522.12
744.983	568.12
745.425	576.12
745.866	620.12
746.307	536.12
746.749	490.12
747.19	595.12
747.632	960.12
748.073	1817.12
748.514	2714.12
748.956	3382.12
749.397	4662.12
749.838	3728.12
750.279	3071.12
750.72	2291.12
751.162	1077.12
751.603	556.12
752.044	447.12
752.485	388.12
752.926	360.12
753.367	352.12
753.808	332.12
754.249	324.12
754.69	340.12
755.131	343.12
755.572	355.12
756.013	333.12
756.453	328.12
756.894	343.12
757.335	336.12
757.776	326.12
758.216	347.12
758.657	326.12
759.098	368.12
759.538	432.12
759.979	490.12
760.42	790.12
760.86	1768.12
761.301	4037.12
761.741	6080.12
762.182	6221.12
762.622	5936.12
763.063	2771.12
763.503	1100.12
763.943	561.12
764.384	450.12
764.824	404.12
765.264	379.12
765.705	364.12
766.145	319.12
766.585	331.12
767.025	299.12
767.465	332.12
767.906	294.12
768.346	345.12
768.786	354.12
769.226	425.12
769.666	670.12
770.106	1380.12
770.546	2434.12
770.986	2577.12
771.426	2586.12
771.866	1442.12
772.306	683.12
772.745	395.12
773.185	327.12
773.625	301.12
774.065	293.12
774.505	350.12
774.944	535.12
775.384	867.12
775.824	947.12
776.263	937.12
776.703	683.12
777.142	391.12
777.582	293.12
778.021	256.12
778.461	264.12
778.9	233.12
779.34	226.12
779.779	244.12
780.219	246.12
780.658	236.12
781.097	232.12
781.537	222.12
781.976	222.12
782.415	224.12
782.855	216.12
783.294	189.12
783.733	204.12
784.172	229.12
784.611	234.12
785.05	236.12
785.489	223.12
785.928	241.12
786.367	242.12
786.806	223.12
787.245	252.12
787.684	248.12
788.123	252.12
788.562	273.12
789.001	256.12
789.44	248.12
789.879	250.12
790.317	248.12
790.756	256.12
791.195	264.12
791.634	297.12
792.072	386.12
792.511	839.12
792.95	1852.12
793.388	2344.12
793.827	2052.12
794.265	1208.12
794.704	603.12
795.142	357.12
795.581	280.12
796.019	282.12
796.458	253.12
796.896	256.12
797.334	276.12
797.773	327.12
798.211	471.12
798.649	903.12
799.087	1484.12
799.526	2209.12
799.964	2535.12
800.402	2204.12
800.84	1286.12
801.278	645.12
801.716	408.12
802.154	299.12
802.592	272.12
803.03	266.12
803.468	265.12
803.906	261.12
804.344	270.12
804.782	285.12
805.22	267.12
805.658	263.12
806.096	298.12
806.533	316.12
806.971	324.12
807.409	447.12
807.847	660.12
808.284	1484.12
808.722	2990.12
809.16	4219.12
809.597	5796.12
810.035	7437.12
810.472	6358.12
810.91	3562.12
811.347	1747.12
811.785	786.12
812.222	494.12
812.66	384.12
813.097	324.12
813.535	279.12
813.972	262.12
814.409	244.12
814.846	250.12
815.284	242.12
815.721	232.12
816.158	230.12
816.595	268.12
817.032	345.12
817.47	345.12
817.907	294.12
818.344	254.12
818.781	257.12
819.218	238.12
819.655	338.12
820.092	418.12
820.529	447.12
820.966	384.12
821.403	316.12
821.839	254.12
822.276	237.12
822.713	283.12
823.15	280.12
823.587	293.12
824.023	350.12
824.46	680.12
824.897	1313.12
825.333	1386.12
825.77	845.12
826.206	481.12
826.643	308.12
827.08	232.12
827.516	199.12
827.953	193.12
828.389	188.12
828.825	172.12
829.262	162.12
829.698	166.12
830.135	152.12
830.571	177.12
831.007	164.12
831.443	161.12
831.88	172.12
832.316	170.12
832.752	183.12
833.188	195.12
833.624	166.12
834.06	173.12
834.497	175.12
834.933	187.12
835.369	187.12
835.805	171.12
836.241	205.12
836.677	196.12
837.112	209.12
837.548	255.12
837.984	280.12
838.42	458.12
838.856	1124.12
839.292	2304.12
839.727	2513.12
840.163	1722.12
840.599	1989.12
841.034	2919.12
841.47	2295.12
841.906	1292.12
842.341	744.12
842.777	468.12
843.212	401.12
843.648	358.12
844.083	274.12
844.519	220.12
844.954	179.12
845.39	189.12
845.825	178.12
846.261	165.12
846.696	182.12
847.131	151.12
847.566	150.12
848.002	166.12
848.437	160.12
848.872	148.12
849.307	185.12
849.742	223.12
850.177	423.12
850.613	896.12
851.048	980.12
851.483	549.12
851.918	381.12
852.353	226.12
852.788	203.12
853.223	150.12
853.657	140.12
854.092	121.12
854.527	162.12
854.962	161.12
855.397	173.12
855.832	164.12
856.266	129.12
856.701	142.12
857.136	139.12
857.57	161.12
858.005	162.12
858.44	170.12
858.874	156.12
859.309	153.12
859.743	165.12
860.178	133.12
860.612	160.12
861.047	167.12
861.481	216.12
861.915	205.12
862.35	185.12
862.784	171.12
863.218	142.12
863.653	160.12
864.087	162.12
864.521	176.12
864.955	200.12
865.39	301.12
865.824	308.12
866.258	296.12
866.692	451.12
867.126	409.12
867.56	303.12
867.994	217.12
868.428	169.12
868.862	151.12
869.296	178.12
869.73	185.12
870.164	200.12
870.598	189.12
871.031	162.12
871.465	147.12
871.899	127.12
872.333	110.12
872.766	106.12
873.2	113.12
873.634	118.12
874.067	124.12
874.501	127.12
874.935	133.12
875.368	120.12
875.802	113.12
876.235	126.12
876.669	124.12
877.102	94.12
877.535	132.12
877.969	127.12
878.402	143.12
878.836	137.12
879.269	122.12
879.702	111.12
880.135	111.12
880.569	111.12
881.002	101.12
881.435	123.12
881.868	120.12
882.301	110.12
882.734	126.12
883.167	117.12
883.601	108.12
884.034	101.12
884.467	102.12
884.899	106.12
885.332	102.12
885.765	108.12
886.198	121.12
886.631	101.12
887.064	124.12
887.497	115.12
887.929	103.12
888.362	108.12
888.795	104.12
889.228	104.12
889.66	98.12
890.093	112.12
890.526	119.12
890.958	106.12
891.391	96.12
891.823	96.12
892.256	111.12
892.688	130.12
893.121	108.12
893.553	106.12
893.985	98.12
894.418	106.12
894.85	125.12
895.282	127.12
895.715	98.12
896.147	106.12
896.579	107.12
897.011	96.12
897.444	94.12
897.876	97.12
898.308	116.12
898.74	107.12
899.172	95.12
899.604	100.12
900.036	92.12
900.468	106.12
900.9	98.12
901.332	104.12
901.764	110.12
902.196	120.12
902.628	116.12
903.06	128.12
903.491	131.12
903.923	148.12
904.355	132.12
904.787	126.12
905.218	107.12
905.65	106.12
906.082	113.12
906.513	126.12
906.945	110.12
907.376	119.12
907.808	112.12
908.239	118.12
908.671	114.12
909.102	129.12
909.534	127.12
909.965	142.12
910.397	237.12
910.828	561.12
911.259	623.12
911.691	398.12
912.122	316.12
912.553	167.12
912.984	124.12
913.415	112.12
913.847	128.12
914.278	127.12
914.709	93.12
915.14	121.12
915.571	107.12
916.002	124.12
916.433	105.12
916.864	92.12
917.295	110.12
917.726	109.12
918.157	109.12
918.587	117.12
919.018	102.12
919.449	123.12
919.88	126.12
920.311	105.12
920.741	183.12
921.172	316.12
921.603	230.12
922.033	208.12
922.464	174.12
922.895	138.12
923.325	104.12
923.756	121.12
924.186	97.12
924.617	114.12
925.047	141.12
925.478	130.12
925.908	130.12
926.338	139.12
926.769	101.12
927.199	100.12
927.629	96.12
928.06	120.12
928.49	110.12
928.92	104.12
929.35	100.12
929.78	88.12
930.21	97.12
930.641	94.12
931.071	91.12
931.501	102.12
931.931	101.12
932.361	87.12
932.791	106.12
933.221	98.12
933.651	104.12
934.08	126.12
934.51	106.12
934.94	103.12
935.37	102.12
935.8	99.12
936.229	97.12
936.659	80.12
937.089	101.12
937.519	110.12
937.948	132.12
938.378	126.12
938.807	107.12
939.237	116.12
939.666	117.12
940.096	90.12
940.525	83.12
940.955	76.12
941.384	94.12
941.814	96.12
942.243	74.12
942.672	88.12
943.102	89.12
943.531	79.12
943.96	83.12
944.39	90.12
944.819	95.12
945.248	98.12
945.677	79.12
946.106	77.12
946.535	91.12
946.964	103.12
947.393	80.12
947.822	109.12
948.251	93.12
948.68	89.12
949.109	93.12
949.538	81.12
949.967	84.12
950.396	90.12
950.825	88.12
951.254	82.12
951.682	88.12
952.111	81.12
952.54	89.12
952.969	105.12
953.397	99.12
953.826	100.12
954.254	82.12
954.683	99.12
955.112	82.12
955.54	87.12
955.969	81.12
956.397	96.12
956.826	93.12
957.254	82.12
957.682	86.12
958.111	92.12
958.539	87.12
958.967	94.12
959.396	84.12
959.824	89.12
960.252	92.12
960.68	82.12
961.109	90.12
961.537	95.12
961.965	89.12
962.393	104.12
962.821	86.12
963.249	72.12
963.677	75.12
964.105	114.12
964.533	157.12
964.961	123.12
965.389	128.12
965.817	99.12
966.245	96.12
966.672	64.12
967.1	90.12
967.528	92.12
967.956	70.12
968.383	100.12
968.811	75.12
969.239	94.12
969.666	85.12
970.094	96.12
970.522	78.12
970.949	77.12
971.377	84.12
971.804	77.12
972.232	90.12
972.659	86.12
973.087	72.12
973.514	93.12
973.941	90.12
974.369	97.12
974.796	90.12
975.223	99.12
975.651	91.12
976.078	85.12
976.505	95.12
976.932	103.12
977.359	95.12
977.786	92.12
978.214	109.12
978.641	95.12
979.068	103.12
979.495	83.12
979.922	73.12
980.349	103.12
980.776	87.12
981.202	102.12
981.629	100.12
982.056	97.12
982.483	85.12
982.91	105.12
983.337	86.12
983.763	79.12
984.19	70.12
984.617	76.12
985.043	79.12
985.47	97.12
985.897	96.12
986.323	71.12
986.75	82.12
987.176	93.12
987.603	86.12
988.029	99.12
988.456	90.12
988.882	99.12
989.308	79.12
989.735	94.12
990.161	92.12
990.587	86.12
991.014	76.12
991.44	82.12
991.866	84.12
992.292	72.12
992.719	86.12
993.145	97.12
993.571	62.12
993.997	83.12
994.423	100.12
994.849	103.12
995.275	78.12
995.701	100.12
996.127	64.12
996.553	86.12
996.979	94.12
997.405	108.12
997.83	98.12
998.256	74.12
998.682	100.12
999.108	78.12
999.534	90.12
999.959	100.12
1000.385	96.12
1000.811	75.12
1001.236	81.12
1001.662	93.12
1002.087	67.12
1002.513	90.12
1002.938	85.12
1003.364	89.12
1003.789	91.12
1004.215	105.12
1004.64	90.12
1005.066	69.12
1005.491	80.12
1005.916	64.12
1006.342	87.12
1006.767	80.12
1007.192	90.12
1007.617	88.12
1008.042	79.12
1008.468	83.12
1008.893	96.12
1009.318	99.12
1009.743	102.12
1010.168	101.12
1010.593	97.12
1011.018	93.12
1011.443	89.12
1011.868	101.12
1012.293	85.12
1012.718	85.12
1013.143	84.12
1013.567	94.12
1013.992	90.12
1014.417	100.12
1014.842	77.12
1015.267	93.12
1015.691	91.12
1016.116	79.12
1016.541	82.12
1016.965	94.12
1017.39	71.12
1017.814	85.12
1018.239	97.12
1018.663	86.12
1019.088	96.12
1019.512	68.12
1019.937	77.12
1020.361	78.12
1020.785	77.12
1021.21	80.12
1021.634	81.12
1022.058	95.12
1022.483	71.12
1022.907	76.12
1023.331	91.12
1023.755	97.12
1024.179	86.12
1024.604	80.12
1025.028	85.12
1025.452	103.12
1025.876	87.12
1026.3	85.12
1026.724	91.12
1027.148	98.12
1027.572	76.12
1027.996	84.12
1028.42	99.12
1028.843	81.12
1029.267	75.12
1029.691	84.12
1030.115	65.12
1030.539	80.12
1030.962	88.12
1031.386	72.12
1031.81	86.12
1032.233	82.12
1032.657	88.12
1033.08	83.12
1033.504	98.12
1033.927	78.12
1034.351	75.12
1034.774	80.12
1035.198	60.12
1035.621	85.12
1036.045	84.12
1036.468	79.12
1036.891	100.12
1037.315	64.12
1037.738	84.12
1038.161	68.12
1038.584	79.12
1039.008	85.12
1039.431	92.12
1039.854	87.12
1040.277	84.12
1040.7	77.12
1041.123	86.12
1041.546	81.12
1041.969	73.12
1042.392	79.12
1042.815	82.12
1043.238	94.12
1043.661	95.12
1044.084	81.12
1044.507	103.12
1044.93	83.12
1045.352	90.12
1045.775	73.12
1046.198	81.12
1046.621	75.12
1047.043	84.12
1047.466	95.12
1047.889	62.12
1048.311	87.12
1048.734	86.12
1049.156	76.12
1049.579	71.12
1050.001	82.12
1050.424	79.12
1050.846	91.12
1051.269	68.12
1051.691	68.12
1052.113	88.12
1052.536	87.12
1052.958	83.12
1053.38	87.12
1053.802	100.12
1054.225	85.12
1054.647	62.12
1055.069	76.12
1055.491	88.12
1055.913	86.12
1056.335	85.12
1056.757	71.12
1057.179	86.12
1057.601	89.12
1058.023	96.12
1058.445	94.12
1058.867	94.12
1059.289	84.12
1059.711	70.12
1060.133	76.12
1060.555	58.12
1060.976	79.12
1061.398	89.12
1061.82	95.12
1062.241	65.12
1062.663	78.12
1063.085	94.12
1063.506	83.12
1063.928	78.12
1064.35	85.12
1064.771	92.12
1065.193	75.12
1065.614	104.12
1066.035	72.12
1066.457	86.12
1066.878	69.12
1067.3	85.12
1067.721	98.12
1068.142	96.12
1068.564	85.12
1068.985	78.12
1069.406	86.12
1069.827	73.12
1070.248	82.12
1070.67	85.12
1071.091	70.12
1071.512	87.12
1071.933	81.12
1072.354	95.12
1072.775	90.12
1073.196	80.12
1073.617	79.12
1074.038	82.12
1074.459	90.12
1074.88	73.12
1075.3	91.12
1075.721	83.12
1076.142	88.12
1076.563	86.12
1076.983	73.12
1077.404	74.12
1077.825	82.12
1078.246	76.12
1078.666	76.12
1079.087	77.12
1079.507	79.12
1079.928	95.12
1080.348	79.12
1080.769	78.12
1081.189	85.12
1081.61	73.12
1082.03	74.12
1082.451	70.12
1082.871	91.12
1083.291	75.12
1083.711	78.12
1084.132	90.12
1084.552	84.12
1084.972	93.12
1085.392	77.12
1085.813	84.12
1086.233	82.12
1086.653	88.12
1087.073	82.12
1087.493	86.12
1087.913	90.12
1088.333	78.12
1088.753	84.12
1089.173	90.12
1089.593	65.12
1090.013	83.12
1090.433	96.12
1090.852	97.12
1091.272	90.12
1091.692	83.12
1092.112	94.12
1092.531	88.12
1092.951	93.12
1093.371	74.12
1093.79	92.12
1094.21	84.12
1094.63	77.12
1095.049	85.12
1095.469	76.12
1095.888	73.12
1096.308	88.12
1096.727	90.12
1097.146	86.12
1097.566	75.12
1097.985	76.12
1098.405	85.12
1098.824	80.12
1099.243	80.12
1099.662	90.12
1100.082	81.12
1100.501	86.12
1100.92	89.12
1101.339	81.12
1101.758	79.12
