Data from 20170802-ORNL-NYSim-Air_HRD10391_10-36-56-624.txt Node
Date: Wed Aug 02 10:36:56 EDT 2017
User: Ender
Spectrometer: HR+D1039
Trigger mode: 0
Integration Time (sec): 1.510000E-3
Scans to average: 1
Electric dark correction enabled: true
Nonlinearity correction enabled: false
Boxcar width: 0
XAxis mode: Wavelengths
Number of Pixels in Spectrum: 2048
>>>>>Begin Spectral Data<<<<<
187.836	8.31
188.309	8.31
188.782	8.31
189.255	9.31
189.728	-14.69
190.201	-12.69
190.674	-7.69
191.147	-13.69
191.619	-8.69
192.092	-10.69
192.565	-4.69
193.038	-12.69
193.511	2.31
193.984	8.31
194.456	7.31
194.929	8.31
195.402	14.31
195.874	27.31
196.347	23.31
196.82	25.31
197.292	29.31
197.765	29.31
198.237	40.31
198.71	41.31
199.182	27.31
199.655	49.31
200.127	61.31
200.6	49.31
201.072	55.31
201.544	54.31
202.017	59.31
202.489	69.31
202.961	58.31
203.433	80.31
203.906	73.31
204.378	71.31
204.85	66.31
205.322	80.31
205.794	92.31
206.266	72.31
206.739	86.31
207.211	85.31
207.683	93.31
208.155	83.31
208.627	93.31
209.099	93.31
209.57	88.31
210.042	81.31
210.514	77.31
210.986	84.31
211.458	81.31
211.93	86.31
212.402	96.31
212.873	86.31
213.345	91.31
213.817	66.31
214.288	77.31
214.76	75.31
215.232	93.31
215.703	93.31
216.175	90.31
216.646	95.31
217.118	83.31
217.589	95.31
218.061	67.31
218.532	88.31
219.004	78.31
219.475	76.31
219.946	87.31
220.418	77.31
220.889	57.31
221.36	77.31
221.832	73.31
222.303	89.31
222.774	92.31
223.245	84.31
223.717	87.31
224.188	85.31
224.659	68.31
225.13	61.31
225.601	77.31
226.072	71.31
226.543	74.31
227.014	85.31
227.485	74.31
227.956	64.31
228.427	91.31
228.898	85.31
229.369	82.31
229.839	80.31
230.31	98.31
230.781	84.31
231.252	98.31
231.722	94.31
232.193	87.31
232.664	86.31
233.135	82.31
233.605	82.31
234.076	75.31
234.546	91.31
235.017	74.31
235.487	85.31
235.958	85.31
236.428	80.31
236.899	72.31
237.369	73.31
237.84	72.31
238.31	78.31
238.78	89.31
239.251	74.31
239.721	89.31
240.191	93.31
240.662	88.31
241.132	71.31
241.602	90.31
242.072	84.31
242.542	92.31
243.013	88.31
243.483	89.31
243.953	86.31
244.423	84.31
244.893	89.31
245.363	77.31
245.833	91.31
246.303	95.31
246.773	89.31
247.243	82.31
247.712	98.31
248.182	80.31
248.652	89.31
249.122	88.31
249.592	100.31
250.061	105.31
250.531	97.31
251.001	106.31
251.471	84.31
251.94	97.31
252.41	94.31
252.879	91.31
253.349	74.31
253.818	86.31
254.288	80.31
254.757	99.31
255.227	97.31
255.696	85.31
256.166	101.31
256.635	95.31
257.105	82.31
257.574	102.31
258.043	94.31
258.513	82.31
258.982	105.31
259.451	105.31
259.92	105.31
260.389	101.31
260.859	101.31
261.328	99.31
261.797	103.31
262.266	102.31
262.735	95.31
263.204	103.31
263.673	92.31
264.142	95.31
264.611	79.31
265.08	103.31
265.549	99.31
266.018	103.31
266.487	96.31
266.955	106.31
267.424	110.31
267.893	116.31
268.362	105.31
268.83	97.31
269.299	100.31
269.768	104.31
270.236	123.31
270.705	111.31
271.174	104.31
271.642	107.31
272.111	88.31
272.579	101.31
273.048	102.31
273.516	113.31
273.985	97.31
274.453	98.31
274.922	122.31
275.39	93.31
275.858	125.31
276.327	107.31
276.795	117.31
277.263	100.31
277.731	86.31
278.2	100.31
278.668	101.31
279.136	103.31
279.604	106.31
280.072	128.31
280.54	107.31
281.008	109.31
281.477	103.31
281.945	107.31
282.413	110.31
282.881	105.31
283.348	107.31
283.816	111.31
284.284	102.31
284.752	130.31
285.22	108.31
285.688	116.31
286.156	121.31
286.623	108.31
287.091	126.31
287.559	105.31
288.026	117.31
288.494	117.31
288.962	119.31
289.429	121.31
289.897	124.31
290.364	121.31
290.832	112.31
291.3	104.31
291.767	123.31
292.234	124.31
292.702	114.31
293.169	124.31
293.637	135.31
294.104	108.31
294.571	115.31
295.039	123.31
295.506	124.31
295.973	129.31
296.44	113.31
296.908	116.31
297.375	125.31
297.842	112.31
298.309	124.31
298.776	127.31
299.243	137.31
299.71	143.31
300.177	125.31
300.644	128.31
301.111	127.31
301.578	129.31
302.045	129.31
302.512	134.31
302.979	123.31
303.446	131.31
303.913	131.31
304.379	141.31
304.846	133.31
305.313	129.31
305.78	125.31
306.246	136.31
306.713	149.31
307.18	137.31
307.646	134.31
308.113	130.31
308.579	141.31
309.046	149.31
309.512	106.31
309.979	131.31
310.445	123.31
310.912	138.31
311.378	143.31
311.845	148.31
312.311	142.31
312.777	141.31
313.244	148.31
313.71	144.31
314.176	146.31
314.642	127.31
315.109	156.31
315.575	159.31
316.041	141.31
316.507	150.31
316.973	144.31
317.439	137.31
317.905	139.31
318.371	156.31
318.837	157.31
319.303	156.31
319.769	145.31
320.235	165.31
320.701	154.31
321.167	153.31
321.633	168.31
322.099	168.31
322.564	172.31
323.03	163.31
323.496	150.31
323.962	160.31
324.427	160.31
324.893	167.31
325.359	167.31
325.824	157.31
326.29	173.31
326.755	158.31
327.221	154.31
327.686	174.31
328.152	172.31
328.617	153.31
329.083	165.31
329.548	172.31
330.014	159.31
330.479	175.31
330.944	172.31
331.41	162.31
331.875	156.31
332.34	181.31
332.805	181.31
333.271	166.31
333.736	193.31
334.201	180.31
334.666	200.31
335.131	169.31
335.596	195.31
336.061	199.31
336.526	179.31
336.991	190.31
337.456	198.31
337.921	177.31
338.386	162.31
338.851	190.31
339.316	173.31
339.781	206.31
340.246	194.31
340.711	204.31
341.175	176.31
341.64	174.31
342.105	173.31
342.569	179.31
343.034	194.31
343.499	189.31
343.963	167.31
344.428	185.31
344.893	200.31
345.357	208.31
345.822	198.31
346.286	236.31
346.751	205.31
347.215	223.31
347.679	206.31
348.144	230.31
348.608	229.31
349.073	222.31
349.537	233.31
350.001	224.31
350.465	214.31
350.93	203.31
351.394	203.31
351.858	240.31
352.322	223.31
352.786	235.31
353.25	244.31
353.715	239.31
354.179	241.31
354.643	237.31
355.107	241.31
355.571	251.31
356.035	256.31
356.498	251.31
356.962	214.31
357.426	239.31
357.89	254.31
358.354	232.31
358.818	252.31
359.281	233.31
359.745	239.31
360.209	227.31
360.673	256.31
361.136	224.31
361.6	231.31
362.064	233.31
362.527	231.31
362.991	245.31
363.454	262.31
363.918	243.31
364.381	261.31
364.845	247.31
365.308	243.31
365.772	262.31
366.235	265.31
366.698	256.31
367.162	263.31
367.625	263.31
368.088	258.31
368.552	262.31
369.015	243.31
369.478	273.31
369.941	274.31
370.404	282.31
370.867	278.31
371.331	267.31
371.794	257.31
372.257	282.31
372.72	290.31
373.183	284.31
373.646	264.31
374.109	287.31
374.572	281.31
375.035	293.31
375.497	252.31
375.96	291.31
376.423	301.31
376.886	280.31
377.349	288.31
377.811	294.31
378.274	282.31
378.737	278.31
379.199	310.31
379.662	308.31
380.125	316.31
380.587	309.31
381.05	314.31
381.512	306.31
381.975	289.31
382.437	305.31
382.9	323.31
383.362	326.31
383.825	317.31
384.287	333.31
384.75	316.31
385.212	306.31
385.674	327.31
386.136	317.31
386.599	326.31
387.061	339.31
387.523	333.31
387.985	341.31
388.447	335.31
388.91	350.31
389.372	328.31
389.834	358.31
390.296	337.31
390.758	339.31
391.22	329.31
391.682	343.31
392.144	343.31
392.606	344.31
393.068	347.31
393.529	360.31
393.991	371.31
394.453	330.31
394.915	347.31
395.377	344.31
395.838	352.31
396.3	344.31
396.762	347.31
397.224	362.31
397.685	338.31
398.147	370.31
398.608	357.31
399.07	347.31
399.531	360.31
399.993	369.31
400.454	379.31
400.916	374.31
401.377	361.31
401.839	355.31
402.3	383.31
402.762	396.31
403.223	399.31
403.684	417.31
404.145	392.31
404.607	403.31
405.068	377.31
405.529	364.31
405.99	386.31
406.451	404.31
406.913	398.31
407.374	393.31
407.835	393.31
408.296	405.31
408.757	397.31
409.218	421.31
409.679	399.31
410.14	411.31
410.601	425.31
411.062	464.31
411.522	441.31
411.983	446.31
412.444	424.31
412.905	443.31
413.366	459.31
413.826	468.31
414.287	519.31
414.748	597.31
415.208	641.31
415.669	513.31
416.13	474.31
416.59	497.31
417.051	495.31
417.511	509.31
417.972	518.31
418.432	581.31
418.893	635.31
419.353	612.31
419.814	490.31
420.274	452.31
420.734	444.31
421.195	456.31
421.655	445.31
422.115	455.31
422.576	475.31
423.036	441.31
423.496	483.31
423.956	491.31
424.416	530.31
424.876	582.31
425.336	567.31
425.797	567.31
426.257	565.31
426.717	546.31
427.177	504.31
427.637	522.31
428.097	533.31
428.556	509.31
429.016	570.31
429.476	583.31
429.936	581.31
430.396	591.31
430.856	598.31
431.315	601.31
431.775	621.31
432.235	677.31
432.694	679.31
433.154	677.31
433.614	660.31
434.073	631.31
434.533	569.31
434.993	542.31
435.452	540.31
435.912	523.31
436.371	554.31
436.83	555.31
437.29	551.31
437.749	521.31
438.209	514.31
438.668	518.31
439.127	525.31
439.587	519.31
440.046	525.31
440.505	513.31
440.964	515.31
441.424	543.31
441.883	561.31
442.342	514.31
442.801	492.31
443.26	478.31
443.719	516.31
444.178	513.31
444.637	495.31
445.096	481.31
445.555	511.31
446.014	512.31
446.473	525.31
446.932	479.31
447.391	500.31
447.849	554.31
448.308	502.31
448.767	509.31
449.226	527.31
449.685	522.31
450.143	523.31
450.602	538.31
451.061	527.31
451.519	529.31
451.978	518.31
452.436	514.31
452.895	524.31
453.353	517.31
453.812	495.31
454.27	513.31
454.729	510.31
455.187	511.31
455.646	552.31
456.104	506.31
456.562	533.31
457.021	536.31
457.479	518.31
457.937	529.31
458.395	546.31
458.854	537.31
459.312	550.31
459.77	559.31
460.228	554.31
460.686	547.31
461.144	543.31
461.602	523.31
462.06	545.31
462.518	547.31
462.976	552.31
463.434	561.31
463.892	584.31
464.35	581.31
464.808	589.31
465.266	578.31
465.724	602.31
466.181	598.31
466.639	594.31
467.097	614.31
467.555	654.31
468.012	650.31
468.47	619.31
468.928	636.31
469.385	661.31
469.843	687.31
470.3	660.31
470.758	669.31
471.215	684.31
471.673	723.31
472.13	716.31
472.588	769.31
473.045	762.31
473.503	751.31
473.96	778.31
474.417	816.31
474.875	855.31
475.332	875.31
475.789	857.31
476.246	898.31
476.704	913.31
477.161	936.31
477.618	964.31
478.075	1009.31
478.532	1079.31
478.989	1177.31
479.446	1274.31
479.903	1302.31
480.36	1503.31
480.817	1493.31
481.274	1650.31
481.731	1798.31
482.188	1924.31
482.645	2072.31
483.102	2151.31
483.558	2312.31
484.015	2432.31
484.472	2384.31
484.929	2375.31
485.385	2245.31
485.842	2219.31
486.299	2129.31
486.755	1991.31
487.212	1797.31
487.668	1605.31
488.125	1511.31
488.582	1355.31
489.038	1317.31
489.494	1295.31
489.951	1245.31
490.407	1205.31
490.864	1208.31
491.32	1141.31
491.776	1158.31
492.233	1165.31
492.689	1155.31
493.145	1137.31
493.602	1115.31
494.058	1147.31
494.514	1111.31
494.97	1108.31
495.426	1152.31
495.882	1170.31
496.338	1137.31
496.794	1144.31
497.251	1125.31
497.707	1147.31
498.163	1165.31
498.618	1138.31
499.074	1175.31
499.53	1159.31
499.986	1175.31
500.442	1163.31
500.898	1146.31
501.354	1130.31
501.809	1145.31
502.265	1192.31
502.721	1165.31
503.177	1163.31
503.632	1137.31
504.088	1178.31
504.543	1193.31
504.999	1199.31
505.455	1203.31
505.91	1142.31
506.366	1167.31
506.821	1201.31
507.277	1140.31
507.732	1199.31
508.187	1187.31
508.643	1198.31
509.098	1169.31
509.553	1179.31
510.009	1240.31
510.464	1223.31
510.919	1259.31
511.375	1249.31
511.83	1256.31
512.285	1271.31
512.74	1285.31
513.195	1359.31
513.65	1365.31
514.105	1371.31
514.56	1369.31
515.015	1359.31
515.47	1375.31
515.925	1342.31
516.38	1376.31
516.835	1392.31
517.29	1381.31
517.745	1347.31
518.2	1369.31
518.655	1330.31
519.109	1317.31
519.564	1311.31
520.019	1294.31
520.474	1275.31
520.928	1270.31
521.383	1279.31
521.838	1295.31
522.292	1306.31
522.747	1249.31
523.201	1251.31
523.656	1220.31
524.11	1193.31
524.565	1240.31
525.019	1235.31
525.474	1249.31
525.928	1244.31
526.382	1248.31
526.837	1191.31
527.291	1256.31
527.745	1226.31
528.2	1218.31
528.654	1233.31
529.108	1243.31
529.562	1258.31
530.016	1188.31
530.47	1243.31
530.925	1211.31
531.379	1231.31
531.833	1244.31
532.287	1232.31
532.741	1205.31
533.195	1220.31
533.649	1202.31
534.103	1216.31
534.556	1230.31
535.01	1221.31
535.464	1220.31
535.918	1181.31
536.372	1217.31
536.826	1198.31
537.279	1247.31
537.733	1201.31
538.187	1246.31
538.64	1207.31
539.094	1218.31
539.548	1244.31
540.001	1215.31
540.455	1215.31
540.908	1248.31
541.362	1266.31
541.815	1261.31
542.269	1287.31
542.722	1290.31
543.175	1312.31
543.629	1327.31
544.082	1294.31
544.536	1346.31
544.989	1363.31
545.442	1338.31
545.895	1350.31
546.349	1346.31
546.802	1358.31
547.255	1346.31
547.708	1349.31
548.161	1367.31
548.614	1384.31
549.067	1362.31
549.52	1335.31
549.973	1327.31
550.426	1348.31
550.879	1373.31
551.332	1383.31
551.785	1323.31
552.238	1359.31
552.691	1372.31
553.144	1366.31
553.596	1432.31
554.049	1433.31
554.502	1431.31
554.955	1490.31
555.407	1489.31
555.86	1459.31
556.313	1471.31
556.765	1449.31
557.218	1439.31
557.67	1442.31
558.123	1402.31
558.576	1401.31
559.028	1448.31
559.48	1460.31
559.933	1389.31
560.385	1369.31
560.838	1349.31
561.29	1342.31
561.742	1287.31
562.195	1291.31
562.647	1251.31
563.099	1273.31
563.551	1265.31
564.004	1283.31
564.456	1270.31
564.908	1237.31
565.36	1199.31
565.812	1167.31
566.264	1160.31
566.716	1156.31
567.168	1123.31
567.62	1165.31
568.072	1145.31
568.524	1137.31
568.976	1100.31
569.428	1155.31
569.88	1109.31
570.332	1134.31
570.784	1132.31
571.235	1135.31
571.687	1120.31
572.139	1126.31
572.59	1145.31
573.042	1142.31
573.494	1127.31
573.945	1153.31
574.397	1133.31
574.849	1145.31
575.3	1135.31
575.752	1115.31
576.203	1081.31
576.655	1093.31
577.106	1078.31
577.557	1083.31
578.009	1076.31
578.46	1074.31
578.912	1077.31
579.363	1096.31
579.814	1075.31
580.265	1046.31
580.717	1062.31
581.168	1073.31
581.619	1068.31
582.07	1082.31
582.521	1079.31
582.972	1068.31
583.423	1072.31
583.875	1093.31
584.326	1093.31
584.777	1109.31
585.227	1116.31
585.678	1117.31
586.129	1160.31
586.58	1151.31
587.031	1171.31
587.482	1175.31
587.933	1194.31
588.384	1183.31
588.834	1171.31
589.285	1151.31
589.736	1187.31
590.186	1194.31
590.637	1192.31
591.088	1185.31
591.538	1176.31
591.989	1130.31
592.439	1090.31
592.89	1135.31
593.34	1099.31
593.791	1091.31
594.241	1084.31
594.692	1098.31
595.142	1111.31
595.593	1095.31
596.043	1073.31
596.493	1077.31
596.943	1082.31
597.394	1147.31
597.844	1127.31
598.294	1117.31
598.744	1189.31
599.195	1215.31
599.645	1271.31
600.095	1301.31
600.545	1387.31
600.995	1420.31
601.445	1482.31
601.895	1556.31
602.345	1612.31
602.795	1630.31
603.245	1576.31
603.695	1526.31
604.145	1430.31
604.594	1341.31
605.044	1325.31
605.494	1214.31
605.944	1157.31
606.393	1123.31
606.843	1117.31
607.293	1090.31
607.743	1126.31
608.192	1089.31
608.642	1087.31
609.091	1134.31
609.541	1073.31
609.99	1126.31
610.44	1118.31
610.889	1062.31
611.339	1082.31
611.788	1054.31
612.238	1056.31
612.687	1087.31
613.136	1071.31
613.586	1088.31
614.035	1077.31
614.484	1093.31
614.933	1058.31
615.383	1069.31
615.832	1029.31
616.281	1059.31
616.73	1015.31
617.179	965.31
617.628	960.31
618.077	932.31
618.526	953.31
618.975	927.31
619.424	938.31
619.873	889.31
620.322	896.31
620.771	928.31
621.22	868.31
621.669	913.31
622.118	907.31
622.567	890.31
623.015	873.31
623.464	870.31
623.913	840.31
624.361	823.31
624.81	883.31
625.259	835.31
625.707	844.31
626.156	836.31
626.604	870.31
627.053	883.31
627.501	851.31
627.95	871.31
628.398	866.31
628.847	832.31
629.295	877.31
629.744	865.31
630.192	839.31
630.64	849.31
631.089	835.31
631.537	822.31
631.985	792.31
632.433	828.31
632.881	783.31
633.33	831.31
633.778	795.31
634.226	797.31
634.674	803.31
635.122	799.31
635.57	797.31
636.018	841.31
636.466	811.31
636.914	829.31
637.362	841.31
637.81	831.31
638.258	868.31
638.705	885.31
639.153	893.31
639.601	905.31
640.049	935.31
640.497	940.31
640.944	964.31
641.392	944.31
641.84	883.31
642.287	883.31
642.735	858.31
643.182	833.31
643.63	869.31
644.078	889.31
644.525	884.31
644.973	909.31
645.42	903.31
645.867	917.31
646.315	987.31
646.762	932.31
647.21	1007.31
647.657	1065.31
648.104	1082.31
648.551	1112.31
648.999	1173.31
649.446	1305.31
649.893	1427.31
650.34	1629.31
650.787	1954.31
651.234	2427.31
651.682	3251.31
652.129	4481.31
652.576	6525.31
653.023	8792.31
653.47	10901.31
653.917	12166.31
654.363	12897.31
654.81	13543.31
655.257	14092.31
655.704	10875.31
656.151	6583.31
656.598	4175.31
657.044	2981.31
657.491	2271.31
657.938	1859.31
658.385	1561.31
658.831	1391.31
659.278	1255.31
659.724	1113.31
660.171	1054.31
660.618	1001.31
661.064	943.31
661.511	912.31
661.957	850.31
662.404	851.31
662.85	817.31
663.296	817.31
663.743	819.31
664.189	809.31
664.635	797.31
665.082	753.31
665.528	764.31
665.974	732.31
666.42	765.31
666.867	732.31
667.313	703.31
667.759	707.31
668.205	655.31
668.651	661.31
669.097	693.31
669.543	681.31
669.989	681.31
670.435	684.31
670.881	704.31
671.327	708.31
671.773	720.31
672.219	806.31
672.665	853.31
673.11	863.31
673.556	890.31
674.002	896.31
674.448	903.31
674.893	815.31
675.339	713.31
675.785	661.31
676.23	622.31
676.676	588.31
677.122	611.31
677.567	574.31
678.013	578.31
678.458	575.31
678.904	560.31
679.349	549.31
679.794	547.31
680.24	533.31
680.685	563.31
681.131	537.31
681.576	544.31
682.021	546.31
682.466	544.31
682.912	569.31
683.357	588.31
683.802	598.31
684.247	669.31
684.692	686.31
685.137	731.31
685.583	738.31
686.028	767.31
686.473	756.31
686.918	663.31
687.363	638.31
687.807	592.31
688.252	564.31
688.697	539.31
689.142	528.31
689.587	511.31
690.032	551.31
690.477	545.31
690.921	580.31
691.366	593.31
691.811	636.31
692.255	625.31
692.7	723.31
693.145	915.31
693.589	1370.31
694.034	1772.31
694.478	2048.31
694.923	1879.31
695.367	2304.31
695.812	2120.31
696.256	907.31
696.701	598.31
697.145	566.31
697.59	511.31
698.034	512.31
698.478	520.31
698.922	514.31
699.367	542.31
699.811	555.31
700.255	548.31
700.699	608.31
701.143	681.31
701.588	701.31
702.032	679.31
702.476	757.31
702.92	764.31
703.364	878.31
703.808	1273.31
704.252	1765.31
704.696	1883.31
705.14	1767.31
705.584	2227.31
706.027	1855.31
706.471	908.31
706.915	607.31
707.359	565.31
707.803	524.31
708.246	487.31
708.69	493.31
709.134	492.31
709.577	463.31
710.021	467.31
710.465	498.31
710.908	461.31
711.352	495.31
711.795	553.31
712.239	542.31
712.682	584.31
713.126	567.31
713.569	619.31
714.012	583.31
714.456	514.31
714.899	489.31
715.342	441.31
715.786	441.31
716.229	412.31
716.672	427.31
717.115	416.31
717.558	431.31
718.002	411.31
718.445	443.31
718.888	442.31
719.331	445.31
719.774	473.31
720.217	463.31
720.66	451.31
721.103	427.31
721.546	402.31
721.989	399.31
722.432	411.31
722.874	361.31
723.317	365.31
723.76	396.31
724.203	461.31
724.645	589.31
725.088	714.31
725.531	757.31
725.974	747.31
726.416	810.31
726.859	529.31
727.301	407.31
727.744	388.31
728.187	377.31
728.629	393.31
729.071	433.31
729.514	430.31
729.956	441.31
730.399	459.31
730.841	438.31
731.283	432.31
731.726	432.31
732.168	457.31
732.61	453.31
733.053	464.31
733.495	511.31
733.937	544.31
734.379	613.31
734.821	705.31
735.263	988.31
735.705	1661.31
736.148	2693.31
736.59	3149.31
737.032	2935.31
737.474	3281.31
737.916	1625.31
738.357	804.31
738.799	536.31
739.241	472.31
739.683	471.31
740.125	515.31
740.567	535.31
741.008	516.31
741.45	562.31
741.892	558.31
742.334	591.31
742.775	589.31
743.217	584.31
743.658	518.31
744.1	462.31
744.542	535.31
744.983	590.31
745.425	596.31
745.866	621.31
746.307	551.31
746.749	500.31
747.19	605.31
747.632	979.31
748.073	1836.31
748.514	2759.31
748.956	3489.31
749.397	4745.31
749.838	3840.31
750.279	3096.31
750.72	2335.31
751.162	1068.31
751.603	619.31
752.044	462.31
752.485	393.31
752.926	395.31
753.367	376.31
753.808	338.31
754.249	343.31
754.69	335.31
755.131	341.31
755.572	336.31
756.013	348.31
756.453	333.31
756.894	309.31
757.335	346.31
757.776	347.31
758.216	332.31
758.657	359.31
759.098	379.31
759.538	432.31
759.979	523.31
760.42	807.31
760.86	1759.31
761.301	4165.31
761.741	6203.31
762.182	6435.31
762.622	6051.31
763.063	2801.31
763.503	1123.31
763.943	587.31
764.384	457.31
764.824	423.31
765.264	383.31
765.705	348.31
766.145	332.31
766.585	323.31
767.025	305.31
767.465	311.31
767.906	305.31
768.346	347.31
768.786	360.31
769.226	433.31
769.666	720.31
770.106	1435.31
770.546	2482.31
770.986	2671.31
771.426	2666.31
771.866	1497.31
772.306	693.31
772.745	399.31
773.185	345.31
773.625	330.31
774.065	325.31
774.505	367.31
774.944	545.31
775.384	879.31
775.824	1044.31
776.263	984.31
776.703	725.31
777.142	394.31
777.582	307.31
778.021	300.31
778.461	269.31
778.9	261.31
779.34	256.31
779.779	244.31
780.219	268.31
780.658	238.31
781.097	252.31
781.537	244.31
781.976	213.31
782.415	225.31
782.855	239.31
783.294	250.31
783.733	227.31
784.172	239.31
784.611	240.31
785.05	226.31
785.489	233.31
785.928	242.31
786.367	250.31
786.806	216.31
787.245	244.31
787.684	297.31
788.123	261.31
788.562	270.31
789.001	260.31
789.44	262.31
789.879	246.31
790.317	251.31
790.756	260.31
791.195	283.31
791.634	318.31
792.072	444.31
792.511	880.31
792.95	1907.31
793.388	2342.31
793.827	2089.31
794.265	1254.31
794.704	635.31
795.142	353.31
795.581	315.31
796.019	249.31
796.458	254.31
796.896	263.31
797.334	272.31
797.773	339.31
798.211	502.31
798.649	944.31
799.087	1540.31
799.526	2339.31
799.964	2613.31
800.402	2175.31
800.84	1293.31
801.278	705.31
801.716	394.31
802.154	279.31
802.592	287.31
803.03	289.31
803.468	296.31
803.906	296.31
804.344	302.31
804.782	293.31
805.22	277.31
805.658	274.31
806.096	293.31
806.533	311.31
806.971	328.31
807.409	452.31
807.847	703.31
808.284	1561.31
808.722	3034.31
809.16	4286.31
809.597	5900.31
810.035	7706.31
810.472	6481.31
810.91	3601.31
811.347	1707.31
811.785	815.31
812.222	495.31
812.66	398.31
813.097	325.31
813.535	315.31
813.972	271.31
814.409	253.31
814.846	249.31
815.284	226.31
815.721	227.31
816.158	223.31
816.595	289.31
817.032	361.31
817.47	370.31
817.907	297.31
818.344	277.31
818.781	259.31
819.218	269.31
819.655	351.31
820.092	434.31
820.529	450.31
820.966	401.31
821.403	334.31
821.839	271.31
822.276	250.31
822.713	292.31
823.15	299.31
823.587	305.31
824.023	363.31
824.46	733.31
824.897	1368.31
825.333	1432.31
825.77	880.31
826.206	513.31
826.643	314.31
827.08	241.31
827.516	227.31
827.953	223.31
828.389	205.31
828.825	196.31
829.262	180.31
829.698	177.31
830.135	172.31
830.571	174.31
831.007	175.31
831.443	167.31
831.88	187.31
832.316	185.31
832.752	175.31
833.188	167.31
833.624	176.31
834.06	181.31
834.497	179.31
834.933	192.31
835.369	162.31
835.805	185.31
836.241	168.31
836.677	194.31
837.112	243.31
837.548	259.31
837.984	289.31
838.42	485.31
838.856	1157.31
839.292	2364.31
839.727	2583.31
840.163	1771.31
840.599	2011.31
841.034	2955.31
841.47	2371.31
841.906	1339.31
842.341	758.31
842.777	485.31
843.212	452.31
843.648	377.31
844.083	261.31
844.519	219.31
844.954	183.31
845.39	172.31
845.825	173.31
846.261	155.31
846.696	169.31
847.131	150.31
847.566	155.31
848.002	159.31
848.437	183.31
848.872	165.31
849.307	199.31
849.742	211.31
850.177	412.31
850.613	900.31
851.048	991.31
851.483	599.31
851.918	397.31
852.353	237.31
852.788	190.31
853.223	156.31
853.657	165.31
854.092	153.31
854.527	165.31
854.962	149.31
855.397	158.31
855.832	170.31
856.266	165.31
856.701	146.31
857.136	141.31
857.57	161.31
858.005	196.31
858.44	181.31
858.874	161.31
859.309	171.31
859.743	161.31
860.178	135.31
860.612	161.31
861.047	175.31
861.481	199.31
861.915	200.31
862.35	176.31
862.784	157.31
863.218	134.31
863.653	145.31
864.087	148.31
864.521	163.31
864.955	209.31
865.39	312.31
865.824	297.31
866.258	311.31
866.692	449.31
867.126	435.31
867.56	309.31
867.994	229.31
868.428	177.31
868.862	177.31
869.296	174.31
869.73	187.31
870.164	187.31
870.598	184.31
871.031	143.31
871.465	155.31
871.899	140.31
872.333	117.31
872.766	136.31
873.2	123.31
873.634	129.31
874.067	134.31
874.501	111.31
874.935	143.31
875.368	137.31
875.802	129.31
876.235	131.31
876.669	140.31
877.102	111.31
877.535	137.31
877.969	119.31
878.402	122.31
878.836	123.31
879.269	127.31
879.702	120.31
880.135	103.31
880.569	107.31
881.002	114.31
881.435	125.31
881.868	103.31
882.301	111.31
882.734	105.31
883.167	121.31
883.601	122.31
884.034	115.31
884.467	121.31
884.899	123.31
885.332	94.31
885.765	109.31
886.198	111.31
886.631	115.31
887.064	121.31
887.497	114.31
887.929	105.31
888.362	109.31
888.795	104.31
889.228	109.31
889.66	108.31
890.093	108.31
890.526	121.31
890.958	107.31
891.391	110.31
891.823	111.31
892.256	111.31
892.688	112.31
893.121	125.31
893.553	116.31
893.985	113.31
894.418	109.31
894.85	105.31
895.282	119.31
895.715	109.31
896.147	112.31
896.579	128.31
897.011	127.31
897.444	125.31
897.876	98.31
898.308	124.31
898.74	123.31
899.172	103.31
899.604	106.31
900.036	118.31
900.468	117.31
900.9	111.31
901.332	114.31
901.764	128.31
902.196	122.31
902.628	117.31
903.06	129.31
903.491	138.31
903.923	140.31
904.355	130.31
904.787	147.31
905.218	133.31
905.65	129.31
906.082	129.31
906.513	108.31
906.945	117.31
907.376	120.31
907.808	103.31
908.239	120.31
908.671	122.31
909.102	114.31
909.534	120.31
909.965	157.31
910.397	265.31
910.828	598.31
911.259	619.31
911.691	426.31
912.122	308.31
912.553	198.31
912.984	150.31
913.415	131.31
913.847	124.31
914.278	106.31
914.709	101.31
915.14	121.31
915.571	107.31
916.002	104.31
916.433	113.31
916.864	111.31
917.295	92.31
917.726	113.31
918.157	113.31
918.587	116.31
919.018	142.31
919.449	101.31
919.88	107.31
920.311	135.31
920.741	167.31
921.172	323.31
921.603	273.31
922.033	223.31
922.464	157.31
922.895	122.31
923.325	109.31
923.756	103.31
924.186	95.31
924.617	111.31
925.047	144.31
925.478	137.31
925.908	107.31
926.338	112.31
926.769	102.31
927.199	108.31
927.629	108.31
928.06	102.31
928.49	118.31
928.92	106.31
929.35	99.31
929.78	103.31
930.21	78.31
930.641	88.31
931.071	87.31
931.501	95.31
931.931	108.31
932.361	92.31
932.791	90.31
933.221	95.31
933.651	111.31
934.08	111.31
934.51	107.31
934.94	97.31
935.37	105.31
935.8	97.31
936.229	98.31
936.659	106.31
937.089	99.31
937.519	101.31
937.948	117.31
938.378	118.31
938.807	128.31
939.237	111.31
939.666	84.31
940.096	85.31
940.525	92.31
940.955	87.31
941.384	76.31
941.814	111.31
942.243	90.31
942.672	93.31
943.102	114.31
943.531	89.31
943.96	86.31
944.39	94.31
944.819	111.31
945.248	82.31
945.677	95.31
946.106	93.31
946.535	85.31
946.964	99.31
947.393	90.31
947.822	83.31
948.251	86.31
948.68	87.31
949.109	91.31
949.538	97.31
949.967	88.31
950.396	90.31
950.825	75.31
951.254	96.31
951.682	95.31
952.111	93.31
952.54	84.31
952.969	110.31
953.397	100.31
953.826	91.31
954.254	89.31
954.683	81.31
955.112	89.31
955.54	95.31
955.969	91.31
956.397	103.31
956.826	91.31
957.254	97.31
957.682	108.31
958.111	97.31
958.539	97.31
958.967	90.31
959.396	101.31
959.824	75.31
960.252	82.31
960.68	74.31
961.109	95.31
961.537	87.31
961.965	89.31
962.393	88.31
962.821	86.31
963.249	110.31
963.677	104.31
964.105	113.31
964.533	145.31
964.961	131.31
965.389	121.31
965.817	121.31
966.245	106.31
966.672	85.31
967.1	77.31
967.528	99.31
967.956	108.31
968.383	90.31
968.811	89.31
969.239	92.31
969.666	78.31
970.094	93.31
970.522	93.31
970.949	87.31
971.377	98.31
971.804	79.31
972.232	81.31
972.659	93.31
973.087	99.31
973.514	91.31
973.941	78.31
974.369	93.31
974.796	84.31
975.223	92.31
975.651	86.31
976.078	96.31
976.505	86.31
976.932	78.31
977.359	119.31
977.786	99.31
978.214	109.31
978.641	82.31
979.068	106.31
979.495	68.31
979.922	91.31
980.349	85.31
980.776	79.31
981.202	90.31
981.629	79.31
982.056	88.31
982.483	94.31
982.91	86.31
983.337	94.31
983.763	98.31
984.19	88.31
984.617	79.31
985.043	98.31
985.47	86.31
985.897	91.31
986.323	99.31
986.75	107.31
987.176	92.31
987.603	76.31
988.029	89.31
988.456	85.31
988.882	80.31
989.308	74.31
989.735	77.31
990.161	84.31
990.587	90.31
991.014	89.31
991.44	79.31
991.866	105.31
992.292	83.31
992.719	73.31
993.145	71.31
993.571	78.31
993.997	82.31
994.423	87.31
994.849	89.31
995.275	91.31
995.701	82.31
996.127	99.31
996.553	93.31
996.979	99.31
997.405	75.31
997.83	100.31
998.256	81.31
998.682	86.31
999.108	87.31
999.534	99.31
999.959	102.31
1000.385	64.31
1000.811	91.31
1001.236	90.31
1001.662	86.31
1002.087	75.31
1002.513	96.31
1002.938	91.31
1003.364	88.31
1003.789	97.31
1004.215	71.31
1004.64	94.31
1005.066	85.31
1005.491	98.31
1005.916	87.31
1006.342	74.31
1006.767	69.31
1007.192	77.31
1007.617	103.31
1008.042	87.31
1008.468	77.31
1008.893	87.31
1009.318	93.31
1009.743	85.31
1010.168	91.31
1010.593	101.31
1011.018	93.31
1011.443	102.31
1011.868	90.31
1012.293	88.31
1012.718	85.31
1013.143	98.31
1013.567	88.31
1013.992	83.31
1014.417	93.31
1014.842	91.31
1015.267	92.31
1015.691	77.31
1016.116	92.31
1016.541	105.31
1016.965	105.31
1017.39	88.31
1017.814	84.31
1018.239	92.31
1018.663	87.31
1019.088	83.31
1019.512	76.31
1019.937	107.31
1020.361	83.31
1020.785	100.31
1021.21	89.31
1021.634	88.31
1022.058	75.31
1022.483	75.31
1022.907	91.31
1023.331	82.31
1023.755	77.31
1024.179	82.31
1024.604	79.31
1025.028	100.31
1025.452	79.31
1025.876	91.31
1026.3	88.31
1026.724	83.31
1027.148	81.31
1027.572	98.31
1027.996	89.31
1028.42	91.31
1028.843	106.31
1029.267	86.31
1029.691	91.31
1030.115	85.31
1030.539	75.31
1030.962	80.31
1031.386	62.31
1031.81	91.31
1032.233	77.31
1032.657	81.31
1033.08	99.31
1033.504	74.31
1033.927	93.31
1034.351	79.31
1034.774	74.31
1035.198	81.31
1035.621	93.31
1036.045	87.31
1036.468	92.31
1036.891	78.31
1037.315	76.31
1037.738	81.31
1038.161	74.31
1038.584	81.31
1039.008	86.31
1039.431	91.31
1039.854	77.31
1040.277	87.31
1040.7	74.31
1041.123	78.31
1041.546	79.31
1041.969	68.31
1042.392	85.31
1042.815	69.31
1043.238	72.31
1043.661	66.31
1044.084	95.31
1044.507	95.31
1044.93	89.31
1045.352	92.31
1045.775	93.31
1046.198	91.31
1046.621	79.31
1047.043	86.31
1047.466	88.31
1047.889	56.31
1048.311	83.31
1048.734	82.31
1049.156	92.31
1049.579	94.31
1050.001	95.31
1050.424	90.31
1050.846	70.31
1051.269	97.31
1051.691	96.31
1052.113	93.31
1052.536	75.31
1052.958	77.31
1053.38	80.31
1053.802	87.31
1054.225	81.31
1054.647	77.31
1055.069	82.31
1055.491	78.31
1055.913	86.31
1056.335	87.31
1056.757	89.31
1057.179	75.31
1057.601	90.31
1058.023	80.31
1058.445	95.31
1058.867	84.31
1059.289	94.31
1059.711	93.31
1060.133	63.31
1060.555	79.31
1060.976	89.31
1061.398	77.31
1061.82	86.31
1062.241	99.31
1062.663	87.31
1063.085	72.31
1063.506	79.31
1063.928	92.31
1064.35	59.31
1064.771	81.31
1065.193	85.31
1065.614	93.31
1066.035	85.31
1066.457	73.31
1066.878	81.31
1067.3	74.31
1067.721	89.31
1068.142	87.31
1068.564	89.31
1068.985	89.31
1069.406	76.31
1069.827	90.31
1070.248	80.31
1070.67	71.31
1071.091	76.31
1071.512	77.31
1071.933	84.31
1072.354	97.31
1072.775	71.31
1073.196	86.31
1073.617	97.31
1074.038	74.31
1074.459	76.31
1074.88	82.31
1075.3	76.31
1075.721	93.31
1076.142	88.31
1076.563	97.31
1076.983	88.31
1077.404	84.31
1077.825	76.31
1078.246	89.31
1078.666	77.31
1079.087	77.31
1079.507	73.31
1079.928	66.31
1080.348	86.31
1080.769	76.31
1081.189	75.31
1081.61	69.31
1082.03	75.31
1082.451	89.31
1082.871	93.31
1083.291	89.31
1083.711	91.31
1084.132	102.31
1084.552	83.31
1084.972	89.31
1085.392	77.31
1085.813	81.31
1086.233	83.31
1086.653	87.31
1087.073	91.31
1087.493	79.31
1087.913	77.31
1088.333	74.31
1088.753	81.31
1089.173	90.31
1089.593	78.31
1090.013	87.31
1090.433	68.31
1090.852	85.31
1091.272	81.31
1091.692	87.31
1092.112	87.31
1092.531	69.31
1092.951	81.31
1093.371	82.31
1093.79	80.31
1094.21	71.31
1094.63	81.31
1095.049	73.31
1095.469	68.31
1095.888	83.31
1096.308	90.31
1096.727	87.31
1097.146	70.31
1097.566	75.31
1097.985	96.31
1098.405	80.31
1098.824	67.31
1099.243	92.31
1099.662	87.31
1100.082	93.31
1100.501	86.31
1100.92	81.31
1101.339	87.31
1101.758	95.31
