Data from 20170802-ORNL-NYSim-Air_HRD10391_10-37-14-632.txt Node
Date: Wed Aug 02 10:37:14 EDT 2017
User: Ender
Spectrometer: HR+D1039
Trigger mode: 0
Integration Time (sec): 1.510000E-3
Scans to average: 1
Electric dark correction enabled: true
Nonlinearity correction enabled: false
Boxcar width: 0
XAxis mode: Wavelengths
Number of Pixels in Spectrum: 2048
>>>>>Begin Spectral Data<<<<<
187.836	11.5
188.309	11.5
188.782	11.5
189.255	-4.5
189.728	4.5
190.201	-14.5
190.674	-10.5
191.147	-16.5
191.619	-6.5
192.092	-7.5
192.565	17.5
193.038	-2.5
193.511	-16.5
193.984	5.5
194.456	1.5
194.929	17.5
195.402	10.5
195.874	10.5
196.347	17.5
196.82	12.5
197.292	24.5
197.765	34.5
198.237	44.5
198.71	37.5
199.182	52.5
199.655	52.5
200.127	56.5
200.6	53.5
201.072	60.5
201.544	52.5
202.017	64.5
202.489	59.5
202.961	46.5
203.433	77.5
203.906	80.5
204.378	80.5
204.85	71.5
205.322	66.5
205.794	77.5
206.266	76.5
206.739	88.5
207.211	73.5
207.683	88.5
208.155	85.5
208.627	101.5
209.099	100.5
209.57	78.5
210.042	88.5
210.514	96.5
210.986	82.5
211.458	90.5
211.93	93.5
212.402	77.5
212.873	86.5
213.345	85.5
213.817	70.5
214.288	73.5
214.76	74.5
215.232	89.5
215.703	87.5
216.175	76.5
216.646	80.5
217.118	78.5
217.589	92.5
218.061	77.5
218.532	90.5
219.004	92.5
219.475	78.5
219.946	72.5
220.418	72.5
220.889	83.5
221.36	72.5
221.832	84.5
222.303	83.5
222.774	80.5
223.245	83.5
223.717	66.5
224.188	94.5
224.659	67.5
225.13	73.5
225.601	82.5
226.072	60.5
226.543	66.5
227.014	84.5
227.485	89.5
227.956	82.5
228.427	78.5
228.898	81.5
229.369	72.5
229.839	81.5
230.31	86.5
230.781	70.5
231.252	73.5
231.722	88.5
232.193	88.5
232.664	78.5
233.135	101.5
233.605	86.5
234.076	84.5
234.546	85.5
235.017	90.5
235.487	72.5
235.958	78.5
236.428	84.5
236.899	86.5
237.369	89.5
237.84	84.5
238.31	89.5
238.78	90.5
239.251	87.5
239.721	68.5
240.191	88.5
240.662	80.5
241.132	102.5
241.602	88.5
242.072	70.5
242.542	86.5
243.013	96.5
243.483	91.5
243.953	98.5
244.423	77.5
244.893	85.5
245.363	88.5
245.833	93.5
246.303	88.5
246.773	100.5
247.243	95.5
247.712	85.5
248.182	96.5
248.652	79.5
249.122	70.5
249.592	60.5
250.061	82.5
250.531	96.5
251.001	80.5
251.471	83.5
251.94	100.5
252.41	97.5
252.879	78.5
253.349	109.5
253.818	97.5
254.288	90.5
254.757	90.5
255.227	77.5
255.696	80.5
256.166	105.5
256.635	92.5
257.105	84.5
257.574	87.5
258.043	89.5
258.513	78.5
258.982	80.5
259.451	104.5
259.92	92.5
260.389	89.5
260.859	84.5
261.328	97.5
261.797	103.5
262.266	93.5
262.735	95.5
263.204	90.5
263.673	86.5
264.142	87.5
264.611	98.5
265.08	96.5
265.549	92.5
266.018	94.5
266.487	90.5
266.955	90.5
267.424	111.5
267.893	91.5
268.362	108.5
268.83	105.5
269.299	81.5
269.768	102.5
270.236	107.5
270.705	92.5
271.174	111.5
271.642	97.5
272.111	93.5
272.579	96.5
273.048	107.5
273.516	109.5
273.985	82.5
274.453	96.5
274.922	91.5
275.39	94.5
275.858	120.5
276.327	103.5
276.795	108.5
277.263	88.5
277.731	125.5
278.2	101.5
278.668	106.5
279.136	106.5
279.604	84.5
280.072	109.5
280.54	101.5
281.008	105.5
281.477	105.5
281.945	110.5
282.413	104.5
282.881	78.5
283.348	106.5
283.816	98.5
284.284	113.5
284.752	104.5
285.22	109.5
285.688	112.5
286.156	92.5
286.623	91.5
287.091	113.5
287.559	99.5
288.026	113.5
288.494	122.5
288.962	116.5
289.429	112.5
289.897	117.5
290.364	119.5
290.832	129.5
291.3	127.5
291.767	124.5
292.234	111.5
292.702	127.5
293.169	116.5
293.637	110.5
294.104	110.5
294.571	113.5
295.039	110.5
295.506	114.5
295.973	126.5
296.44	112.5
296.908	117.5
297.375	111.5
297.842	120.5
298.309	124.5
298.776	116.5
299.243	121.5
299.71	104.5
300.177	114.5
300.644	124.5
301.111	112.5
301.578	125.5
302.045	125.5
302.512	117.5
302.979	135.5
303.446	113.5
303.913	128.5
304.379	116.5
304.846	113.5
305.313	118.5
305.78	132.5
306.246	137.5
306.713	137.5
307.18	127.5
307.646	121.5
308.113	137.5
308.579	143.5
309.046	142.5
309.512	123.5
309.979	139.5
310.445	137.5
310.912	130.5
311.378	143.5
311.845	138.5
312.311	142.5
312.777	137.5
313.244	162.5
313.71	133.5
314.176	137.5
314.642	143.5
315.109	137.5
315.575	146.5
316.041	156.5
316.507	155.5
316.973	147.5
317.439	145.5
317.905	158.5
318.371	168.5
318.837	164.5
319.303	158.5
319.769	156.5
320.235	152.5
320.701	160.5
321.167	145.5
321.633	188.5
322.099	155.5
322.564	160.5
323.03	155.5
323.496	165.5
323.962	174.5
324.427	139.5
324.893	153.5
325.359	140.5
325.824	161.5
326.29	156.5
326.755	142.5
327.221	137.5
327.686	145.5
328.152	175.5
328.617	169.5
329.083	166.5
329.548	156.5
330.014	169.5
330.479	173.5
330.944	160.5
331.41	169.5
331.875	174.5
332.34	166.5
332.805	175.5
333.271	161.5
333.736	150.5
334.201	156.5
334.666	182.5
335.131	177.5
335.596	167.5
336.061	171.5
336.526	181.5
336.991	173.5
337.456	164.5
337.921	161.5
338.386	168.5
338.851	180.5
339.316	166.5
339.781	143.5
340.246	162.5
340.711	171.5
341.175	157.5
341.64	174.5
342.105	201.5
342.569	158.5
343.034	194.5
343.499	190.5
343.963	188.5
344.428	182.5
344.893	179.5
345.357	196.5
345.822	186.5
346.286	218.5
346.751	198.5
347.215	194.5
347.679	201.5
348.144	208.5
348.608	216.5
349.073	199.5
349.537	210.5
350.001	202.5
350.465	221.5
350.93	228.5
351.394	212.5
351.858	226.5
352.322	212.5
352.786	211.5
353.25	206.5
353.715	214.5
354.179	234.5
354.643	217.5
355.107	236.5
355.571	246.5
356.035	228.5
356.498	208.5
356.962	223.5
357.426	242.5
357.89	228.5
358.354	223.5
358.818	223.5
359.281	230.5
359.745	226.5
360.209	212.5
360.673	217.5
361.136	232.5
361.6	238.5
362.064	222.5
362.527	231.5
362.991	238.5
363.454	235.5
363.918	249.5
364.381	240.5
364.845	236.5
365.308	250.5
365.772	255.5
366.235	241.5
366.698	239.5
367.162	257.5
367.625	258.5
368.088	264.5
368.552	258.5
369.015	231.5
369.478	246.5
369.941	249.5
370.404	253.5
370.867	262.5
371.331	252.5
371.794	266.5
372.257	262.5
372.72	256.5
373.183	260.5
373.646	273.5
374.109	262.5
374.572	256.5
375.035	263.5
375.497	269.5
375.96	270.5
376.423	259.5
376.886	280.5
377.349	287.5
377.811	261.5
378.274	288.5
378.737	261.5
379.199	282.5
379.662	297.5
380.125	272.5
380.587	266.5
381.05	281.5
381.512	285.5
381.975	282.5
382.437	292.5
382.9	304.5
383.362	297.5
383.825	312.5
384.287	318.5
384.75	295.5
385.212	294.5
385.674	305.5
386.136	313.5
386.599	280.5
387.061	331.5
387.523	314.5
387.985	310.5
388.447	316.5
388.91	319.5
389.372	315.5
389.834	317.5
390.296	330.5
390.758	333.5
391.22	317.5
391.682	307.5
392.144	330.5
392.606	323.5
393.068	337.5
393.529	340.5
393.991	332.5
394.453	337.5
394.915	334.5
395.377	327.5
395.838	305.5
396.3	326.5
396.762	321.5
397.224	311.5
397.685	359.5
398.147	328.5
398.608	324.5
399.07	325.5
399.531	311.5
399.993	349.5
400.454	364.5
400.916	362.5
401.377	363.5
401.839	348.5
402.3	344.5
402.762	369.5
403.223	390.5
403.684	392.5
404.145	377.5
404.607	378.5
405.068	369.5
405.529	375.5
405.99	402.5
406.451	387.5
406.913	389.5
407.374	364.5
407.835	399.5
408.296	377.5
408.757	368.5
409.218	408.5
409.679	412.5
410.14	401.5
410.601	408.5
411.062	416.5
411.522	415.5
411.983	404.5
412.444	409.5
412.905	439.5
413.366	481.5
413.826	458.5
414.287	502.5
414.748	565.5
415.208	587.5
415.669	506.5
416.13	474.5
416.59	435.5
417.051	467.5
417.511	487.5
417.972	521.5
418.432	559.5
418.893	589.5
419.353	570.5
419.814	470.5
420.274	428.5
420.734	438.5
421.195	418.5
421.655	422.5
422.115	428.5
422.576	432.5
423.036	441.5
423.496	454.5
423.956	494.5
424.416	499.5
424.876	532.5
425.336	538.5
425.797	545.5
426.257	524.5
426.717	494.5
427.177	482.5
427.637	456.5
428.097	477.5
428.556	554.5
429.016	550.5
429.476	552.5
429.936	534.5
430.396	538.5
430.856	578.5
431.315	542.5
431.775	572.5
432.235	630.5
432.694	600.5
433.154	593.5
433.614	594.5
434.073	602.5
434.533	557.5
434.993	517.5
435.452	528.5
435.912	524.5
436.371	503.5
436.83	504.5
437.29	488.5
437.749	488.5
438.209	487.5
438.668	475.5
439.127	474.5
439.587	495.5
440.046	476.5
440.505	498.5
440.964	492.5
441.424	501.5
441.883	528.5
442.342	466.5
442.801	478.5
443.26	476.5
443.719	449.5
444.178	458.5
444.637	481.5
445.096	461.5
445.555	474.5
446.014	500.5
446.473	479.5
446.932	488.5
447.391	514.5
447.849	500.5
448.308	492.5
448.767	490.5
449.226	491.5
449.685	470.5
450.143	533.5
450.602	493.5
451.061	468.5
451.519	509.5
451.978	484.5
452.436	480.5
452.895	474.5
453.353	486.5
453.812	463.5
454.27	488.5
454.729	490.5
455.187	497.5
455.646	478.5
456.104	492.5
456.562	482.5
457.021	474.5
457.479	497.5
457.937	503.5
458.395	527.5
458.854	493.5
459.312	494.5
459.77	504.5
460.228	501.5
460.686	508.5
461.144	518.5
461.602	507.5
462.06	515.5
462.518	516.5
462.976	523.5
463.434	523.5
463.892	534.5
464.35	515.5
464.808	540.5
465.266	550.5
465.724	581.5
466.181	582.5
466.639	559.5
467.097	591.5
467.555	582.5
468.012	574.5
468.47	613.5
468.928	612.5
469.385	624.5
469.843	653.5
470.3	660.5
470.758	642.5
471.215	648.5
471.673	655.5
472.13	694.5
472.588	706.5
473.045	672.5
473.503	701.5
473.96	752.5
474.417	750.5
474.875	760.5
475.332	806.5
475.789	801.5
476.246	814.5
476.704	848.5
477.161	884.5
477.618	931.5
478.075	931.5
478.532	986.5
478.989	1080.5
479.446	1181.5
479.903	1221.5
480.36	1312.5
480.817	1380.5
481.274	1492.5
481.731	1607.5
482.188	1737.5
482.645	1835.5
483.102	1943.5
483.558	2037.5
484.015	2188.5
484.472	2127.5
484.929	2053.5
485.385	2053.5
485.842	1985.5
486.299	1876.5
486.755	1783.5
487.212	1606.5
487.668	1477.5
488.125	1353.5
488.582	1284.5
489.038	1240.5
489.494	1215.5
489.951	1176.5
490.407	1132.5
490.864	1112.5
491.32	1087.5
491.776	1061.5
492.233	1053.5
492.689	1054.5
493.145	1033.5
493.602	1034.5
494.058	1047.5
494.514	1054.5
494.97	1068.5
495.426	1071.5
495.882	1046.5
496.338	1090.5
496.794	1041.5
497.251	1040.5
497.707	1056.5
498.163	1062.5
498.618	1078.5
499.074	1119.5
499.53	1112.5
499.986	1078.5
500.442	1084.5
500.898	1044.5
501.354	1090.5
501.809	1077.5
502.265	1060.5
502.721	1100.5
503.177	1077.5
503.632	1076.5
504.088	1056.5
504.543	1083.5
504.999	1096.5
505.455	1114.5
505.91	1117.5
506.366	1128.5
506.821	1104.5
507.277	1089.5
507.732	1066.5
508.187	1111.5
508.643	1115.5
509.098	1094.5
509.553	1138.5
510.009	1106.5
510.464	1147.5
510.919	1151.5
511.375	1208.5
511.83	1188.5
512.285	1164.5
512.74	1214.5
513.195	1264.5
513.65	1294.5
514.105	1259.5
514.56	1267.5
515.015	1298.5
515.47	1335.5
515.925	1330.5
516.38	1288.5
516.835	1291.5
517.29	1289.5
517.745	1278.5
518.2	1314.5
518.655	1278.5
519.109	1236.5
519.564	1241.5
520.019	1247.5
520.474	1208.5
520.928	1197.5
521.383	1184.5
521.838	1187.5
522.292	1194.5
522.747	1187.5
523.201	1156.5
523.656	1192.5
524.11	1132.5
524.565	1148.5
525.019	1144.5
525.474	1179.5
525.928	1166.5
526.382	1170.5
526.837	1140.5
527.291	1179.5
527.745	1156.5
528.2	1160.5
528.654	1157.5
529.108	1124.5
529.562	1148.5
530.016	1166.5
530.47	1164.5
530.925	1130.5
531.379	1139.5
531.833	1182.5
532.287	1181.5
532.741	1175.5
533.195	1147.5
533.649	1164.5
534.103	1165.5
534.556	1158.5
535.01	1179.5
535.464	1105.5
535.918	1130.5
536.372	1174.5
536.826	1179.5
537.279	1141.5
537.733	1191.5
538.187	1132.5
538.64	1158.5
539.094	1142.5
539.548	1173.5
540.001	1158.5
540.455	1154.5
540.908	1173.5
541.362	1170.5
541.815	1194.5
542.269	1202.5
542.722	1221.5
543.175	1236.5
543.629	1256.5
544.082	1300.5
544.536	1248.5
544.989	1257.5
545.442	1312.5
545.895	1274.5
546.349	1284.5
546.802	1254.5
547.255	1292.5
547.708	1266.5
548.161	1279.5
548.614	1343.5
549.067	1298.5
549.52	1299.5
549.973	1282.5
550.426	1291.5
550.879	1267.5
551.332	1248.5
551.785	1297.5
552.238	1246.5
552.691	1267.5
553.144	1314.5
553.596	1352.5
554.049	1375.5
554.502	1367.5
554.955	1396.5
555.407	1427.5
555.86	1356.5
556.313	1382.5
556.765	1366.5
557.218	1340.5
557.67	1328.5
558.123	1338.5
558.576	1349.5
559.028	1306.5
559.48	1326.5
559.933	1327.5
560.385	1328.5
560.838	1275.5
561.29	1277.5
561.742	1214.5
562.195	1197.5
562.647	1214.5
563.099	1214.5
563.551	1197.5
564.004	1176.5
564.456	1174.5
564.908	1163.5
565.36	1150.5
565.812	1118.5
566.264	1106.5
566.716	1100.5
567.168	1069.5
567.62	1083.5
568.072	1080.5
568.524	1039.5
568.976	1047.5
569.428	1088.5
569.88	1078.5
570.332	1072.5
570.784	1103.5
571.235	1056.5
571.687	1049.5
572.139	1081.5
572.59	1087.5
573.042	1101.5
573.494	1108.5
573.945	1076.5
574.397	1024.5
574.849	1039.5
575.3	1088.5
575.752	1027.5
576.203	1019.5
576.655	1062.5
577.106	1024.5
577.557	1042.5
578.009	1037.5
578.46	996.5
578.912	994.5
579.363	1014.5
579.814	986.5
580.265	1027.5
580.717	1019.5
581.168	998.5
581.619	1004.5
582.07	996.5
582.521	1042.5
582.972	1034.5
583.423	1014.5
583.875	1014.5
584.326	1030.5
584.777	1033.5
585.227	1034.5
585.678	1053.5
586.129	1073.5
586.58	1095.5
587.031	1095.5
587.482	1142.5
587.933	1135.5
588.384	1118.5
588.834	1134.5
589.285	1113.5
589.736	1128.5
590.186	1110.5
590.637	1106.5
591.088	1100.5
591.538	1064.5
591.989	1071.5
592.439	1037.5
592.89	1068.5
593.34	1048.5
593.791	1017.5
594.241	1030.5
594.692	1004.5
595.142	1013.5
595.593	1014.5
596.043	1034.5
596.493	1044.5
596.943	1056.5
597.394	1056.5
597.844	1094.5
598.294	1084.5
598.744	1099.5
599.195	1153.5
599.645	1241.5
600.095	1283.5
600.545	1317.5
600.995	1396.5
601.445	1377.5
601.895	1485.5
602.345	1555.5
602.795	1542.5
603.245	1485.5
603.695	1379.5
604.145	1350.5
604.594	1279.5
605.044	1206.5
605.494	1172.5
605.944	1099.5
606.393	1064.5
606.843	1056.5
607.293	1008.5
607.743	1039.5
608.192	1054.5
608.642	1059.5
609.091	1048.5
609.541	1051.5
609.99	1052.5
610.44	1058.5
610.889	1030.5
611.339	1024.5
611.788	1005.5
612.238	1046.5
612.687	975.5
613.136	1034.5
613.586	1021.5
614.035	987.5
614.484	1023.5
614.933	1057.5
615.383	1013.5
615.832	999.5
616.281	967.5
616.73	916.5
617.179	940.5
617.628	936.5
618.077	939.5
618.526	899.5
618.975	876.5
619.424	880.5
619.873	864.5
620.322	850.5
620.771	847.5
621.22	835.5
621.669	819.5
622.118	806.5
622.567	849.5
623.015	802.5
623.464	815.5
623.913	796.5
624.361	816.5
624.81	814.5
625.259	841.5
625.707	820.5
626.156	800.5
626.604	802.5
627.053	783.5
627.501	810.5
627.95	815.5
628.398	848.5
628.847	828.5
629.295	810.5
629.744	816.5
630.192	805.5
630.64	789.5
631.089	816.5
631.537	807.5
631.985	728.5
632.433	743.5
632.881	764.5
633.33	767.5
633.778	764.5
634.226	766.5
634.674	766.5
635.122	764.5
635.57	761.5
636.018	785.5
636.466	772.5
636.914	802.5
637.362	804.5
637.81	809.5
638.258	858.5
638.705	842.5
639.153	839.5
639.601	882.5
640.049	869.5
640.497	920.5
640.944	944.5
641.392	932.5
641.84	852.5
642.287	819.5
642.735	810.5
643.182	793.5
643.63	802.5
644.078	782.5
644.525	819.5
644.973	831.5
645.42	850.5
645.867	846.5
646.315	861.5
646.762	920.5
647.21	910.5
647.657	982.5
648.104	1023.5
648.551	1055.5
648.999	1067.5
649.446	1190.5
649.893	1274.5
650.34	1494.5
650.787	1774.5
651.234	2164.5
651.682	2864.5
652.129	3877.5
652.576	5647.5
653.023	7664.5
653.47	9426.5
653.917	10588.5
654.363	11059.5
654.81	11696.5
655.257	12286.5
655.704	9424.5
656.151	5674.5
656.598	3640.5
657.044	2610.5
657.491	1996.5
657.938	1634.5
658.385	1379.5
658.831	1208.5
659.278	1105.5
659.724	1048.5
660.171	955.5
660.618	901.5
661.064	861.5
661.511	833.5
661.957	824.5
662.404	793.5
662.85	788.5
663.296	772.5
663.743	734.5
664.189	713.5
664.635	740.5
665.082	758.5
665.528	680.5
665.974	704.5
666.42	678.5
666.867	700.5
667.313	684.5
667.759	659.5
668.205	654.5
668.651	640.5
669.097	666.5
669.543	624.5
669.989	642.5
670.435	671.5
670.881	642.5
671.327	662.5
671.773	698.5
672.219	758.5
672.665	784.5
673.11	820.5
673.556	800.5
674.002	845.5
674.448	890.5
674.893	811.5
675.339	682.5
675.785	627.5
676.23	595.5
676.676	581.5
677.122	577.5
677.567	548.5
678.013	566.5
678.458	514.5
678.904	547.5
679.349	510.5
679.794	498.5
680.24	529.5
680.685	523.5
681.131	518.5
681.576	522.5
682.021	511.5
682.466	504.5
682.912	505.5
683.357	537.5
683.802	566.5
684.247	631.5
684.692	654.5
685.137	650.5
685.583	731.5
686.028	719.5
686.473	731.5
686.918	648.5
687.363	565.5
687.807	578.5
688.252	560.5
688.697	546.5
689.142	513.5
689.587	496.5
690.032	502.5
690.477	532.5
690.921	547.5
691.366	580.5
691.811	601.5
692.255	611.5
692.7	692.5
693.145	895.5
693.589	1327.5
694.034	1671.5
694.478	1890.5
694.923	1741.5
695.367	2154.5
695.812	1997.5
696.256	894.5
696.701	567.5
697.145	508.5
697.59	496.5
698.034	460.5
698.478	494.5
698.922	475.5
699.367	484.5
699.811	484.5
700.255	516.5
700.699	596.5
701.143	616.5
701.588	673.5
702.032	673.5
702.476	703.5
702.92	705.5
703.364	816.5
703.808	1170.5
704.252	1579.5
704.696	1784.5
705.14	1712.5
705.584	2103.5
706.027	1733.5
706.471	864.5
706.915	596.5
707.359	498.5
707.803	480.5
708.246	440.5
708.69	475.5
709.134	467.5
709.577	448.5
710.021	449.5
710.465	468.5
710.908	470.5
711.352	484.5
711.795	493.5
712.239	555.5
712.682	576.5
713.126	557.5
713.569	591.5
714.012	551.5
714.456	450.5
714.899	440.5
715.342	420.5
715.786	395.5
716.229	392.5
716.672	372.5
717.115	384.5
717.558	382.5
718.002	419.5
718.445	392.5
718.888	442.5
719.331	445.5
719.774	432.5
720.217	437.5
720.66	421.5
721.103	410.5
721.546	400.5
721.989	388.5
722.432	381.5
722.874	373.5
723.317	386.5
723.76	384.5
724.203	411.5
724.645	549.5
725.088	670.5
725.531	703.5
725.974	701.5
726.416	768.5
726.859	544.5
727.301	398.5
727.744	394.5
728.187	385.5
728.629	362.5
729.071	390.5
729.514	425.5
729.956	400.5
730.399	439.5
730.841	432.5
731.283	418.5
731.726	380.5
732.168	410.5
732.61	410.5
733.053	448.5
733.495	493.5
733.937	516.5
734.379	592.5
734.821	695.5
735.263	962.5
735.705	1590.5
736.148	2553.5
736.59	2954.5
737.032	2775.5
737.474	3044.5
737.916	1520.5
738.357	756.5
738.799	512.5
739.241	455.5
739.683	442.5
740.125	455.5
740.567	498.5
741.008	487.5
741.45	514.5
741.892	512.5
742.334	567.5
742.775	529.5
743.217	572.5
743.658	496.5
744.1	470.5
744.542	524.5
744.983	556.5
745.425	555.5
745.866	604.5
746.307	490.5
746.749	478.5
747.19	600.5
747.632	916.5
748.073	1710.5
748.514	2638.5
748.956	3275.5
749.397	4464.5
749.838	3638.5
750.279	2961.5
750.72	2176.5
751.162	1042.5
751.603	575.5
752.044	409.5
752.485	377.5
752.926	354.5
753.367	352.5
753.808	338.5
754.249	317.5
754.69	349.5
755.131	306.5
755.572	344.5
756.013	316.5
756.453	336.5
756.894	336.5
757.335	329.5
757.776	334.5
758.216	310.5
758.657	321.5
759.098	359.5
759.538	384.5
759.979	503.5
760.42	800.5
760.86	1678.5
761.301	3890.5
761.741	5808.5
762.182	5991.5
762.622	5690.5
763.063	2688.5
763.503	1102.5
763.943	600.5
764.384	439.5
764.824	380.5
765.264	345.5
765.705	352.5
766.145	322.5
766.585	300.5
767.025	310.5
767.465	311.5
767.906	304.5
768.346	296.5
768.786	359.5
769.226	411.5
769.666	678.5
770.106	1337.5
770.546	2334.5
770.986	2534.5
771.426	2498.5
771.866	1410.5
772.306	640.5
772.745	390.5
773.185	322.5
773.625	298.5
774.065	304.5
774.505	355.5
774.944	545.5
775.384	831.5
775.824	957.5
776.263	950.5
776.703	668.5
777.142	398.5
777.582	295.5
778.021	264.5
778.461	227.5
778.9	224.5
779.34	243.5
779.779	251.5
780.219	240.5
780.658	241.5
781.097	224.5
781.537	226.5
781.976	231.5
782.415	220.5
782.855	221.5
783.294	214.5
783.733	213.5
784.172	227.5
784.611	236.5
785.05	239.5
785.489	216.5
785.928	229.5
786.367	230.5
786.806	245.5
787.245	254.5
787.684	269.5
788.123	238.5
788.562	255.5
789.001	258.5
789.44	221.5
789.879	260.5
790.317	256.5
790.756	242.5
791.195	262.5
791.634	286.5
792.072	432.5
792.511	808.5
792.95	1772.5
793.388	2218.5
793.827	1970.5
794.265	1170.5
794.704	615.5
795.142	358.5
795.581	300.5
796.019	263.5
796.458	249.5
796.896	264.5
797.334	266.5
797.773	308.5
798.211	479.5
798.649	879.5
799.087	1387.5
799.526	2164.5
799.964	2430.5
800.402	2080.5
800.84	1224.5
801.278	638.5
801.716	395.5
802.154	318.5
802.592	305.5
803.03	276.5
803.468	276.5
803.906	264.5
804.344	265.5
804.782	264.5
805.22	271.5
805.658	260.5
806.096	270.5
806.533	282.5
806.971	334.5
807.409	424.5
807.847	673.5
808.284	1476.5
808.722	2874.5
809.16	4027.5
809.597	5613.5
810.035	7182.5
810.472	6137.5
810.91	3430.5
811.347	1672.5
811.785	776.5
812.222	474.5
812.66	337.5
813.097	310.5
813.535	272.5
813.972	255.5
814.409	260.5
814.846	246.5
815.284	215.5
815.721	229.5
816.158	256.5
816.595	273.5
817.032	307.5
817.47	362.5
817.907	303.5
818.344	278.5
818.781	238.5
819.218	271.5
819.655	316.5
820.092	403.5
820.529	431.5
820.966	402.5
821.403	304.5
821.839	278.5
822.276	255.5
822.713	280.5
823.15	291.5
823.587	278.5
824.023	344.5
824.46	694.5
824.897	1282.5
825.333	1363.5
825.77	816.5
826.206	512.5
826.643	314.5
827.08	226.5
827.516	207.5
827.953	211.5
828.389	182.5
828.825	194.5
829.262	188.5
829.698	181.5
830.135	176.5
830.571	170.5
831.007	164.5
831.443	189.5
831.88	179.5
832.316	166.5
832.752	172.5
833.188	169.5
833.624	168.5
834.06	166.5
834.497	171.5
834.933	174.5
835.369	172.5
835.805	175.5
836.241	182.5
836.677	199.5
837.112	199.5
837.548	237.5
837.984	282.5
838.42	434.5
838.856	1103.5
839.292	2202.5
839.727	2466.5
840.163	1636.5
840.599	1886.5
841.034	2771.5
841.47	2201.5
841.906	1271.5
842.341	729.5
842.777	460.5
843.212	409.5
843.648	364.5
844.083	288.5
844.519	210.5
844.954	191.5
845.39	184.5
845.825	167.5
846.261	176.5
846.696	170.5
847.131	145.5
847.566	170.5
848.002	157.5
848.437	164.5
848.872	172.5
849.307	181.5
849.742	232.5
850.177	416.5
850.613	855.5
851.048	914.5
851.483	548.5
851.918	362.5
852.353	241.5
852.788	176.5
853.223	154.5
853.657	170.5
854.092	142.5
854.527	160.5
854.962	144.5
855.397	147.5
855.832	115.5
856.266	120.5
856.701	150.5
857.136	144.5
857.57	150.5
858.005	164.5
858.44	171.5
858.874	174.5
859.309	169.5
859.743	148.5
860.178	159.5
860.612	136.5
861.047	172.5
861.481	209.5
861.915	207.5
862.35	148.5
862.784	169.5
863.218	132.5
863.653	144.5
864.087	147.5
864.521	157.5
864.955	202.5
865.39	269.5
865.824	305.5
866.258	298.5
866.692	416.5
867.126	356.5
867.56	291.5
867.994	220.5
868.428	189.5
868.862	199.5
869.296	182.5
869.73	185.5
870.164	176.5
870.598	200.5
871.031	152.5
871.465	143.5
871.899	126.5
872.333	117.5
872.766	129.5
873.2	114.5
873.634	112.5
874.067	113.5
874.501	126.5
874.935	132.5
875.368	112.5
875.802	140.5
876.235	134.5
876.669	115.5
877.102	100.5
877.535	120.5
877.969	112.5
878.402	105.5
878.836	106.5
879.269	113.5
879.702	118.5
880.135	129.5
880.569	129.5
881.002	126.5
881.435	105.5
881.868	102.5
882.301	115.5
882.734	123.5
883.167	106.5
883.601	98.5
884.034	132.5
884.467	110.5
884.899	129.5
885.332	113.5
885.765	118.5
886.198	110.5
886.631	122.5
887.064	116.5
887.497	110.5
887.929	120.5
888.362	104.5
888.795	109.5
889.228	95.5
889.66	122.5
890.093	101.5
890.526	103.5
890.958	101.5
891.391	96.5
891.823	101.5
892.256	103.5
892.688	109.5
893.121	98.5
893.553	100.5
893.985	90.5
894.418	85.5
894.85	102.5
895.282	120.5
895.715	116.5
896.147	92.5
896.579	112.5
897.011	109.5
897.444	113.5
897.876	121.5
898.308	117.5
898.74	118.5
899.172	104.5
899.604	102.5
900.036	108.5
900.468	98.5
900.9	100.5
901.332	116.5
901.764	122.5
902.196	116.5
902.628	125.5
903.06	114.5
903.491	134.5
903.923	122.5
904.355	122.5
904.787	124.5
905.218	123.5
905.65	112.5
906.082	107.5
906.513	105.5
906.945	127.5
907.376	121.5
907.808	112.5
908.239	106.5
908.671	120.5
909.102	119.5
909.534	139.5
909.965	144.5
910.397	237.5
910.828	538.5
911.259	596.5
911.691	395.5
912.122	286.5
912.553	188.5
912.984	128.5
913.415	119.5
913.847	120.5
914.278	122.5
914.709	105.5
915.14	102.5
915.571	106.5
916.002	116.5
916.433	106.5
916.864	111.5
917.295	108.5
917.726	102.5
918.157	113.5
918.587	118.5
919.018	129.5
919.449	120.5
919.88	116.5
920.311	106.5
920.741	182.5
921.172	300.5
921.603	236.5
922.033	193.5
922.464	154.5
922.895	146.5
923.325	108.5
923.756	101.5
924.186	96.5
924.617	125.5
925.047	127.5
925.478	145.5
925.908	131.5
926.338	125.5
926.769	95.5
927.199	108.5
927.629	120.5
928.06	116.5
928.49	107.5
928.92	112.5
929.35	98.5
929.78	102.5
930.21	112.5
930.641	97.5
931.071	97.5
931.501	111.5
931.931	98.5
932.361	91.5
932.791	100.5
933.221	110.5
933.651	98.5
934.08	118.5
934.51	99.5
934.94	98.5
935.37	89.5
935.8	92.5
936.229	93.5
936.659	100.5
937.089	86.5
937.519	102.5
937.948	119.5
938.378	124.5
938.807	99.5
939.237	95.5
939.666	84.5
940.096	89.5
940.525	92.5
940.955	98.5
941.384	88.5
941.814	87.5
942.243	90.5
942.672	95.5
943.102	82.5
943.531	76.5
943.96	80.5
944.39	92.5
944.819	85.5
945.248	90.5
945.677	95.5
946.106	101.5
946.535	80.5
946.964	96.5
947.393	96.5
947.822	90.5
948.251	93.5
948.68	93.5
949.109	100.5
949.538	91.5
949.967	101.5
950.396	94.5
950.825	80.5
951.254	73.5
951.682	97.5
952.111	92.5
952.54	85.5
952.969	97.5
953.397	88.5
953.826	90.5
954.254	69.5
954.683	96.5
955.112	96.5
955.54	82.5
955.969	88.5
956.397	80.5
956.826	81.5
957.254	76.5
957.682	84.5
958.111	93.5
958.539	84.5
958.967	88.5
959.396	91.5
959.824	99.5
960.252	100.5
960.68	105.5
961.109	99.5
961.537	87.5
961.965	74.5
962.393	89.5
962.821	98.5
963.249	83.5
963.677	103.5
964.105	108.5
964.533	159.5
964.961	141.5
965.389	111.5
965.817	103.5
966.245	101.5
966.672	94.5
967.1	73.5
967.528	106.5
967.956	93.5
968.383	102.5
968.811	91.5
969.239	87.5
969.666	94.5
970.094	95.5
970.522	92.5
970.949	70.5
971.377	86.5
971.804	106.5
972.232	95.5
972.659	74.5
973.087	86.5
973.514	78.5
973.941	84.5
974.369	92.5
974.796	91.5
975.223	78.5
975.651	84.5
976.078	80.5
976.505	84.5
976.932	90.5
977.359	94.5
977.786	101.5
978.214	117.5
978.641	85.5
979.068	100.5
979.495	86.5
979.922	56.5
980.349	82.5
980.776	73.5
981.202	78.5
981.629	75.5
982.056	96.5
982.483	88.5
982.91	85.5
983.337	88.5
983.763	81.5
984.19	85.5
984.617	99.5
985.043	96.5
985.47	80.5
985.897	101.5
986.323	85.5
986.75	97.5
987.176	81.5
987.603	93.5
988.029	88.5
988.456	78.5
988.882	74.5
989.308	79.5
989.735	70.5
990.161	84.5
990.587	69.5
991.014	97.5
991.44	96.5
991.866	98.5
992.292	85.5
992.719	96.5
993.145	84.5
993.571	72.5
993.997	87.5
994.423	85.5
994.849	89.5
995.275	68.5
995.701	84.5
996.127	62.5
996.553	94.5
996.979	82.5
997.405	88.5
997.83	76.5
998.256	95.5
998.682	86.5
999.108	92.5
999.534	91.5
999.959	81.5
1000.385	81.5
1000.811	100.5
1001.236	75.5
1001.662	96.5
1002.087	73.5
1002.513	93.5
1002.938	100.5
1003.364	85.5
1003.789	94.5
1004.215	86.5
1004.64	91.5
1005.066	86.5
1005.491	79.5
1005.916	77.5
1006.342	78.5
1006.767	80.5
1007.192	81.5
1007.617	78.5
1008.042	91.5
1008.468	92.5
1008.893	79.5
1009.318	85.5
1009.743	85.5
1010.168	86.5
1010.593	99.5
1011.018	89.5
1011.443	94.5
1011.868	92.5
1012.293	77.5
1012.718	78.5
1013.143	96.5
1013.567	92.5
1013.992	77.5
1014.417	85.5
1014.842	89.5
1015.267	86.5
1015.691	92.5
1016.116	91.5
1016.541	81.5
1016.965	69.5
1017.39	100.5
1017.814	93.5
1018.239	90.5
1018.663	65.5
1019.088	70.5
1019.512	89.5
1019.937	86.5
1020.361	80.5
1020.785	70.5
1021.21	76.5
1021.634	79.5
1022.058	87.5
1022.483	92.5
1022.907	90.5
1023.331	73.5
1023.755	74.5
1024.179	71.5
1024.604	85.5
1025.028	91.5
1025.452	76.5
1025.876	74.5
1026.3	77.5
1026.724	63.5
1027.148	85.5
1027.572	67.5
1027.996	80.5
1028.42	71.5
1028.843	80.5
1029.267	100.5
1029.691	75.5
1030.115	92.5
1030.539	79.5
1030.962	92.5
1031.386	81.5
1031.81	92.5
1032.233	78.5
1032.657	83.5
1033.08	83.5
1033.504	80.5
1033.927	74.5
1034.351	86.5
1034.774	102.5
1035.198	90.5
1035.621	98.5
1036.045	89.5
1036.468	85.5
1036.891	82.5
1037.315	97.5
1037.738	92.5
1038.161	74.5
1038.584	90.5
1039.008	96.5
1039.431	87.5
1039.854	90.5
1040.277	77.5
1040.7	90.5
1041.123	72.5
1041.546	82.5
1041.969	85.5
1042.392	79.5
1042.815	76.5
1043.238	89.5
1043.661	73.5
1044.084	88.5
1044.507	83.5
1044.93	71.5
1045.352	101.5
1045.775	80.5
1046.198	92.5
1046.621	79.5
1047.043	75.5
1047.466	78.5
1047.889	78.5
1048.311	74.5
1048.734	76.5
1049.156	86.5
1049.579	61.5
1050.001	72.5
1050.424	86.5
1050.846	81.5
1051.269	84.5
1051.691	76.5
1052.113	74.5
1052.536	76.5
1052.958	81.5
1053.38	88.5
1053.802	75.5
1054.225	80.5
1054.647	79.5
1055.069	88.5
1055.491	86.5
1055.913	68.5
1056.335	92.5
1056.757	86.5
1057.179	76.5
1057.601	87.5
1058.023	98.5
1058.445	96.5
1058.867	72.5
1059.289	86.5
1059.711	88.5
1060.133	86.5
1060.555	85.5
1060.976	73.5
1061.398	77.5
1061.82	85.5
1062.241	78.5
1062.663	76.5
1063.085	98.5
1063.506	74.5
1063.928	92.5
1064.35	78.5
1064.771	95.5
1065.193	72.5
1065.614	79.5
1066.035	82.5
1066.457	75.5
1066.878	85.5
1067.3	76.5
1067.721	79.5
1068.142	74.5
1068.564	100.5
1068.985	75.5
1069.406	75.5
1069.827	77.5
1070.248	85.5
1070.67	92.5
1071.091	73.5
1071.512	88.5
1071.933	74.5
1072.354	78.5
1072.775	83.5
1073.196	64.5
1073.617	101.5
1074.038	74.5
1074.459	92.5
1074.88	81.5
1075.3	78.5
1075.721	76.5
1076.142	80.5
1076.563	86.5
1076.983	88.5
1077.404	96.5
1077.825	85.5
1078.246	76.5
1078.666	92.5
1079.087	72.5
1079.507	77.5
1079.928	91.5
1080.348	88.5
1080.769	84.5
1081.189	76.5
1081.61	77.5
1082.03	82.5
1082.451	76.5
1082.871	97.5
1083.291	71.5
1083.711	92.5
1084.132	100.5
1084.552	84.5
1084.972	97.5
1085.392	80.5
1085.813	75.5
1086.233	62.5
1086.653	68.5
1087.073	78.5
1087.493	72.5
1087.913	82.5
1088.333	96.5
1088.753	79.5
1089.173	89.5
1089.593	77.5
1090.013	66.5
1090.433	89.5
1090.852	80.5
1091.272	81.5
1091.692	77.5
1092.112	88.5
1092.531	67.5
1092.951	79.5
1093.371	69.5
1093.79	102.5
1094.21	80.5
1094.63	71.5
1095.049	86.5
1095.469	76.5
1095.888	74.5
1096.308	85.5
1096.727	75.5
1097.146	77.5
1097.566	60.5
1097.985	82.5
1098.405	85.5
1098.824	88.5
1099.243	86.5
1099.662	94.5
1100.082	70.5
1100.501	75.5
1100.92	72.5
1101.339	83.5
1101.758	72.5
