Data from 20170802-ORNL-NYSim-Air_HRD10391_10-37-35-641.txt Node
Date: Wed Aug 02 10:37:35 EDT 2017
User: Ender
Spectrometer: HR+D1039
Trigger mode: 0
Integration Time (sec): 1.510000E-3
Scans to average: 1
Electric dark correction enabled: true
Nonlinearity correction enabled: false
Boxcar width: 0
XAxis mode: Wavelengths
Number of Pixels in Spectrum: 2048
>>>>>Begin Spectral Data<<<<<
187.836	14.25
188.309	14.25
188.782	14.25
189.255	-6.75
189.728	5.25
190.201	-11.75
190.674	-3.75
191.147	-16.75
191.619	-2.75
192.092	-7.75
192.565	-11.75
193.038	-6.75
193.511	4.25
193.984	13.25
194.456	1.25
194.929	14.25
195.402	5.25
195.874	10.25
196.347	-3.75
196.82	18.25
197.292	26.25
197.765	26.25
198.237	34.25
198.71	40.25
199.182	44.25
199.655	50.25
200.127	57.25
200.6	52.25
201.072	37.25
201.544	67.25
202.017	62.25
202.489	78.25
202.961	54.25
203.433	64.25
203.906	86.25
204.378	102.25
204.85	94.25
205.322	64.25
205.794	58.25
206.266	66.25
206.739	79.25
207.211	79.25
207.683	95.25
208.155	90.25
208.627	81.25
209.099	100.25
209.57	88.25
210.042	86.25
210.514	89.25
210.986	76.25
211.458	83.25
211.93	74.25
212.402	82.25
212.873	96.25
213.345	86.25
213.817	109.25
214.288	83.25
214.76	79.25
215.232	81.25
215.703	86.25
216.175	73.25
216.646	77.25
217.118	78.25
217.589	72.25
218.061	85.25
218.532	75.25
219.004	76.25
219.475	74.25
219.946	81.25
220.418	78.25
220.889	89.25
221.36	69.25
221.832	75.25
222.303	82.25
222.774	74.25
223.245	74.25
223.717	83.25
224.188	69.25
224.659	66.25
225.13	78.25
225.601	93.25
226.072	81.25
226.543	80.25
227.014	72.25
227.485	71.25
227.956	80.25
228.427	59.25
228.898	93.25
229.369	86.25
229.839	85.25
230.31	97.25
230.781	86.25
231.252	75.25
231.722	86.25
232.193	84.25
232.664	67.25
233.135	68.25
233.605	73.25
234.076	75.25
234.546	70.25
235.017	95.25
235.487	78.25
235.958	78.25
236.428	91.25
236.899	61.25
237.369	88.25
237.84	63.25
238.31	99.25
238.78	70.25
239.251	73.25
239.721	82.25
240.191	73.25
240.662	82.25
241.132	78.25
241.602	93.25
242.072	82.25
242.542	82.25
243.013	63.25
243.483	77.25
243.953	79.25
244.423	85.25
244.893	91.25
245.363	80.25
245.833	86.25
246.303	85.25
246.773	88.25
247.243	87.25
247.712	89.25
248.182	83.25
248.652	76.25
249.122	100.25
249.592	75.25
250.061	111.25
250.531	106.25
251.001	94.25
251.471	77.25
251.94	79.25
252.41	102.25
252.879	78.25
253.349	86.25
253.818	77.25
254.288	65.25
254.757	86.25
255.227	91.25
255.696	87.25
256.166	67.25
256.635	70.25
257.105	95.25
257.574	96.25
258.043	85.25
258.513	96.25
258.982	82.25
259.451	92.25
259.92	100.25
260.389	77.25
260.859	94.25
261.328	97.25
261.797	85.25
262.266	105.25
262.735	111.25
263.204	87.25
263.673	95.25
264.142	95.25
264.611	99.25
265.08	86.25
265.549	106.25
266.018	92.25
266.487	92.25
266.955	87.25
267.424	96.25
267.893	78.25
268.362	98.25
268.83	87.25
269.299	101.25
269.768	94.25
270.236	95.25
270.705	101.25
271.174	104.25
271.642	102.25
272.111	101.25
272.579	100.25
273.048	98.25
273.516	109.25
273.985	101.25
274.453	83.25
274.922	94.25
275.39	103.25
275.858	103.25
276.327	84.25
276.795	102.25
277.263	99.25
277.731	103.25
278.2	106.25
278.668	80.25
279.136	120.25
279.604	97.25
280.072	108.25
280.54	113.25
281.008	109.25
281.477	117.25
281.945	115.25
282.413	102.25
282.881	107.25
283.348	114.25
283.816	116.25
284.284	103.25
284.752	114.25
285.22	104.25
285.688	99.25
286.156	98.25
286.623	113.25
287.091	135.25
287.559	109.25
288.026	125.25
288.494	110.25
288.962	104.25
289.429	98.25
289.897	125.25
290.364	116.25
290.832	107.25
291.3	110.25
291.767	121.25
292.234	119.25
292.702	100.25
293.169	128.25
293.637	108.25
294.104	113.25
294.571	96.25
295.039	111.25
295.506	101.25
295.973	133.25
296.44	119.25
296.908	119.25
297.375	134.25
297.842	116.25
298.309	117.25
298.776	118.25
299.243	130.25
299.71	121.25
300.177	126.25
300.644	128.25
301.111	106.25
301.578	108.25
302.045	107.25
302.512	114.25
302.979	118.25
303.446	121.25
303.913	112.25
304.379	129.25
304.846	121.25
305.313	139.25
305.78	146.25
306.246	132.25
306.713	128.25
307.18	126.25
307.646	147.25
308.113	155.25
308.579	135.25
309.046	118.25
309.512	121.25
309.979	136.25
310.445	150.25
310.912	138.25
311.378	127.25
311.845	146.25
312.311	139.25
312.777	146.25
313.244	133.25
313.71	148.25
314.176	140.25
314.642	155.25
315.109	136.25
315.575	161.25
316.041	150.25
316.507	157.25
316.973	155.25
317.439	155.25
317.905	150.25
318.371	149.25
318.837	157.25
319.303	154.25
319.769	155.25
320.235	162.25
320.701	152.25
321.167	136.25
321.633	158.25
322.099	120.25
322.564	139.25
323.03	147.25
323.496	171.25
323.962	181.25
324.427	134.25
324.893	146.25
325.359	162.25
325.824	158.25
326.29	161.25
326.755	153.25
327.221	168.25
327.686	161.25
328.152	169.25
328.617	166.25
329.083	134.25
329.548	168.25
330.014	163.25
330.479	160.25
330.944	170.25
331.41	179.25
331.875	184.25
332.34	167.25
332.805	174.25
333.271	154.25
333.736	183.25
334.201	163.25
334.666	173.25
335.131	180.25
335.596	176.25
336.061	191.25
336.526	167.25
336.991	185.25
337.456	157.25
337.921	184.25
338.386	180.25
338.851	198.25
339.316	166.25
339.781	179.25
340.246	172.25
340.711	181.25
341.175	184.25
341.64	187.25
342.105	189.25
342.569	201.25
343.034	179.25
343.499	190.25
343.963	198.25
344.428	189.25
344.893	174.25
345.357	197.25
345.822	188.25
346.286	180.25
346.751	177.25
347.215	191.25
347.679	208.25
348.144	220.25
348.608	213.25
349.073	216.25
349.537	222.25
350.001	214.25
350.465	196.25
350.93	230.25
351.394	222.25
351.858	236.25
352.322	233.25
352.786	214.25
353.25	215.25
353.715	225.25
354.179	227.25
354.643	227.25
355.107	239.25
355.571	234.25
356.035	236.25
356.498	238.25
356.962	216.25
357.426	247.25
357.89	241.25
358.354	224.25
358.818	230.25
359.281	247.25
359.745	258.25
360.209	234.25
360.673	226.25
361.136	234.25
361.6	223.25
362.064	220.25
362.527	225.25
362.991	234.25
363.454	266.25
363.918	239.25
364.381	249.25
364.845	249.25
365.308	270.25
365.772	233.25
366.235	242.25
366.698	252.25
367.162	265.25
367.625	234.25
368.088	250.25
368.552	255.25
369.015	244.25
369.478	251.25
369.941	262.25
370.404	260.25
370.867	249.25
371.331	247.25
371.794	261.25
372.257	256.25
372.72	256.25
373.183	255.25
373.646	250.25
374.109	263.25
374.572	268.25
375.035	270.25
375.497	256.25
375.96	260.25
376.423	283.25
376.886	278.25
377.349	284.25
377.811	285.25
378.274	283.25
378.737	290.25
379.199	281.25
379.662	288.25
380.125	291.25
380.587	299.25
381.05	313.25
381.512	304.25
381.975	299.25
382.437	296.25
382.9	317.25
383.362	309.25
383.825	305.25
384.287	301.25
384.75	289.25
385.212	300.25
385.674	319.25
386.136	313.25
386.599	311.25
387.061	316.25
387.523	331.25
387.985	326.25
388.447	297.25
388.91	323.25
389.372	320.25
389.834	326.25
390.296	313.25
390.758	327.25
391.22	326.25
391.682	316.25
392.144	348.25
392.606	307.25
393.068	317.25
393.529	347.25
393.991	353.25
394.453	347.25
394.915	341.25
395.377	326.25
395.838	333.25
396.3	330.25
396.762	333.25
397.224	337.25
397.685	331.25
398.147	334.25
398.608	339.25
399.07	329.25
399.531	337.25
399.993	331.25
400.454	361.25
400.916	345.25
401.377	356.25
401.839	374.25
402.3	358.25
402.762	367.25
403.223	410.25
403.684	406.25
404.145	410.25
404.607	361.25
405.068	381.25
405.529	385.25
405.99	377.25
406.451	390.25
406.913	372.25
407.374	343.25
407.835	381.25
408.296	388.25
408.757	396.25
409.218	410.25
409.679	405.25
410.14	389.25
410.601	388.25
411.062	407.25
411.522	410.25
411.983	417.25
412.444	432.25
412.905	425.25
413.366	451.25
413.826	460.25
414.287	493.25
414.748	597.25
415.208	558.25
415.669	505.25
416.13	471.25
416.59	471.25
417.051	480.25
417.511	500.25
417.972	528.25
418.432	564.25
418.893	624.25
419.353	573.25
419.814	479.25
420.274	441.25
420.734	418.25
421.195	456.25
421.655	412.25
422.115	442.25
422.576	437.25
423.036	456.25
423.496	477.25
423.956	480.25
424.416	522.25
424.876	577.25
425.336	569.25
425.797	554.25
426.257	546.25
426.717	504.25
427.177	523.25
427.637	502.25
428.097	483.25
428.556	511.25
429.016	583.25
429.476	560.25
429.936	538.25
430.396	586.25
430.856	579.25
431.315	585.25
431.775	598.25
432.235	640.25
432.694	619.25
433.154	635.25
433.614	613.25
434.073	596.25
434.533	566.25
434.993	534.25
435.452	540.25
435.912	519.25
436.371	516.25
436.83	505.25
437.29	499.25
437.749	499.25
438.209	479.25
438.668	512.25
439.127	503.25
439.587	529.25
440.046	513.25
440.505	473.25
440.964	496.25
441.424	512.25
441.883	536.25
442.342	481.25
442.801	505.25
443.26	494.25
443.719	487.25
444.178	481.25
444.637	484.25
445.096	501.25
445.555	487.25
446.014	508.25
446.473	466.25
446.932	489.25
447.391	511.25
447.849	478.25
448.308	474.25
448.767	473.25
449.226	522.25
449.685	521.25
450.143	535.25
450.602	541.25
451.061	502.25
451.519	508.25
451.978	502.25
452.436	488.25
452.895	504.25
453.353	488.25
453.812	457.25
454.27	514.25
454.729	477.25
455.187	486.25
455.646	511.25
456.104	494.25
456.562	497.25
457.021	501.25
457.479	497.25
457.937	494.25
458.395	509.25
458.854	521.25
459.312	507.25
459.77	526.25
460.228	522.25
460.686	554.25
461.144	557.25
461.602	519.25
462.06	533.25
462.518	520.25
462.976	521.25
463.434	526.25
463.892	539.25
464.35	527.25
464.808	545.25
465.266	554.25
465.724	561.25
466.181	586.25
466.639	582.25
467.097	616.25
467.555	615.25
468.012	605.25
468.47	629.25
468.928	633.25
469.385	620.25
469.843	630.25
470.3	662.25
470.758	644.25
471.215	640.25
471.673	669.25
472.13	695.25
472.588	701.25
473.045	697.25
473.503	740.25
473.96	786.25
474.417	758.25
474.875	808.25
475.332	809.25
475.789	829.25
476.246	856.25
476.704	832.25
477.161	894.25
477.618	926.25
478.075	964.25
478.532	1014.25
478.989	1097.25
479.446	1230.25
479.903	1233.25
480.36	1322.25
480.817	1380.25
481.274	1540.25
481.731	1643.25
482.188	1748.25
482.645	1841.25
483.102	1939.25
483.558	2126.25
484.015	2166.25
484.472	2212.25
484.929	2142.25
485.385	2040.25
485.842	2004.25
486.299	1906.25
486.755	1785.25
487.212	1625.25
487.668	1494.25
488.125	1402.25
488.582	1294.25
489.038	1286.25
489.494	1246.25
489.951	1166.25
490.407	1148.25
490.864	1128.25
491.32	1159.25
491.776	1133.25
492.233	1102.25
492.689	1074.25
493.145	1072.25
493.602	1092.25
494.058	1076.25
494.514	1072.25
494.97	1094.25
495.426	1122.25
495.882	1102.25
496.338	1126.25
496.794	1100.25
497.251	1092.25
497.707	1110.25
498.163	1112.25
498.618	1104.25
499.074	1115.25
499.53	1144.25
499.986	1122.25
500.442	1110.25
500.898	1121.25
501.354	1124.25
501.809	1108.25
502.265	1114.25
502.721	1124.25
503.177	1117.25
503.632	1155.25
504.088	1107.25
504.543	1168.25
504.999	1126.25
505.455	1144.25
505.91	1146.25
506.366	1152.25
506.821	1148.25
507.277	1146.25
507.732	1138.25
508.187	1173.25
508.643	1142.25
509.098	1162.25
509.553	1167.25
510.009	1174.25
510.464	1184.25
510.919	1203.25
511.375	1193.25
511.83	1216.25
512.285	1213.25
512.74	1256.25
513.195	1284.25
513.65	1298.25
514.105	1358.25
514.56	1330.25
515.015	1325.25
515.47	1369.25
515.925	1328.25
516.38	1355.25
516.835	1382.25
517.29	1326.25
517.745	1334.25
518.2	1325.25
518.655	1312.25
519.109	1317.25
519.564	1294.25
520.019	1276.25
520.474	1292.25
520.928	1232.25
521.383	1229.25
521.838	1262.25
522.292	1226.25
522.747	1202.25
523.201	1185.25
523.656	1225.25
524.11	1184.25
524.565	1217.25
525.019	1203.25
525.474	1242.25
525.928	1190.25
526.382	1200.25
526.837	1208.25
527.291	1190.25
527.745	1178.25
528.2	1165.25
528.654	1178.25
529.108	1171.25
529.562	1198.25
530.016	1212.25
530.47	1160.25
530.925	1166.25
531.379	1233.25
531.833	1199.25
532.287	1223.25
532.741	1197.25
533.195	1190.25
533.649	1196.25
534.103	1212.25
534.556	1177.25
535.01	1226.25
535.464	1202.25
535.918	1191.25
536.372	1201.25
536.826	1211.25
537.279	1174.25
537.733	1213.25
538.187	1200.25
538.64	1205.25
539.094	1203.25
539.548	1190.25
540.001	1185.25
540.455	1214.25
540.908	1249.25
541.362	1216.25
541.815	1238.25
542.269	1317.25
542.722	1293.25
543.175	1313.25
543.629	1302.25
544.082	1293.25
544.536	1304.25
544.989	1281.25
545.442	1306.25
545.895	1311.25
546.349	1335.25
546.802	1323.25
547.255	1287.25
547.708	1374.25
548.161	1371.25
548.614	1354.25
549.067	1337.25
549.52	1327.25
549.973	1308.25
550.426	1302.25
550.879	1320.25
551.332	1311.25
551.785	1324.25
552.238	1348.25
552.691	1314.25
553.144	1376.25
553.596	1391.25
554.049	1388.25
554.502	1405.25
554.955	1464.25
555.407	1426.25
555.86	1463.25
556.313	1381.25
556.765	1422.25
557.218	1456.25
557.67	1420.25
558.123	1396.25
558.576	1361.25
559.028	1390.25
559.48	1403.25
559.933	1401.25
560.385	1356.25
560.838	1334.25
561.29	1262.25
561.742	1300.25
562.195	1250.25
562.647	1254.25
563.099	1248.25
563.551	1243.25
564.004	1268.25
564.456	1249.25
564.908	1238.25
565.36	1167.25
565.812	1185.25
566.264	1134.25
566.716	1126.25
567.168	1127.25
567.62	1127.25
568.072	1092.25
568.524	1093.25
568.976	1115.25
569.428	1086.25
569.88	1118.25
570.332	1122.25
570.784	1099.25
571.235	1094.25
571.687	1083.25
572.139	1082.25
572.59	1135.25
573.042	1156.25
573.494	1126.25
573.945	1122.25
574.397	1112.25
574.849	1073.25
575.3	1087.25
575.752	1081.25
576.203	1078.25
576.655	1056.25
577.106	1086.25
577.557	1047.25
578.009	1013.25
578.46	1022.25
578.912	1024.25
579.363	1015.25
579.814	1006.25
580.265	1065.25
580.717	1034.25
581.168	1018.25
581.619	1069.25
582.07	1024.25
582.521	1032.25
582.972	1037.25
583.423	1065.25
583.875	1077.25
584.326	1070.25
584.777	1096.25
585.227	1084.25
585.678	1148.25
586.129	1144.25
586.58	1178.25
587.031	1196.25
587.482	1207.25
587.933	1279.25
588.384	1252.25
588.834	1198.25
589.285	1158.25
589.736	1163.25
590.186	1185.25
590.637	1157.25
591.088	1154.25
591.538	1113.25
591.989	1114.25
592.439	1092.25
592.89	1096.25
593.34	1076.25
593.791	1062.25
594.241	1080.25
594.692	1048.25
595.142	1047.25
595.593	1023.25
596.043	1066.25
596.493	1042.25
596.943	1056.25
597.394	1106.25
597.844	1124.25
598.294	1121.25
598.744	1172.25
599.195	1186.25
599.645	1243.25
600.095	1333.25
600.545	1408.25
600.995	1429.25
601.445	1495.25
601.895	1567.25
602.345	1639.25
602.795	1634.25
603.245	1536.25
603.695	1499.25
604.145	1406.25
604.594	1325.25
605.044	1270.25
605.494	1190.25
605.944	1176.25
606.393	1085.25
606.843	1104.25
607.293	1089.25
607.743	1092.25
608.192	1082.25
608.642	1068.25
609.091	1070.25
609.541	1079.25
609.99	1075.25
610.44	1058.25
610.889	1057.25
611.339	1026.25
611.788	1011.25
612.238	1046.25
612.687	1030.25
613.136	1030.25
613.586	1045.25
614.035	1021.25
614.484	1036.25
614.933	1073.25
615.383	1052.25
615.832	1044.25
616.281	990.25
616.73	957.25
617.179	975.25
617.628	976.25
618.077	907.25
618.526	937.25
618.975	896.25
619.424	908.25
619.873	918.25
620.322	920.25
620.771	912.25
621.22	895.25
621.669	844.25
622.118	870.25
622.567	861.25
623.015	843.25
623.464	834.25
623.913	808.25
624.361	825.25
624.81	850.25
625.259	818.25
625.707	808.25
626.156	839.25
626.604	861.25
627.053	814.25
627.501	824.25
627.95	861.25
628.398	860.25
628.847	843.25
629.295	835.25
629.744	832.25
630.192	839.25
630.64	802.25
631.089	806.25
631.537	797.25
631.985	788.25
632.433	804.25
632.881	773.25
633.33	776.25
633.778	788.25
634.226	770.25
634.674	806.25
635.122	785.25
635.57	772.25
636.018	798.25
636.466	803.25
636.914	786.25
637.362	845.25
637.81	832.25
638.258	820.25
638.705	874.25
639.153	892.25
639.601	876.25
640.049	920.25
640.497	907.25
640.944	985.25
641.392	922.25
641.84	874.25
642.287	831.25
642.735	820.25
643.182	826.25
643.63	811.25
644.078	818.25
644.525	813.25
644.973	832.25
645.42	848.25
645.867	872.25
646.315	899.25
646.762	943.25
647.21	965.25
647.657	1000.25
648.104	1034.25
648.551	1050.25
648.999	1106.25
649.446	1176.25
649.893	1292.25
650.34	1471.25
650.787	1750.25
651.234	2178.25
651.682	2917.25
652.129	3999.25
652.576	5744.25
653.023	7862.25
653.47	9618.25
653.917	10685.25
654.363	11285.25
654.81	11830.25
655.257	12436.25
655.704	9559.25
656.151	5757.25
656.598	3671.25
657.044	2612.25
657.491	2054.25
657.938	1703.25
658.385	1443.25
658.831	1273.25
659.278	1150.25
659.724	1062.25
660.171	1014.25
660.618	907.25
661.064	893.25
661.511	861.25
661.957	784.25
662.404	818.25
662.85	812.25
663.296	771.25
663.743	765.25
664.189	751.25
664.635	763.25
665.082	735.25
665.528	751.25
665.974	733.25
666.42	704.25
666.867	711.25
667.313	698.25
667.759	639.25
668.205	652.25
668.651	654.25
669.097	671.25
669.543	678.25
669.989	662.25
670.435	690.25
670.881	680.25
671.327	696.25
671.773	700.25
672.219	790.25
672.665	830.25
673.11	857.25
673.556	830.25
674.002	891.25
674.448	922.25
674.893	825.25
675.339	710.25
675.785	632.25
676.23	631.25
676.676	608.25
677.122	573.25
677.567	561.25
678.013	565.25
678.458	567.25
678.904	547.25
679.349	556.25
679.794	541.25
680.24	553.25
680.685	527.25
681.131	523.25
681.576	520.25
682.021	523.25
682.466	522.25
682.912	532.25
683.357	562.25
683.802	579.25
684.247	624.25
684.692	670.25
685.137	741.25
685.583	740.25
686.028	775.25
686.473	760.25
686.918	674.25
687.363	604.25
687.807	583.25
688.252	553.25
688.697	549.25
689.142	522.25
689.587	509.25
690.032	504.25
690.477	555.25
690.921	573.25
691.366	586.25
691.811	621.25
692.255	655.25
692.7	756.25
693.145	945.25
693.589	1362.25
694.034	1796.25
694.478	1997.25
694.923	1873.25
695.367	2254.25
695.812	2117.25
696.256	908.25
696.701	595.25
697.145	542.25
697.59	510.25
698.034	487.25
698.478	507.25
698.922	495.25
699.367	487.25
699.811	501.25
700.255	548.25
700.699	624.25
701.143	671.25
701.588	708.25
702.032	710.25
702.476	728.25
702.92	760.25
703.364	846.25
703.808	1224.25
704.252	1714.25
704.696	1926.25
705.14	1804.25
705.584	2200.25
706.027	1818.25
706.471	853.25
706.915	624.25
707.359	547.25
707.803	515.25
708.246	469.25
708.69	477.25
709.134	472.25
709.577	462.25
710.021	492.25
710.465	486.25
710.908	483.25
711.352	484.25
711.795	497.25
712.239	549.25
712.682	603.25
713.126	579.25
713.569	637.25
714.012	577.25
714.456	480.25
714.899	452.25
715.342	437.25
715.786	413.25
716.229	415.25
716.672	385.25
717.115	424.25
717.558	415.25
718.002	426.25
718.445	424.25
718.888	436.25
719.331	468.25
719.774	476.25
720.217	438.25
720.66	453.25
721.103	460.25
721.546	429.25
721.989	400.25
722.432	392.25
722.874	378.25
723.317	379.25
723.76	395.25
724.203	443.25
724.645	568.25
725.088	710.25
725.531	733.25
725.974	748.25
726.416	774.25
726.859	520.25
727.301	403.25
727.744	391.25
728.187	389.25
728.629	365.25
729.071	415.25
729.514	410.25
729.956	440.25
730.399	449.25
730.841	439.25
731.283	438.25
731.726	418.25
732.168	418.25
732.61	448.25
733.053	456.25
733.495	502.25
733.937	560.25
734.379	612.25
734.821	719.25
735.263	992.25
735.705	1647.25
736.148	2682.25
736.59	3167.25
737.032	2999.25
737.474	3160.25
737.916	1584.25
738.357	775.25
738.799	536.25
739.241	482.25
739.683	465.25
740.125	471.25
740.567	497.25
741.008	491.25
741.45	542.25
741.892	560.25
742.334	562.25
742.775	551.25
743.217	563.25
743.658	492.25
744.1	470.25
744.542	527.25
744.983	545.25
745.425	547.25
745.866	574.25
746.307	516.25
746.749	508.25
747.19	616.25
747.632	946.25
748.073	1831.25
748.514	2852.25
748.956	3506.25
749.397	4762.25
749.838	3857.25
750.279	3081.25
750.72	2360.25
751.162	1106.25
751.603	585.25
752.044	436.25
752.485	400.25
752.926	367.25
753.367	351.25
753.808	328.25
754.249	341.25
754.69	348.25
755.131	327.25
755.572	334.25
756.013	337.25
756.453	330.25
756.894	336.25
757.335	337.25
757.776	354.25
758.216	336.25
758.657	348.25
759.098	350.25
759.538	441.25
759.979	532.25
760.42	812.25
760.86	1835.25
761.301	4247.25
761.741	6222.25
762.182	6424.25
762.622	5986.25
763.063	2790.25
763.503	1139.25
763.943	601.25
764.384	484.25
764.824	471.25
765.264	450.25
765.705	376.25
766.145	357.25
766.585	333.25
767.025	329.25
767.465	337.25
767.906	364.25
768.346	356.25
768.786	401.25
769.226	436.25
769.666	693.25
770.106	1419.25
770.546	2510.25
770.986	2671.25
771.426	2661.25
771.866	1526.25
772.306	699.25
772.745	412.25
773.185	326.25
773.625	305.25
774.065	293.25
774.505	351.25
774.944	541.25
775.384	824.25
775.824	948.25
776.263	926.25
776.703	638.25
777.142	396.25
777.582	276.25
778.021	256.25
778.461	242.25
778.9	262.25
779.34	239.25
779.779	254.25
780.219	231.25
780.658	241.25
781.097	237.25
781.537	220.25
781.976	233.25
782.415	214.25
782.855	222.25
783.294	216.25
783.733	232.25
784.172	227.25
784.611	240.25
785.05	227.25
785.489	215.25
785.928	234.25
786.367	221.25
786.806	239.25
787.245	264.25
787.684	266.25
788.123	297.25
788.562	273.25
789.001	267.25
789.44	249.25
789.879	243.25
790.317	256.25
790.756	260.25
791.195	286.25
791.634	310.25
792.072	430.25
792.511	889.25
792.95	1888.25
793.388	2325.25
793.827	2111.25
794.265	1237.25
794.704	618.25
795.142	359.25
795.581	296.25
796.019	263.25
796.458	249.25
796.896	238.25
797.334	266.25
797.773	325.25
798.211	492.25
798.649	910.25
799.087	1540.25
799.526	2312.25
799.964	2582.25
800.402	2196.25
800.84	1298.25
801.278	649.25
801.716	409.25
802.154	302.25
802.592	289.25
803.03	256.25
803.468	250.25
803.906	276.25
804.344	273.25
804.782	281.25
805.22	272.25
805.658	278.25
806.096	289.25
806.533	315.25
806.971	343.25
807.409	433.25
807.847	686.25
808.284	1551.25
808.722	3013.25
809.16	4195.25
809.597	5983.25
810.035	7573.25
810.472	6447.25
810.91	3543.25
811.347	1759.25
811.785	825.25
812.222	484.25
812.66	345.25
813.097	297.25
813.535	290.25
813.972	258.25
814.409	218.25
814.846	233.25
815.284	214.25
815.721	215.25
816.158	250.25
816.595	284.25
817.032	328.25
817.47	342.25
817.907	268.25
818.344	256.25
818.781	241.25
819.218	248.25
819.655	313.25
820.092	419.25
820.529	434.25
820.966	372.25
821.403	307.25
821.839	265.25
822.276	248.25
822.713	267.25
823.15	315.25
823.587	310.25
824.023	380.25
824.46	731.25
824.897	1333.25
825.333	1446.25
825.77	878.25
826.206	528.25
826.643	331.25
827.08	217.25
827.516	202.25
827.953	203.25
828.389	197.25
828.825	198.25
829.262	172.25
829.698	183.25
830.135	172.25
830.571	152.25
831.007	179.25
831.443	165.25
831.88	158.25
832.316	172.25
832.752	167.25
833.188	180.25
833.624	165.25
834.06	193.25
834.497	178.25
834.933	181.25
835.369	179.25
835.805	159.25
836.241	186.25
836.677	193.25
837.112	228.25
837.548	240.25
837.984	298.25
838.42	481.25
838.856	1144.25
839.292	2374.25
839.727	2582.25
840.163	1735.25
840.599	1986.25
841.034	2970.25
841.47	2334.25
841.906	1350.25
842.341	758.25
842.777	467.25
843.212	419.25
843.648	352.25
844.083	256.25
844.519	210.25
844.954	183.25
845.39	169.25
845.825	163.25
846.261	166.25
846.696	144.25
847.131	157.25
847.566	162.25
848.002	174.25
848.437	152.25
848.872	200.25
849.307	193.25
849.742	229.25
850.177	440.25
850.613	906.25
851.048	958.25
851.483	602.25
851.918	368.25
852.353	258.25
852.788	182.25
853.223	159.25
853.657	161.25
854.092	155.25
854.527	136.25
854.962	145.25
855.397	158.25
855.832	174.25
856.266	149.25
856.701	138.25
857.136	142.25
857.57	163.25
858.005	158.25
858.44	154.25
858.874	162.25
859.309	175.25
859.743	156.25
860.178	158.25
860.612	152.25
861.047	178.25
861.481	200.25
861.915	200.25
862.35	173.25
862.784	150.25
863.218	130.25
863.653	150.25
864.087	145.25
864.521	166.25
864.955	206.25
865.39	308.25
865.824	294.25
866.258	279.25
866.692	392.25
867.126	359.25
867.56	250.25
867.994	204.25
868.428	175.25
868.862	153.25
869.296	156.25
869.73	190.25
870.164	171.25
870.598	172.25
871.031	132.25
871.465	137.25
871.899	124.25
872.333	136.25
872.766	138.25
873.2	112.25
873.634	126.25
874.067	137.25
874.501	119.25
874.935	126.25
875.368	122.25
875.802	130.25
876.235	116.25
876.669	127.25
877.102	119.25
877.535	112.25
877.969	130.25
878.402	110.25
878.836	118.25
879.269	119.25
879.702	119.25
880.135	117.25
880.569	111.25
881.002	112.25
881.435	113.25
881.868	123.25
882.301	105.25
882.734	113.25
883.167	103.25
883.601	106.25
884.034	118.25
884.467	113.25
884.899	129.25
885.332	112.25
885.765	125.25
886.198	94.25
886.631	112.25
887.064	97.25
887.497	111.25
887.929	104.25
888.362	94.25
888.795	106.25
889.228	102.25
889.66	106.25
890.093	96.25
890.526	105.25
890.958	110.25
891.391	106.25
891.823	108.25
892.256	108.25
892.688	114.25
893.121	93.25
893.553	113.25
893.985	95.25
894.418	115.25
894.85	107.25
895.282	100.25
895.715	114.25
896.147	115.25
896.579	106.25
897.011	101.25
897.444	102.25
897.876	99.25
898.308	111.25
898.74	105.25
899.172	90.25
899.604	104.25
900.036	114.25
900.468	122.25
900.9	107.25
901.332	109.25
901.764	131.25
902.196	119.25
902.628	123.25
903.06	126.25
903.491	124.25
903.923	127.25
904.355	126.25
904.787	120.25
905.218	101.25
905.65	115.25
906.082	106.25
906.513	88.25
906.945	105.25
907.376	110.25
907.808	113.25
908.239	116.25
908.671	114.25
909.102	116.25
909.534	120.25
909.965	147.25
910.397	234.25
910.828	586.25
911.259	625.25
911.691	406.25
912.122	272.25
912.553	196.25
912.984	132.25
913.415	130.25
913.847	112.25
914.278	120.25
914.709	102.25
915.14	107.25
915.571	113.25
916.002	109.25
916.433	112.25
916.864	91.25
917.295	95.25
917.726	108.25
918.157	124.25
918.587	122.25
919.018	115.25
919.449	100.25
919.88	99.25
920.311	125.25
920.741	183.25
921.172	318.25
921.603	248.25
922.033	203.25
922.464	156.25
922.895	120.25
923.325	105.25
923.756	96.25
924.186	111.25
924.617	137.25
925.047	127.25
925.478	132.25
925.908	124.25
926.338	110.25
926.769	113.25
927.199	103.25
927.629	107.25
928.06	106.25
928.49	105.25
928.92	92.25
929.35	96.25
929.78	88.25
930.21	95.25
930.641	86.25
931.071	106.25
931.501	102.25
931.931	99.25
932.361	96.25
932.791	92.25
933.221	107.25
933.651	100.25
934.08	104.25
934.51	106.25
934.94	106.25
935.37	107.25
935.8	90.25
936.229	111.25
936.659	94.25
937.089	100.25
937.519	106.25
937.948	113.25
938.378	110.25
938.807	98.25
939.237	93.25
939.666	95.25
940.096	93.25
940.525	81.25
940.955	97.25
941.384	89.25
941.814	98.25
942.243	85.25
942.672	100.25
943.102	94.25
943.531	76.25
943.96	84.25
944.39	75.25
944.819	87.25
945.248	98.25
945.677	78.25
946.106	72.25
946.535	93.25
946.964	100.25
947.393	73.25
947.822	91.25
948.251	76.25
948.68	72.25
949.109	89.25
949.538	82.25
949.967	97.25
950.396	94.25
950.825	91.25
951.254	86.25
951.682	73.25
952.111	94.25
952.54	83.25
952.969	98.25
953.397	96.25
953.826	88.25
954.254	100.25
954.683	79.25
955.112	78.25
955.54	73.25
955.969	75.25
956.397	75.25
956.826	85.25
957.254	102.25
957.682	93.25
958.111	72.25
958.539	92.25
958.967	84.25
959.396	88.25
959.824	91.25
960.252	77.25
960.68	86.25
961.109	87.25
961.537	77.25
961.965	91.25
962.393	88.25
962.821	84.25
963.249	91.25
963.677	86.25
964.105	97.25
964.533	161.25
964.961	131.25
965.389	106.25
965.817	99.25
966.245	84.25
966.672	108.25
967.1	77.25
967.528	96.25
967.956	78.25
968.383	84.25
968.811	92.25
969.239	90.25
969.666	77.25
970.094	85.25
970.522	74.25
970.949	81.25
971.377	74.25
971.804	79.25
972.232	67.25
972.659	87.25
973.087	76.25
973.514	98.25
973.941	84.25
974.369	90.25
974.796	79.25
975.223	95.25
975.651	84.25
976.078	78.25
976.505	98.25
976.932	82.25
977.359	119.25
977.786	83.25
978.214	89.25
978.641	76.25
979.068	92.25
979.495	100.25
979.922	84.25
980.349	78.25
980.776	94.25
981.202	97.25
981.629	94.25
982.056	80.25
982.483	84.25
982.91	84.25
983.337	102.25
983.763	74.25
984.19	76.25
984.617	92.25
985.043	75.25
985.47	93.25
985.897	86.25
986.323	98.25
986.75	85.25
987.176	98.25
987.603	95.25
988.029	76.25
988.456	91.25
988.882	76.25
989.308	76.25
989.735	81.25
990.161	69.25
990.587	64.25
991.014	80.25
991.44	90.25
991.866	84.25
992.292	80.25
992.719	65.25
993.145	84.25
993.571	85.25
993.997	83.25
994.423	88.25
994.849	81.25
995.275	81.25
995.701	64.25
996.127	90.25
996.553	86.25
996.979	75.25
997.405	92.25
997.83	84.25
998.256	80.25
998.682	92.25
999.108	103.25
999.534	79.25
999.959	96.25
1000.385	83.25
1000.811	78.25
1001.236	90.25
1001.662	86.25
1002.087	78.25
1002.513	88.25
1002.938	91.25
1003.364	78.25
1003.789	79.25
1004.215	89.25
1004.64	86.25
1005.066	87.25
1005.491	82.25
1005.916	93.25
1006.342	83.25
1006.767	92.25
1007.192	85.25
1007.617	89.25
1008.042	98.25
1008.468	101.25
1008.893	79.25
1009.318	76.25
1009.743	100.25
1010.168	90.25
1010.593	92.25
1011.018	96.25
1011.443	103.25
1011.868	100.25
1012.293	75.25
1012.718	86.25
1013.143	71.25
1013.567	74.25
1013.992	78.25
1014.417	78.25
1014.842	94.25
1015.267	73.25
1015.691	81.25
1016.116	82.25
1016.541	87.25
1016.965	95.25
1017.39	87.25
1017.814	71.25
1018.239	93.25
1018.663	76.25
1019.088	68.25
1019.512	105.25
1019.937	79.25
1020.361	72.25
1020.785	80.25
1021.21	84.25
1021.634	71.25
1022.058	65.25
1022.483	78.25
1022.907	76.25
1023.331	83.25
1023.755	90.25
1024.179	115.25
1024.604	97.25
1025.028	89.25
1025.452	86.25
1025.876	72.25
1026.3	96.25
1026.724	75.25
1027.148	76.25
1027.572	85.25
1027.996	87.25
1028.42	80.25
1028.843	88.25
1029.267	89.25
1029.691	72.25
1030.115	91.25
1030.539	76.25
1030.962	74.25
1031.386	83.25
1031.81	78.25
1032.233	94.25
1032.657	83.25
1033.08	99.25
1033.504	84.25
1033.927	91.25
1034.351	80.25
1034.774	87.25
1035.198	88.25
1035.621	78.25
1036.045	86.25
1036.468	75.25
1036.891	79.25
1037.315	90.25
1037.738	80.25
1038.161	79.25
1038.584	73.25
1039.008	68.25
1039.431	71.25
1039.854	70.25
1040.277	68.25
1040.7	70.25
1041.123	87.25
1041.546	94.25
1041.969	97.25
1042.392	79.25
1042.815	94.25
1043.238	87.25
1043.661	88.25
1044.084	76.25
1044.507	75.25
1044.93	84.25
1045.352	93.25
1045.775	83.25
1046.198	78.25
1046.621	92.25
1047.043	89.25
1047.466	76.25
1047.889	102.25
1048.311	84.25
1048.734	71.25
1049.156	69.25
1049.579	77.25
1050.001	70.25
1050.424	93.25
1050.846	90.25
1051.269	78.25
1051.691	79.25
1052.113	82.25
1052.536	72.25
1052.958	63.25
1053.38	83.25
1053.802	60.25
1054.225	66.25
1054.647	69.25
1055.069	79.25
1055.491	83.25
1055.913	64.25
1056.335	79.25
1056.757	71.25
1057.179	81.25
1057.601	81.25
1058.023	81.25
1058.445	86.25
1058.867	81.25
1059.289	83.25
1059.711	77.25
1060.133	57.25
1060.555	79.25
1060.976	82.25
1061.398	71.25
1061.82	80.25
1062.241	85.25
1062.663	80.25
1063.085	78.25
1063.506	79.25
1063.928	87.25
1064.35	86.25
1064.771	75.25
1065.193	83.25
1065.614	82.25
1066.035	103.25
1066.457	72.25
1066.878	80.25
1067.3	74.25
1067.721	86.25
1068.142	75.25
1068.564	70.25
1068.985	77.25
1069.406	90.25
1069.827	82.25
1070.248	85.25
1070.67	78.25
1071.091	70.25
1071.512	84.25
1071.933	78.25
1072.354	84.25
1072.775	88.25
1073.196	86.25
1073.617	82.25
1074.038	66.25
1074.459	86.25
1074.88	91.25
1075.3	68.25
1075.721	95.25
1076.142	78.25
1076.563	88.25
1076.983	76.25
1077.404	85.25
1077.825	90.25
1078.246	89.25
1078.666	82.25
1079.087	85.25
1079.507	69.25
1079.928	86.25
1080.348	74.25
1080.769	85.25
1081.189	94.25
1081.61	80.25
1082.03	68.25
1082.451	66.25
1082.871	54.25
1083.291	80.25
1083.711	83.25
1084.132	74.25
1084.552	92.25
1084.972	64.25
1085.392	75.25
1085.813	84.25
1086.233	71.25
1086.653	74.25
1087.073	75.25
1087.493	79.25
1087.913	80.25
1088.333	102.25
1088.753	69.25
1089.173	61.25
1089.593	73.25
1090.013	92.25
1090.433	90.25
1090.852	75.25
1091.272	68.25
1091.692	76.25
1092.112	99.25
1092.531	82.25
1092.951	91.25
1093.371	95.25
1093.79	76.25
1094.21	71.25
1094.63	83.25
1095.049	77.25
1095.469	80.25
1095.888	72.25
1096.308	99.25
1096.727	75.25
1097.146	86.25
1097.566	72.25
1097.985	76.25
1098.405	77.25
1098.824	78.25
1099.243	78.25
1099.662	84.25
1100.082	77.25
1100.501	91.25
1100.92	70.25
1101.339	78.25
1101.758	98.25
