Data from 20171114-ORNL-Ar_H_NY_Subt18_08-03-38-859.txt Node
Date: Tue Nov 14 08:03:38 EST 2017
User: Ender
Spectrometer: HR+D1039
Trigger mode: 0
Integration Time (sec): 2.730000E-2
Scans to average: 10
Electric dark correction enabled: true
Nonlinearity correction enabled: false
Boxcar width: 0
XAxis mode: Wavelengths
Number of Pixels in Spectrum: 2048
>>>>>Begin Spectral Data<<<<<
187.836	2.46
188.309	2.46
188.782	2.46
189.255	0.26
189.728	-0.84
190.201	-0.54
190.674	2.36
191.147	-3.04
191.619	-10.64
192.092	-0.14
192.565	8.46
193.038	1.26
193.511	3.76
193.984	-1.44
194.456	1.36
194.929	-0.74
195.402	-2.94
195.874	0.36
196.347	-7.14
196.82	-9.44
197.292	3.06
197.765	2.06
198.237	-5.34
198.71	0.66
199.182	-0.34
199.655	2.56
200.127	7.06
200.6	-5.94
201.072	-2.24
201.544	-1.34
202.017	0.86
202.489	4.86
202.961	-3.84
203.433	-2.34
203.906	-3.74
204.378	-2.64
204.85	-6.84
205.322	-2.94
205.794	4.26
206.266	-8.64
206.739	-6.44
207.211	5.66
207.683	-2.84
208.155	-2.54
208.627	-5.34
209.099	-6.24
209.57	-5.44
210.042	-1.44
210.514	-0.04
210.986	1.46
211.458	-2.24
211.93	-5.14
212.402	6.56
212.873	2.66
213.345	-9.24
213.817	-11.14
214.288	-1.64
214.76	-12.44
215.232	-1.24
215.703	-3.74
216.175	4.46
216.646	0.46
217.118	-7.94
217.589	-10.54
218.061	-4.74
218.532	-4.44
219.004	-2.64
219.475	-1.64
219.946	-5.14
220.418	-8.14
220.889	3.86
221.36	-2.34
221.832	-8.04
222.303	-4.14
222.774	-4.64
223.245	-4.24
223.717	-5.54
224.188	-3.24
224.659	-2.54
225.13	-9.04
225.601	-0.14
226.072	4.76
226.543	-5.84
227.014	4.56
227.485	0.86
227.956	-1.44
228.427	-6.84
228.898	-0.14
229.369	0.26
229.839	-2.04
230.31	-7.64
230.781	-0.04
231.252	-2.84
231.722	-2.34
232.193	-7.34
232.664	0.26
233.135	-2.34
233.605	-1.44
234.076	-7.44
234.546	-0.04
235.017	2.66
235.487	-1.94
235.958	3.06
236.428	-7.74
236.899	-2.24
237.369	2.06
237.84	0.86
238.31	2.36
238.78	1.86
239.251	-7.44
239.721	-8.24
240.191	-6.54
240.662	-1.54
241.132	-4.34
241.602	-6.74
242.072	-2.84
242.542	2.06
243.013	-4.54
243.483	-0.54
243.953	-2.04
244.423	3.06
244.893	-5.94
245.363	3.16
245.833	-1.64
246.303	-3.54
246.773	3.26
247.243	3.46
247.712	5.26
248.182	4.66
248.652	-1.24
249.122	-9.24
249.592	-3.44
250.061	3.66
250.531	12.96
251.001	-4.04
251.471	3.86
251.94	6.56
252.41	-1.64
252.879	-0.04
253.349	9.66
253.818	9.76
254.288	4.06
254.757	-1.44
255.227	-2.44
255.696	1.16
256.166	2.36
256.635	-0.64
257.105	1.56
257.574	3.76
258.043	-0.94
258.513	-5.64
258.982	2.86
259.451	-4.34
259.92	1.06
260.389	-3.74
260.859	12.76
261.328	1.66
261.797	5.56
262.266	0.66
262.735	7.86
263.204	1.76
263.673	1.36
264.142	0.36
264.611	-2.84
265.08	-0.54
265.549	-0.44
266.018	7.96
266.487	-1.74
266.955	-5.04
267.424	-1.24
267.893	1.56
268.362	0.16
268.83	-0.04
269.299	5.56
269.768	1.66
270.236	0.66
270.705	2.76
271.174	0.26
271.642	2.96
272.111	1.66
272.579	0.16
273.048	2.76
273.516	-0.84
273.985	7.46
274.453	7.76
274.922	16.06
275.39	5.96
275.858	-6.14
276.327	0.06
276.795	9.06
277.263	1.26
277.731	13.56
278.2	4.96
278.668	8.16
279.136	7.66
279.604	4.16
280.072	7.26
280.54	7.86
281.008	6.76
281.477	10.56
281.945	11.06
282.413	12.26
282.881	11.46
283.348	3.06
283.816	4.16
284.284	6.86
284.752	13.86
285.22	6.96
285.688	9.46
286.156	6.26
286.623	17.86
287.091	9.96
287.559	10.86
288.026	4.66
288.494	9.86
288.962	1.76
289.429	12.76
289.897	16.16
290.364	6.06
290.832	10.36
291.3	5.56
291.767	14.46
292.234	16.66
292.702	8.46
293.169	5.76
293.637	20.66
294.104	10.26
294.571	2.96
295.039	8.36
295.506	9.56
295.973	11.96
296.44	7.16
296.908	14.16
297.375	13.66
297.842	14.36
298.309	17.56
298.776	7.76
299.243	20.16
299.71	6.96
300.177	16.66
300.644	16.56
301.111	15.26
301.578	19.96
302.045	11.76
302.512	14.76
302.979	20.26
303.446	18.66
303.913	12.66
304.379	14.86
304.846	25.76
305.313	19.56
305.78	17.36
306.246	21.66
306.713	18.36
307.18	22.06
307.646	17.96
308.113	18.06
308.579	18.46
309.046	22.26
309.512	29.36
309.979	17.46
310.445	23.16
310.912	19.46
311.378	26.06
311.845	21.86
312.311	24.86
312.777	30.36
313.244	23.26
313.71	35.26
314.176	27.36
314.642	23.06
315.109	21.36
315.575	27.36
316.041	33.06
316.507	22.66
316.973	30.96
317.439	24.86
317.905	30.16
318.371	29.36
318.837	31.86
319.303	33.36
319.769	26.76
320.235	25.26
320.701	31.86
321.167	28.56
321.633	25.76
322.099	31.76
322.564	39.36
323.03	33.96
323.496	29.06
323.962	32.86
324.427	32.66
324.893	37.66
325.359	36.76
325.824	31.76
326.29	28.96
326.755	39.66
327.221	38.36
327.686	30.36
328.152	37.96
328.617	39.26
329.083	39.36
329.548	43.26
330.014	49.96
330.479	36.36
330.944	42.76
331.41	39.46
331.875	45.66
332.34	41.76
332.805	38.76
333.271	42.16
333.736	35.16
334.201	45.46
334.666	48.46
335.131	57.06
335.596	49.36
336.061	40.66
336.526	42.36
336.991	43.96
337.456	51.96
337.921	46.46
338.386	42.96
338.851	44.86
339.316	47.16
339.781	45.96
340.246	53.76
340.711	53.26
341.175	52.26
341.64	46.36
342.105	51.36
342.569	53.76
343.034	58.66
343.499	54.56
343.963	52.86
344.428	63.66
344.893	59.96
345.357	61.06
345.822	66.26
346.286	66.16
346.751	70.56
347.215	66.86
347.679	75.16
348.144	93.86
348.608	78.76
349.073	68.16
349.537	76.66
350.001	76.96
350.465	89.26
350.93	76.96
351.394	83.36
351.858	72.96
352.322	90.66
352.786	81.16
353.25	92.76
353.715	103.66
354.179	99.16
354.643	119.16
355.107	110.56
355.571	110.86
356.035	95.86
356.498	112.46
356.962	108.06
357.426	117.96
357.89	108.16
358.354	96.66
358.818	93.06
359.281	84.36
359.745	81.86
360.209	83.96
360.673	82.76
361.136	92.06
361.6	92.96
362.064	90.56
362.527	92.66
362.991	96.76
363.454	90.66
363.918	91.16
364.381	91.56
364.845	94.56
365.308	97.16
365.772	98.86
366.235	98.86
366.698	95.76
367.162	98.56
367.625	98.46
368.088	94.76
368.552	104.66
369.015	96.06
369.478	111.26
369.941	105.66
370.404	109.96
370.867	109.96
371.331	112.76
371.794	119.86
372.257	110.36
372.72	118.76
373.183	112.56
373.646	103.16
374.109	117.16
374.572	119.16
375.035	117.86
375.497	119.16
375.96	116.76
376.423	116.06
376.886	122.36
377.349	123.26
377.811	117.96
378.274	127.06
378.737	119.86
379.199	129.86
379.662	131.76
380.125	134.96
380.587	127.26
381.05	134.66
381.512	135.36
381.975	152.86
382.437	139.76
382.9	142.26
383.362	140.76
383.825	145.26
384.287	140.86
384.75	141.86
385.212	147.66
385.674	154.16
386.136	154.16
386.599	143.86
387.061	147.66
387.523	145.26
387.985	148.26
388.447	164.06
388.91	152.66
389.372	155.46
389.834	156.16
390.296	154.76
390.758	155.46
391.22	162.06
391.682	165.86
392.144	172.36
392.606	171.16
393.068	169.56
393.529	174.76
393.991	165.66
394.453	163.26
394.915	167.36
395.377	160.26
395.838	162.86
396.3	162.76
396.762	168.56
397.224	165.46
397.685	158.26
398.147	158.06
398.608	156.86
399.07	158.76
399.531	175.86
399.993	178.66
400.454	189.76
400.916	193.06
401.377	187.46
401.839	185.86
402.3	184.96
402.762	212.36
403.223	216.16
403.684	210.76
404.145	197.96
404.607	191.06
405.068	198.96
405.529	191.06
405.99	211.56
406.451	203.06
406.913	212.76
407.374	203.86
407.835	207.16
408.296	210.06
408.757	209.76
409.218	227.46
409.679	212.96
410.14	216.86
410.601	220.46
411.062	225.96
411.522	220.06
411.983	215.96
412.444	215.16
412.905	226.16
413.366	229.46
413.826	248.16
414.287	274.56
414.748	328.16
415.208	313.66
415.669	270.36
416.13	269.36
416.59	260.26
417.051	280.16
417.511	288.06
417.972	305.36
418.432	325.76
418.893	367.86
419.353	328.46
419.814	259.36
420.274	236.36
420.734	227.86
421.195	247.86
421.655	237.26
422.115	238.96
422.576	245.96
423.036	248.56
423.496	258.36
423.956	265.66
424.416	296.56
424.876	321.56
425.336	318.46
425.797	318.06
426.257	309.76
426.717	289.16
427.177	278.26
427.637	268.16
428.097	278.86
428.556	290.96
429.016	316.56
429.476	304.16
429.936	312.96
430.396	312.96
430.856	322.66
431.315	344.66
431.775	378.06
432.235	417.86
432.694	400.06
433.154	401.76
433.614	415.96
434.073	374.66
434.533	324.86
434.993	304.26
435.452	307.56
435.912	320.76
436.371	318.36
436.83	315.76
437.29	296.86
437.749	289.06
438.209	288.06
438.668	305.86
439.127	320.16
439.587	300.46
440.046	288.56
440.505	293.86
440.964	305.26
441.424	341.56
441.883	338.16
442.342	299.26
442.801	270.96
443.26	273.36
443.719	278.76
444.178	280.26
444.637	264.06
445.096	274.76
445.555	273.36
446.014	273.06
446.473	286.36
446.932	290.66
447.391	282.46
447.849	280.66
448.308	273.76
448.767	272.86
449.226	293.06
449.685	292.66
450.143	299.86
450.602	293.26
451.061	276.96
451.519	282.16
451.978	274.76
452.436	283.06
452.895	280.86
453.353	295.26
453.812	280.66
454.27	289.26
454.729	282.96
455.187	294.56
455.646	287.26
456.104	295.26
456.562	304.76
457.021	306.06
457.479	307.46
457.937	313.96
458.395	308.46
458.854	298.66
459.312	296.06
459.77	316.66
460.228	306.66
460.686	292.56
461.144	304.06
461.602	298.06
462.06	297.16
462.518	306.36
462.976	313.26
463.434	302.46
463.892	305.36
464.35	313.56
464.808	326.76
465.266	314.26
465.724	321.46
466.181	322.26
466.639	327.66
467.097	346.56
467.555	347.26
468.012	356.26
468.47	357.26
468.928	372.86
469.385	385.86
469.843	393.16
470.3	395.16
470.758	411.26
471.215	425.16
471.673	449.66
472.13	447.06
472.588	461.86
473.045	429.76
473.503	440.96
473.96	452.56
474.417	463.36
474.875	482.26
475.332	515.06
475.789	504.46
476.246	516.26
476.704	531.06
477.161	556.76
477.618	561.56
478.075	590.66
478.532	642.06
478.989	690.36
479.446	769.96
479.903	760.16
480.36	778.16
480.817	822.66
481.274	895.86
481.731	967.66
482.188	1027.96
482.645	1141.66
483.102	1211.66
483.558	1291.66
484.015	1347.36
484.472	1321.86
484.929	1292.76
485.385	1267.96
485.842	1253.76
486.299	1228.26
486.755	1178.66
487.212	1030.16
487.668	917.96
488.125	842.56
488.582	796.36
489.038	777.06
489.494	733.66
489.951	717.66
490.407	715.26
490.864	695.36
491.32	692.36
491.776	680.86
492.233	680.76
492.689	669.06
493.145	663.16
493.602	646.96
494.058	661.76
494.514	660.86
494.97	685.46
495.426	683.86
495.882	652.76
496.338	651.56
496.794	672.06
497.251	652.16
497.707	657.16
498.163	664.16
498.618	667.56
499.074	673.66
499.53	698.16
499.986	700.66
500.442	686.86
500.898	658.06
501.354	662.76
501.809	666.46
502.265	669.76
502.721	680.56
503.177	683.56
503.632	688.66
504.088	685.76
504.543	716.56
504.999	716.16
505.455	701.66
505.91	689.96
506.366	687.16
506.821	679.16
507.277	682.66
507.732	687.56
508.187	690.06
508.643	692.16
509.098	694.66
509.553	714.56
510.009	713.06
510.464	715.46
510.919	735.96
511.375	732.26
511.83	743.66
512.285	755.96
512.74	778.96
513.195	800.26
513.65	789.76
514.105	795.86
514.56	787.56
515.015	813.06
515.47	809.96
515.925	800.66
516.38	810.56
516.835	822.86
517.29	807.66
517.745	803.16
518.2	794.46
518.655	774.86
519.109	770.06
519.564	764.66
520.019	753.16
520.474	745.76
520.928	746.76
521.383	740.76
521.838	730.96
522.292	728.46
522.747	744.56
523.201	737.66
523.656	731.26
524.11	725.16
524.565	719.06
525.019	724.26
525.474	712.86
525.928	723.26
526.382	706.96
526.837	712.36
527.291	708.96
527.745	716.76
528.2	709.86
528.654	696.46
529.108	704.86
529.562	697.36
530.016	698.46
530.47	695.06
530.925	694.66
531.379	700.76
531.833	709.06
532.287	706.76
532.741	699.46
533.195	690.86
533.649	704.66
534.103	709.76
534.556	699.66
535.01	694.36
535.464	697.16
535.918	699.76
536.372	698.06
536.826	702.56
537.279	694.26
537.733	703.46
538.187	697.36
538.64	698.76
539.094	704.76
539.548	720.06
540.001	714.06
540.455	716.66
540.908	721.56
541.362	729.36
541.815	733.56
542.269	740.96
542.722	742.06
543.175	747.66
543.629	752.86
544.082	765.06
544.536	773.36
544.989	759.76
545.442	774.86
545.895	769.36
546.349	764.66
546.802	770.76
547.255	777.06
547.708	782.16
548.161	791.06
548.614	784.16
549.067	792.86
549.52	778.76
549.973	784.96
550.426	775.56
550.879	764.56
551.332	771.76
551.785	785.06
552.238	776.46
552.691	779.76
553.144	791.46
553.596	796.06
554.049	816.46
554.502	845.16
554.955	852.66
555.407	837.86
555.86	833.16
556.313	826.66
556.765	830.46
557.218	820.16
557.67	819.06
558.123	812.56
558.576	815.16
559.028	822.26
559.48	830.86
559.933	810.26
560.385	781.86
560.838	768.46
561.29	739.56
561.742	741.16
562.195	727.96
562.647	718.46
563.099	727.46
563.551	728.86
564.004	724.96
564.456	718.36
564.908	700.76
565.36	686.36
565.812	669.96
566.264	674.36
566.716	662.46
567.168	657.36
567.62	651.86
568.072	650.86
568.524	645.96
568.976	642.56
569.428	632.96
569.88	625.86
570.332	627.66
570.784	623.66
571.235	634.56
571.687	638.16
572.139	643.96
572.59	648.76
573.042	657.06
573.494	640.56
573.945	636.96
574.397	632.46
574.849	625.26
575.3	623.76
575.752	620.56
576.203	612.56
576.655	628.76
577.106	605.56
577.557	599.56
578.009	599.06
578.46	599.96
578.912	590.76
579.363	601.76
579.814	593.76
580.265	582.16
580.717	591.16
581.168	592.16
581.619	599.26
582.07	604.56
582.521	594.46
582.972	589.46
583.423	595.66
583.875	597.86
584.326	604.36
584.777	613.06
585.227	631.16
585.678	653.06
586.129	663.36
586.58	683.76
587.031	705.06
587.482	739.76
587.933	763.56
588.384	736.46
588.834	699.56
589.285	682.26
589.736	677.16
590.186	680.46
590.637	679.26
591.088	661.86
591.538	646.96
591.989	635.36
592.439	629.46
592.89	636.16
593.34	611.66
593.791	618.06
594.241	605.56
594.692	602.96
595.142	602.86
595.593	601.06
596.043	609.86
596.493	608.36
596.943	599.56
597.394	617.56
597.844	622.46
598.294	629.06
598.744	648.96
599.195	665.76
599.645	699.16
600.095	721.46
600.545	784.56
600.995	803.26
601.445	861.26
601.895	901.76
602.345	946.86
602.795	942.86
603.245	912.26
603.695	865.96
604.145	817.66
604.594	785.96
605.044	733.86
605.494	678.36
605.944	644.06
606.393	631.36
606.843	615.16
607.293	615.46
607.743	608.86
608.192	616.66
608.642	627.66
609.091	626.56
609.541	634.86
609.99	625.16
610.44	628.46
610.889	598.26
611.339	580.16
611.788	582.46
612.238	576.36
612.687	585.16
613.136	572.76
613.586	591.06
614.035	579.26
614.484	586.96
614.933	587.46
615.383	594.86
615.832	583.66
616.281	578.26
616.73	558.16
617.179	552.36
617.628	536.16
618.077	514.86
618.526	513.46
618.975	510.96
619.424	511.66
619.873	510.06
620.322	508.56
620.771	496.26
621.22	496.46
621.669	479.56
622.118	483.36
622.567	475.66
623.015	467.46
623.464	470.36
623.913	466.06
624.361	458.26
624.81	455.16
625.259	452.56
625.707	450.16
626.156	450.56
626.604	463.86
627.053	453.66
627.501	461.86
627.95	459.06
628.398	471.06
628.847	453.66
629.295	457.36
629.744	461.36
630.192	463.16
630.64	447.36
631.089	438.76
631.537	426.46
631.985	420.56
632.433	424.06
632.881	418.26
633.33	426.06
633.778	426.16
634.226	416.66
634.674	417.76
635.122	426.06
635.57	439.46
636.018	450.06
636.466	451.36
636.914	437.46
637.362	449.96
637.81	458.66
638.258	456.56
638.705	466.76
639.153	490.86
639.601	487.76
640.049	504.26
640.497	534.46
640.944	556.16
641.392	512.56
641.84	483.16
642.287	455.16
642.735	446.26
643.182	442.16
643.63	447.36
644.078	438.86
644.525	447.46
644.973	453.36
645.42	457.06
645.867	471.56
646.315	480.86
646.762	502.16
647.21	513.16
647.657	519.46
648.104	537.96
648.551	547.46
648.999	573.46
649.446	621.26
649.893	670.26
650.34	746.46
650.787	862.96
651.234	1034.26
651.682	1295.96
652.129	1691.26
652.576	2351.16
653.023	3347.46
653.47	4599.96
653.917	5798.96
654.363	6747.46
654.81	7590.16
655.257	7247.36
655.704	4888.86
656.151	2970.76
656.598	1979.56
657.044	1443.26
657.491	1138.36
657.938	922.46
658.385	801.46
658.831	716.06
659.278	651.16
659.724	576.96
660.171	546.36
660.618	499.06
661.064	478.86
661.511	461.66
661.957	448.16
662.404	448.76
662.85	457.36
663.296	447.26
663.743	426.96
664.189	400.96
664.635	401.26
665.082	400.66
665.528	401.36
665.974	391.46
666.42	382.46
666.867	376.06
667.313	360.86
667.759	356.56
668.205	348.06
668.651	348.66
669.097	351.36
669.543	341.86
669.989	343.16
670.435	352.56
670.881	340.46
671.327	342.66
671.773	358.16
672.219	373.56
672.665	418.46
673.11	448.66
673.556	485.76
674.002	522.26
674.448	511.86
674.893	433.06
675.339	379.46
675.785	345.66
676.23	328.96
676.676	310.66
677.122	309.46
677.567	297.46
678.013	288.36
678.458	284.66
678.904	279.36
679.349	265.96
679.794	273.86
680.24	271.06
680.685	269.76
681.131	268.86
681.576	267.46
682.021	277.76
682.466	270.36
682.912	270.26
683.357	276.16
683.802	297.96
684.247	316.86
684.692	351.76
685.137	380.26
685.583	416.46
686.028	446.46
686.473	409.96
686.918	353.86
687.363	328.76
687.807	311.16
688.252	281.86
688.697	279.56
689.142	252.76
689.587	252.26
690.032	253.96
690.477	268.16
690.921	270.06
691.366	285.26
691.811	311.66
692.255	339.66
692.7	357.56
693.145	378.96
693.589	506.46
694.034	833.86
694.478	1170.96
694.923	1372.76
695.367	1830.26
695.812	956.26
696.256	388.96
696.701	289.56
697.145	259.86
697.59	256.56
698.034	250.96
698.478	256.86
698.922	254.76
699.367	258.56
699.811	248.06
700.255	269.36
700.699	297.66
701.143	324.56
701.588	356.86
702.032	387.66
702.476	391.86
702.92	379.36
703.364	375.66
703.808	471.66
704.252	763.06
704.696	1111.26
705.14	1312.06
705.584	1714.06
706.027	852.16
706.471	414.06
706.915	305.76
707.359	272.46
707.803	246.16
708.246	240.06
708.69	244.26
709.134	242.66
709.577	249.06
710.021	240.06
710.465	230.86
710.908	229.76
711.352	225.56
711.795	240.76
712.239	265.06
712.682	291.06
713.126	317.56
713.569	361.06
714.012	276.26
714.456	237.26
714.899	226.56
715.342	217.56
715.786	200.06
716.229	194.76
716.672	197.86
717.115	186.56
717.558	195.56
718.002	192.06
718.445	198.66
718.888	217.06
719.331	221.76
719.774	233.36
720.217	236.16
720.66	220.16
721.103	208.36
721.546	201.36
721.989	194.86
722.432	171.96
722.874	178.36
723.317	178.56
723.76	182.76
724.203	196.36
724.645	232.16
725.088	335.56
725.531	427.16
725.974	505.66
726.416	432.46
726.859	236.46
727.301	187.16
727.744	186.06
728.187	182.06
728.629	181.16
729.071	184.06
729.514	194.56
729.956	208.66
730.399	209.26
730.841	217.46
731.283	210.36
731.726	205.26
732.168	197.86
732.61	209.36
733.053	220.06
733.495	238.26
733.937	262.86
734.379	302.96
734.821	327.76
735.263	401.36
735.705	611.56
736.148	1140.06
736.59	1949.16
737.032	2452.96
737.474	2021.46
737.916	655.86
738.357	339.46
738.799	255.56
739.241	228.66
739.683	217.56
740.125	230.26
740.567	230.96
741.008	259.36
741.45	255.86
741.892	248.46
742.334	284.66
742.775	290.56
743.217	291.16
743.658	216.56
744.1	201.06
744.542	215.96
744.983	259.96
745.425	299.36
745.866	302.16
746.307	226.36
746.749	210.96
747.19	244.16
747.632	331.56
748.073	620.56
748.514	1346.86
748.956	2184.26
749.397	2743.56
749.838	2301.96
750.279	2387.76
750.72	1232.86
751.162	436.86
751.603	251.96
752.044	188.76
752.485	166.96
752.926	160.56
753.367	159.26
753.808	151.46
754.249	149.86
754.69	153.36
755.131	141.46
755.572	137.46
756.013	138.96
756.453	146.46
756.894	146.06
757.335	141.46
757.776	148.56
758.216	152.96
758.657	149.16
759.098	151.96
759.538	165.26
759.979	197.56
760.42	282.16
760.86	516.96
761.301	1307.76
761.741	3287.36
762.182	5240.66
762.622	3760.86
763.063	1072.76
763.503	431.86
763.943	252.26
764.384	215.16
764.824	196.36
765.264	197.86
765.705	162.06
766.145	143.86
766.585	128.76
767.025	128.26
767.465	124.06
767.906	136.66
768.346	151.56
768.786	162.06
769.226	161.76
769.666	226.16
770.106	437.66
770.546	1104.86
770.986	2070.56
771.426	1936.16
771.866	630.36
772.306	255.76
772.745	157.16
773.185	126.66
773.625	124.96
774.065	116.96
774.505	128.16
774.944	172.96
775.384	309.76
775.824	568.06
776.263	568.66
776.703	258.06
777.142	137.66
777.582	105.66
778.021	89.16
778.461	97.86
778.9	98.16
779.34	93.96
779.779	94.56
780.219	76.26
780.658	74.86
781.097	77.66
781.537	89.76
781.976	85.26
782.415	76.86
782.855	78.86
783.294	73.36
783.733	78.96
784.172	79.26
784.611	76.06
785.05	82.06
785.489	89.16
785.928	89.56
786.367	93.86
786.806	89.76
787.245	98.56
787.684	95.16
788.123	113.46
788.562	106.56
789.001	101.16
789.44	98.66
789.879	92.76
790.317	92.56
790.756	100.76
791.195	95.86
791.634	108.86
792.072	150.86
792.511	262.66
792.95	718.56
793.388	1647.96
793.827	1572.26
794.265	537.56
794.704	226.96
795.142	144.56
795.581	118.96
796.019	105.26
796.458	98.86
796.896	93.96
797.334	102.06
797.773	123.66
798.211	165.86
798.649	313.46
799.087	749.56
799.526	1216.76
799.964	1545.16
800.402	1642.56
800.84	610.36
801.278	235.16
801.716	151.96
802.154	122.66
802.592	109.96
803.03	107.56
803.468	102.36
803.906	115.06
804.344	117.96
804.782	110.86
805.22	110.16
805.658	100.46
806.096	116.46
806.533	119.56
806.971	129.76
807.409	166.36
807.847	231.76
808.284	487.56
808.722	1383.36
809.16	2595.36
809.597	2398.26
810.035	4224.76
810.472	4873.16
810.91	1752.86
811.347	657.36
811.785	326.56
812.222	211.16
812.66	159.66
813.097	131.46
813.535	113.36
813.972	106.56
814.409	91.16
814.846	78.36
815.284	82.96
815.721	83.86
816.158	82.86
816.595	84.16
817.032	126.16
817.47	167.16
817.907	123.46
818.344	85.26
818.781	78.16
819.218	75.36
819.655	102.66
820.092	180.16
820.529	207.86
820.966	163.16
821.403	115.06
821.839	84.66
822.276	81.76
822.713	101.86
823.15	116.56
823.587	102.56
824.023	110.76
824.46	209.66
824.897	668.36
825.333	1086.96
825.77	475.46
826.206	175.06
826.643	102.86
827.08	76.46
827.516	62.26
827.953	56.66
828.389	64.66
828.825	56.96
829.262	49.66
829.698	51.26
830.135	53.66
830.571	48.56
831.007	50.36
831.443	49.76
831.88	42.16
832.316	44.36
832.752	52.16
833.188	47.36
833.624	47.66
834.06	52.96
834.497	57.16
834.933	57.56
835.369	60.76
835.805	55.26
836.241	58.06
836.677	61.66
837.112	63.26
837.548	78.76
837.984	103.76
838.42	156.56
838.856	360.46
839.292	1144.46
839.727	1883.36
840.163	875.06
840.599	694.06
841.034	1565.26
841.47	1765.96
841.906	641.06
842.341	265.26
842.777	162.66
843.212	172.16
843.648	173.66
844.083	98.26
844.519	70.66
844.954	55.66
845.39	44.46
845.825	47.56
846.261	46.36
846.696	38.86
847.131	41.36
847.566	46.56
848.002	41.16
848.437	40.16
848.872	43.46
849.307	49.26
849.742	64.16
850.177	130.76
850.613	415.16
851.048	713.76
851.483	306.26
851.918	118.86
852.353	67.06
852.788	38.36
853.223	34.66
853.657	45.26
854.092	41.76
854.527	31.76
854.962	34.56
855.397	36.16
855.832	45.56
856.266	35.96
856.701	33.96
857.136	34.56
857.57	37.66
858.005	42.96
858.44	47.36
858.874	34.86
859.309	39.46
859.743	31.26
860.178	38.66
860.612	27.86
861.047	40.26
861.481	57.56
861.915	66.16
862.35	44.76
862.784	28.06
863.218	33.46
863.653	23.76
864.087	45.16
864.521	45.86
864.955	52.36
865.39	121.86
865.824	142.26
866.258	96.96
866.692	165.16
867.126	189.86
867.56	108.16
867.994	54.46
868.428	34.06
868.862	42.96
869.296	49.66
869.73	60.26
870.164	51.66
870.598	49.06
871.031	37.56
871.465	25.86
871.899	27.76
872.333	18.06
872.766	20.96
873.2	18.86
873.634	21.76
874.067	20.76
874.501	21.46
874.935	24.86
875.368	22.46
875.802	20.36
876.235	17.06
876.669	19.06
877.102	21.06
877.535	22.46
877.969	18.06
878.402	20.66
878.836	12.96
879.269	21.76
879.702	20.46
880.135	18.16
880.569	22.56
881.002	21.36
881.435	15.76
881.868	8.76
882.301	22.96
882.734	15.26
883.167	17.06
883.601	16.16
884.034	17.56
884.467	12.46
884.899	15.36
885.332	19.16
885.765	13.46
886.198	12.86
886.631	7.16
887.064	13.66
887.497	13.06
887.929	21.46
888.362	13.66
888.795	13.06
889.228	20.56
889.66	15.26
890.093	17.36
890.526	9.46
890.958	13.36
891.391	12.36
891.823	13.56
892.256	9.06
892.688	10.26
893.121	9.76
893.553	17.06
893.985	23.16
894.418	9.16
894.85	4.66
895.282	6.26
895.715	14.36
896.147	13.96
896.579	14.86
897.011	18.06
897.444	19.06
897.876	10.36
898.308	11.86
898.74	11.76
899.172	13.06
899.604	25.86
900.036	15.76
900.468	10.96
900.9	13.16
901.332	12.36
901.764	10.66
902.196	19.16
902.628	19.76
903.06	9.86
903.491	24.56
903.923	21.36
904.355	20.46
904.787	22.96
905.218	18.96
905.65	17.26
906.082	14.06
906.513	11.86
906.945	8.56
907.376	5.26
907.808	13.56
908.239	16.76
908.671	15.66
909.102	17.76
909.534	18.46
909.965	31.16
910.397	72.66
910.828	245.16
911.259	388.56
911.691	182.06
912.122	89.96
912.553	45.56
912.984	35.66
913.415	24.26
913.847	22.36
914.278	8.76
914.709	9.06
915.14	18.46
915.571	18.06
916.002	9.16
916.433	19.96
916.864	14.66
917.295	15.66
917.726	12.66
918.157	12.06
918.587	18.16
919.018	16.46
919.449	17.36
919.88	19.06
920.311	30.36
920.741	39.16
921.172	127.36
921.603	116.26
922.033	56.66
922.464	40.06
922.895	18.56
923.325	15.16
923.756	7.06
924.186	9.46
924.617	17.56
925.047	17.36
925.478	19.16
925.908	16.66
926.338	17.06
926.769	12.16
927.199	13.46
927.629	1.46
928.06	11.46
928.49	5.06
928.92	12.56
929.35	13.26
929.78	13.26
930.21	12.16
930.641	12.26
931.071	10.56
931.501	4.26
931.931	6.76
932.361	5.56
932.791	4.16
933.221	12.26
933.651	5.56
934.08	7.56
934.51	31.46
934.94	7.56
935.37	12.86
935.8	7.56
936.229	7.36
936.659	7.86
937.089	5.86
937.519	16.66
937.948	29.76
938.378	21.36
938.807	5.86
939.237	4.96
939.666	10.36
940.096	-3.54
940.525	7.16
940.955	1.96
941.384	-0.84
941.814	-2.04
942.243	5.06
942.672	1.16
943.102	-1.44
943.531	0.06
943.96	2.96
944.39	2.26
944.819	3.86
945.248	2.06
945.677	2.56
946.106	8.56
946.535	8.86
946.964	2.46
947.393	7.06
947.822	3.66
948.251	0.56
948.68	-0.14
949.109	3.76
949.538	7.66
949.967	6.06
950.396	-1.84
950.825	6.16
951.254	-1.34
951.682	-10.44
952.111	4.46
952.54	4.96
952.969	-2.94
953.397	-5.74
953.826	2.96
954.254	-7.34
954.683	1.36
955.112	1.66
955.54	-5.34
955.969	3.16
956.397	5.46
956.826	-0.04
957.254	-0.04
957.682	-2.34
958.111	6.86
958.539	-0.74
958.967	9.96
959.396	6.96
959.824	7.36
960.252	3.96
960.68	-6.04
961.109	0.86
961.537	0.16
961.965	-3.54
962.393	3.06
962.821	-4.54
963.249	1.86
963.677	3.26
964.105	-0.34
964.533	34.06
964.961	33.46
965.389	14.66
965.817	8.56
966.245	1.46
966.672	-0.74
967.1	-1.74
967.528	1.76
967.956	-6.54
968.383	-1.34
968.811	-2.04
969.239	-2.54
969.666	-0.14
970.094	3.66
970.522	4.96
970.949	-3.54
971.377	-2.24
971.804	-1.34
972.232	-2.74
972.659	1.06
973.087	-0.34
973.514	-3.94
973.941	-0.54
974.369	1.06
974.796	0.56
975.223	4.36
975.651	-2.74
976.078	-2.64
976.505	-0.74
976.932	0.66
977.359	9.06
977.786	9.86
978.214	-0.04
978.641	-3.04
979.068	-1.34
979.495	-3.04
979.922	2.56
980.349	1.16
980.776	4.16
981.202	1.76
981.629	6.26
982.056	7.76
982.483	-5.74
982.91	2.36
983.337	0.26
983.763	0.56
984.19	-1.74
984.617	-0.94
985.043	-3.24
985.47	1.66
985.897	1.56
986.323	-3.74
986.75	-0.14
987.176	2.96
987.603	-1.64
988.029	0.36
988.456	-3.34
988.882	3.46
989.308	-2.14
989.735	0.56
990.161	0.96
990.587	-8.44
991.014	3.86
991.44	3.16
991.866	-2.14
992.292	-1.04
992.719	-4.64
993.145	0.26
993.571	-6.54
993.997	-4.94
994.423	-0.74
994.849	-4.44
995.275	-2.14
995.701	1.66
996.127	-1.74
996.553	2.76
996.979	-4.04
997.405	-1.14
997.83	-4.54
998.256	-1.04
998.682	-0.14
999.108	-6.34
999.534	4.26
999.959	-2.94
1000.385	-2.14
1000.811	3.46
1001.236	-3.04
1001.662	-3.24
1002.087	-2.24
1002.513	-0.14
1002.938	1.26
1003.364	1.66
1003.789	1.26
1004.215	4.16
1004.64	-3.14
1005.066	4.76
1005.491	-0.24
1005.916	-0.04
1006.342	-4.24
1006.767	-5.84
1007.192	3.76
1007.617	-6.74
1008.042	-4.24
1008.468	-7.04
1008.893	-3.24
1009.318	3.66
1009.743	-2.84
1010.168	6.96
1010.593	1.26
1011.018	-5.64
1011.443	-1.84
1011.868	-1.64
1012.293	-9.24
1012.718	-5.74
1013.143	3.36
1013.567	1.66
1013.992	-0.24
1014.417	-10.94
1014.842	3.86
1015.267	-4.94
1015.691	-1.94
1016.116	8.66
1016.541	-6.44
1016.965	5.36
1017.39	1.16
1017.814	-0.74
1018.239	2.36
1018.663	-2.34
1019.088	-13.64
1019.512	-6.94
1019.937	-8.34
1020.361	-1.44
1020.785	-7.54
1021.21	7.06
1021.634	6.66
1022.058	3.16
1022.483	1.86
1022.907	-0.24
1023.331	-7.04
1023.755	2.96
1024.179	2.96
1024.604	-4.94
1025.028	0.86
1025.452	-5.24
1025.876	-2.74
1026.3	6.06
1026.724	-8.54
1027.148	-0.14
1027.572	-3.34
1027.996	-6.94
1028.42	-2.14
1028.843	-0.24
1029.267	-4.24
1029.691	-4.74
1030.115	-11.54
1030.539	-4.54
1030.962	-5.04
1031.386	-12.94
1031.81	1.66
1032.233	3.96
1032.657	-6.44
1033.08	2.66
1033.504	-0.34
1033.927	-1.34
1034.351	1.56
1034.774	-6.34
1035.198	-1.84
1035.621	-3.94
1036.045	-4.14
1036.468	5.26
1036.891	-7.74
1037.315	-8.54
1037.738	-4.84
1038.161	-1.34
1038.584	-1.54
1039.008	-4.04
1039.431	2.16
1039.854	-0.54
1040.277	-12.64
1040.7	-10.24
1041.123	0.36
1041.546	-10.64
1041.969	-4.74
1042.392	-8.84
1042.815	3.26
1043.238	5.46
1043.661	0.56
1044.084	-6.54
1044.507	0.76
1044.93	-0.44
1045.352	-3.34
1045.775	0.56
1046.198	-0.24
1046.621	-1.44
1047.043	2.36
1047.466	6.76
1047.889	-4.84
1048.311	-4.34
1048.734	-1.94
1049.156	-5.04
1049.579	2.16
1050.001	-1.44
1050.424	4.66
1050.846	-3.34
1051.269	-4.14
1051.691	-0.74
1052.113	-10.14
1052.536	-3.24
1052.958	-2.44
1053.38	-2.54
1053.802	-2.64
1054.225	-3.84
1054.647	-7.94
1055.069	-1.94
1055.491	3.26
1055.913	-7.44
1056.335	0.96
1056.757	-3.54
1057.179	-4.34
1057.601	-4.84
1058.023	-3.14
1058.445	-0.94
1058.867	-3.24
1059.289	-7.14
1059.711	-2.14
1060.133	-0.84
1060.555	2.56
1060.976	-6.44
1061.398	-3.04
1061.82	-5.24
1062.241	-2.14
1062.663	-5.24
1063.085	-6.34
1063.506	-0.04
1063.928	-0.94
1064.35	4.46
1064.771	-6.34
1065.193	-1.24
1065.614	-8.44
1066.035	0.46
1066.457	-4.24
1066.878	6.86
1067.3	-7.04
1067.721	-1.54
1068.142	1.16
1068.564	-4.74
1068.985	-4.44
1069.406	-4.44
1069.827	-2.94
1070.248	-1.14
1070.67	-5.04
1071.091	-3.44
1071.512	0.16
1071.933	-7.24
1072.354	1.36
1072.775	-2.14
1073.196	-6.54
1073.617	3.66
1074.038	-6.24
1074.459	-6.54
1074.88	-0.64
1075.3	3.16
1075.721	-2.44
1076.142	6.26
1076.563	1.96
1076.983	-7.44
1077.404	-7.14
1077.825	-7.34
1078.246	-2.54
1078.666	-7.94
1079.087	2.76
1079.507	-3.14
1079.928	-0.84
1080.348	-3.64
1080.769	-2.14
1081.189	3.36
1081.61	1.96
1082.03	-5.64
1082.451	-5.44
1082.871	-2.54
1083.291	-2.04
1083.711	-2.54
1084.132	-3.94
1084.552	-0.04
1084.972	4.86
1085.392	-7.74
1085.813	-8.04
1086.233	-10.24
1086.653	-2.54
1087.073	1.26
1087.493	-8.84
1087.913	-6.74
1088.333	-9.94
1088.753	-1.94
1089.173	0.56
1089.593	-2.54
1090.013	0.76
1090.433	1.06
1090.852	-7.64
1091.272	-1.94
1091.692	-3.34
1092.112	-3.94
1092.531	-5.24
1092.951	-7.34
1093.371	1.36
1093.79	9.16
1094.21	-3.24
1094.63	-11.74
1095.049	-2.94
1095.469	-4.24
1095.888	-1.64
1096.308	0.76
1096.727	4.06
1097.146	-6.04
1097.566	2.56
1097.985	-2.44
1098.405	-0.74
1098.824	-2.94
1099.243	-1.64
1099.662	-10.84
1100.082	-7.14
1100.501	1.96
1100.92	-3.74
1101.339	-1.74
1101.758	-5.94
