Data from 20171114-ORNL-Ar_H_NY_Subt18_08-03-50-597.txt Node
Date: Tue Nov 14 08:03:50 EST 2017
User: Ender
Spectrometer: HR+D1039
Trigger mode: 0
Integration Time (sec): 2.730000E-2
Scans to average: 10
Electric dark correction enabled: true
Nonlinearity correction enabled: false
Boxcar width: 0
XAxis mode: Wavelengths
Number of Pixels in Spectrum: 2048
>>>>>Begin Spectral Data<<<<<
187.836	-4.18
188.309	-4.18
188.782	-4.18
189.255	4.12
189.728	-3.77
190.201	10.72
190.674	2.12
191.147	2.22
191.619	-6.38
192.092	-0.98
192.565	-0.68
193.038	-0.28
193.511	0.62
193.984	1.02
194.456	-0.78
194.929	0.52
195.402	-1.68
195.874	-2.68
196.347	-3.78
196.82	-6.68
197.292	7.12
197.765	-2.18
198.237	-4.68
198.71	4.02
199.182	0.02
199.655	6.92
200.127	3.12
200.6	-1.48
201.072	1.72
201.544	-4.38
202.017	-1.08
202.489	1.22
202.961	0.73
203.433	-6.08
203.906	-1.38
204.378	-4.48
204.85	-6.68
205.322	-8.58
205.794	-7.38
206.266	-7.68
206.739	-7.28
207.211	7.62
207.683	-7.88
208.155	-2.78
208.627	-2.18
209.099	-1.48
209.57	-10.77
210.042	-5.08
210.514	-4.88
210.986	5.02
211.458	-10.28
211.93	-3.48
212.402	7.22
212.873	-9.98
213.345	-9.18
213.817	-12.68
214.288	-4.18
214.76	-10.78
215.232	-3.68
215.703	-0.68
216.175	-3.08
216.646	-3.78
217.118	-8.88
217.589	-7.88
218.061	-0.18
218.532	-6.68
219.004	-0.48
219.475	-2.98
219.946	-3.58
220.418	-7.48
220.889	0.12
221.36	-3.38
221.832	-3.18
222.303	-11.48
222.774	-0.18
223.245	-9.68
223.717	-5.18
224.188	-3.98
224.659	-7.98
225.13	-8.27
225.601	-4.28
226.072	0.82
226.543	-0.18
227.014	-0.28
227.485	-3.58
227.956	-4.38
228.427	-1.48
228.898	-1.68
229.369	6.22
229.839	-6.58
230.31	-3.78
230.781	9.42
231.252	-4.28
231.722	-6.98
232.193	-3.48
232.664	-1.08
233.135	-7.48
233.605	-0.68
234.076	-7.88
234.546	1.32
235.017	4.12
235.487	-1.98
235.958	-1.08
236.428	-4.78
236.899	-1.48
237.369	-0.27
237.84	-1.08
238.31	2.62
238.78	-1.18
239.251	-1.68
239.721	-0.68
240.191	0.02
240.662	0.12
241.132	-2.28
241.602	-7.38
242.072	-1.38
242.542	2.12
243.013	-6.08
243.483	-2.88
243.953	7.73
244.423	-7.88
244.893	-4.08
245.363	3.72
245.833	0.52
246.303	1.22
246.773	3.52
247.243	-0.38
247.712	-6.28
248.182	2.32
248.652	9.32
249.122	-6.08
249.592	-0.38
250.061	0.02
250.531	10.02
251.001	-9.08
251.471	11.42
251.94	6.42
252.41	0.92
252.879	-6.68
253.349	8.32
253.818	3.92
254.288	1.52
254.757	-5.48
255.227	-7.58
255.696	-2.48
256.166	5.73
256.635	4.82
257.105	2.42
257.574	-0.98
258.043	0.52
258.513	-2.28
258.982	2.02
259.451	-0.48
259.92	4.32
260.389	-1.98
260.859	10.42
261.328	-0.08
261.797	0.52
262.266	1.82
262.735	5.73
263.204	-0.58
263.673	0.22
264.142	3.42
264.611	-8.08
265.08	-7.08
265.549	-8.18
266.018	1.02
266.487	-6.58
266.955	-3.68
267.424	1.12
267.893	-0.18
268.362	-4.38
268.83	-1.48
269.299	6.02
269.768	1.42
270.236	3.32
270.705	0.12
271.174	5.62
271.642	2.92
272.111	-4.68
272.579	-0.58
273.048	-1.98
273.516	2.52
273.985	-0.78
274.453	5.42
274.922	8.62
275.39	1.52
275.858	0.82
276.327	4.32
276.795	10.22
277.263	2.32
277.731	10.12
278.2	-0.58
278.668	5.02
279.136	8.22
279.604	4.72
280.072	0.22
280.54	4.12
281.008	5.12
281.477	5.62
281.945	8.42
282.413	11.22
282.881	10.82
283.348	4.62
283.816	4.22
284.284	5.82
284.752	10.72
285.22	5.92
285.688	11.72
286.156	7.52
286.623	15.82
287.091	4.22
287.559	7.92
288.026	10.42
288.494	10.52
288.962	-2.68
289.429	1.62
289.897	13.42
290.364	8.52
290.832	5.52
291.3	10.82
291.767	8.42
292.234	5.02
292.702	8.72
293.169	7.82
293.637	16.92
294.104	7.12
294.571	4.72
295.039	2.12
295.506	9.62
295.973	10.42
296.44	9.32
296.908	10.12
297.375	15.12
297.842	17.02
298.309	15.32
298.776	8.32
299.243	14.62
299.71	9.42
300.177	17.02
300.644	9.42
301.111	10.42
301.578	12.72
302.045	9.52
302.512	17.72
302.979	18.12
303.446	18.72
303.913	9.32
304.379	13.62
304.846	17.73
305.313	10.32
305.78	17.92
306.246	15.72
306.713	17.12
307.18	19.52
307.646	17.12
308.113	16.62
308.579	7.92
309.046	19.42
309.512	21.32
309.979	10.92
310.445	14.92
310.912	17.42
311.378	28.22
311.845	22.02
312.311	25.02
312.777	23.32
313.244	25.82
313.71	25.72
314.176	20.12
314.642	24.72
315.109	23.72
315.575	21.62
316.041	28.32
316.507	23.02
316.973	27.52
317.439	24.12
317.905	26.92
318.371	28.82
318.837	32.12
319.303	24.22
319.769	25.02
320.235	22.32
320.701	28.42
321.167	27.22
321.633	24.52
322.099	25.12
322.564	33.12
323.03	30.62
323.496	30.02
323.962	32.23
324.427	27.42
324.893	37.72
325.359	27.22
325.824	30.02
326.29	27.72
326.755	35.52
327.221	33.12
327.686	30.02
328.152	32.82
328.617	34.42
329.083	38.12
329.548	41.82
330.014	39.62
330.479	28.22
330.944	39.82
331.41	38.02
331.875	35.92
332.34	32.72
332.805	31.82
333.271	38.82
333.736	27.12
334.201	43.23
334.666	38.92
335.131	43.42
335.596	46.82
336.061	39.12
336.526	34.12
336.991	36.23
337.456	55.02
337.921	40.12
338.386	38.92
338.851	44.22
339.316	38.52
339.781	38.72
340.246	47.72
340.711	47.12
341.175	42.22
341.64	39.42
342.105	44.02
342.569	43.42
343.034	47.52
343.499	47.52
343.963	46.23
344.428	56.32
344.893	53.62
345.357	55.92
345.822	53.32
346.286	59.32
346.751	56.73
347.215	59.92
347.679	53.82
348.144	75.62
348.608	68.82
349.073	56.02
349.537	60.72
350.001	67.92
350.465	72.82
350.93	71.42
351.394	67.52
351.858	62.82
352.322	74.42
352.786	68.62
353.25	83.72
353.715	90.22
354.179	86.42
354.643	98.12
355.107	101.42
355.571	84.52
356.035	87.62
356.498	93.72
356.962	102.52
357.426	103.12
357.89	90.32
358.354	80.52
358.818	70.12
359.281	76.82
359.745	72.92
360.209	77.02
360.673	67.82
361.136	72.73
361.6	75.62
362.064	80.52
362.527	73.72
362.991	85.92
363.454	71.82
363.918	71.32
364.381	72.32
364.845	81.62
365.308	90.02
365.772	82.42
366.235	78.02
366.698	80.02
367.162	84.82
367.625	83.62
368.088	79.42
368.552	87.42
369.015	82.32
369.478	91.22
369.941	97.92
370.404	94.62
370.867	95.12
371.331	94.22
371.794	98.72
372.257	94.32
372.72	100.92
373.183	92.12
373.646	90.92
374.109	86.52
374.572	92.52
375.035	99.32
375.497	100.82
375.96	99.52
376.423	97.82
376.886	111.73
377.349	102.82
377.811	102.72
378.274	100.02
378.737	103.02
379.199	103.62
379.662	104.12
380.125	104.02
380.587	102.62
381.05	103.02
381.512	111.92
381.975	119.52
382.437	117.32
382.9	113.02
383.362	118.52
383.825	128.62
384.287	121.32
384.75	115.22
385.212	118.32
385.674	122.02
386.136	124.73
386.599	116.42
387.061	121.62
387.523	116.22
387.985	118.42
388.447	136.52
388.91	121.52
389.372	125.02
389.834	118.52
390.296	124.22
390.758	126.72
391.22	133.62
391.682	140.92
392.144	151.12
392.606	141.02
393.068	146.62
393.529	152.62
393.991	141.62
394.453	135.42
394.915	129.42
395.377	135.82
395.838	133.32
396.3	139.02
396.762	140.73
397.224	138.52
397.685	134.42
398.147	132.12
398.608	137.62
399.07	136.22
399.531	139.92
399.993	143.23
400.454	158.02
400.916	143.42
401.377	149.02
401.839	156.72
402.3	152.42
402.762	167.62
403.223	184.42
403.684	177.62
404.145	166.72
404.607	162.52
405.068	162.92
405.529	171.72
405.99	177.72
406.451	168.82
406.913	175.22
407.374	157.22
407.835	165.52
408.296	168.32
408.757	170.92
409.218	180.72
409.679	180.12
410.14	173.62
410.601	176.52
411.062	184.32
411.522	177.72
411.983	185.22
412.444	176.12
412.905	190.73
413.366	190.02
413.826	201.52
414.287	231.02
414.748	270.52
415.208	259.02
415.669	219.22
416.13	214.32
416.59	211.52
417.051	223.52
417.511	224.72
417.972	257.43
418.432	265.42
418.893	309.12
419.353	266.43
419.814	206.12
420.274	192.52
420.734	190.72
421.195	207.52
421.655	194.12
422.115	201.72
422.576	198.62
423.036	205.92
423.496	212.92
423.956	223.62
424.416	234.72
424.876	272.32
425.336	268.02
425.797	259.42
426.257	259.42
426.717	244.73
427.177	234.33
427.637	227.12
428.097	232.12
428.556	241.52
429.016	267.82
429.476	262.12
429.936	266.43
430.396	274.32
430.856	276.62
431.315	302.92
431.775	339.92
432.235	366.12
432.694	342.92
433.154	346.52
433.614	366.92
434.073	319.02
434.533	283.62
434.993	261.22
435.452	265.72
435.912	273.12
436.371	278.62
436.83	265.32
437.29	253.62
437.749	236.42
438.209	237.62
438.668	259.72
439.127	262.72
439.587	250.93
440.046	244.42
440.505	255.23
440.964	263.72
441.424	293.73
441.883	287.42
442.342	254.12
442.801	225.62
443.26	222.02
443.719	228.12
444.178	219.42
444.637	221.62
445.096	222.42
445.555	229.12
446.014	229.23
446.473	231.72
446.932	236.82
447.391	238.32
447.849	236.73
448.308	226.12
448.767	227.92
449.226	242.73
449.685	243.42
450.143	250.42
450.602	244.22
451.061	227.52
451.519	229.62
451.978	236.62
452.436	232.52
452.895	238.02
453.353	248.12
453.812	239.32
454.27	231.62
454.729	239.23
455.187	232.92
455.646	243.02
456.104	242.22
456.562	249.92
457.021	256.32
457.479	250.82
457.937	262.92
458.395	259.42
458.854	250.22
459.312	248.72
459.77	256.72
460.228	249.82
460.686	238.52
461.144	248.82
461.602	243.42
462.06	250.62
462.518	259.12
462.976	260.52
463.434	258.42
463.892	253.92
464.35	274.82
464.808	281.42
465.266	266.22
465.724	268.43
466.181	280.92
466.639	269.62
467.097	282.62
467.555	293.33
468.012	293.62
468.47	308.22
468.928	316.42
469.385	337.43
469.843	338.72
470.3	332.52
470.758	344.12
471.215	355.62
471.673	369.92
472.13	379.23
472.588	394.92
473.045	368.73
473.503	374.02
473.96	383.82
474.417	395.42
474.875	411.32
475.332	436.83
475.789	441.92
476.246	445.82
476.704	462.52
477.161	474.22
477.618	492.62
478.075	531.12
478.532	571.92
478.989	620.42
479.446	709.62
479.903	692.82
480.36	735.32
480.817	782.32
481.274	863.82
481.731	940.82
482.188	1013.23
482.645	1130.12
483.102	1215.42
483.558	1327.42
484.015	1368.12
484.472	1352.92
484.929	1328.12
485.385	1277.12
485.842	1249.82
486.299	1197.83
486.755	1130.83
487.212	988.32
487.668	859.52
488.125	797.52
488.582	726.02
489.038	697.72
489.494	666.73
489.951	636.33
490.407	621.93
490.864	608.92
491.32	605.72
491.776	606.42
492.233	603.62
492.689	574.42
493.145	569.73
493.602	568.32
494.058	570.82
494.514	571.43
494.97	587.23
495.426	599.83
495.882	572.83
496.338	564.62
496.794	571.02
497.251	560.42
497.707	587.23
498.163	574.22
498.618	582.62
499.074	588.22
499.53	606.92
499.986	604.22
500.442	592.23
500.898	572.62
501.354	559.72
501.809	574.42
502.265	575.33
502.721	587.42
503.177	589.62
503.632	593.02
504.088	597.62
504.543	613.32
504.999	626.42
505.455	608.12
505.91	581.72
506.366	588.02
506.821	596.92
507.277	592.62
507.732	588.42
508.187	582.02
508.643	594.02
509.098	599.12
509.553	606.62
510.009	610.02
510.464	620.42
510.919	629.62
511.375	645.82
511.83	649.92
512.285	657.22
512.74	690.12
513.195	706.62
513.65	687.73
514.105	694.82
514.56	697.92
515.015	711.32
515.47	717.92
515.925	708.32
516.38	717.32
516.835	716.02
517.29	710.32
517.745	706.62
518.2	683.42
518.655	675.22
519.109	673.82
519.564	671.62
520.019	656.12
520.474	648.43
520.928	654.32
521.383	648.02
521.838	644.22
522.292	645.33
522.747	643.02
523.201	644.22
523.656	625.02
524.11	626.82
524.565	621.42
525.019	618.12
525.474	628.12
525.928	623.23
526.382	627.62
526.837	622.62
527.291	617.02
527.745	629.62
528.2	623.02
528.654	614.72
529.108	603.82
529.562	603.82
530.016	604.43
530.47	602.82
530.925	605.72
531.379	606.83
531.833	615.73
532.287	610.02
532.741	611.43
533.195	605.62
533.649	613.62
534.103	620.72
534.556	614.92
535.01	604.42
535.464	608.52
535.918	615.82
536.372	628.82
536.826	617.82
537.279	609.32
537.733	621.02
538.187	621.22
538.64	611.42
539.094	618.42
539.548	627.92
540.001	618.72
540.455	630.12
540.908	636.12
541.362	638.52
541.815	652.02
542.269	661.22
542.722	660.32
543.175	664.02
543.629	664.22
544.082	682.22
544.536	675.33
544.989	678.93
545.442	688.62
545.895	685.42
546.349	676.93
546.802	688.82
547.255	685.12
547.708	691.72
548.161	696.22
548.614	713.82
549.067	713.52
549.52	702.12
549.973	701.22
550.426	687.52
550.879	693.32
551.332	690.92
551.785	681.32
552.238	676.12
552.691	693.82
553.144	705.02
553.596	717.62
554.049	732.02
554.502	750.02
554.955	772.62
555.407	759.42
555.86	765.22
556.313	747.52
556.765	733.82
557.218	740.12
557.67	736.12
558.123	725.62
558.576	719.32
559.028	733.93
559.48	741.92
559.933	732.92
560.385	697.52
560.838	682.82
561.29	663.62
561.742	659.43
562.195	642.72
562.647	642.82
563.099	657.12
563.551	641.92
564.004	649.12
564.456	645.02
564.908	638.22
565.36	620.02
565.812	601.82
566.264	600.23
566.716	583.62
567.168	584.42
567.62	593.12
568.072	575.92
568.524	573.23
568.976	568.82
569.428	550.33
569.88	558.12
570.332	551.43
570.784	557.52
571.235	571.73
571.687	566.33
572.139	568.22
572.59	581.42
573.042	582.82
573.494	574.42
573.945	569.72
574.397	567.62
574.849	555.32
575.3	554.62
575.752	552.12
576.203	545.22
576.655	543.42
577.106	545.02
577.557	533.02
578.009	539.32
578.46	531.12
578.912	528.12
579.363	534.72
579.814	537.62
580.265	531.32
580.717	531.52
581.168	531.82
581.619	534.93
582.07	539.62
582.521	524.22
582.972	530.52
583.423	536.32
583.875	529.83
584.326	545.12
584.777	550.73
585.227	564.62
585.678	581.62
586.129	593.73
586.58	615.73
587.031	638.02
587.482	672.02
587.933	687.12
588.384	663.82
588.834	633.92
589.285	616.92
589.736	613.12
590.186	608.92
590.637	613.62
591.088	584.12
591.538	584.33
591.989	565.22
592.439	563.82
592.89	558.92
593.34	557.92
593.791	548.82
594.241	551.02
594.692	541.72
595.142	542.52
595.593	536.92
596.043	548.52
596.493	547.33
596.943	546.82
597.394	559.42
597.844	540.12
598.294	565.32
598.744	579.72
599.195	607.72
599.645	632.72
600.095	659.12
600.545	714.52
600.995	735.42
601.445	794.42
601.895	830.52
602.345	873.22
602.795	860.32
603.245	822.52
603.695	783.52
604.145	740.72
604.594	702.82
605.044	667.82
605.494	621.82
605.944	573.82
606.393	575.92
606.843	553.82
607.293	561.23
607.743	548.42
608.192	554.92
608.642	573.12
609.091	569.62
609.541	571.52
609.99	574.73
610.44	562.32
610.889	542.43
611.339	517.02
611.788	521.52
612.238	526.42
612.687	543.92
613.136	534.42
613.586	530.12
614.035	525.62
614.484	539.52
614.933	529.42
615.383	529.83
615.832	531.52
616.281	519.62
616.73	502.12
617.179	489.23
617.628	486.42
618.077	471.42
618.526	463.62
618.975	458.73
619.424	462.92
619.873	459.62
620.322	455.42
620.771	451.62
621.22	449.52
621.669	439.62
622.118	442.32
622.567	439.32
623.015	416.22
623.464	417.42
623.913	410.82
624.361	411.92
624.81	407.92
625.259	404.23
625.707	408.12
626.156	413.12
626.604	420.42
627.053	419.42
627.501	425.32
627.95	420.82
628.398	430.72
628.847	417.82
629.295	421.72
629.744	421.42
630.192	424.32
630.64	410.32
631.089	398.52
631.537	400.22
631.985	388.33
632.433	394.12
632.881	386.02
633.33	388.82
633.778	384.92
634.226	375.32
634.674	390.43
635.122	394.32
635.57	401.92
636.018	404.12
636.466	414.42
636.914	405.62
637.362	409.12
637.81	422.52
638.258	426.23
638.705	428.42
639.153	450.82
639.601	452.82
640.049	463.02
640.497	491.02
640.944	518.73
641.392	469.02
641.84	452.02
642.287	423.83
642.735	412.73
643.182	408.23
643.63	409.22
644.078	405.52
644.525	414.72
644.973	407.82
645.42	421.12
645.867	441.42
646.315	456.93
646.762	465.73
647.21	483.62
647.657	507.22
648.104	529.12
648.551	529.83
648.999	577.62
649.446	625.52
649.893	674.42
650.34	762.42
650.787	921.02
651.234	1123.93
651.682	1433.22
652.129	1918.32
652.576	2712.03
653.023	3931.42
653.47	5475.73
653.917	6895.32
654.363	8103.03
654.81	9197.73
655.257	8738.12
655.704	5787.93
656.151	3414.82
656.598	2233.92
657.044	1609.42
657.491	1238.42
657.938	994.92
658.385	842.12
658.831	734.32
659.278	650.92
659.724	578.62
660.171	544.92
660.618	499.42
661.064	468.62
661.511	456.83
661.957	439.82
662.404	423.02
662.85	441.82
663.296	423.52
663.743	399.72
664.189	374.32
664.635	386.22
665.082	365.92
665.528	380.23
665.974	357.62
666.42	366.32
666.867	348.82
667.313	337.02
667.759	334.02
668.205	318.92
668.651	318.73
669.097	310.12
669.543	306.92
669.989	312.02
670.435	322.32
670.881	309.62
671.327	314.22
671.773	333.52
672.219	347.82
672.665	385.52
673.11	410.82
673.556	451.52
674.002	481.83
674.448	480.92
674.893	400.22
675.339	345.92
675.785	314.42
676.23	293.52
676.676	283.33
677.122	276.12
677.567	265.82
678.013	262.02
678.458	253.83
678.904	256.23
679.349	246.22
679.794	256.42
680.24	245.12
680.685	243.52
681.131	251.12
681.576	246.32
682.021	254.22
682.466	240.23
682.912	237.62
683.357	252.52
683.802	262.52
684.247	292.22
684.692	314.32
685.137	343.22
685.583	377.02
686.028	403.12
686.473	367.52
686.918	316.02
687.363	297.62
687.807	279.82
688.252	262.42
688.697	257.32
689.142	233.92
689.587	231.73
690.032	226.32
690.477	238.12
690.921	240.42
691.366	264.32
691.811	285.02
692.255	307.83
692.7	329.42
693.145	347.32
693.589	471.92
694.034	771.42
694.478	1086.92
694.923	1278.32
695.367	1684.72
695.812	882.52
696.256	359.72
696.701	260.73
697.145	237.22
697.59	231.72
698.034	223.42
698.478	231.23
698.922	223.23
699.367	229.52
699.811	233.42
700.255	245.82
700.699	259.02
701.143	297.23
701.588	334.92
702.032	364.52
702.476	371.32
702.92	350.02
703.364	345.42
703.808	434.42
704.252	703.12
704.696	1017.23
705.14	1226.22
705.584	1576.12
706.027	774.82
706.471	379.02
706.915	273.92
707.359	247.92
707.803	226.02
708.246	217.82
708.69	220.02
709.134	219.42
709.577	217.22
710.021	219.73
710.465	214.73
710.908	205.72
711.352	208.22
711.795	214.02
712.239	244.72
712.682	261.82
713.126	285.12
713.569	323.52
714.012	256.12
714.456	213.52
714.899	199.02
715.342	193.23
715.786	174.32
716.229	186.12
716.672	179.72
717.115	172.72
717.558	178.12
718.002	169.02
718.445	179.72
718.888	196.73
719.331	199.93
719.774	207.02
720.217	211.72
720.66	201.42
721.103	193.82
721.546	180.82
721.989	172.02
722.432	154.42
722.874	165.72
723.317	161.12
723.76	168.82
724.203	183.12
724.645	211.22
725.088	294.32
725.531	393.02
725.974	466.42
726.416	383.12
726.859	213.52
727.301	176.22
727.744	161.73
728.187	160.73
728.629	164.72
729.071	174.22
729.514	176.32
729.956	186.73
730.399	182.72
730.841	201.12
731.283	191.52
731.726	181.82
732.168	181.32
732.61	183.32
733.053	197.02
733.495	211.32
733.937	241.32
734.379	279.42
734.821	307.33
735.263	373.92
735.705	558.82
736.148	1068.32
736.59	1813.72
737.032	2274.32
737.474	1852.82
737.916	589.12
738.357	301.12
738.799	229.02
739.241	209.82
739.683	191.92
740.125	205.82
740.567	210.22
741.008	228.52
741.45	222.92
741.892	222.52
742.334	249.12
742.775	263.12
743.217	257.72
743.658	188.52
744.1	181.82
744.542	183.32
744.983	225.83
745.425	253.12
745.866	258.42
746.307	200.72
746.749	196.42
747.19	219.73
747.632	292.23
748.073	582.42
748.514	1273.83
748.956	2033.42
749.397	2555.52
749.838	2134.32
750.279	2211.12
750.72	1126.62
751.162	394.22
751.603	225.92
752.044	181.52
752.485	150.42
752.926	147.42
753.367	144.52
753.808	139.62
754.249	130.82
754.69	130.32
755.131	127.42
755.572	122.32
756.013	121.82
756.453	126.22
756.894	130.82
757.335	128.82
757.776	132.52
758.216	134.62
758.657	131.02
759.098	136.52
759.538	152.32
759.979	186.82
760.42	249.12
760.86	466.62
761.301	1224.72
761.741	3096.72
762.182	4923.23
762.622	3486.03
763.063	984.53
763.503	384.62
763.943	236.42
764.384	200.82
764.824	179.92
765.264	178.92
765.705	153.12
766.145	130.72
766.585	119.42
767.025	117.02
767.465	110.62
767.906	130.92
768.346	142.92
768.786	154.02
769.226	148.72
769.666	206.72
770.106	400.72
770.546	1050.93
770.986	1936.42
771.426	1782.83
771.866	575.52
772.306	232.72
772.745	144.62
773.185	113.52
773.625	108.02
774.065	101.22
774.505	108.82
774.944	141.02
775.384	253.82
775.824	457.62
776.263	456.22
776.703	217.23
777.142	110.72
777.582	97.02
778.021	82.32
778.461	89.52
778.9	87.02
779.34	93.52
779.779	77.52
780.219	68.92
780.658	72.72
781.097	73.32
781.537	82.82
781.976	70.62
782.415	72.92
782.855	66.42
783.294	60.02
783.733	72.12
784.172	68.72
784.611	69.02
785.05	68.72
785.489	72.52
785.928	81.02
786.367	85.22
786.806	79.32
787.245	89.22
787.684	86.12
788.123	106.42
788.562	95.42
789.001	91.42
789.44	87.32
789.879	73.52
790.317	79.02
790.756	86.32
791.195	84.23
791.634	97.12
792.072	142.32
792.511	240.43
792.95	673.62
793.388	1538.02
793.827	1463.82
794.265	483.92
794.704	199.42
795.142	131.02
795.581	114.62
796.019	97.32
796.458	89.02
796.896	86.62
797.334	91.32
797.773	104.62
798.211	155.02
798.649	292.82
799.087	701.73
799.526	1132.62
799.964	1426.22
800.402	1519.12
800.84	562.92
801.278	220.52
801.716	135.42
802.154	113.32
802.592	101.52
803.03	93.73
803.468	77.73
803.906	101.22
804.344	109.32
804.782	102.32
805.22	100.02
805.658	83.22
806.096	97.23
806.533	108.02
806.971	125.12
807.409	158.72
807.847	212.32
808.284	447.12
808.722	1302.12
809.16	2448.32
809.597	2247.32
810.035	4015.12
810.472	4568.43
810.91	1626.22
811.347	595.12
811.785	301.52
812.222	187.82
812.66	138.12
813.097	119.52
813.535	97.82
813.972	90.12
814.409	82.32
814.846	76.12
815.284	71.92
815.721	67.82
816.158	70.12
816.595	75.02
817.032	111.62
817.47	140.62
817.907	105.72
818.344	60.52
818.781	71.82
819.218	62.02
819.655	89.52
820.092	148.22
820.529	174.92
820.966	131.62
821.403	93.82
821.839	70.32
822.276	63.42
822.713	92.72
823.15	104.82
823.587	78.22
824.023	97.72
824.46	191.73
824.897	606.83
825.333	1013.12
825.77	435.92
826.206	171.72
826.643	95.22
827.08	69.22
827.516	56.82
827.953	55.32
828.389	59.62
828.825	52.62
829.262	45.42
829.698	44.02
830.135	41.32
830.571	36.82
831.007	41.22
831.443	38.62
831.88	35.92
832.316	39.52
832.752	43.52
833.188	46.52
833.624	45.62
834.06	51.62
834.497	57.22
834.933	44.23
835.369	57.82
835.805	45.22
836.241	49.52
836.677	54.73
837.112	63.22
837.548	71.12
837.984	88.62
838.42	138.82
838.856	333.92
839.292	1077.22
839.727	1767.72
840.163	807.62
840.599	646.62
841.034	1480.62
841.47	1656.22
841.906	586.52
842.341	240.32
842.777	150.32
843.212	144.92
843.648	142.62
844.083	75.32
844.519	53.73
844.954	46.42
845.39	34.62
845.825	41.72
846.261	40.52
846.696	32.92
847.131	39.72
847.566	38.12
848.002	40.42
848.437	32.22
848.872	41.72
849.307	40.12
849.742	60.02
850.177	125.02
850.613	388.02
851.048	653.62
851.483	280.23
851.918	110.92
852.353	63.72
852.788	30.62
853.223	28.22
853.657	35.92
854.092	38.22
854.527	30.92
854.962	32.42
855.397	29.82
855.832	35.72
856.266	27.42
856.701	24.52
857.136	25.72
857.57	29.32
858.005	37.62
858.44	46.32
858.874	37.52
859.309	35.02
859.743	29.92
860.178	32.82
860.612	30.52
861.047	43.52
861.481	53.72
861.915	59.23
862.35	36.82
862.784	21.92
863.218	29.32
863.653	27.52
864.087	31.32
864.521	41.12
864.955	47.12
865.39	114.12
865.824	129.12
866.258	85.82
866.692	133.12
867.126	149.52
867.56	90.02
867.994	42.52
868.428	24.52
868.862	31.02
869.296	37.32
869.73	41.72
870.164	41.62
870.598	41.52
871.031	24.92
871.465	23.92
871.899	27.32
872.333	17.12
872.766	17.62
873.2	15.12
873.634	23.42
874.067	15.92
874.501	20.02
874.935	26.52
875.368	22.62
875.802	16.62
876.235	19.82
876.669	13.72
877.102	14.82
877.535	15.23
877.969	14.42
878.402	16.82
878.836	10.92
879.269	12.82
879.702	13.42
880.135	19.02
880.569	15.92
881.002	17.23
881.435	12.22
881.868	8.42
882.301	15.02
882.734	5.42
883.167	14.02
883.601	12.92
884.034	7.52
884.467	9.52
884.899	15.42
885.332	13.52
885.765	9.52
886.198	10.82
886.631	11.62
887.064	14.22
887.497	12.72
887.929	17.82
888.362	8.82
888.795	14.62
889.228	15.82
889.66	13.12
890.093	15.62
890.526	8.22
890.958	9.82
891.391	7.23
891.823	17.12
892.256	13.42
892.688	9.32
893.121	11.02
893.553	9.92
893.985	10.52
894.418	10.92
894.85	8.22
895.282	10.82
895.715	10.92
896.147	7.12
896.579	14.22
897.011	8.92
897.444	14.92
897.876	2.12
898.308	12.82
898.74	11.12
899.172	7.32
899.604	14.02
900.036	13.52
900.468	15.02
900.9	11.02
901.332	11.42
901.764	1.22
902.196	12.82
902.628	7.62
903.06	10.92
903.491	22.02
903.923	16.02
904.355	16.82
904.787	16.92
905.218	17.12
905.65	10.02
906.082	12.22
906.513	10.02
906.945	14.82
907.376	10.72
907.808	13.32
908.239	15.82
908.671	16.92
909.102	22.72
909.534	15.62
909.965	36.32
910.397	61.92
910.828	231.32
911.259	371.32
911.691	161.32
912.122	83.42
912.553	38.32
912.984	26.62
913.415	18.82
913.847	20.82
914.278	6.52
914.709	10.72
915.14	14.02
915.571	12.62
916.002	7.12
916.433	14.52
916.864	8.52
917.295	4.32
917.726	16.12
918.157	12.72
918.587	17.92
919.018	16.52
919.449	16.23
919.88	12.62
920.311	19.62
920.741	29.92
921.172	120.32
921.603	115.22
922.033	50.72
922.464	32.62
922.895	12.82
923.325	14.32
923.756	10.22
924.186	5.02
924.617	11.42
925.047	12.82
925.478	15.22
925.908	12.42
926.338	5.12
926.769	7.92
927.199	8.62
927.629	4.92
928.06	5.62
928.49	10.52
928.92	3.72
929.35	11.52
929.78	6.32
930.21	3.72
930.641	-1.48
931.071	8.42
931.501	0.92
931.931	10.32
932.361	7.02
932.791	-0.98
933.221	-0.98
933.651	-1.77
934.08	12.02
934.51	25.12
934.94	4.72
935.37	6.92
935.8	7.42
936.229	5.32
936.659	6.42
937.089	3.12
937.519	13.12
937.948	19.22
938.378	13.12
938.807	4.72
939.237	10.32
939.666	4.62
940.096	-3.68
940.525	2.12
940.955	-1.58
941.384	-1.98
941.814	-6.48
942.243	-3.68
942.672	7.02
943.102	-3.38
943.531	-4.78
943.96	5.62
944.39	1.12
944.819	-1.58
945.248	2.62
945.677	6.82
946.106	2.42
946.535	4.32
946.964	3.32
947.393	-2.28
947.822	-4.18
948.251	-6.48
948.68	6.23
949.109	8.52
949.538	-0.18
949.967	3.72
950.396	1.12
950.825	-2.68
951.254	-0.48
951.682	-6.38
952.111	-4.28
952.54	6.82
952.969	-7.58
953.397	-3.48
953.826	0.22
954.254	-2.48
954.683	-0.88
955.112	1.32
955.54	0.12
955.969	1.72
956.397	5.02
956.826	-1.08
957.254	3.73
957.682	0.32
958.111	6.22
958.539	5.52
958.967	-0.38
959.396	-4.38
959.824	1.62
960.252	3.42
960.68	-6.58
961.109	-0.88
961.537	-6.88
961.965	-1.28
962.393	4.32
962.821	-3.77
963.249	4.12
963.677	-0.98
964.105	2.42
964.533	29.62
964.961	26.92
965.389	11.82
965.817	6.72
966.245	-3.98
966.672	0.82
967.1	-10.58
967.528	-3.88
967.956	0.23
968.383	2.82
968.811	-0.28
969.239	-1.48
969.666	-5.98
970.094	-2.48
970.522	-0.68
970.949	-0.38
971.377	-7.08
971.804	-3.38
972.232	-8.28
972.659	2.02
973.087	-3.08
973.514	0.72
973.941	0.22
974.369	3.32
974.796	3.23
975.223	-1.18
975.651	-4.58
976.078	0.42
976.505	-0.68
976.932	-3.88
977.359	21.62
977.786	8.42
978.214	0.22
978.641	-7.38
979.068	-2.38
979.495	-5.28
979.922	-0.48
980.349	1.22
980.776	1.12
981.202	3.02
981.629	-1.28
982.056	3.72
982.483	-6.28
982.91	1.52
983.337	-5.28
983.763	1.32
984.19	-3.88
984.617	-6.68
985.043	-6.18
985.47	-0.18
985.897	-3.98
986.323	-6.98
986.75	0.23
987.176	3.52
987.603	-0.68
988.029	-0.08
988.456	-5.08
988.882	6.52
989.308	-5.38
989.735	-2.48
990.161	5.12
990.587	-5.58
991.014	0.02
991.44	3.32
991.866	-0.27
992.292	-1.48
992.719	-0.28
993.145	2.82
993.571	-4.48
993.997	-3.38
994.423	-4.38
994.849	-0.58
995.275	3.82
995.701	3.52
996.127	-4.68
996.553	7.72
996.979	-3.68
997.405	-4.27
997.83	0.32
998.256	-5.28
998.682	-4.38
999.108	-10.88
999.534	-3.68
999.959	-0.38
1000.385	-2.68
1000.811	-2.38
1001.236	-6.88
1001.662	-4.78
1002.087	-7.27
1002.513	2.92
1002.938	3.52
1003.364	-0.77
1003.789	-4.28
1004.215	8.02
1004.64	-6.18
1005.066	8.22
1005.491	-5.48
1005.916	-2.08
1006.342	-1.48
1006.767	-7.18
1007.192	0.72
1007.617	-12.48
1008.042	-7.18
1008.468	-11.08
1008.893	-1.18
1009.318	-7.48
1009.743	1.12
1010.168	-3.28
1010.593	4.82
1011.018	-9.28
1011.443	-6.38
1011.868	-1.38
1012.293	-1.58
1012.718	-0.08
1013.143	2.82
1013.567	1.42
1013.992	-4.68
1014.417	-13.98
1014.842	5.22
1015.267	-0.28
1015.691	-3.78
1016.116	3.12
1016.541	0.32
1016.965	1.02
1017.39	4.92
1017.814	4.42
1018.239	2.22
1018.663	-9.78
1019.088	-14.68
1019.512	-1.98
1019.937	-0.58
1020.361	-3.98
1020.785	-14.48
1021.21	0.22
1021.634	0.92
1022.058	-1.38
1022.483	4.72
1022.907	-5.88
1023.331	-3.38
1023.755	-4.38
1024.179	-0.28
1024.604	-4.38
1025.028	-3.68
1025.452	-5.08
1025.876	1.32
1026.3	0.72
1026.724	-5.78
1027.148	-3.18
1027.572	-12.48
1027.996	-4.28
1028.42	-0.08
1028.843	-2.18
1029.267	-3.18
1029.691	1.02
1030.115	-9.08
1030.539	-3.38
1030.962	-12.08
1031.386	-10.27
1031.81	-1.27
1032.233	0.62
1032.657	1.52
1033.08	-2.38
1033.504	-3.88
1033.927	-5.77
1034.351	0.52
1034.774	-3.78
1035.198	5.52
1035.621	-4.98
1036.045	-10.78
1036.468	-1.88
1036.891	-12.28
1037.315	-5.08
1037.738	-8.18
1038.161	-2.68
1038.584	-3.68
1039.008	-3.58
1039.431	-3.28
1039.854	-3.68
1040.277	-7.68
1040.7	-15.18
1041.123	1.42
1041.546	-5.18
1041.969	0.12
1042.392	-4.28
1042.815	-1.08
1043.238	0.62
1043.661	4.82
1044.084	-7.48
1044.507	-9.48
1044.93	-4.88
1045.352	-2.78
1045.775	1.32
1046.198	-4.38
1046.621	-2.88
1047.043	-1.08
1047.466	4.22
1047.889	-5.78
1048.311	-7.78
1048.734	-3.28
1049.156	-5.88
1049.579	0.52
1050.001	-4.78
1050.424	-0.18
1050.846	-8.28
1051.269	-5.68
1051.691	-5.58
1052.113	-12.08
1052.536	1.72
1052.958	-7.38
1053.38	-2.68
1053.802	-12.98
1054.225	-1.28
1054.647	-9.98
1055.069	-4.38
1055.491	-1.08
1055.913	-11.18
1056.335	0.12
1056.757	-9.28
1057.179	-10.38
1057.601	-4.38
1058.023	-5.68
1058.445	-6.08
1058.867	-0.98
1059.289	-4.78
1059.711	-5.27
1060.133	2.02
1060.555	-6.18
1060.976	-11.48
1061.398	-10.48
1061.82	-10.18
1062.241	-5.08
1062.663	-6.08
1063.085	0.42
1063.506	-5.18
1063.928	-3.98
1064.35	0.72
1064.771	-8.88
1065.193	-7.48
1065.614	-5.28
1066.035	1.02
1066.457	-1.78
1066.878	-0.68
1067.3	-9.38
1067.721	3.92
1068.142	-2.58
1068.564	-0.78
1068.985	-1.88
1069.406	-5.08
1069.827	-4.68
1070.248	0.22
1070.67	-6.28
1071.091	-10.88
1071.512	-4.38
1071.933	-7.48
1072.354	-11.88
1072.775	-8.58
1073.196	-13.08
1073.617	-5.88
1074.038	-3.18
1074.459	-1.88
1074.88	-5.28
1075.3	8.62
1075.721	-2.18
1076.142	5.32
1076.563	-1.98
1076.983	-13.78
1077.404	-11.58
1077.825	-11.18
1078.246	-5.18
1078.666	-4.18
1079.087	-6.88
1079.507	-8.88
1079.928	-0.48
1080.348	-5.27
1080.769	-6.28
1081.189	3.42
1081.61	-5.28
1082.03	-7.28
1082.451	-4.38
1082.871	-3.88
1083.291	-6.88
1083.711	-9.28
1084.132	0.12
1084.552	-0.68
1084.972	-0.28
1085.392	-7.08
1085.813	-10.48
1086.233	-4.38
1086.653	-8.18
1087.073	-5.98
1087.493	-1.78
1087.913	-3.48
1088.333	-6.48
1088.753	-6.88
1089.173	9.62
1089.593	-1.18
1090.013	-3.18
1090.433	-3.08
1090.852	-4.28
1091.272	-0.08
1091.692	-1.48
1092.112	-1.28
1092.531	-11.08
1092.951	-7.58
1093.371	2.22
1093.79	1.42
1094.21	-5.08
1094.63	-5.88
1095.049	-9.68
1095.469	-5.38
1095.888	2.02
1096.308	0.62
1096.727	6.32
1097.146	-5.98
1097.566	-0.18
1097.985	-4.18
1098.405	1.32
1098.824	-5.58
1099.243	-5.58
1099.662	-4.88
1100.082	-3.77
1100.501	-3.18
1100.92	-5.98
1101.339	-4.28
1101.758	-4.27
